,EMG1,EMG2,EMG3,EMG4,EMG5,EMG6,EMG7,EMG8,EMG9,EMG10,EMG11,EMG12,EMG13,EMG14,EMG15,EMG16
0,2.2872171001944016e-07,1.3080312611826798e-08,2.1148110638842877e-07,3.937934711800755e-07,3.756673913859009e-07,-2.304159138580152e-08,-4.5565279857272984e-08,4.890949975913412e-07,1.5032149805421021e-06,-1.2605113043889331e-06,8.184323908145197e-08,5.854197164556826e-07,2.2772933638224108e-07,4.387628981098044e-07,4.891891009774605e-07,6.102866179243696e-08
1,3.6069148109428065e-07,1.4933338198966306e-07,3.421123750736613e-07,5.465082694830187e-07,5.071347745491069e-07,1.5773000170072283e-07,1.1636353803973621e-07,5.354292712648633e-07,1.656004041881383e-06,9.316841117931422e-07,1.3787586342870742e-07,7.24507110732082e-07,3.9994210220009557e-07,7.25595565948588e-07,7.090309196318577e-07,1.9340821115317834e-07
2,4.924877084552561e-07,2.836158814710693e-07,4.7033317508024275e-07,6.964453501834888e-07,6.384505906269391e-07,3.3696689849996427e-07,2.721715763790598e-07,5.828570950783835e-07,1.8186556079765636e-06,3.01778080775978e-06,1.9366769752414878e-07,8.660218541589512e-07,5.756395536950085e-07,1.0263441258485552e-06,9.461397512592533e-07,3.32277227112551e-07
3,6.228453444256139e-07,4.1347762509611387e-07,5.936177428650569e-07,8.421401249034211e-07,7.691308577796226e-07,5.129792487635891e-07,4.2021922548424454e-07,6.313631370627911e-07,1.989503413085606e-06,4.97253294866021e-06,2.4859300649327353e-07,1.009237951862041e-06,7.525653919548377e-07,1.3407828776772689e-06,1.201514551326598e-06,4.77937257657778e-07
4,7.50929135681843e-07,5.367553647500546e-07,7.101478838752488e-07,9.820520498774993e-07,8.987346590278351e-07,6.845375038125009e-07,5.594479550497832e-07,6.808401440492383e-07,2.1665987170165405e-06,6.77065617561116e-06,3.0206035118590705e-07,1.153546374520153e-06,9.284861631222201e-07,1.668870107154079e-06,1.4764460573229553e-06,6.307943000106141e-07
5,8.762746022495812e-07,6.517642757101922e-07,8.187237001200274e-07,1.1146589960003676e-06,1.0267949320414204e-06,8.508702381446993e-07,6.893317127107276e-07,7.31103824059352e-07,2.3477166798746484e-06,8.38744152082303e-06,3.5350086146862525e-07,1.2984245526844706e-06,1.1013042204936707e-06,2.010602037968746e-06,1.772344839035935e-06,7.912427724095079e-07
6,9.985776204507187e-07,7.574924369925824e-07,9.185823596369452e-07,1.2385994826862571e-06,1.1527508099299704e-06,1.0114979513213769e-06,8.097336299553276e-07,7.819895529830098e-07,2.530519123971105e-06,9.801399082861804e-06,4.02392847007089e-07,1.4434565869798808e-06,1.2693808486604228e-06,2.365847818915635e-06,2.0904757215526764e-06,9.595897407652146e-07
7,1.1175287750891146e-06,8.536899281403476e-07,1.0092962831834305e-06,1.3528099733483909e-06,1.2758883544263498e-06,1.1660247885577835e-06,9.207851939900734e-07,8.334862160250229e-07,2.7128885330767256e-06,1.0998775146173132e-05,4.483092825757236e-07,1.5883106121001706e-06,1.4318773571152798e-06,2.7342552743318133e-06,2.431809041957042e-06,1.1360416162509127e-06
8,1.2327533993123855e-06,9.407272685628398e-07,1.0907097421296782e-06,1.4566379389315486e-06,1.395293072182509e-06,1.3140379656301898e-06,1.0227688945833582e-06,8.857644347442434e-07,2.8931922236916227e-06,1.1977415606152636e-05,4.909077531633076e-07,1.7325987445837586e-06,1.5887793608034326e-06,3.1153094000505643e-06,2.7969978950190516e-06,1.320724003994448e-06
9,1.3438126915245215e-06,1.0192827527716517e-06,1.1628608306488166e-06,1.5498960330382148e-06,1.5098835018737146e-06,1.455165750067749e-06,1.1160499990334847e-06,9.390987589411456e-07,3.070209333381938e-06,1.2747533668755295e-05,5.298802527549293e-07,1.8757467915760342e-06,1.7405576425213039e-06,3.5085297207098464e-06,3.186369666407947e-06,1.5137234869128528e-06
10,1.4502399692590635e-06,1.09008560324777e-06,1.225894824188063e-06,1.6327915119203516e-06,1.6185454115420803e-06,1.589194568665476e-06,1.2011712747635286e-06,9.938029963777616e-07,3.2427334482808195e-06,1.332960697064659e-05,5.649341096638373e-07,2.0170283540830885e-06,1.8877576207318125e-06,3.913555589860006e-06,3.599930035997832e-06,1.7151200045700564e-06
11,1.551544401701597e-06,1.153805671649152e-06,1.280003781290203e-06,1.7057175973182815e-06,1.7202643349345608e-06,1.7161644264147748e-06,1.2790109388751587e-06,1.050184423136827e-06,3.4091656798920752e-06,1.3751123234030218e-05,5.958158560809068e-07,2.155714541322789e-06,2.0307822687332596e-06,4.330009252747607e-06,4.037379905022059e-06,1.9249627904758645e-06
12,1.6471184835247703e-06,1.2109898410846127e-06,1.3254696698606742e-06,1.769012160754729e-06,1.814162531114916e-06,1.8364652312942445e-06,1.3507577848058411e-06,1.1084983371790213e-06,3.5674180634401923e-06,1.404329747521154e-05,6.22368528281265e-07,2.2911720748008247e-06,2.1698471159728947e-06,4.757420415294771e-06,4.498014693382917e-06,2.1432247820598014e-06
13,1.736156167356581e-06,1.2619995103685073e-06,1.362759845030747e-06,1.8228344852542435e-06,1.899467481888709e-06,1.9509268530849923e-06,1.4176828877800492e-06,1.1689208560359326e-06,3.7150528506132845e-06,1.4238179001644182e-05,6.44585407838722e-07,2.422818526954376e-06,2.3049983761118803e-06,5.195391685077318e-06,4.980476656124822e-06,2.3697472313901542e-06
14,1.8177604340036317e-06,1.3070031737907585e-06,1.392498372080098e-06,1.8672039131177028e-06,1.9755146390614758e-06,2.0608224912034033e-06,1.4809175995443788e-06,1.2315090364491707e-06,3.8494190038083485e-06,1.4366776824941907e-05,6.625887182660778e-07,2.5499796558441896e-06,2.4361996132168013e-06,5.6438208636025505e-06,5.482540716285609e-06,2.6040987832000553e-06
15,1.8911860239811744e-06,1.3460709356026534e-06,1.415368268639208e-06,1.9020855655879328e-06,2.0418438966429498e-06,2.167748977822035e-06,1.5413727681202891e-06,1.296158337861757e-06,3.9680092452728254e-06,1.4458583041326395e-05,6.76548662464988e-07,2.6717695566559157e-06,2.563465684112318e-06,6.102972301685186e-06,6.001076890959377e-06,2.845404324501972e-06
16,1.955942212182704e-06,1.3793613762614345e-06,1.432146110018156e-06,1.927385016196392e-06,2.098337073295229e-06,2.2734465704901672e-06,1.5997911721068522e-06,1.362592709362595e-06,4.069291593265313e-06,1.4541591902397167e-05,6.866625043549451e-07,2.7870764656154165e-06,2.6869380634741082e-06,6.573285282990578e-06,6.532111644895797e-06,3.0922551214515496e-06
17,2.011689323834933e-06,1.4073115695948393e-06,1.4438071748856875e-06,1.942884725541348e-06,2.14528057512274e-06,2.3796113182718745e-06,1.6568522290050172e-06,1.4303413774508127e-06,4.153482187943427e-06,1.464178998078362e-05,6.93229962856357e-07,2.89466165322562e-06,2.806853729290259e-06,7.054882498132339e-06,7.070801316765034e-06,3.342647008282866e-06
18,2.0582029096173476e-06,1.4307191545863644e-06,1.4515028611963828e-06,1.9482891373637358e-06,2.1832978665181296e-06,2.487707579390509e-06,1.7131932167034699e-06,1.4986886012006687e-06,4.2225359313794485e-06,1.4782403881073027e-05,6.967006312924194e-07,2.9933559516043775e-06,2.9234438572020474e-06,7.546951371130642e-06,7.61124312797709e-06,3.59388830160307e-06
19,2.095502440876748e-06,1.4506565405360211e-06,1.4563970832267933e-06,1.9433926127382644e-06,2.2131992647980237e-06,2.5988582282028783e-06,1.7693027829389801e-06,1.5666928916773988e-06,4.2794143972844376e-06,1.4983516337397204e-05,6.976151350177272e-07,3.08234091964403e-06,3.0368130822212536e-06,8.047299593916291e-06,8.146188394132357e-06,3.842530883914714e-06
20,2.123874885081169e-06,1.4682584057949724e-06,1.4594835755663535e-06,1.9281984336167337e-06,2.2358003125181962e-06,2.713872294153453e-06,1.825408591741671e-06,1.6333361371851845e-06,4.327270066599942e-06,1.526203073975206e-05,6.96554722622701e-07,3.161457574616146e-06,3.1468483699190486e-06,8.552163093727253e-06,8.666770485040836e-06,4.084357431646339e-06
21,2.1437175527404034e-06,1.4845395799971603e-06,1.4614709083247211e-06,1.9029488551407514e-06,2.2517195750335767e-06,2.833299224012919e-06,1.8815000718229167e-06,1.69769639379223e-06,4.369025371126227e-06,1.563181025590883e-05,6.942089637551405e-07,3.2313862560370596e-06,3.253145118163338e-06,9.056077442190474e-06,9.162370650308709e-06,4.314444119986164e-06
22,2.155420035907944e-06,1.500330821335622e-06,1.4627524682946213e-06,1.8682068420602253e-06,2.2612310573057145e-06,2.9573974874416567e-06,1.9375203587111058e-06,1.7589763558766263e-06,4.4073387341356865e-06,1.6103820982019968e-05,6.914646687670222e-07,3.2935343430046393e-06,3.354917432877987e-06,9.55174878886931e-06,9.620736669073029e-06,4.527368437443023e-06
23,2.1593296024646783e-06,1.516247052066774e-06,1.4634526545607352e-06,1.8250111095061192e-06,2.2643054513463256e-06,3.086056282767779e-06,1.993595319516808e-06,1.8164059466474928e-06,4.444613582758643e-06,1.6686063743127922e-05,6.894123112603652e-07,3.3496986001964044e-06,3.451080022780753e-06,1.0030160612399339e-05,1.002853594254041e-05,4.717602958691863e-06
24,2.1557642617675165e-06,1.532654933992886e-06,1.463509321348873e-06,1.7749182021956272e-06,2.2608097834474524e-06,3.218759681337712e-06,2.050075917423523e-06,1.8691760930976483e-06,4.482820455937111e-06,1.7383257222304958e-05,6.893413849454296e-07,3.4017827408988166e-06,3.5407158988071992e-06,1.0481235772416366e-05,1.0372578527546346e-05,4.880083581724006e-06
25,2.145131533730492e-06,1.549728770084378e-06,1.4627205980997283e-06,1.7197962244567088e-06,2.2506319564566384e-06,3.354628338895569e-06,2.1073338119705105e-06,1.916422390912049e-06,4.523317608521876e-06,1.8196416652160588e-05,6.927392637612688e-07,3.451680716030526e-06,3.6236720897317136e-06,1.0895078861616691e-05,1.0641614871717891e-05,5.010847647672307e-06
26,2.128013579336415e-06,1.5675828481599046e-06,1.460779742480451e-06,1.6614864192769023e-06,2.233662923617525e-06,3.492502145740991e-06,2.1654996183746545e-06,1.9572509318777958e-06,4.566851829452747e-06,1.9122530613853587e-05,7.012027336741923e-07,3.501155996542921e-06,3.7007351617155895e-06,1.126332051221684e-05,1.0827961206221742e-05,5.107396750184313e-06
27,2.105062937528469e-06,1.586335417043694e-06,1.457433762575156e-06,1.6015622890690014e-06,2.20985369785716e-06,3.631009326910781e-06,2.224332232558518e-06,1.9909136869427538e-06,4.6136056825943065e-06,2.015437426670997e-05,7.163180999976582e-07,3.551626156268216e-06,3.7732351184849275e-06,1.1579973890336597e-05,1.0927867021140185e-05,5.1684283406014826e-06
28,2.076846734615018e-06,1.6060514786608383e-06,1.4527553944122247e-06,1.541289161180959e-06,2.179427790514646e-06,3.768637701109663e-06,2.283230515407405e-06,2.0170923035511595e-06,4.6633221552259536e-06,2.128026336179363e-05,7.396531547729047e-07,3.603972011625106e-06,3.842556695720144e-06,1.1841563692267687e-05,1.0940263814339725e-05,5.193227778915564e-06
29,2.043780131434394e-06,1.6266725666637433e-06,1.4472743460661482e-06,1.4817093833095298e-06,2.1430785110583525e-06,3.9038757577128935e-06,2.3413326841534514e-06,2.036082260153695e-06,4.715664478875174e-06,2.2483667692805194e-05,7.728953428223037e-07,3.658488973320029e-06,3.9099823046494515e-06,1.2046555582781002e-05,1.0865234574771678e-05,5.181555119457987e-06
30,2.0062030834003283e-06,1.6480076447681864e-06,1.4418167621396945e-06,1.4237091113098785e-06,2.1020315805807713e-06,4.035375124317041e-06,2.3976546932569007e-06,2.048749377478491e-06,4.770516165248572e-06,2.374296438910792e-05,8.180443414977067e-07,3.714987535597512e-06,3.976644689145952e-06,1.2194262597949715e-05,1.0704032076823376e-05,5.134198792062708e-06
31,1.964590843468873e-06,1.6697326382111442e-06,1.4372655700216565e-06,1.368022464446869e-06,2.0579554494182095e-06,4.16192097136657e-06,2.4512070548117755e-06,2.056265577898152e-06,4.8278568235140556e-06,2.503201501851625e-05,8.774972786708893e-07,3.7729646087622437e-06,4.043310022312153e-06,1.2283565335210651e-05,1.0460462441499163e-05,5.053426699448925e-06
32,1.919641727666929e-06,1.6913934617399162e-06,1.4344818300984089e-06,1.315268571541325e-06,2.0127417625811115e-06,4.282112763033376e-06,2.5011032625287343e-06,2.059779564897894e-06,4.887419478878658e-06,2.6322401622154204e-05,9.539470622874702e-07,3.831810872292169e-06,4.110150133636276e-06,1.2311947806816235e-05,1.01418251206952e-05,4.94283472360695e-06
33,1.8720965507595518e-06,1.712512089816582e-06,1.4343108865390993e-06,1.2660570747152198e-06,1.9682603641653778e-06,4.394005299755862e-06,2.546731126069833e-06,2.06021639675678e-06,4.9485380217591625e-06,2.7587087094504133e-05,1.0501887096394279e-06,3.891110681083103e-06,4.176643800023032e-06,1.227564240321883e-05,9.75850028072363e-06,4.806878033248575e-06
34,1.8225695292093182e-06,1.732778499735229e-06,1.4375257336142307e-06,1.2210369599984585e-06,1.9261886725901277e-06,4.495076015068726e-06,2.58791907336756e-06,2.058210953300592e-06,5.010282749614999e-06,2.8803450164314288e-05,1.1689812533299852e-06,3.950978203947536e-06,4.24156078713375e-06,1.2171343716540438e-05,9.32268723953097e-06,4.650469620405144e-06
35,1.7716152503119819e-06,1.7521504096338743e-06,1.4447324783365584e-06,1.1808141399346506e-06,1.8879186330853342e-06,4.582631877567556e-06,2.624902803800675e-06,2.05407462851695e-06,5.071732520122774e-06,2.995367161178393e-05,1.3130375354365913e-06,4.012249523459584e-06,4.303078939561749e-06,1.1998630706396226e-05,8.847051509573615e-06,4.478673578246259e-06
36,1.7198919769033576e-06,1.7707681610599507e-06,1.4563031456476524e-06,1.1458421744620694e-06,1.8545251046987878e-06,4.654476167656544e-06,2.6580569325805653e-06,2.0477928650275035e-06,5.13213612522814e-06,3.1022680140248445e-05,1.4850943890714539e-06,4.076509959905155e-06,4.359060680659223e-06,1.1761552269883386e-05,8.343691367734863e-06,4.296372937244961e-06
37,1.6682304943594251e-06,1.7887734676488807e-06,1.4723508453412573e-06,1.116384086917663e-06,1.8268206292485085e-06,4.709516731151357e-06,2.6876301916010654e-06,2.0391366189590316e-06,5.190742851679595e-06,3.199556600175483e-05,1.687943293536227e-06,4.146097466549797e-06,4.4073129173280045e-06,1.1468558166141634e-05,7.82349290632169e-06,4.107918051059648e-06
38,1.6175690012831916e-06,1.8061594533824523e-06,1.492755900693666e-06,1.0925305411271293e-06,1.8055127923512041e-06,4.7479895258329605e-06,2.7137453439283775e-06,2.0279073919913584e-06,5.246393762956673e-06,3.285608882423655e-05,1.9243824885433222e-06,4.224100733126294e-06,4.445682138181224e-06,1.1130988503286392e-05,7.295783616019209e-06,3.91688068795477e-06
39,1.5687948419997182e-06,1.8227487134044734e-06,1.5172259871157341e-06,1.0742483965674132e-06,1.7913555241991935e-06,4.7711517025441565e-06,2.7366141110497922e-06,2.014115338196732e-06,5.2973571799297255e-06,3.358639276263068e-05,2.197146887763704e-06,4.314240144595757e-06,4.4720455000890715e-06,1.0760965918409134e-05,6.768266033034255e-06,3.7260008812984124e-06
40,1.5225965838966547e-06,1.8383540374252725e-06,1.5453366407880451e-06,1.0614341890374848e-06,1.7851255049612867e-06,4.780609083677881e-06,2.7566261865885336e-06,1.997890064747544e-06,5.34171208830525e-06,3.416672532298784e-05,2.508839555612811e-06,4.420623680301847e-06,4.4842618136811744e-06,1.0369662678809733e-05,6.247203907522079e-06,3.5372669120475243e-06
41,1.4794377351359547e-06,1.8529785254448198e-06,1.5765378527884805e-06,1.053925391667472e-06,1.787474788446401e-06,4.777673499219888e-06,2.7741524913322556e-06,1.9793093536730843e-06,5.377924211126163e-06,3.457521308602133e-05,2.8618453043742415e-06,4.547480459535455e-06,4.480061137630117e-06,9.966401081415842e-06,5.737691432555017e-06,3.35205813033127e-06
42,1.4396525574427046e-06,1.8667873679137786e-06,1.6101678376869026e-06,1.0514562161952932e-06,1.7988342311504451e-06,4.763165854075825e-06,2.7893344943719962e-06,1.95840874828064e-06,5.405052475760481e-06,3.479059860055488e-05,3.2582073247945676e-06,4.698911599815883e-06,4.457145291184646e-06,9.5584211290941e-06,5.243930392821767e-06,3.171385036164861e-06
43,1.4035630877698922e-06,1.8798650109981925e-06,1.6455016097866966e-06,1.053597132449143e-06,1.8193806548510255e-06,4.737714429173744e-06,2.8021103389457803e-06,1.9352557066668038e-06,5.422452686834419e-06,3.479886038223557e-05,3.699471529068852e-06,4.8786220293707806e-06,4.4138510564562e-06,9.151170328467557e-06,4.769550825505663e-06,2.9961688568607213e-06
44,1.3715090998429951e-06,1.8920269244265725e-06,1.6818286289639616e-06,1.0597402982275495e-06,1.849020077545852e-06,4.70212795860565e-06,2.812351546108523e-06,1.909884507926138e-06,5.429350983234734e-06,3.459869326326763e-05,4.1865565976652434e-06,5.089626530942484e-06,4.350014251488275e-06,8.749101118194723e-06,4.317807739593588e-06,2.8274077761129273e-06
45,1.3437701409223317e-06,1.9027885513191583e-06,1.718539134018625e-06,1.0691445426232918e-06,1.887369979550565e-06,4.65750749864367e-06,2.819901104484301e-06,1.8821614252133726e-06,5.424801047209868e-06,3.420053225771731e-05,4.719705866784583e-06,5.333973266009913e-06,4.2672811952360624e-06,8.356610591095572e-06,3.89147547329411e-06,2.6662159755618103e-06
46,1.3204875270677572e-06,1.9113931165414404e-06,1.7551740011042469e-06,1.080986407520215e-06,1.9337100593418934e-06,4.605151733371925e-06,2.824507291890918e-06,1.8517797091359172e-06,5.408080939454969e-06,3.362010790642253e-05,5.298511973189388e-06,5.612532024818512e-06,4.168623937933776e-06,7.97858007951249e-06,3.492627643597915e-06,2.5137858137296614e-06
47,1.3016898381966609e-06,1.916882407412395e-06,1.7913811445348737e-06,1.0944276132008793e-06,1.9869271959666332e-06,4.546422537748908e-06,2.825772598992816e-06,1.8184505625535342e-06,5.378945101471974e-06,3.287250334337346e-05,5.92195876174684e-06,5.924880207355862e-06,4.057468939451966e-06,7.620250175901423e-06,3.1225712033762743e-06,2.3712495550089304e-06
48,1.2873766033551398e-06,1.918294156272484e-06,1.8267716406534235e-06,1.108752220981421e-06,2.0455296595586905e-06,4.482663472451371e-06,2.8232015854782865e-06,1.7821684406295182e-06,5.337307870157337e-06,3.197149035559121e-05,6.588421021558003e-06,6.269330948820723e-06,3.937111666997026e-06,7.286539313767087e-06,2.781958040486722e-06,2.2394707971465707e-06
49,1.2775508503963626e-06,1.914916544533494e-06,1.860750170137055e-06,1.1234617554140293e-06,2.1077290178815308e-06,4.415163865121206e-06,2.8163224689454376e-06,1.743384618973648e-06,5.282827591735999e-06,3.0932888466777615e-05,7.295622359308096e-06,6.643148546293747e-06,3.8106487328987267e-06,6.98129493800719e-06,2.470983546925593e-06,2.118898802649984e-06
50,1.2721804930251437e-06,1.9063901088204522e-06,1.8924438024536695e-06,1.1381955080883298e-06,2.171511788762936e-06,4.345100138889944e-06,2.8047407919565296e-06,1.7030102186988022e-06,5.215044502936164e-06,2.9776686835417067e-05,8.04061327921404e-06,7.0429022643746195e-06,3.681020934360979e-06,6.707058593675628e-06,2.1895393903588077e-06,2.009576809698418e-06
51,1.271185213769332e-06,1.892578804427128e-06,1.920809768415986e-06,1.1526118871208718e-06,2.2346655040191465e-06,4.273477793022195e-06,2.788054764193149e-06,1.6622788718308341e-06,5.134000081227074e-06,2.8526237205514604e-05,8.819777410760136e-06,7.464788659846664e-06,3.5508462523420086e-06,6.465453201484978e-06,1.9372342962406363e-06,1.9113043331595477e-06
52,1.274526783067689e-06,1.8733425194855156e-06,1.9448576949677735e-06,1.16639045429885e-06,2.2947899555604115e-06,4.20115995281855e-06,2.7658681692234444e-06,1.6225532727221848e-06,5.040874086906625e-06,2.7207531604084604e-05,9.628774891434742e-06,7.904797653421539e-06,3.422173918667206e-06,6.2577783170800095e-06,1.7133696110336488e-06,1.8238801255458842e-06
53,1.2822940512450614e-06,1.84845308341061e-06,1.9638115022629213e-06,1.1792583031065687e-06,2.3494115385818918e-06,4.128921872969898e-06,2.7380442892674345e-06,1.5851385632815467e-06,4.9382161188447695e-06,2.584890377099842e-05,1.0462375339387288e-05,8.358800226910686e-06,3.2964388856695366e-06,6.085397960026199e-06,1.5169767982562327e-06,1.7472554600820843e-06
54,1.2946525196202205e-06,1.8177857598905343e-06,1.977100900746249e-06,1.1909374270058005e-06,2.396367618646657e-06,4.057369334125166e-06,2.704838490138821e-06,1.5511368412239292e-06,4.82955271750567e-06,2.4478777495041925e-05,1.131424299669714e-05,8.822651718677136e-06,3.174723082494151e-06,5.949783310008127e-06,1.3469352800521468e-06,1.6814654147925355e-06
55,1.3117635701596827e-06,1.78162435354121e-06,1.9842703690977203e-06,1.2010642196643116e-06,2.434379276272789e-06,3.9867204666363265e-06,2.666674884488698e-06,1.5213619970876652e-06,4.718697155381935e-06,2.312268535922339e-05,1.217669287796875e-05,9.292140926772464e-06,3.058087435973698e-06,5.85221335786299e-06,1.2020990709524681e-06,1.6264230781683858e-06
56,1.3337768852226237e-06,1.7408125199884215e-06,1.9850123384260094e-06,1.2091280074846558e-06,2.4634297448714693e-06,3.916700720133572e-06,2.6239564896220845e-06,1.4963107217770195e-06,4.609292773671257e-06,2.1801967907964068e-05,1.3040366110217054e-05,9.762582642329458e-06,2.94762930979706e-06,5.7932536675792425e-06,1.081299668057838e-06,1.581778828576424e-06
57,1.360798479547305e-06,1.6966563316920478e-06,1.979368681958163e-06,1.2144544757967437e-06,2.484655297444736e-06,3.846799621806448e-06,2.5771872735137894e-06,1.4761870240093126e-06,4.504664959286591e-06,2.053361636017462e-05,1.3893818204554193e-05,1.0228189690471571e-05,2.844261297679788e-06,5.7722987339883885e-06,9.832583878470835e-07,1.5469414938593162e-06
58,1.3928194196488093e-06,1.6506745049641268e-06,1.967846768054871e-06,1.2163216003770511e-06,2.499817863517646e-06,3.776768757482299e-06,2.52707241631867e-06,1.460961583722772e-06,4.407747739589662e-06,1.9330464477748587e-05,1.4723088194657418e-05,1.0681520986364038e-05,2.748494638275583e-06,5.787375393152624e-06,9.065767183738797e-07,1.5211902770418383e-06
59,1.4296972338880588e-06,1.6043673613166776e-06,1.9512296137566183e-06,1.2142244400518065e-06,2.5107329290182416e-06,3.7069401262167063e-06,2.4743571984034786e-06,1.4504240758329494e-06,4.320955334629362e-06,1.820195293899706e-05,1.5511544847173605e-05,1.1113247882712485e-05,2.660378584453163e-06,5.835148225152722e-06,8.498036571263337e-07,1.503749262270396e-06
60,1.47115272136009e-06,1.559087231816209e-06,1.9302381446205377e-06,1.2080940475539702e-06,2.518981437132839e-06,3.638124592102218e-06,2.419623884506105e-06,1.4442421486815188e-06,4.246060537434053e-06,1.715504646325551e-05,1.6240547516206737e-05,1.1512536548519523e-05,2.579532636389584e-06,5.911051589343584e-06,8.114540193192625e-07,1.493773048592852e-06
61,1.516721902006705e-06,1.5159590819308764e-06,1.9053189412038167e-06,1.1982658707625117e-06,2.525860369677591e-06,3.5712133484256264e-06,2.363238846616319e-06,1.4420234328529958e-06,4.184217645581485e-06,1.6194506629877547e-05,1.689115068586892e-05,1.1868172621082098e-05,2.5052474331313322e-06,6.009586501148346e-06,7.899525756109303e-07,1.4902839915038976e-06
62,1.565702737104542e-06,1.4758207641515063e-06,1.876588760516788e-06,1.185263326562319e-06,2.5323450500191773e-06,3.5067533428953075e-06,2.3054699949768e-06,1.4433014811999506e-06,4.136116847879753e-06,1.5322453262558817e-05,1.7446280580241057e-05,1.2170042926151068e-05,2.4367204842737522e-06,6.124768671269603e-06,7.835903201241995e-07,1.4921329012532604e-06
63,1.6171452864687253e-06,1.4392244449269002e-06,1.8438776522054316e-06,1.1696710885953027e-06,2.539035273102209e-06,3.444737778725661e-06,2.2467179105544123e-06,1.4474901510324889e-06,4.102061589510752e-06,1.4537806866581383e-05,1.7892329985999847e-05,1.2410380524153174e-05,2.373338444075088e-06,6.250586981036309e-06,7.905592692240233e-07,1.4980118507613063e-06
64,1.669905858018721e-06,1.4065274047951787e-06,1.8068874668207894e-06,1.1522073212882031e-06,2.54618192849482e-06,3.38474393014036e-06,2.1876937377314916e-06,1.453950624962707e-06,4.081846139846457e-06,1.3836147875292966e-05,1.8219661824409518e-05,1.2584362942485914e-05,2.3147658619869984e-06,6.381322854914648e-06,8.090146281560589e-07,1.5065258166320534e-06
65,1.722730664788197e-06,1.3780550284013711e-06,1.7654502466440227e-06,1.1337936214835829e-06,2.553757891519846e-06,3.3263564693582166e-06,2.129378729044517e-06,1.4621089748259275e-06,4.074582710988475e-06,1.3210200934854288e-05,1.84224489217506e-05,1.2689721308741094e-05,2.2608101661324487e-06,6.511673307161214e-06,8.370760493069141e-07,1.5163870131022574e-06
66,1.774297670343744e-06,1.354234090416715e-06,1.7197885204059004e-06,1.1154587706832563e-06,2.5614666763555723e-06,3.2696026498142076e-06,2.072764029063253e-06,1.4714536291210792e-06,4.078641812765529e-06,1.2650862007891268e-05,1.849803069369664e-05,1.2725366206214691e-05,2.2112799609341457e-06,6.636707618556554e-06,8.727887354716488e-07,1.5267000708506144e-06
67,1.8232954444602006e-06,1.335566744370473e-06,1.6706483863429553e-06,1.0981671139430341e-06,2.5686715707036426e-06,3.215070952395044e-06,2.0185515243754075e-06,1.4814957943982303e-06,4.091683058455532e-06,1.2148329170759863e-05,1.844542027149458e-05,1.2690151767223245e-05,2.165923714744904e-06,6.751822020278738e-06,9.141168934485201e-07,1.5371347303486854e-06
68,1.8686870379133926e-06,1.3224729668848263e-06,1.6192048103221042e-06,1.0827165535038559e-06,2.5743160952929066e-06,3.1636159406570675e-06,1.967000440110986e-06,1.491850048082469e-06,4.110792358196517e-06,1.1692938562902582e-05,1.826396747073658e-05,1.2583129512707624e-05,2.124425066862958e-06,6.852958131737729e-06,9.590082257599947e-07,1.5478782427415707e-06
69,1.9100063351476333e-06,1.315157296007983e-06,1.5667808532087086e-06,1.0697262148978053e-06,2.5769415124989614e-06,3.1158969592108923e-06,1.917947773589126e-06,1.5023222564546414e-06,4.132796208173376e-06,1.1275706422713164e-05,1.7954132176283676e-05,1.2404969430757847e-05,2.086519943767414e-06,6.937110849230584e-06,1.005561854572346e-06,1.5594350545689922e-06
70,1.9473585699182114e-06,1.3135801988869927e-06,1.5145999050901347e-06,1.0596649763972074e-06,2.5748439219769533e-06,3.072071296182314e-06,1.870940263657367e-06,1.5128382075069955e-06,4.154655757279393e-06,1.0888620667566394e-05,1.7520012193437983e-05,1.2159085994213523e-05,2.052151576622541e-06,7.002681509172569e-06,1.0522212536456007e-06,1.572369242481682e-06
71,1.9810978322725703e-06,1.3175057322178462e-06,1.46371700838296e-06,1.052896813408651e-06,2.5663152847200435e-06,3.031715886146308e-06,1.8254272355097084e-06,1.5232724564916456e-06,4.173746817885838e-06,1.052453181309701e-05,1.6971194845167914e-05,1.1851787911598933e-05,2.021450777803487e-06,7.049167277806499e-06,1.097790832840727e-06,1.5871061707963098e-06
72,2.0114522629037956e-06,1.3265799352377868e-06,1.4150280570800624e-06,1.0497184048540512e-06,2.549921183601406e-06,2.993914180213407e-06,1.7809793897993052e-06,1.5333689526480112e-06,4.18791344105667e-06,1.0176501212362537e-05,1.6322612033232387e-05,1.1491726828355588e-05,1.9945862022236295e-06,7.076429703804577e-06,1.1412578136105508e-06,1.6038972104859085e-06
73,2.0383119479666406e-06,1.3403960555333981e-06,1.3692389773890174e-06,1.0503781946205849e-06,2.524776758610075e-06,2.9575718923275103e-06,1.7374600324443359e-06,1.5428493186611808e-06,4.195356945963165e-06,9.836909525408898e-06,1.559289487064533e-05,1.108903380073577e-05,1.971675956635005e-06,7.0845148033407945e-06,1.181638893708641e-06,1.6228966631095756e-06
74,2.0612095305180296e-06,1.3584998524381984e-06,1.3268419241675812e-06,1.0551068999329674e-06,2.490728099984663e-06,2.921952246381065e-06,1.6950413822621822e-06,1.5515874850869942e-06,4.194549178103273e-06,9.497428601351371e-06,1.4802226961361734e-05,1.0654369911512693e-05,1.952729479842478e-06,7.074366136074376e-06,1.2179736516377358e-06,1.6442056021156823e-06
75,2.0794309756956057e-06,1.3803344455998516e-06,1.2881751564788532e-06,1.0641409274741735e-06,2.4483843430250245e-06,2.8870809204267734e-06,1.6540565272010851e-06,1.5596411994220362e-06,4.184163653859672e-06,9.150738476285841e-06,1.3970422529848802e-05,1.0198076622558212e-05,1.9375752697698325e-06,7.048604473274388e-06,1.249410004793081e-06,1.6678891750257845e-06
76,2.0922110084238423e-06,1.405168745298123e-06,1.2535366049853229e-06,1.077711053435914e-06,2.399043919548983e-06,2.8536951586330816e-06,1.6148132073680698e-06,1.5671130037889363e-06,4.162874187130807e-06,8.793042247426149e-06,1.3115566897066786e-05,9.729614059445295e-06,1.9259907639752453e-06,7.011613955203877e-06,1.275332741193862e-06,1.694070040719261e-06
77,2.0990221008221957e-06,1.4320434978998359e-06,1.2232615193446972e-06,1.0960470992740167e-06,2.344548724598873e-06,2.82285812731353e-06,1.57749645164612e-06,1.5740378757063191e-06,4.129269116863372e-06,8.425150390335806e-06,1.225324904881226e-05,9.257338300545775e-06,1.918031951087551e-06,6.9690173979811166e-06,1.29550059285612e-06,1.7229993389232051e-06
78,2.099881442108951e-06,1.4597642514608954e-06,1.197711922747068e-06,1.1193956319306088e-06,2.2870303721413625e-06,2.795569134764882e-06,1.5421872078524236e-06,1.5803927528671499e-06,4.0821273818020195e-06,8.051092786592713e-06,1.1396277167086475e-05,8.788416307090664e-06,1.914152443984422e-06,6.927051990307515e-06,1.3100999604427844e-06,1.7549572746126398e-06
79,2.0954176198544944e-06,1.486972782254956e-06,1.1771956039294511e-06,1.1479660359280574e-06,2.2285744901223197e-06,2.772519065176466e-06,1.5089122033502987e-06,1.5860785141737357e-06,4.020673002634196e-06,7.675632521794837e-06,1.0554767150206891e-05,8.328627005822976e-06,1.91497764301258e-06,6.892196942408004e-06,1.3196376976816331e-06,1.790103440688253e-06
80,2.086585214442956e-06,1.5123200491866756e-06,1.1618961867789287e-06,1.181819436755898e-06,2.1709743349701914e-06,2.7540029004736025e-06,1.4776525635701688e-06,1.5908091022231795e-06,3.944595930888718e-06,7.302574311582831e-06,9.736485062817657e-06,7.882074841908844e-06,1.9210208224642463e-06,6.8709483873035444e-06,1.32474296288311e-06,1.8284548585032283e-06
81,2.074350771110335e-06,1.534745159304784e-06,1.151872996534956e-06,1.22081179588995e-06,2.115678773507444e-06,2.7399625981385916e-06,1.448408122406203e-06,1.5940557873979726e-06,3.8541580410341854e-06,6.934238369524566e-06,8.947299722142166e-06,7.451106025329518e-06,1.9325338057909753e-06,6.8694919783825535e-06,1.3260301621743959e-06,1.8699856956179956e-06
82,2.0596204438775773e-06,1.5537439830355883e-06,1.1470791803620971e-06,1.2646318933338554e-06,2.063843923541087e-06,2.7300273257751334e-06,1.4213745435095824e-06,1.595145570407026e-06,3.7503162589775262e-06,6.571666124729758e-06,8.191610036459961e-06,7.036633418411321e-06,1.9494735004562684e-06,6.893311374063105e-06,1.3240786800399278e-06,1.9147457992451155e-06
83,2.0432203306202886e-06,1.5693973125271348e-06,1.1473304849183028e-06,1.312872623911761e-06,2.016405232231719e-06,2.7234775390938e-06,1.397026513937465e-06,1.593411694770597e-06,3.6345017759620103e-06,6.215308387767913e-06,7.4726363022026035e-06,6.638746462925494e-06,1.971508866873148e-06,6.946875228868102e-06,1.3194819671746143e-06,1.962871035638302e-06
84,2.025784574983495e-06,1.5821344450567768e-06,1.1522570385737456e-06,1.3650749931752677e-06,1.9741366878861545e-06,2.71925718814371e-06,1.3759590481612022e-06,1.588228812431485e-06,3.5083139464790784e-06,5.8657945992464335e-06,6.79256751525136e-06,6.257294368247547e-06,1.998011174549087e-06,7.033391510953556e-06,1.312867963019182e-06,2.014450986269891e-06
85,2.0077624961320647e-06,1.592483641800347e-06,1.1613181964181164e-06,1.4207275380794677e-06,1.937641849367471e-06,2.716095921180098e-06,1.358645119511621e-06,1.5789567320518522e-06,3.3735697473927313e-06,5.524273846907943e-06,6.152695161943879e-06,5.892240644306813e-06,2.0280648945217054e-06,7.1546607090296935e-06,1.3048360547351932e-06,2.069390475672099e-06
86,1.989679400595225e-06,1.600933617171122e-06,1.1739025992308407e-06,1.479210623885334e-06,1.9073524165904645e-06,2.7126407232857924e-06,1.345308777420152e-06,1.5649971732378018e-06,3.2324742109345766e-06,5.192317343015041e-06,5.55362744828306e-06,5.543775444578208e-06,2.060618776009076e-06,7.3112018059120665e-06,1.2958735741996016e-06,2.1273421204537478e-06
87,1.972396042445089e-06,1.6078430058895598e-06,1.1894499829138592e-06,1.5397118300456076e-06,1.883629111840534e-06,2.7075669531969076e-06,1.335946514334471e-06,1.5460303010990605e-06,3.087509429058483e-06,4.871723623381803e-06,4.995486632696204e-06,5.2122659391014045e-06,2.0947178123146095e-06,7.50265758494859e-06,1.2863036022677202e-06,2.1876484640827882e-06
88,1.9570603566375567e-06,1.6133854270905335e-06,1.2075160363169356e-06,1.601189972548398e-06,1.8668313074891349e-06,2.6997111361095988e-06,1.3304104976466777e-06,1.5222646494452873e-06,2.9411341600102774e-06,4.564294995587e-06,4.477948854982707e-06,4.898146369060398e-06,2.1295660443934824e-06,7.728187516749357e-06,1.2762582967829889e-06,2.2493249008507623e-06
89,1.9448812669675647e-06,1.6175259377827179e-06,1.2277695415271184e-06,1.6624038775856595e-06,1.857279777732801e-06,2.68814407641181e-06,1.3284562769033522e-06,1.4945047666157302e-06,2.7956613203069254e-06,4.271523758605458e-06,4.0001696408800726e-06,4.601853593926589e-06,2.1644494063971994e-06,7.986552320399705e-06,1.2656974076857139e-06,2.3111374561228745e-06
90,1.937027207450416e-06,1.6200458365668094e-06,1.2499585945253928e-06,1.7219809696706323e-06,1.855269315873328e-06,2.6720642900160895e-06,1.3297573586208102e-06,1.4639699225196933e-06,2.6534068321009207e-06,3.994410920653312e-06,3.5607740231493524e-06,4.3239017531242124e-06,2.198774358618148e-06,8.275835879951931e-06,1.254513092816214e-06,2.3716892485534327e-06
91,1.9346038814833484e-06,1.6206749894610945e-06,1.273861821103647e-06,1.7785867048074132e-06,1.8611386519170463e-06,2.650637051990643e-06,1.3339055429070188e-06,1.4319922091266012e-06,2.516763959854118e-06,3.733604483892087e-06,3.158020896210419e-06,4.065033533940882e-06,2.2321535227624374e-06,8.593018868906418e-06,1.2427116315993407e-06,2.4294741690130875e-06
92,1.9385474387981944e-06,1.6192473969461634e-06,1.2992245638279165e-06,1.8311844288866595e-06,1.8752135924558185e-06,2.623061576330375e-06,1.3403660153852066e-06,1.3998148800894934e-06,2.387995002452325e-06,3.4896872039382864e-06,2.7901004900905513e-06,3.826171152576055e-06,2.264326138147991e-06,8.933758717922428e-06,1.2305668383259322e-06,2.48296272952022e-06
93,1.9495085765216117e-06,1.615734773823858e-06,1.3256981781900992e-06,1.8791746522333132e-06,1.8976304997992097e-06,2.5888920806565293e-06,1.348471998928076e-06,1.3685500726146523e-06,2.268977637733561e-06,3.2634131152148687e-06,2.4554208992025886e-06,3.608045973907868e-06,2.295063967084448e-06,9.292558804256025e-06,1.2186520343778457e-06,2.5307446454007675e-06
94,1.9678577116872777e-06,1.6102041306795642e-06,1.352817353930704e-06,1.922293108339781e-06,1.9282043473320973e-06,2.5483651885379294e-06,1.3575533778570283e-06,1.3391799321400155e-06,2.1611265999445074e-06,3.055869701579389e-06,2.152721343051374e-06,3.410817431245607e-06,2.324265331562635e-06,9.663161410135487e-06,1.2077573307300813e-06,2.5716971535880056e-06
95,1.9937760986434445e-06,1.6028379593445265e-06,1.3800648677644128e-06,1.9604355239601954e-06,1.9663945496016987e-06,2.502518865615147e-06,1.3670530137586577e-06,1.312529513003449e-06,2.065482198509987e-06,2.868517872878456e-06,1.880946942741175e-06,3.2340405440165777e-06,2.352108499102006e-06,1.0038880100477684e-05,1.1987454289096663e-06,2.605094617781375e-06
96,2.02731358930729e-06,1.5939999949615644e-06,1.4070435450198817e-06,1.993626052855259e-06,2.0113649039227126e-06,2.4530095072639278e-06,1.3764802096433467e-06,1.2892592010356008e-06,1.9828775161836523e-06,2.703003582378531e-06,1.638993591609285e-06,3.076962215210975e-06,2.3790997552501664e-06,1.0412717428580112e-05,1.1924044381425997e-06,2.630554825495288e-06
97,2.0683487719988472e-06,1.5842240844416152e-06,1.4336511940144986e-06,2.02212202979369e-06,2.0621342167551148e-06,2.4016989464927415e-06,1.3853543131970496e-06,1.2699290970854448e-06,1.9140502633887946e-06,2.560799978981494e-06,1.4255242399556729e-06,2.93883375581353e-06,2.4059791950288816e-06,1.0777127673552535e-05,1.189345341665912e-06,2.6478183620569174e-06
98,2.1164937589961256e-06,1.5741174394532532e-06,1.460078918297734e-06,2.046468758150014e-06,2.1177022673955258e-06,2.35028952020409e-06,1.3933163481728403e-06,1.2550836943437327e-06,1.859649289068833e-06,2.442915814768714e-06,1.238969898475371e-06,2.8189797534475173e-06,2.4334885208968524e-06,1.1123461495582638e-05,1.1899591241698453e-06,2.6564953396476783e-06
99,2.1710754332007582e-06,1.5642811763715517e-06,1.4865990511103133e-06,2.0673729832695045e-06,2.1770076543472794e-06,2.3002130011223696e-06,1.400285691571734e-06,1.2452676883037336e-06,1.820211898312613e-06,2.3498031811574625e-06,1.077650491505899e-06,2.7166814665238006e-06,2.4621304808603844e-06,1.1441828285916543e-05,1.1944016950180906e-06,2.656009617813073e-06
100,2.2312444441717044e-06,1.5552807754980732e-06,1.513318141058012e-06,2.0854557144548044e-06,2.2387797961790827e-06,2.252650814200381e-06,1.4064694434682813e-06,1.2409810353103666e-06,1.7961083695124478e-06,2.281392228074768e-06,9.398604985515328e-07,2.6311285899009097e-06,2.492098217634381e-06,1.1722094221332e-05,1.202582181583732e-06,2.64585895228452e-06
101,2.2960619573112747e-06,1.547607692008442e-06,1.5400465482219647e-06,2.101082410436579e-06,2.3014957937814173e-06,2.2084751630081014e-06,1.4122190332389263e-06,1.2426324744548578e-06,1.7874451424430415e-06,2.237190922176347e-06,8.238518876143622e-07,2.5615162236255068e-06,2.5233580091244464e-06,1.1955539193594482e-05,1.2141768668623815e-06,2.62600734811205e-06
102,2.3644364003813585e-06,1.5416241079079173e-06,1.566285184372734e-06,2.1143934171153483e-06,2.3634923330327483e-06,2.1681547888792284e-06,1.4178455885378977e-06,1.2504996105743608e-06,1.794053911765922e-06,2.216538967220816e-06,7.277876527575839e-07,2.5071211202088284e-06,2.5556973736898364e-06,1.2136136300826081e-05,1.2286941617502807e-06,2.5971542405933533e-06
103,2.4350235189253534e-06,1.5375412313200752e-06,1.5913393810465137e-06,2.1254696798844193e-06,2.423097309785416e-06,2.1318325084230542e-06,1.4235196948467023e-06,1.264702930336402e-06,1.8156180165046783e-06,2.219004344430053e-06,6.497557704642406e-07,2.4672136055554194e-06,2.588656925905931e-06,1.226097307448551e-05,1.2456054561432878e-06,2.5607905412669954e-06
104,2.5062808108900877e-06,1.5354315441289413e-06,1.6145749244646967e-06,2.1345125738937924e-06,2.4787207228403406e-06,2.0995942038412274e-06,1.4292929241811392e-06,1.285223801752307e-06,1.8517932573380417e-06,2.244580237664471e-06,5.878609585239846e-07,2.4408848358195674e-06,2.6215096848001706e-06,1.2329839637992458e-05,1.2644613250787238e-06,2.519053886617959e-06
105,2.576637732239513e-06,1.5352328244319836e-06,1.6356426276554178e-06,2.1419387627275e-06,2.52896604490097e-06,2.0716535348573056e-06,1.4351308435742733e-06,1.3119311146534473e-06,1.9021854660604322e-06,2.293470855765475e-06,5.403195487359409e-07,2.4270030806439847e-06,2.653464747171948e-06,1.2344187237987517e-05,1.2848549838260268e-06,2.47446649121816e-06
106,2.6445641977754723e-06,1.5367234255135844e-06,1.6544436683963193e-06,2.1483193435961056e-06,2.5727872516780967e-06,2.0482457323632437e-06,1.440866678545163e-06,1.3445504738762037e-06,1.9662282925397277e-06,2.3658200854246004e-06,5.054614763642509e-07,2.4243610388095055e-06,2.684007994455024e-06,1.23057520576344e-05,1.306314510433083e-06,2.429677696653989e-06
107,2.7085733947649064e-06,1.5394950684448737e-06,1.6708789812513427e-06,2.1542166881273082e-06,2.609629411157249e-06,2.0294063224151243e-06,1.446158258586344e-06,1.382597751302303e-06,2.0430924580657644e-06,2.4617048659285373e-06,4.817027454448333e-07,2.4318218211698848e-06,2.713135179328693e-06,1.2215253577496243e-05,1.3283099116024868e-06,2.3872486844031227e-06
108,2.7674300036709272e-06,1.5429990624836739e-06,1.68466217329845e-06,2.1600700979296328e-06,2.639461334387449e-06,2.0148814608696894e-06,1.4505887495157627e-06,1.4253539948470574e-06,2.131680580324511e-06,2.5811951772921892e-06,4.6760142089566333e-07,2.4482718806379873e-06,2.741328850351781e-06,1.2071846185046676e-05,1.3503322447278892e-06,2.3494465350855747e-06
109,2.8204819446835383e-06,1.546695977317513e-06,1.6953757451968554e-06,2.166191922975802e-06,2.6626624508148612e-06,2.0041739144435008e-06,1.4538957262792764e-06,1.4718876309231707e-06,2.230718643592515e-06,2.7243633586460676e-06,4.6191251699692793e-07,2.4724278186421612e-06,2.769282570221836e-06,1.1873952358610338e-05,1.3719414306883982e-06,2.3180744060752017e-06
110,2.8676804749496508e-06,1.5502280623540332e-06,1.7026843607729487e-06,2.172791798870277e-06,2.679815339079281e-06,1.996659275443243e-06,1.4561163121968812e-06,1.5210521744609571e-06,2.3389283800261795e-06,2.891445998739003e-06,4.6353929015857076e-07,2.5026706028904816e-06,2.7975524390232706e-06,1.1621219737479547e-05,1.3928215570967597e-06,2.2944019566519883e-06
111,2.909167545752197e-06,1.553531781559313e-06,1.706517571523635e-06,2.1799537121219745e-06,2.6914668237231866e-06,1.991692994647905e-06,1.4574966811960826e-06,1.5714589837921095e-06,2.455130440339324e-06,3.0830555404150824e-06,4.714590052953049e-07,2.5370057357736453e-06,2.8263825029169775e-06,1.1316416267342591e-05,1.4128291808023702e-06,2.2791914022148767e-06
112,2.944799410389988e-06,1.5568633713211992e-06,1.7071335808949216e-06,2.187616631535125e-06,2.6979267381943503e-06,1.9885977850715885e-06,1.4583008276706324e-06,1.6215623454638608e-06,2.5781359155888966e-06,3.300068378925818e-06,4.84708797501299e-07,2.573151469381671e-06,2.8557172297878674e-06,1.0966067723474347e-05,1.4319595793771815e-06,2.272779528076732e-06
113,2.9739669549045063e-06,1.5607123507265004e-06,1.7050584521097442e-06,2.1956498348700586e-06,2.6992655506030484e-06,1.9866338731758154e-06,1.4587351261179543e-06,1.6699359227845143e-06,2.7065355255022383e-06,3.543238461119755e-06,5.024045492546621e-07,2.608710426028622e-06,2.885273367293705e-06,1.057951097996595e-05,1.4502815476667737e-06,2.2751775097818807e-06
114,2.9957519038111665e-06,1.5656178612042385e-06,1.700918064632251e-06,2.2039994667176266e-06,2.6955994909784973e-06,1.9851701597711552e-06,1.4590107854245598e-06,1.7155743205833316e-06,2.8385600546063654e-06,3.812976917145502e-06,5.237505001104126e-07,2.6413931852161624e-06,2.91466145312607e-06,1.0167152194228248e-05,1.4679009641706613e-06,2.28613959005236e-06
115,3.009266911184427e-06,1.5720060218624518e-06,1.695249594734196e-06,2.2127785256071576e-06,2.6874712775823936e-06,1.9839850375788096e-06,1.4594509880169077e-06,1.7579710853436614e-06,2.9720082894638513e-06,4.109453450448516e-06,5.480326932688932e-07,2.669261184161859e-06,2.9434937971923765e-06,9.739083355815066e-06,1.484918491410083e-06,2.3051969230422203e-06
116,3.0139812543092295e-06,1.5801319114471084e-06,1.6884258432771984e-06,2.2222111576903787e-06,2.6760333455081876e-06,1.9833980302015144e-06,1.460563968227476e-06,1.7969547421733786e-06,3.104248746995257e-06,4.432717717722771e-06,5.74590830081044e-07,2.690856929140279e-06,2.9713396577208263e-06,9.304503697889565e-06,1.5013642034387739e-06,2.33166015035249e-06
117,3.009904582295627e-06,1.5900590019509496e-06,1.6807213147053528e-06,2.232457020485798e-06,2.6629092803485318e-06,1.9840874240559778e-06,1.4630182077929885e-06,1.8325062534806577e-06,3.2324293334097003e-06,4.782724349180026e-06,6.02802153933082e-07,2.7051238767447033e-06,2.997660077895691e-06,8.871620524998344e-06,1.517123799795844e-06,2.36454716321573e-06
118,2.997649389549917e-06,1.6016366504661288e-06,1.6723795896774115e-06,2.2434323205716802e-06,2.6498253084968174e-06,1.986765572415943e-06,1.4675294259813061e-06,1.8647282837022595e-06,3.3538942700947745e-06,5.159614152493303e-06,6.321168087596022e-07,2.7112788971137563e-06,3.0219975924872216e-06,8.447627229914118e-06,1.5318675835517837e-06,2.402492121601088e-06
119,2.9783848590365172e-06,1.6145338913207095e-06,1.6635569722288378e-06,2.2547306870272167e-06,2.6382240680791993e-06,1.9919856239848962e-06,1.4747520263814684e-06,1.8938767055894783e-06,3.4665164145418425e-06,5.56423519817009e-06,6.620819381683357e-07,2.7088622408052817e-06,3.0442951713095217e-06,8.038569921360783e-06,1.5450432837674792e-06,2.443793650876305e-06
120,2.953599975710515e-06,1.6283228019408672e-06,1.6542288216833858e-06,2.2656149806780127e-06,2.629027819305579e-06,2.000145855088039e-06,1.48524110746087e-06,1.9202929158188355e-06,3.568635758612806e-06,5.998190006049413e-06,6.922952226274301e-07,2.697920405021472e-06,3.0649131909671476e-06,7.649089603339885e-06,1.5560294904187545e-06,2.486609235056659e-06
121,2.924740891971897e-06,1.6425654761834846e-06,1.64419105274386e-06,2.275009013369148e-06,2.622581230904571e-06,2.011608375544836e-06,1.4994636831359415e-06,1.9443345055104245e-06,3.658663707967527e-06,6.463105196553711e-06,7.223311176550601e-07,2.679102582842975e-06,3.0842712093848184e-06,7.282274367270654e-06,1.5644286769863843e-06,2.529141316191993e-06
122,2.8930092508842905e-06,1.6569146572154001e-06,1.633126446962058e-06,2.2815561189336206e-06,2.618768967846143e-06,2.0268756076953443e-06,1.5177873911348184e-06,1.9664701264932993e-06,3.7348269920582334e-06,6.9597370464599325e-06,7.516952223672826e-07,2.6535686359573507e-06,3.1025149023827488e-06,6.93986046942793e-06,1.5702986598242509e-06,2.5697376620292012e-06
123,2.859436272410158e-06,1.6712026242551926e-06,1.6206873381343636e-06,2.2838556591854922e-06,2.61733988512808e-06,2.0467245357041076e-06,1.5404169948930333e-06,1.987380976922799e-06,3.7954828694961503e-06,7.487479199371894e-06,7.798353252330977e-07,2.62280265118203e-06,3.1195241341469137e-06,6.622712841160628e-06,1.5741258755571332e-06,2.606961231422108e-06
124,2.8250113140201588e-06,1.6854126093180006e-06,1.606625747296403e-06,2.2808165562456156e-06,2.6182989914362963e-06,2.0721510692720764e-06,1.5673228158975535e-06,2.0078497025213104e-06,3.83985482552161e-06,8.044225348639288e-06,8.062030865980784e-07,2.5884721701157787e-06,3.1351116965140375e-06,6.331383542379654e-06,1.5765659352116984e-06,2.639701809800812e-06
125,2.7906745631498227e-06,1.6995189714546222e-06,1.5909483627408296e-06,2.2719279127156965e-06,2.622015732326254e-06,2.104140809001771e-06,1.5981983562523463e-06,2.0285379278518362e-06,3.868563408161457e-06,8.626354036462629e-06,8.303202144713503e-07,2.5523313399325917e-06,3.1490683162503096e-06,6.0665489377584945e-06,1.5781740404983254e-06,2.6673287700471457e-06
126,2.757208565962084e-06,1.7133662611936062e-06,1.574002786760815e-06,2.257324185523117e-06,2.6289641764557696e-06,2.1434709321810324e-06,1.6324334135592976e-06,2.049877788544834e-06,3.883498552996053e-06,9.228690281576894e-06,8.518355660225246e-07,2.5160666591181084e-06,3.1610452164965566e-06,5.8291249617953945e-06,1.5793001623858856e-06,2.689773926546913e-06
127,2.725119902190702e-06,1.7267214433279255e-06,1.5564394557405794e-06,2.2376873877986897e-06,2.639424557226772e-06,2.1906392446632872e-06,1.6690880066742504e-06,2.0721343645284064e-06,3.887152727772866e-06,9.844461901276209e-06,8.705810442346543e-07,2.4811062853653356e-06,3.1704862231678837e-06,5.620084229129377e-06,1.5801258892147948e-06,2.7074114062433214e-06
128,2.6945408397256627e-06,1.7394417433517306e-06,1.5390587767741644e-06,2.214075319528908e-06,2.653349833400563e-06,2.2458331418633836e-06,1.7068720870706055e-06,2.0955390361253916e-06,3.8819491499536205e-06,1.0465454480544274e-05,8.865652589898865e-07,2.448493968658335e-06,3.176592688513725e-06,5.440244142145222e-06,1.5807370713238498e-06,2.7207429360130553e-06
129,2.665157243907074e-06,1.7516228715866126e-06,1.5226067590373153e-06,2.1877170658304872e-06,2.6703203560029763e-06,2.308886874187252e-06,1.744155695171827e-06,2.1203560244609636e-06,3.869972745973763e-06,1.1082397707603041e-05,8.998647989710074e-07,2.4188203946632413e-06,3.1783224185709298e-06,5.290176528932257e-06,1.5811914171900442e-06,2.7300509909814226e-06
130,2.6362190326522284e-06,1.763595863138424e-06,1.5076334876655079e-06,2.159822262232558e-06,2.6895313050057533e-06,2.3792229119599414e-06,1.7791067890656095e-06,2.146811910388171e-06,3.853001645352794e-06,1.1685359204727592e-05,9.10522459203191e-07,2.3922061703578027e-06,3.1746151676070564e-06,5.170101751816182e-06,1.581594139790331e-06,2.735172717804954e-06
131,2.6067150810781044e-06,1.7757455425781585e-06,1.4944617525726517e-06,2.1314557513184873e-06,2.709771148799358e-06,2.4557907751219198e-06,1.8100344106065219e-06,2.1749752953242245e-06,3.832535302335985e-06,1.2263945724149254e-05,9.185366557334432e-07,2.3684038980610215e-06,3.1647445905841822e-06,5.079626019017772e-06,1.5821579865275634e-06,2.735423186773841e-06
132,2.5756963909907325e-06,1.788354244712118e-06,1.4832062993690727e-06,2.1034530302823126e-06,2.729355634612518e-06,2.5371050335602307e-06,1.8357885292882308e-06,2.2046975384458277e-06,3.809758908299247e-06,1.280710812361713e-05,9.238508998783581e-07,2.3469735401487317e-06,3.1483929894372635e-06,5.017485573748477e-06,1.583168737782747e-06,2.7296805590495216e-06
133,2.5425940031267093e-06,1.8016504497263972e-06,1.4738342082083216e-06,2.0763430142542694e-06,2.7461378963145504e-06,2.6214524511366576e-06,1.8559455724583018e-06,2.235580440315964e-06,3.7854976397814654e-06,1.3302698241439986e-05,9.262854798529138e-07,2.3274109563690047e-06,3.1253867724034126e-06,4.9815953559378815e-06,1.5848524089010192e-06,2.716701085117982e-06
134,2.5073576765888494e-06,1.8159375577471862e-06,1.4662853835655674e-06,2.0503166059779297e-06,2.7577457118021887e-06,2.7071673176810077e-06,1.870688904410805e-06,2.2669481432440722e-06,3.760144592248656e-06,1.373768041700781e-05,9.254958297274438e-07,2.309234275221299e-06,3.095608193341725e-06,4.969370286326241e-06,1.5872666728741842e-06,2.6955684111320935e-06
135,2.470361677775897e-06,1.83160717807737e-06,1.4605823016747254e-06,2.0252731168697828e-06,2.761999734926739e-06,2.7927933184738873e-06,1.880498158030291e-06,2.2978638921028424e-06,3.733589851809189e-06,1.4099452098533162e-05,9.210242615596217e-07,2.2920647809398375e-06,3.0594049095886436e-06,4.977920178925357e-06,1.5902831334459384e-06,2.6659888952719535e-06
136,2.4321938295548525e-06,1.84904447058101e-06,1.456848763513827e-06,2.0009358439935437e-06,2.757246415427544e-06,2.877015657457009e-06,1.8858197847041868e-06,2.3272092543530025e-06,3.70524893302469e-06,1.437747480056757e-05,9.12426109854844e-07,2.2756581417197702e-06,3.017982399160946e-06,5.003895141691075e-06,1.5935988393564001e-06,2.6283171856492608e-06
137,2.393505760918758e-06,1.8685561824143777e-06,1.4552235927847687e-06,1.977012183616412e-06,2.742336205401596e-06,2.9584127276837085e-06,1.8868844418170654e-06,2.3538880225959766e-06,3.674261514007742e-06,1.456453059243133e-05,8.994211202282259e-07,2.2598843189040864e-06,2.973214635632463e-06,5.043258772997686e-06,1.5967282418149045e-06,2.583450167396313e-06
138,2.354944153201465e-06,1.890365315825907e-06,1.4557203847664997e-06,1.9533443243776313e-06,2.716354717937467e-06,3.035274152837102e-06,1.8837107838623843e-06,2.3771196366023384e-06,3.6398225335337703e-06,1.465729236566193e-05,8.820182737263552e-07,2.2447159074348884e-06,2.9270902684613024e-06,5.091302016948054e-06,1.5989826882510127e-06,2.5326986561271186e-06
139,2.3170366151596894e-06,1.9145839412420553e-06,1.4581451851997987e-06,1.9299854466332567e-06,2.6785716711492814e-06,3.105674522126036e-06,1.8761854770457161e-06,2.3965768269532687e-06,3.6015332085937675e-06,1.4655552119425972e-05,8.605381349744948e-07,2.2302573498456555e-06,2.8813032207077245e-06,5.142865424853788e-06,1.599488861169978e-06,2.477654558458308e-06
140,2.2800439932685344e-06,1.9411390929892763e-06,1.4621450635818047e-06,1.907160118781902e-06,2.628803942990922e-06,3.167698595476544e-06,1.864177919645076e-06,2.41222176913091e-06,3.5596732663139208e-06,1.4560704691020705e-05,8.354974437519427e-07,2.2168371309000143e-06,2.837133435923868e-06,5.192635329500868e-06,1.5973333770940524e-06,2.4200922114680786e-06
141,2.2439238506713788e-06,1.9697282260610957e-06,1.467326033212913e-06,1.8851106560127987e-06,2.5678296878243545e-06,3.219638897779147e-06,1.8477253896731828e-06,2.4240438342749494e-06,3.5152725778169497e-06,1.4375466567932535e-05,8.074805972758539e-07,2.205125039195034e-06,2.795476479120924e-06,5.2354063974420505e-06,1.5917918909636338e-06,2.3619292668790223e-06
142,2.2084330075669457e-06,1.9998059372140848e-06,1.473319542076157e-06,1.8639022837697996e-06,2.4973849224430903e-06,3.2601238399167964e-06,1.8272129409576218e-06,2.4319824699146707e-06,3.4699055305525594e-06,1.4104980843665385e-05,7.771307595752562e-07,2.1961155182947054e-06,2.7569378680145884e-06,5.266269079981063e-06,1.582469143469935e-06,2.3051757653452795e-06
143,2.1732953554082955e-06,2.0305988891538248e-06,1.4797642587940402e-06,1.8433285957699736e-06,2.4197002701899275e-06,3.2882077011616414e-06,1.803450232395033e-06,2.435983711584154e-06,3.42533354954149e-06,1.3757540083151313e-05,7.451903130631553e-07,2.1909173253024485e-06,2.7220058281321726e-06,5.280854488544755e-06,1.5692983407599042e-06,2.2518017021262492e-06
144,2.138354732822154e-06,2.06120960515505e-06,1.4862844962218891e-06,1.8230262457994608e-06,2.3370176646388534e-06,3.3034424877517147e-06,1.7776644399417846e-06,2.436028204596862e-06,3.3831827183085477e-06,1.3344143457713155e-05,7.124689413028632e-07,2.190563704966558e-06,2.691156402287486e-06,5.275645838708643e-06,1.5524864230743898e-06,2.2035797205338735e-06
145,2.103643414313577e-06,2.090730795508286e-06,1.492537943414252e-06,1.8027367141373459e-06,2.2514467534588744e-06,3.3058787344325494e-06,1.7514217539209545e-06,2.432228054512314e-06,3.34470446617647e-06,1.28773908613712e-05,6.797510750281612e-07,2.1960211962520347e-06,2.6647167967014593e-06,5.248011579410694e-06,1.532451681774995e-06,2.1619815470861673e-06
146,2.0693909894613868e-06,2.118207754144552e-06,1.498305710659648e-06,1.7825074201617262e-06,2.16499429919139e-06,3.295917890160578e-06,1.7264351505493887e-06,2.4249803743085604e-06,3.3106128526648677e-06,1.2370217507395828e-05,6.477134804212752e-07,2.2082635047424086e-06,2.6426553800004634e-06,5.195933804858709e-06,1.5097238609113614e-06,2.128151843124704e-06
147,2.0360527453467756e-06,2.1425018383096807e-06,1.5035508954148943e-06,1.7626868366610169e-06,2.079470519465135e-06,3.27402301950874e-06,1.7043180460030717e-06,2.4149068261383103e-06,3.281022331888887e-06,1.1834688314128551e-05,6.168894766466191e-07,2.2283068059350633e-06,2.624605401012761e-06,5.118107149238832e-06,1.4847969359859455e-06,2.1029749310463977e-06
148,2.004321749690598e-06,2.1622632558591475e-06,1.5083839233988564e-06,1.7437552528522852e-06,1.9963344079983e-06,3.2404089487907787e-06,1.686432366664136e-06,2.402614533767893e-06,3.2554759227195927e-06,1.1281035869066075e-05,5.876771402770324e-07,2.257385062007899e-06,2.6101211702981257e-06,5.0145632620208685e-06,1.4580030158641804e-06,2.087160310929047e-06
149,1.975017572568839e-06,2.1761008665154227e-06,1.5129356173911533e-06,1.7261220676466821e-06,1.916714241419091e-06,3.1949586753928967e-06,1.6738570167904284e-06,2.388611497118564e-06,3.233042338132985e-06,1.0717226273950122e-05,5.603699998458943e-07,2.297277100627735e-06,2.598840675460285e-06,4.886947309104022e-06,1.42946928905326e-06,2.0812116458993926e-06
150,1.94886838203279e-06,2.182893446425533e-06,1.5172687109979959e-06,1.709996652322973e-06,1.841614121282327e-06,3.1375124214552612e-06,1.6673689599788044e-06,2.373433482476848e-06,3.212499304602148e-06,1.0149169493210046e-05,5.35192978226593e-07,2.3504363454551104e-06,2.590339043376333e-06,4.7380322669216025e-06,1.3991674039670623e-06,2.0853071887404e-06
151,1.9263253201718e-06,2.182117878796144e-06,1.5214310113411693e-06,1.695409126796667e-06,1.772074394277318e-06,3.068282117506845e-06,1.667399513629978e-06,2.357760973933412e-06,3.192601442803421e-06,9.581309928752278e-06,5.12330058579696e-07,2.4197590581558228e-06,2.5838803308147364e-06,4.571073466760689e-06,1.367026777492343e-06,2.099242895336935e-06
152,1.9075192826516523e-06,2.1740081703842887e-06,1.5255428362141983e-06,1.6823549016108344e-06,1.7091263073825337e-06,2.98801484439579e-06,1.6740422482460801e-06,2.342394651739516e-06,3.172347185785484e-06,9.017294542995163e-06,4.919453219309502e-07,2.508256410741312e-06,2.578366071485707e-06,4.389541968518323e-06,1.3330303828448883e-06,2.1224868103267788e-06
153,1.89235921883875e-06,2.1594331316576936e-06,1.5297882217894617e-06,1.6709022389406365e-06,1.6536336651296678e-06,2.897857609326215e-06,1.6871513143121332e-06,2.328126992752133e-06,3.1510911518578474e-06,8.460565237122351e-06,4.7421514263734663e-07,2.6189291822837757e-06,2.5724947984142795e-06,4.1971500794394865e-06,1.2972810671009548e-06,2.1542552214529495e-06
154,1.8806543233310699e-06,2.139606590038953e-06,1.534329628882135e-06,1.6611723842729397e-06,1.6061952377193082e-06,2.799182602192201e-06,1.706450922184925e-06,2.315600651093617e-06,3.128423469846278e-06,7.914692900738369e-06,4.593489837163744e-07,2.7548736236427686e-06,2.564980605155279e-06,3.997820048873009e-06,1.2601126205382088e-06,2.1935188248289517e-06
155,1.8721231653164036e-06,2.1158506215233214e-06,1.5392181251670777e-06,1.6532727009636317e-06,1.5671775232315654e-06,2.693588593959644e-06,1.7315419273427938e-06,2.3052036343206217e-06,3.1039398251106975e-06,7.383321643853019e-06,4.4755657103339e-07,2.9194288767631e-06,2.55467774451429e-06,3.7954197176986607e-06,1.2221720333893402e-06,2.2390058830408583e-06
156,1.8662952527270244e-06,2.089497171083169e-06,1.5443487642416655e-06,1.647253471056612e-06,1.5368760831035132e-06,2.5830080023068518e-06,1.761804799403757e-06,2.2970076062341936e-06,3.0771189461112117e-06,6.869830659209357e-06,4.389894386543064e-07,3.1161589384103703e-06,2.5405824044332527e-06,3.593389322449797e-06,1.184318878433732e-06,2.2893323037557167e-06
157,1.8624467737621711e-06,2.061846655185826e-06,1.5494518854520613e-06,1.64306959406063e-06,1.5157476250421113e-06,2.4696626687032037e-06,1.7963427618325432e-06,2.2907916731344105e-06,3.047398272800291e-06,6.3769392897311914e-06,4.337222052038994e-07,3.348637126411726e-06,2.521889345237689e-06,3.394523834634531e-06,1.1473995491601523e-06,2.343192738099685e-06
158,1.8596799161430486e-06,2.03408778135068e-06,1.5540715766141106e-06,1.640561123450125e-06,1.5045473410125865e-06,2.355791026403265e-06,1.8340761976121017e-06,2.2862035232560424e-06,3.0143592143152156e-06,5.9064968839493985e-06,4.317848816006728e-07,3.6201907713525395e-06,2.498208864571008e-06,3.201023658840637e-06,1.1120781855527888e-06,2.399412247026715e-06
159,1.8571267163326662e-06,2.0071960655004275e-06,1.557581099294337e-06,1.6395145584026661e-06,1.5042390740972038e-06,2.243403900796874e-06,1.8739117680075791e-06,2.2829787463734392e-06,2.977872121409392e-06,5.459720824832806e-06,4.3320671820037295e-07,3.933765668072673e-06,2.4697269048573752e-06,3.0147059100087513e-06,1.0787795863006004e-06,2.4567867672616687e-06
160,1.8541384565804544e-06,1.9819263272224418e-06,1.5593160461190935e-06,1.6397737554780634e-06,1.5157716147199902e-06,2.1342580168465097e-06,1.9148608114500743e-06,2.2810605854507106e-06,2.9381188187138567e-06,5.0378280808753786e-06,4.3802957340442435e-07,4.291897273481689e-06,2.437059804169891e-06,2.837243254884236e-06,1.0476942008883058e-06,2.513883379227911e-06
161,1.85028470879075e-06,1.9589210115587267e-06,1.5587520877375992e-06,1.641262943736893e-06,1.5399204229039597e-06,2.0298895550573883e-06,1.9561282064958e-06,2.2805885307536877e-06,2.895499269237981e-06,4.642543392499914e-06,4.4628247181109695e-07,4.696637721788606e-06,2.40093242945127e-06,2.670307723766439e-06,1.0188322798342027e-06,2.5690868155333045e-06
162,1.8451535974230303e-06,1.9387832862300377e-06,1.55560862639557e-06,1.6438628794963268e-06,1.5772760652990342e-06,1.931565811815809e-06,1.9972344785033206e-06,2.2818386749089276e-06,2.8504537570266154e-06,4.276075485344647e-06,4.5795365699792384e-07,5.149368218830742e-06,2.361998441915098e-06,2.5155071863127384e-06,9.92157436086113e-07,2.620969300533378e-06
163,1.8381866878303148e-06,1.922007011070718e-06,1.5498352906384952e-06,1.6472645038331668e-06,1.6283085269709036e-06,1.8402576472631157e-06,2.0381070145025733e-06,2.285157135283518e-06,2.8033008012965036e-06,3.940655083871553e-06,4.7300141671331886e-07,5.65064263461012e-06,2.3208365844178016e-06,2.374186342131464e-06,9.677405733440446e-07,2.6686638105273887e-06
164,1.8287232554328852e-06,1.908835243282865e-06,1.5414844861571488e-06,1.6509740666120983e-06,1.6934016820923826e-06,1.7567452538730705e-06,2.079023512249291e-06,2.29087357289796e-06,2.7542941006274674e-06,3.6380326183095665e-06,4.913876977544797e-07,6.200256516549688e-06,2.277960481726816e-06,2.2473316616841354e-06,9.457873806799916e-07,2.7118307527886366e-06
165,1.8161598959734657e-06,1.899189338272818e-06,1.5305780465990139e-06,1.6544842767992918e-06,1.7728943637720485e-06,1.681793313483045e-06,2.1203955731017214e-06,2.2991877851425755e-06,2.703948690277334e-06,3.3692614935009417e-06,5.130732981528892e-07,6.797531148172512e-06,2.2338320087113736e-06,2.135775216840166e-06,9.265223488924646e-07,2.75025786203292e-06
166,1.800079489068686e-06,1.8927457296552936e-06,1.5170939654387144e-06,1.6574392385173182e-06,1.8671697545960328e-06,1.6162147357417775e-06,2.1625327664163553e-06,2.310038412956016e-06,2.6533760521143336e-06,3.1347368598659855e-06,5.379683651392372e-07,7.441625307093044e-06,2.1889416418205374e-06,2.0406466336901574e-06,9.100917651652068e-07,2.7835091305922403e-06
167,1.7803264342220915e-06,1.8891082809796127e-06,1.5010348196650036e-06,1.6596419123287595e-06,1.9766396011051145e-06,1.560752197199309e-06,2.2055155857105814e-06,2.3229774445563134e-06,2.6043318642763116e-06,2.934244027571127e-06,5.65895992778807e-07,8.131746160729185e-06,2.1438976316037917e-06,1.9637024733496966e-06,8.965931289697199e-07,2.8108231420990344e-06
168,1.7570446973303953e-06,1.8879530846790964e-06,1.4824908264151912e-06,1.6609348366567652e-06,2.1015728090433345e-06,1.5159153054680284e-06,2.2491449217957413e-06,2.3370915959720408e-06,2.55892799499924e-06,2.766949950836317e-06,5.96597030953109e-07,8.867257433704724e-06,2.0994080753212596e-06,1.9072275286432835e-06,8.861338615721728e-07,2.8311793190520664e-06
169,1.730681361066751e-06,1.8890909922090414e-06,1.4616827538698627e-06,1.661082745261403e-06,2.2419305434942827e-06,1.4819123702586135e-06,2.2929397423418427e-06,2.3510310473701565e-06,2.5192253442674e-06,2.6314561797288194e-06,6.29753010744708e-07,9.647642350527755e-06,2.056137696586487e-06,1.873678570962524e-06,8.787877405713438e-07,2.8434633233898766e-06
170,1.7019844428866507e-06,1.892478378592585e-06,1.4389732632090287e-06,1.6597420225932978e-06,2.3972832000284603e-06,1.4586803907660745e-06,2.336202605188957e-06,2.3632013018735667e-06,2.486989396014733e-06,2.5259210963117853e-06,6.649953284809867e-07,1.0472240411221284e-05,2.014555746194241e-06,1.865405844950276e-06,8.745009699255959e-07,2.846665020830438e-06
171,1.672005385212069e-06,1.8981805491266282e-06,1.4148415003658553e-06,1.6565103697757843e-06,2.566798979553169e-06,1.4459572175011453e-06,2.378137930956503e-06,2.3721164278297104e-06,2.463655114231094e-06,2.448136432133669e-06,7.019050363838789e-07,1.1339832441259707e-05,1.9749028354853886e-06,1.88452722634102e-06,8.730869943442032e-07,2.8400179180393666e-06
172,1.6420207277564068e-06,1.9062483696423223e-06,1.3898425183343555e-06,1.6509620763460115e-06,2.7492866814439257e-06,1.4433208677562022e-06,2.418070456287695e-06,2.376820376268745e-06,2.450312893265259e-06,2.3955336898315046e-06,7.400658481531007e-07,1.2248198286076367e-05,1.9372956389367457e-06,1.9328991957958784e-06,8.743081270500485e-07,2.823072360602338e-06
173,1.6133342316162496e-06,1.9165271777665724e-06,1.3645440317469117e-06,1.6425926088542313e-06,2.943208084690789e-06,1.4501598512919221e-06,2.455688554473164e-06,2.3771911135545048e-06,2.4476394614596606e-06,2.3652132016684595e-06,7.791977426916336e-07,1.3193582979961476e-05,1.901899580539544e-06,2.012185495348283e-06,8.779194029533424e-07,2.795768926204335e-06
174,1.5871045516783039e-06,1.928499438755742e-06,1.3394382521979218e-06,1.6307661867136294e-06,3.146655883545122e-06,1.465621251046745e-06,2.491017349619662e-06,2.3739394341326745e-06,2.455887312637751e-06,2.354110507903491e-06,8.192487945624692e-07,1.4170007176978018e-05,1.8690554033924688e-06,2.1240221126730978e-06,8.836452884395119e-07,2.7585187079588685e-06
175,1.5643096659969095e-06,1.941252801170325e-06,1.3149223010147888e-06,1.61483315222293e-06,3.3574152644982347e-06,1.4885720546534955e-06,2.524084846477464e-06,2.3682924667645843e-06,2.474950767518212e-06,2.359296068267922e-06,8.60317877659206e-07,1.516862304097779e-05,1.839244980237426e-06,2.270193231477719e-06,8.911906658929922e-07,2.712166623481028e-06
176,1.5457651925329991e-06,1.9535967315119475e-06,1.291390794444915e-06,1.5944075564795725e-06,3.5730512031849728e-06,1.5175889704968629e-06,2.5546197110734815e-06,2.3615910344334406e-06,2.504384610983458e-06,2.378200130148583e-06,9.02492389058132e-07,1.617736646600514e-05,1.8129355276654893e-06,2.452662660529089e-06,9.003127101720694e-07,2.657742568812297e-06
177,1.5321003342317246e-06,1.9642785666816078e-06,1.2692825316088544e-06,1.5696062367395207e-06,3.7908434270822734e-06,1.5510375063235619e-06,2.5819641992587955e-06,2.3550576864914063e-06,2.5433713994320615e-06,2.408605017181009e-06,9.457583939155451e-07,1.71809656285187e-05,1.7904925594463174e-06,2.67345289263472e-06,9.10854897161591e-07,2.596146958493547e-06
178,1.523696102648109e-06,1.9721608210755977e-06,1.2489779513863681e-06,1.5410495218556696e-06,4.007696214265705e-06,1.587260994566715e-06,2.605090549985506e-06,2.3497549556364636e-06,2.5908029303895137e-06,2.4484802678064233e-06,9.89983845914677e-07,1.816110321092331e-05,1.772215956951217e-06,2.934602557407784e-06,9.226836440497466e-07,2.528050119813992e-06
179,1.520634858109435e-06,1.976220667727946e-06,1.2306943647432149e-06,1.5096501630073043e-06,4.220271815555604e-06,1.6248097314118002e-06,2.622717457270223e-06,2.34655478950491e-06,2.6455108124210823e-06,2.4958006679631687e-06,1.0348990122916638e-06,1.9096427309364387e-05,1.758376886316461e-06,3.238277411454721e-06,9.355884821597611e-07,2.4540721771526414e-06
180,1.5226908663191425e-06,1.9754544531421603e-06,1.2145101943674479e-06,1.4764689264556913e-06,4.425271957053858e-06,1.66266044886031e-06,2.6336106164851056e-06,2.3460408854590864e-06,2.706412714485662e-06,2.5484703377281986e-06,1.0800611000012855e-06,1.9962795329668477e-05,1.7492039829879381e-06,3.5868169870987984e-06,9.492602300483239e-07,2.3750218113319015e-06
181,1.5293586568339119e-06,1.9689377664906645e-06,1.2004253054529682e-06,1.4427385065575547e-06,4.619672459251571e-06,1.7004025541655174e-06,2.636921234308566e-06,2.3484694656664423e-06,2.7724180786894828e-06,2.6044675631524913e-06,1.1248251143115009e-06,2.0734718751609088e-05,1.7448423772650469e-06,3.982606273878386e-06,9.633984465262186e-07,2.2919585065582378e-06
182,1.5399559361383399e-06,1.9560545168369155e-06,1.1883369362144754e-06,1.4098210745528692e-06,4.800880859918167e-06,1.7383019281208144e-06,2.632344776577752e-06,2.3538620031686874e-06,2.8422983372117698e-06,2.6621502321132017e-06,1.168339210839468e-06,2.1388094314093433e-05,1.7453014818674007e-06,4.427830891686076e-06,9.778381513665605e-07,2.206046034190963e-06
183,1.5538148202175081e-06,1.936617565860278e-06,1.1779946817646675e-06,1.3790138725084542e-06,4.96686418498858e-06,1.7771522682292158e-06,2.6200740353013867e-06,2.362094798330479e-06,2.914759976634018e-06,2.720399775215533e-06,1.2095840673963042e-06,2.190317384546589e-05,1.7504635534450341e-06,4.924140830737448e-06,9.92528544154197e-07,2.1183659961723282e-06
184,1.5704212321263097e-06,1.9107440063523597e-06,1.1690655480364676e-06,1.3513807709717128e-06,5.116247720343007e-06,1.817958247484618e-06,2.6006558598086696e-06,2.372853327508442e-06,2.9885948715270067e-06,2.7784432552976692e-06,1.2474673995084043e-06,2.226661027041215e-05,1.7601714140737683e-06,5.47231001030723e-06,1.00738929155207e-06,2.029903559397901e-06
185,1.5893696947508347e-06,1.8786737908758057e-06,1.1612750878750671e-06,1.3277006104706417e-06,5.248332517119129e-06,1.8616227409727295e-06,2.57485901153181e-06,2.3855216912181566e-06,3.062705863791714e-06,2.8356954051695476e-06,1.2809305929834598e-06,2.2471692516264323e-05,1.774256696547114e-06,6.07203777902795e-06,1.0221964724836537e-06,1.941711578760301e-06
186,1.6101980992590803e-06,1.8407515935472691e-06,1.154459884509512e-06,1.3084849158106434e-06,5.363013071037822e-06,1.908805733475116e-06,2.543573423139778e-06,2.399138565829439e-06,3.136091858771001e-06,2.8918586438144597e-06,1.3089892119345778e-06,2.2516276674078832e-05,1.7924620472088646e-06,6.721881115810656e-06,1.0365357185845196e-06,1.8550011588272109e-06
187,1.6322856642067016e-06,1.7975067860463297e-06,1.1485128581332022e-06,1.2940032786597824e-06,5.4605733122202045e-06,1.959980028851929e-06,2.507671550666497e-06,2.4124205573231434e-06,3.207899481727353e-06,2.9469703223500953e-06,1.330751907049283e-06,2.2399541568894666e-05,1.8144369319249341e-06,7.419257058067394e-06,1.0498060365581392e-06,1.7709919950037284e-06
188,1.6549341763778291e-06,1.74962085023896e-06,1.1433842815781023e-06,1.2842826194282117e-06,5.541294766412443e-06,2.015558689087393e-06,2.4678224433081486e-06,2.423867504468824e-06,3.2775074864522256e-06,3.001152420493923e-06,1.345553682431113e-06,2.2120760908495254e-05,1.8399287000068284e-06,8.160548360733958e-06,1.0613150891060817e-06,1.6906868871528314e-06
189,1.6775734652868268e-06,1.6978422268081359e-06,1.1391759006678623e-06,1.2790994348401612e-06,5.6050389558241e-06,2.075944520194789e-06,2.4244108489659424e-06,2.4320493400947834e-06,3.3446277018817864e-06,3.0542740842815327e-06,1.353157001445168e-06,2.1681647027228387e-05,1.869004689149481e-06,8.941173309656094e-06,1.0704583089437975e-06,1.6147904239772715e-06
190,1.6999150153311742e-06,1.6430533200954838e-06,1.1361859696028925e-06,1.2780036834267066e-06,5.651211335811741e-06,2.141443510727391e-06,2.3776759591277197e-06,2.4359596475826417e-06,3.4093214304712965e-06,3.10582235069788e-06,1.3538119331840478e-06,2.108964773041443e-05,1.9020387633433514e-06,9.755392939538333e-06,1.0768574024306035e-06,1.543760486695605e-06
191,1.7219156547793485e-06,1.5863938118490894e-06,1.1348630974817042e-06,1.2803769782018952e-06,5.679213320217652e-06,2.2121197598719486e-06,2.327985583644584e-06,2.4350950559860194e-06,3.471770229239452e-06,3.1549586537816536e-06,1.3481095950556967e-06,2.0359245377049953e-05,1.939469479107114e-06,1.0596047320075336e-05,1.0803490812167165e-06,1.4778742501683978e-06
192,1.7435774259468732e-06,1.5292222110623633e-06,1.1357443729415335e-06,1.285510262201937e-06,5.688987925625057e-06,2.2877082012848785e-06,2.2760926141508987e-06,2.4291888667851665e-06,3.5319377499930234e-06,3.200535820125042e-06,1.3367595217524103e-06,1.951094893218184e-05,1.9816094098581167e-06,1.1454526100300654e-05,1.0808939936151416e-06,1.4172802751900108e-06
193,1.7648019665470121e-06,1.4729496154712294e-06,1.1393835011719835e-06,1.2926894529670255e-06,5.681230397165712e-06,2.3675939801576614e-06,2.223214403156511e-06,2.417993695766216e-06,3.5894898836618304e-06,3.2410841783185193e-06,1.3204391308704042e-06,1.856879946931974e-05,2.0286297501209153e-06,1.2320711468240434e-05,1.078580055613377e-06,1.3620423814100333e-06
194,1.7854299529219205e-06,1.4189040467131079e-06,1.1462545935468426e-06,1.3012583231068757e-06,5.657237854253732e-06,2.4508492780344303e-06,2.170825732721296e-06,2.401389848038709e-06,3.64406483189072e-06,3.2748842706497265e-06,1.2998000388574127e-06,1.755732592835061e-05,2.0805988512757484e-06,1.3182571283399517e-05,1.0737097033233844e-06,1.312139243381291e-06
195,1.8052929481700725e-06,1.3682615335818104e-06,1.1566812214157162e-06,1.3106355844535566e-06,5.61869005689054e-06,2.5363797393775944e-06,2.1202983700824325e-06,2.379578468527201e-06,3.695575801414608e-06,3.3000738207479664e-06,1.2755870685654716e-06,1.6499193639700702e-05,2.1375347139863715e-06,1.4025860128441406e-05,1.0667842664833979e-06,1.2674617126646474e-06
196,1.824145831863781e-06,1.3219962924238247e-06,1.170805150548074e-06,1.3203120569961057e-06,5.567524241489932e-06,2.6230932117786253e-06,2.07266303262192e-06,2.3530967356206885e-06,3.7442055746389557e-06,3.3148225323122117e-06,1.2486853527697567e-06,1.5414377192723895e-05,2.1994975675449565e-06,1.4834678082696447e-05,1.0583795169183045e-06,1.227887066346809e-06
197,1.84165489630605e-06,1.2808659677728947e-06,1.1885562505272567e-06,1.3298421305035747e-06,5.505809227803606e-06,2.7098939632933088e-06,2.028592114460615e-06,2.3227304891670694e-06,3.790064181308574e-06,3.317669852284499e-06,1.2200175976840326e-06,1.4320423952330426e-05,2.266593516242401e-06,1.559306911376167e-05,1.0490797177700536e-06,1.193354853485874e-06
198,1.8575997574750712e-06,1.2454586116270008e-06,1.2096327538015722e-06,1.3387964255538474e-06,5.435572794493635e-06,2.7955375985905556e-06,1.9884975599677337e-06,2.2894671031582377e-06,3.832770644405631e-06,3.30786514446817e-06,1.1904253253332424e-06,1.323277457485877e-05,2.3388175698222213e-06,1.6287120754348136e-05,1.0394735169297472e-06,1.1638433824425605e-06
199,1.8721537540079827e-06,1.216229762630743e-06,1.2335447259356079e-06,1.3467075010870552e-06,5.358673154865218e-06,2.878522186933038e-06,1.952628266906125e-06,2.254455192174434e-06,3.871277115819875e-06,3.2854376097953003e-06,1.1606202950865634e-06,1.2164734630384429e-05,2.41588958228428e-06,1.6906267458892036e-05,1.0300961994405643e-06,1.1393380847778362e-06
200,1.8859904278746917e-06,1.1934674186766386e-06,1.25974032262684e-06,1.3531069276273817e-06,5.276750181881267e-06,2.957032184338006e-06,1.921116991191675e-06,2.218876266570636e-06,3.904094518617683e-06,3.2509191034766873e-06,1.1311483303013951e-06,1.1127355593117979e-05,2.4971682927113147e-06,1.7442681890574933e-05,1.0213382893084544e-06,1.1199157996759879e-06
201,1.9001103479886037e-06,1.1772276159592867e-06,1.2877558154630474e-06,1.3576623760456068e-06,5.191199613544109e-06,3.028999836755358e-06,1.8939611795478318e-06,2.183832241897049e-06,3.929822144505038e-06,3.2049655067849664e-06,1.1023526912007333e-06,1.0129499769957487e-05,2.5815994159828188e-06,1.7889913143458862e-05,1.0134263255380643e-06,1.105851812216318e-06
202,1.915522023976107e-06,1.1673086562809512e-06,1.3172630528507092e-06,1.36035143024361e-06,5.103112363089833e-06,3.092404113600145e-06,1.870981706587545e-06,2.1503901267133874e-06,3.947659460693204e-06,3.1482518263498982e-06,1.0744017454457326e-06,9.178113309776232e-06,2.6677438681563244e-06,1.8243296431547685e-05,1.0064992029731476e-06,1.097582648599006e-06
203,1.9330214567483823e-06,1.1633030701128613e-06,1.3479592749100714e-06,1.361609038278489e-06,5.0131518539121125e-06,3.1456140576352998e-06,1.8518722120022703e-06,2.119639366964111e-06,3.957583837167388e-06,3.08163644830313e-06,1.0473803403258533e-06,8.278600330491941e-06,2.753921902770232e-06,1.8502060296911093e-05,1.0006877029282273e-06,1.0955699916534421e-06
204,1.9531440827092012e-06,1.1647282220025914e-06,1.3794304673619465e-06,1.3623288242952236e-06,4.921412786886484e-06,3.1875101693953182e-06,1.8363743356064776e-06,2.092583495113893e-06,3.960196139634976e-06,3.0062379123605023e-06,1.0213583949024021e-06,7.435185580369221e-06,2.8383217077049818e-06,1.8670395821797606e-05,9.960985277998038e-07,1.1002158167921592e-06
205,1.9761729395776994e-06,1.171156334753079e-06,1.4111367799326653e-06,1.3636506187346774e-06,4.827382523470891e-06,3.2174511943720744e-06,1.8244231201813642e-06,2.069944289500728e-06,3.956494804285626e-06,2.923338605047842e-06,9.963700576716533e-07,6.65116052205695e-06,2.918916904956897e-06,1.8755906428237782e-05,9.927465991847385e-07,1.1118249733514498e-06
206,2.0021579351009333e-06,1.1822315863841323e-06,1.4425133616131064e-06,1.366679981455717e-06,4.730008227257113e-06,3.2352943805213273e-06,1.8160850050294014e-06,2.0520266504807174e-06,3.947671936994844e-06,2.8343688453339253e-06,9.723333620807221e-07,5.928945043310273e-06,2.9933322095327897e-06,1.876665235423527e-05,9.90557156509681e-07,1.130545091354518e-06
207,2.030962171676746e-06,1.1975681030365183e-06,1.4731193907242923e-06,1.3723188668385186e-06,4.627713691053807e-06,3.241471562391862e-06,1.81134859033192e-06,2.0386884541674494e-06,3.934810221136184e-06,2.741075560514023e-06,9.490144859899856e-07,5.270013239587058e-06,3.0589900096769046e-06,1.870951249990572e-05,9.894524435594743e-07,1.1563051643695454e-06
208,2.062293989815496e-06,1.2166285493853094e-06,1.5027480467674642e-06,1.3812129056717085e-06,4.5184312154579815e-06,3.2368865220810783e-06,1.810004811045127e-06,2.0293905531292428e-06,3.918543075078549e-06,2.645690343238346e-06,9.261083411069166e-07,4.67484423266181e-06,3.113590767694909e-06,1.859102782434824e-05,9.894475433152032e-07,1.1888005405189572e-06
209,2.095754631948483e-06,1.2386600072391436e-06,1.5313859181362309e-06,1.3937564311836318e-06,4.399911281386427e-06,3.222538052832243e-06,1.8116970581657259e-06,2.0232910010638803e-06,3.898896199167813e-06,2.5509268826897926e-06,9.033781990532682e-07,4.14300420099035e-06,3.1555546958302443e-06,1.8418777665433804e-05,9.906912624204157e-07,1.2275350180370692e-06
210,2.130958680221932e-06,1.262718746317024e-06,1.559059802410264e-06,1.4101674980959418e-06,4.270256124508386e-06,3.199210177326335e-06,1.8159758916629333e-06,2.0193686378767665e-06,3.875343439566411e-06,2.4598553429691395e-06,8.80706976015961e-07,3.6732855400632527e-06,3.1840683414311063e-06,1.820120917543109e-05,9.93419896817309e-07,1.2718826581811941e-06
211,2.167639077586954e-06,1.2877954289580393e-06,1.585735745340078e-06,1.4306262560826843e-06,4.128405197356892e-06,3.1675288863792778e-06,1.8222478360239522e-06,2.016579497649552e-06,3.846999691457781e-06,2.375754738949746e-06,8.580066571243169e-07,3.2637858229042407e-06,3.198751543821899e-06,1.794621694451807e-05,9.978539010555617e-07,1.3211154246089337e-06
212,2.20561707433608e-06,1.3129807269209899e-06,1.611287626416596e-06,1.4553433057954494e-06,3.974478764028015e-06,3.1281731754453303e-06,1.8297305402721784e-06,2.014045750641673e-06,3.8128835556441653e-06,2.301934473930058e-06,8.351023344796531e-07,2.911941165276896e-06,3.1992367221875088e-06,1.7659776523240594e-05,1.0041073849164807e-06,1.3744028648419151e-06
213,2.24464380271845e-06,1.3375646979527857e-06,1.635444397632812e-06,1.4844600035222278e-06,3.8099073835366203e-06,3.081951148554704e-06,1.8375104327936778e-06,2.0112618993725447e-06,3.7721198391796454e-06,2.241559709584452e-06,8.117019145529468e-07,2.614596144770686e-06,3.1850654410187577e-06,1.734523503445799e-05,1.0121438145197641e-06,1.4308093259743572e-06
214,2.2842277007008437e-06,1.361033697232999e-06,1.6577570976478577e-06,1.5179126413456914e-06,3.637139890251306e-06,3.0297688059937924e-06,1.8446376060921868e-06,2.0082597788231317e-06,3.7240257889654966e-06,2.197662857149131e-06,7.874405709169545e-07,2.368098192694281e-06,3.156132546070872e-06,1.7003396757179915e-05,1.0217641319869943e-06,1.4893025957641398e-06
215,2.3235879722841424e-06,1.3830258797536508e-06,1.67768279319283e-06,1.5554681669982075e-06,3.4589868620498693e-06,2.9726194137063435e-06,1.850217248950389e-06,2.0056009271995012e-06,3.6682217425634956e-06,2.1733780129142684e-06,7.619416893786625e-07,2.1683384263298163e-06,3.1133625225368447e-06,1.6633585705750042e-05,1.0325964710319953e-06,1.5487990290353732e-06
216,2.3617909364743657e-06,1.403313623659633e-06,1.6947435839587082e-06,1.5969226655370528e-06,3.2781468157588586e-06,2.911587883422784e-06,1.8535359842627788e-06,2.0041351970095966e-06,3.6048750656023705e-06,2.1720892773938253e-06,7.348563825194606e-07,2.010753279444713e-06,3.058997373100876e-06,1.623526849034288e-05,1.044094453652397e-06,1.6082202456107446e-06
217,2.397946309001335e-06,1.4217802144730545e-06,1.708615176708325e-06,1.6422360405756559e-06,3.0972088839217615e-06,2.8477609530615706e-06,1.854143672726232e-06,2.0047244362924684e-06,3.5348922498381242e-06,2.197240768460275e-06,7.058935313774652e-07,1.8903568923608253e-06,2.9962181709909378e-06,1.5809229944003936e-05,1.0556077272552632e-06,1.6665385167220162e-06
218,2.4312398338000384e-06,1.4383127688868026e-06,1.7190634232884179e-06,1.6914510734439597e-06,2.9187263611636378e-06,2.78204960233788e-06,1.8517824502236667e-06,2.008139114014292e-06,3.4597947015756127e-06,2.252023521234632e-06,6.748602952018943e-07,1.8018624522061795e-06,2.9284113845964975e-06,1.5357844106940553e-05,1.0665724531879263e-06,1.722870567678793e-06
219,2.460765608778277e-06,1.4526719678450136e-06,1.7258237351233791e-06,1.744496118927813e-06,2.7450958735173334e-06,2.7150706098136586e-06,1.8463647469179675e-06,2.01503538498844e-06,3.381375285906475e-06,2.3392734040627235e-06,6.416742247429035e-07,1.7400144023847982e-06,2.8586001940397353e-06,1.4884703482944007e-05,1.0767373008740103e-06,1.7766343746591522e-06
220,2.4854246944907675e-06,1.4644774507626562e-06,1.728616691058911e-06,1.8010363784788968e-06,2.578444181543432e-06,2.647119039954322e-06,1.83820471482248e-06,2.025868720374712e-06,3.3014548399532596e-06,2.461531553957045e-06,6.063250880332946e-07,1.7000865346541207e-06,2.7892449559005583e-06,1.4393862831520378e-05,1.0862419293846254e-06,1.8276580879101596e-06
221,2.5041265397771588e-06,1.4733145652357142e-06,1.7273240607592691e-06,1.8603954619189384e-06,2.4206009879929382e-06,2.5782029424069896e-06,1.8282398177769685e-06,2.0407763745526154e-06,3.2218021160773407e-06,2.621077778334282e-06,5.688659606741762e-07,1.6781900365341548e-06,2.7223102311625894e-06,1.3888777090220961e-05,1.0954947836220641e-06,1.8761388256834013e-06
222,2.5161866597807303e-06,1.4788166335939798e-06,1.7220903802020835e-06,1.9215082206768788e-06,2.2730858017104467e-06,2.508203924046326e-06,1.81797366775564e-06,2.0595048759499415e-06,3.144034214361837e-06,2.8199354880546377e-06,5.295092926649448e-07,1.6712350110162959e-06,2.6594141080423866e-06,1.3371382972040024e-05,1.1049800289958784e-06,1.9224872559565694e-06
223,2.5215961167328063e-06,1.4806200703830215e-06,1.7132229488589342e-06,1.9829325790019615e-06,2.137098480171513e-06,2.4371256877228626e-06,1.8092729975898909e-06,2.081428707110888e-06,3.0694602950612393e-06,3.059845843780714e-06,4.887631840362428e-07,1.676790263321142e-06,2.6018677707635195e-06,1.2842167668441544e-05,1.1151344437642537e-06,1.967154979648317e-06
224,2.5209413544481962e-06,1.4783440738287917e-06,1.701125655840913e-06,2.042988442409759e-06,2.013508737106852e-06,2.36528030003373e-06,1.8041978580405365e-06,2.105673551978315e-06,2.9990750717904114e-06,3.3421736882461743e-06,4.474615182458817e-07,1.6930143920418657e-06,2.550613976211993e-06,1.2301377063265786e-05,1.126316884419454e-06,2.01048275935447e-06
225,2.5150628934349517e-06,1.4717770921524085e-06,1.6864313312918354e-06,2.10004826253962e-06,1.9028828368675756e-06,2.2933525528882807e-06,1.8048631913212758e-06,2.1312686125140887e-06,2.933732487819299e-06,3.6677874469531995e-06,4.0664881621601267e-07,1.718564078998459e-06,2.506204719498831e-06,1.1750455662448753e-05,1.1387872594859636e-06,2.0526096871085267e-06
226,2.504737276388528e-06,1.4611294019698575e-06,1.6700943666714648e-06,2.152879464859115e-06,1.8055626071956463e-06,2.2223669161010573e-06,1.8132820613116868e-06,2.157179507318261e-06,2.874205682360053e-06,4.036916560380766e-06,3.674575002924633e-07,1.7523722863653903e-06,2.4688023399957847e-06,1.119285455624713e-05,1.1526615857074105e-06,2.0934807301074446e-06
227,2.4905198732332645e-06,1.4470929200968972e-06,1.6532287695666546e-06,2.2008120212334593e-06,1.7217105804683302e-06,2.153577012360225e-06,1.8312009727726347e-06,2.1821776103554446e-06,2.8210077305051603e-06,4.449013555903979e-06,3.3109883797449744e-07,1.7933895551732074e-06,2.43818656409065e-06,1.0634074566653703e-05,1.1679229050483722e-06,2.1328795566487225e-06
228,2.4727135082078288e-06,1.430666509647641e-06,1.6368340861210462e-06,2.2435747853102164e-06,1.651329883023346e-06,2.0883029644767044e-06,1.8599835238015604e-06,2.2047037011051113e-06,2.7742302790307052e-06,4.902771493998299e-06,2.98922632380788e-07,1.8405078071919254e-06,2.4138346664426017e-06,1.0081184782240977e-05,1.184521000381487e-06,2.170404645197082e-06
229,2.4515136051187475e-06,1.4129123247881153e-06,1.6216444772312255e-06,2.2809591387493934e-06,1.5943348532558074e-06,2.0278006338837674e-06,1.9005652896421753e-06,2.222881493226388e-06,2.7336750818565408e-06,5.3962937180220286e-06,2.7246870338279193e-07,1.8926837027163894e-06,2.395056870018207e-06,9.542039460107863e-06,1.202464424412946e-06,2.2054125051002316e-06
230,2.427322627766453e-06,1.3948028089593563e-06,1.608125658127162e-06,2.3126139564837154e-06,1.550606008557471e-06,1.9732185222626514e-06,1.953446625211855e-06,2.2346900669092777e-06,2.6991904759925517e-06,5.927181786572163e-06,2.5350225455979646e-07,1.9490013460706657e-06,2.3811427391166425e-06,9.02433231679825e-06,1.2218087805339052e-06,2.2369995656705625e-06
231,2.4009368726158303e-06,1.3771563788292407e-06,1.5965024351271976e-06,2.3380176897431723e-06,1.5200049438713768e-06,1.9255681495254885e-06,2.0186966731451543e-06,2.2382914393273437e-06,2.670826976524689e-06,6.492479461196154e-06,2.4404010838570813e-07,2.00855171809226e-06,2.3714693347524922e-06,8.534666422685506e-06,1.242567773447528e-06,2.264079318883184e-06
232,2.3733801617670438e-06,1.3606183800558041e-06,1.586803098536973e-06,2.3564839088663867e-06,1.5024300143863703e-06,1.8856731010299578e-06,2.095962090711068e-06,2.232510542818615e-06,2.648646217077662e-06,7.0887423168781955e-06,2.463523681624287e-07,2.0703002707060776e-06,2.36545927072651e-06,8.077913126696998e-06,1.2646662770266118e-06,2.2855460759596887e-06
233,2.3455484240849508e-06,1.3456989324536258e-06,1.578950382223888e-06,2.367184721555563e-06,1.4978461301154865e-06,1.8542211837009105e-06,2.1844562246687626e-06,2.2172793626152286e-06,2.6324592666511016e-06,7.71248030614415e-06,2.629114479763091e-07,2.133050527085859e-06,2.3623960091884795e-06,7.657013778255944e-06,1.287987169532257e-06,2.30045342531421e-06
234,2.3179611421139293e-06,1.3328353491015016e-06,1.5727996183935316e-06,2.3692913353894657e-06,1.5062210215038292e-06,1.8319656182959463e-06,2.282926489388042e-06,2.193704393702357e-06,2.6218341049107053e-06,8.360859078675526e-06,2.962953055802633e-07,2.1955011290808973e-06,2.36127992754915e-06,7.273126904564366e-06,1.312450847413104e-06,2.308133128472804e-06
235,2.290748018435259e-06,1.3224238357486054e-06,1.568091585117292e-06,2.362274003342673e-06,1.5274539504957159e-06,1.8198897461006282e-06,2.389672927389613e-06,2.163636537043363e-06,2.616382798109268e-06,9.032247662134129e-06,3.49112319896609e-07,2.256484305450472e-06,2.3608365234045166e-06,6.925966513935998e-06,1.338070920881808e-06,2.3081891940056948e-06
236,2.2638299172187114e-06,1.3148035122683768e-06,1.5644534809544056e-06,2.3462517837906947e-06,1.5613308707075213e-06,1.8191540505248115e-06,2.5027002632293367e-06,2.1290520097802596e-06,2.6159778745705796e-06,9.726255659028303e-06,4.2400888692392965e-07,2.315355792275565e-06,2.3596624995813298e-06,6.614252535846609e-06,1.3649404213378226e-06,2.3003759615721127e-06
237,2.2371970057409065e-06,1.3101964387354215e-06,1.561480903005821e-06,2.3221403687199273e-06,1.6074984822274214e-06,1.8308892524942743e-06,2.6199835464995573e-06,2.0916372595018918e-06,2.6206126137030846e-06,1.0443214221839742e-05,5.237590867877907e-07,2.372283820128034e-06,2.3564710546625424e-06,6.3361440156447e-06,1.3931374744239256e-06,2.2845229849171358e-06
238,2.211170691375234e-06,1.308647412064481e-06,1.5587688534642257e-06,2.29142274675962e-06,1.6654567356045823e-06,1.8560307708001051e-06,2.7397271649701463e-06,2.052665494475014e-06,2.6301145379002954e-06,1.118328115969057e-05,6.513962089784648e-07,2.428296497402985e-06,2.35034117728611e-06,6.089441451079463e-06,1.4226645147597112e-06,2.2606617089603675e-06
239,2.1865080899922916e-06,1.3100214843995395e-06,1.5558165519404304e-06,2.2556999170988207e-06,1.7345232603387395e-06,1.8952581160774933e-06,2.86051380688363e-06,2.013054569807428e-06,2.644078032060799e-06,1.194546776388827e-05,8.103005286616304e-07,2.4851744542898117e-06,2.340853365532386e-06,5.8714517308331395e-06,1.45352416059768e-06,2.229280212642853e-06
240,2.164252999878859e-06,1.3140440082609323e-06,1.551898304368737e-06,2.216408931430177e-06,1.8138300992210698e-06,1.9489808733353415e-06,2.981322216092652e-06,1.973543439232018e-06,2.6619970568802057e-06,1.2727122671057842e-05,1.0041431859358377e-06,2.5452666005670902e-06,2.32801447866729e-06,5.678634311783731e-06,1.485841452319985e-06,2.191451369583645e-06
241,2.1454114718154213e-06,1.320314855617544e-06,1.5460572871905033e-06,2.174905905904859e-06,1.902449499109343e-06,2.017361865212685e-06,3.1014097164064477e-06,1.9349135977775597e-06,2.683331153947216e-06,1.3524321337172862e-05,1.2367052540145867e-06,2.6112136419699572e-06,2.311948476379631e-06,5.506297458217265e-06,1.5198542677553173e-06,2.1486526856706676e-06
242,2.130660096207439e-06,1.3283122970171934e-06,1.537294393927912e-06,2.13270335916135e-06,1.999507516168488e-06,2.100365961189102e-06,3.2200545266006695e-06,1.8980768815546757e-06,2.7073822386548465e-06,1.4332786010407519e-05,1.5117132989198448e-06,2.685650727184676e-06,2.2925690519607157e-06,5.348606797970111e-06,1.5557635151585202e-06,2.10238371951924e-06
243,2.120215051130727e-06,1.3374844089508437e-06,1.5248668556658085e-06,2.091512897051998e-06,2.1041221597886786e-06,2.1977605106398403e-06,3.3362856007274717e-06,1.8639423962107919e-06,2.7330965838688154e-06,1.514839473920565e-05,1.8327819930621359e-06,2.7710667130824835e-06,2.269544463243304e-06,5.199012990184688e-06,1.5936274844799941e-06,2.0538675114478466e-06
244,2.1138395282305135e-06,1.3474074172180785e-06,1.5084986611470434e-06,2.0530220475595022e-06,2.2152924786534184e-06,2.309073812281136e-06,3.448838905664687e-06,1.8332074665847442e-06,2.758977793930217e-06,1.59668819569584e-05,2.203412804043816e-06,2.8698272136113837e-06,2.242599787789852e-06,5.050989008219747e-06,1.6333949854155618e-06,2.00395585846077e-06
245,2.1109195899597457e-06,1.35783657118834e-06,1.4883586711668538e-06,2.018646926539964e-06,2.3318766185950357e-06,2.4335962134979753e-06,3.5563887544212215e-06,1.8062325508632086e-06,2.7832431446528393e-06,1.6783052073037514e-05,2.6269511499468356e-06,2.9841505446951632e-06,2.211907468819355e-06,4.898854647818934e-06,1.6749723894480207e-06,1.9531464576087108e-06
246,2.110583388841895e-06,1.3685910792679289e-06,1.4648355488628957e-06,1.989467992899002e-06,2.452619460093417e-06,2.570401279523063e-06,3.6578081565373284e-06,1.7830047180424532e-06,2.8042005942772606e-06,1.7589833224547356e-05,3.106490753447516e-06,3.115954748050769e-06,2.1782766702659436e-06,4.738537914270152e-06,1.7182515082784055e-06,1.9016641296958572e-06
247,2.1118974136465867e-06,1.3794562378859565e-06,1.4382744031967605e-06,1.966309439572441e-06,2.5762493659763607e-06,2.718294072084271e-06,3.7522230053486283e-06,1.7631451051026902e-06,2.8205401992135177e-06,1.8377466522310983e-05,3.6447730145377566e-06,3.266708367044324e-06,2.143045181723784e-06,4.568180259266592e-06,1.7631193584153634e-06,1.8496166524383528e-06
248,2.1141309416085196e-06,1.3902146989888328e-06,1.4088716035865015e-06,1.949812226148346e-06,2.701613825688547e-06,2.8757372640039378e-06,3.838930916057245e-06,1.7459703927064105e-06,2.831241077969903e-06,1.91332444716893e-05,4.244104804885493e-06,3.4373739889075314e-06,2.107798200610099e-06,4.388392237624406e-06,1.8094265111183647e-06,1.7971266490343623e-06
249,2.116962982325325e-06,1.4006855290085448e-06,1.3768077021011434e-06,1.9404278358131833e-06,2.827644098310134e-06,3.0408444218024755e-06,3.91744024788701e-06,1.7306749574000603e-06,2.835267970044706e-06,1.984166662677141e-05,4.906309661799703e-06,3.6284271540357692e-06,2.0741293417545134e-06,4.2019719231464745e-06,1.8569295275529156e-06,1.7443258536955928e-06
250,2.1204951170883936e-06,1.4107461528171166e-06,1.342490891888157e-06,1.9383765379450824e-06,2.9531142591721555e-06,3.211363471137087e-06,3.9876594076194985e-06,1.7166327147770353e-06,2.8315046880966104e-06,2.0484435296635962e-05,5.632681868646498e-06,3.839871362342534e-06,2.0435595029398958e-06,4.013156787831657e-06,1.9053202148151104e-06,1.6912982693259548e-06
251,2.125047930320951e-06,1.4204192514360977e-06,1.3067033403923028e-06,1.9436510552089496e-06,3.0764388666650632e-06,3.384626095343253e-06,4.049953635956981e-06,1.7036282666391312e-06,2.819004210046587e-06,2.104074273044301e-05,6.423853141276953e-06,4.0711927460494835e-06,2.0175060875636648e-06,3.8266990007608845e-06,1.954330004321181e-06,1.6381437138596166e-06
252,2.1308621497967675e-06,1.4299106762349937e-06,1.2705533463320531e-06,1.9560912903907665e-06,3.1956345722793845e-06,3.557570574556373e-06,4.1048754237053554e-06,1.6918140836444957e-06,2.7972609386108732e-06,2.1489358781365955e-05,7.279571984110808e-06,4.3213278496900804e-06,1.997168908866885e-06,3.64708729295824e-06,2.003759096118751e-06,1.5851237706063393e-06
253,2.1378895404104345e-06,1.4395107290400719e-06,1.2352814979251764e-06,1.9754782860401356e-06,3.308332860754861e-06,3.726777697485966e-06,4.152742665513222e-06,1.681443751575451e-06,2.7663888462450363e-06,2.1812612131564286e-05,8.198515463808043e-06,4.588680163382954e-06,1.9833845513301526e-06,3.4781423454276093e-06,2.053386076670539e-06,1.5326953800878368e-06
254,2.145732460014908e-06,1.449488390935366e-06,1.2020437491728293e-06,2.001545653012292e-06,3.4118840638012337e-06,3.888442575452774e-06,4.193411177545621e-06,1.672638933299392e-06,2.727273011042831e-06,2.1999837332020703e-05,9.178195516559524e-06,4.871103274725831e-06,1.976552917755576e-06,3.322948329865367e-06,2.1028199388508714e-06,1.4813869951030708e-06
255,2.153666565529085e-06,1.460043765686638e-06,1.1717874475065863e-06,2.0338734541570295e-06,3.5037299786314064e-06,4.0385645246846205e-06,4.226402005527095e-06,1.6653292459738942e-06,2.6815664881784244e-06,2.204768360629392e-05,1.0214887167121739e-05,5.165837305527731e-06,1.976660710475031e-06,3.183909766368965e-06,2.1513456481517964e-06,1.431687874326861e-06
256,2.160754425030835e-06,1.4713080200798935e-06,1.145250255174677e-06,2.0717909803097567e-06,3.5818938893260066e-06,4.173629914098927e-06,4.2512130863601485e-06,1.6592952100404673e-06,2.631370776647987e-06,2.1957132161555164e-05,1.130346704505359e-05,5.469446753465099e-06,1.9833865293308643e-06,3.0628635043456357e-06,2.1978143478085908e-06,1.3840881137644193e-06
257,2.166096266430542e-06,1.4834269536582813e-06,1.1230135756593418e-06,2.114376626979538e-06,3.6452421114335896e-06,4.291486538990568e-06,4.26747483326817e-06,1.6542655045393571e-06,2.5787987723992646e-06,2.1729879423367297e-05,1.2437100777914703e-05,5.777773683443165e-06,1.996264183370515e-06,2.961226760306807e-06,2.240619789796836e-06,1.3391723643367358e-06
258,2.1691340622479797e-06,1.4966397427187745e-06,1.1055361792107322e-06,2.160464330582527e-06,3.6934346476452113e-06,4.391798761151181e-06,4.274773341513011e-06,1.6500328284303274e-06,2.5257294328743746e-06,2.1367036746987537e-05,1.3606782166939283e-05,6.085936690289699e-06,2.014878604570392e-06,2.8800454297911287e-06,2.2777987069019277e-06,1.2975903453659895e-06
259,2.1698084642245164e-06,1.5112091588061617e-06,1.0931716132896273e-06,2.2086512075596324e-06,3.726720088540069e-06,4.475794198047143e-06,4.272362607303409e-06,1.646482538331976e-06,2.4737259957240633e-06,2.0870391671789126e-05,1.4800798770336797e-05,6.388422891645977e-06,2.039019885176565e-06,2.819936826454977e-06,2.3072859431276697e-06,1.259932865133799e-06
260,2.1684498382944918e-06,1.5272959651122798e-06,1.0862094845966877e-06,2.2574419292019934e-06,3.745690050437265e-06,4.5454882733724294e-06,4.259170959842691e-06,1.6434989887592758e-06,2.4239628925738136e-06,2.0244692432206626e-05,1.6004253668081547e-05,6.6792805910950025e-06,2.06866828035379e-06,2.7810741851361785e-06,2.327240141933959e-06,1.2266849277187135e-06
261,2.165512343535957e-06,1.544929997067575e-06,1.0849150892483538e-06,2.305498511956727e-06,3.7509809344345646e-06,4.602853522047295e-06,4.234200150805419e-06,1.6408281313371059e-06,2.377192119660374e-06,1.9499882978494395e-05,1.719871522801601e-05,6.952372995668496e-06,2.103798830214431e-06,2.7632271638581664e-06,2.336285162383676e-06,1.1982727948675509e-06
262,2.1613466260988618e-06,1.5640219500480155e-06,1.0895035560034433e-06,2.3517995490273194e-06,3.7429888060788895e-06,4.649389251344253e-06,4.1970531042181094e-06,1.637995085986441e-06,2.333865471877315e-06,1.8652151163748352e-05,1.8361981657336926e-05,7.201560806386065e-06,2.144180390544337e-06,2.765829423665044e-06,2.333628862384491e-06,1.175066197432293e-06
263,2.156141047344209e-06,1.584327457692941e-06,1.1000654399035918e-06,2.3956423221909487e-06,3.721856026693264e-06,4.686170787827282e-06,4.148301626297675e-06,1.6343082064115296e-06,2.2943749728095215e-06,1.7722612433111583e-05,1.946795563785224e-05,7.420592235487366e-06,2.1893029130311965e-06,2.7881603837751836e-06,2.319086477073213e-06,1.1572962019031633e-06
264,2.150074094779781e-06,1.605390637947034e-06,1.116516777413109e-06,2.4366063957767937e-06,3.687808987517506e-06,4.714085229995998e-06,4.089521165791473e-06,1.6289235955883856e-06,2.25916423217841e-06,1.6734170593287312e-05,2.0486912035949635e-05,7.602794384234261e-06,2.238375603908052e-06,2.8295905200080188e-06,2.292943413793197e-06,1.144988893614017e-06
265,2.1435359751777813e-06,1.626542244079438e-06,1.1386048460106506e-06,2.47456881297942e-06,3.6415304821099246e-06,4.7340050580181225e-06,4.022973555790459e-06,1.6209819778002142e-06,2.2285992994217244e-06,1.5708553345633287e-05,2.1387105464480523e-05,7.741284745478577e-06,2.290342133741688e-06,2.889653633764975e-06,2.2556679810053173e-06,1.137967204649014e-06
266,2.1371759058842005e-06,1.6469674564794206e-06,1.1659414661855078e-06,2.509715262219274e-06,3.584284735061942e-06,4.746839143631017e-06,3.951147985436589e-06,1.6098241089544721e-06,2.2028014784242495e-06,1.4664808874110038e-05,2.2138515055109376e-05,7.83014440648561e-06,2.3439616863039773e-06,2.9679182666390554e-06,2.2077769157546353e-06,1.1358652056206845e-06
267,2.1317261947883173e-06,1.6658119323134093e-06,1.1980148778021252e-06,2.542466842774055e-06,3.5178106032503173e-06,4.7534727110787886e-06,3.87642859860915e-06,1.5951846432929972e-06,2.181679662034177e-06,1.3618979897653283e-05,2.2717647504314678e-05,7.865792954139515e-06,2.3979038486152982e-06,3.063884914656671e-06,2.1500607889537964e-06,1.1381195388500106e-06
268,2.127777271352907e-06,1.6823956001909262e-06,1.234174547025127e-06,2.5733172427046082e-06,3.4440618338580246e-06,4.754668006971036e-06,3.8009123234538316e-06,1.5772213838538159e-06,2.165167947811641e-06,1.2584239763522433e-05,2.3110392667551314e-05,7.84741332079701e-06,2.450799255171371e-06,3.177011008327681e-06,2.0838692899072544e-06,1.143981140291787e-06
269,2.125680621414969e-06,1.696497474510086e-06,1.2736205757942545e-06,2.6026148280863417e-06,3.3649050838799174e-06,4.751015330047702e-06,3.7262401018814285e-06,1.5563409317045493e-06,2.1533925721077245e-06,1.1571333992135548e-05,2.331059197544963e-05,7.776126821897127e-06,2.5014155044234036e-06,3.3067534604935335e-06,2.0110927055199798e-06,1.1526238085994977e-06
270,2.125625664386315e-06,1.7084113269021697e-06,1.3154164060803664e-06,2.630369466109896e-06,3.282019500428342e-06,4.742930637873597e-06,3.653479800132838e-06,1.5329556865277445e-06,2.1465687974962195e-06,1.0589296842368392e-05,2.3316080503633418e-05,7.653782693227487e-06,2.5489478313446008e-06,3.452569931824705e-06,1.933888093183442e-06,1.1633802556920875e-06
271,2.1277967653074317e-06,1.7186962933817179e-06,1.3585214648958976e-06,2.656195181253465e-06,3.197030342534431e-06,4.7305697165921615e-06,3.5831483804662774e-06,1.5073808144308103e-06,2.1448009851289945e-06,9.646089946856865e-06,2.312713636980182e-05,7.482634564078254e-06,2.593053405755561e-06,3.6139246867099786e-06,1.8543931694908472e-06,1.1759690588865344e-06
272,2.132441445320124e-06,1.7279057238876532e-06,1.4018627309537847e-06,2.6794026987002184e-06,3.1115580918690784e-06,4.713610316614815e-06,3.5152891609249753e-06,1.479939990806152e-06,2.1479672910111356e-06,8.748835679454823e-06,2.274892417791406e-05,7.266056439786096e-06,2.6336091017264374e-06,3.7902283531075647e-06,1.774564821489754e-06,1.1905121218482233e-06
273,2.1397586312020235e-06,1.7364459485479063e-06,1.4444691830934663e-06,2.6991376860853486e-06,3.0270815831793834e-06,4.691164970506265e-06,3.449542163103128e-06,1.4511086351356062e-06,2.155654913090399e-06,7.903603371899036e-06,2.2194224570220538e-05,7.009157640960508e-06,2.6705792877058663e-06,3.980591979354805e-06,1.6961557624427314e-06,1.2073427890056833e-06
274,2.1497069890868253e-06,1.7445320466144836e-06,1.4855467568835886e-06,2.7144800607720033e-06,2.9448989525608603e-06,4.662035004459896e-06,3.385181997206664e-06,1.4214772184666262e-06,2.1671971312424713e-06,7.115016621094327e-06,2.1483334718582672e-05,6.7185186129566774e-06,2.7040478346394052e-06,4.183514846777273e-06,1.6207696866839899e-06,1.2267723932371626e-06
275,2.161905179911183e-06,1.7522098855616636e-06,1.5243463227971112e-06,2.724534053690636e-06,2.8662658724309944e-06,4.625089071395339e-06,3.321118056302901e-06,1.3915548561974905e-06,2.1818968606550502e-06,6.386117510597774e-06,2.0641660765339387e-05,6.4014051553553485e-06,2.734170773136559e-06,4.396753060097664e-06,1.5498803726119454e-06,1.2489411281690152e-06
276,2.175670918509434e-06,1.7593887506263797e-06,1.5599524967192118e-06,2.728604828116505e-06,2.7924274461179743e-06,4.57951070799265e-06,3.2559969588020174e-06,1.3616134098281867e-06,2.199224268733062e-06,5.718617987547112e-06,1.9696736173409643e-05,6.065098258982222e-06,2.7609943586098302e-06,4.617389702872338e-06,1.4847596243937702e-06,1.2737867612577982e-06
277,2.190136871062762e-06,1.7658961939436866e-06,1.5912556654498282e-06,2.7264684335319924e-06,2.724436405078989e-06,4.524860776761872e-06,3.188466032551495e-06,1.331696230606061e-06,2.2187190295801302e-06,5.113211016996998e-06,1.867565847897789e-05,5.716479761280603e-06,2.7843119048637192e-06,4.84188277229275e-06,1.4263969533661589e-06,1.301106774465914e-06
278,2.204391596179573e-06,1.7715631238297258e-06,1.6171801834071837e-06,2.718581411146191e-06,2.6629700557357316e-06,4.460877845305731e-06,3.1174544314185145e-06,1.301786622175275e-06,2.2397185549242295e-06,4.569652947250375e-06,1.760319073485816e-05,5.361693084701148e-06,2.8037604768289276e-06,5.065981177535269e-06,1.3754834361669007e-06,1.330622099944353e-06
279,2.217629613571695e-06,1.7762185811130088e-06,1.6370227394213008e-06,2.7060573357535545e-06,2.6082822732604305e-06,4.387071649318056e-06,3.042342603889984e-06,1.2720389519678474e-06,2.261247054621401e-06,4.086749205254461e-06,1.650065335311023e-05,5.005897823520926e-06,2.819130993073691e-06,5.284724745242695e-06,1.3324352807595446e-06,1.3619615965200182e-06
280,2.22930507537004e-06,1.7796233862410412e-06,1.650673655142418e-06,2.690377045226832e-06,2.5602805285516945e-06,4.302521119958119e-06,2.9630051505005004e-06,1.242923600960021e-06,2.282182114229221e-06,3.6625117707225773e-06,1.5385695269519938e-05,4.6532776389720275e-06,2.8305561383836614e-06,5.492756203828784e-06,1.2974151306859407e-06,1.3946355206268375e-06
281,2.2392389802881086e-06,1.7815413115049579e-06,1.6585679744648241e-06,2.6729821190275295e-06,2.518686511387465e-06,4.206158346888389e-06,2.8797723275651743e-06,1.215205235945425e-06,2.3015705828218747e-06,3.294460355765245e-06,1.4272663316304395e-05,4.307245628099784e-06,2.838333149723919e-06,5.684885582302564e-06,1.2703404249906913e-06,1.428066672483827e-06
282,2.247568472821773e-06,1.7819209997365916e-06,1.6614053260322594e-06,2.6550230532870362e-06,2.4831354579544187e-06,4.097261670814374e-06,2.7933279138478227e-06,1.189803323631195e-06,2.3188933381082217e-06,2.979822514878441e-06,1.3173150861787519e-05,3.9706692930700025e-06,2.8426230854384356e-06,5.856723709225342e-06,1.2508953539694793e-06,1.461612599928337e-06
283,2.2545666881889377e-06,1.7809457250493195e-06,1.6598319311971019e-06,2.6373785860620714e-06,2.4530943391470756e-06,3.97577131550755e-06,2.7045057321192425e-06,1.1676471275779962e-06,2.334088948888057e-06,2.7155124896074768e-06,1.2096540636856935e-05,3.6460418682638518e-06,2.843358378685268e-06,6.005221313626189e-06,1.2385581761792555e-06,1.494592853420364e-06
284,2.26059769430484e-06,1.7788744556479254e-06,1.6542748418239537e-06,2.6207570513001636e-06,2.4277443150215654e-06,3.842359103841791e-06,2.6140253576544747e-06,1.1495872546240072e-06,2.34731327734865e-06,2.498007444761561e-06,1.1050513456489065e-05,3.335591920629394e-06,2.840307060275089e-06,6.128884860386177e-06,1.232661640095745e-06,1.526359661289013e-06
285,2.2662577962616493e-06,1.775838104042058e-06,1.6449921019016064e-06,2.605682645118401e-06,2.406081345023167e-06,3.6983514900899757e-06,2.5223930202085165e-06,1.136338306755107e-06,2.358715486571429e-06,2.3233321817657335e-06,1.0041499663804267e-05,3.0413106947170067e-06,2.833155728088493e-06,6.2274127394523076e-06,1.2324953757755284e-06,1.556300432545827e-06
286,2.272383933083971e-06,1.7717243183474108e-06,1.6322468813574906e-06,2.5923794623973057e-06,2.38722226008096e-06,3.5455803874568676e-06,2.430076126268979e-06,1.1284308197735608e-06,2.3684543891286117e-06,2.187222179341405e-06,9.075024659577574e-06,2.7648817399802216e-06,2.8216072341232187e-06,6.3008034422056624e-06,1.237366589913673e-06,1.583800026647589e-06
287,2.2798524350666716e-06,1.7661527377609908e-06,1.6164440870333837e-06,2.5806868357513063e-06,2.3706162165297303e-06,3.3861672262103744e-06,2.3377022289010975e-06,1.1261960378185435e-06,2.376768475030971e-06,2.0853353983990635e-06,8.155877350058786e-06,2.507549751456339e-06,2.8054727336425322e-06,6.3484901912500585e-06,1.2465372438512886e-06,1.608339395027872e-06
288,2.2894173001612676e-06,1.7585501156007615e-06,1.598143204279213e-06,2.570116306285612e-06,2.355953219051187e-06,3.2222307653381346e-06,2.246073451301159e-06,1.1297771477004837e-06,2.383917852531514e-06,2.013361112778592e-06,7.288088885374977e-06,2.2700215606994368e-06,2.7847430458621122e-06,6.369048751803214e-06,1.2591098585101408e-06,1.6296780170642312e-06
289,2.3016832771671756e-06,1.748343388059314e-06,1.5779833101967416e-06,2.5599969555855248e-06,2.3429358775684257e-06,3.0556480745148793e-06,2.156077670923264e-06,1.1391299809816402e-06,2.390167602017925e-06,1.967009980872263e-06,6.474808240643539e-06,2.052457559604302e-06,2.7596114701728656e-06,6.360483551817501e-06,1.2739902852244623e-06,1.6479501599145754e-06
290,2.317166531618962e-06,1.735193235760412e-06,1.5566207610077193e-06,2.5495355950181468e-06,2.331246558031801e-06,2.8881081581395644e-06,2.0685886360483027e-06,1.1540247649411177e-06,2.395954900306336e-06,1.94199717599017e-06,5.718158971369585e-06,1.854519728537785e-06,2.7303713115268447e-06,6.3208009362170155e-06,1.2899855968294996e-06,1.663680831849886e-06
291,2.336342460789215e-06,1.719132703131007e-06,1.5347545652732634e-06,2.537772709720793e-06,2.3207634992505156e-06,2.7214575007920123e-06,1.984352550077556e-06,1.174076751003702e-06,2.4020522542321477e-06,1.934110663217118e-06,5.0191468340994715e-06,1.6754524201186535e-06,2.6972987627062946e-06,6.248665574301347e-06,1.3060053537590695e-06,1.6777758313275213e-06
292,2.3595520536823463e-06,1.700533355536632e-06,1.5131776205036063e-06,2.5236414142598015e-06,2.3117903140552853e-06,2.5579850873101993e-06,1.9039147955580428e-06,1.1987712697237235e-06,2.4095076789001115e-06,1.9393105704991703e-06,4.377739990907928e-06,1.514243230072147e-06,2.660808172800465e-06,6.144006670202693e-06,1.321219430206927e-06,1.6914243743962851e-06
293,2.386842774932086e-06,1.679938887888512e-06,1.4927328282453179e-06,2.506209222574346e-06,2.3051261767223394e-06,2.400348274928455e-06,1.827666549998997e-06,1.2274487865343285e-06,2.419484473094396e-06,1.9537771621743615e-06,3.79316219317041e-06,1.3698660870532954e-06,2.6218013067944736e-06,6.008397324048017e-06,1.335042252340087e-06,1.7058795112197466e-06
294,2.4179254151266633e-06,1.6578716835323453e-06,1.4742441845088548e-06,2.4848836061983325e-06,2.3019465955741156e-06,2.251221342858727e-06,1.7559420928424397e-06,1.2592973729465578e-06,2.4332585223425085e-06,1.974004405010232e-06,3.2642265764586818e-06,1.2415006941883978e-06,2.5817296436317094e-06,5.845029751583737e-06,1.3470450455995547e-06,1.7222270966892786e-06
295,2.4522740595642745e-06,1.6347150352650142e-06,1.458550000395966e-06,2.4594127338221535e-06,2.303525573890918e-06,2.112979105994312e-06,1.689003815978614e-06,1.2934138899407657e-06,2.4523111266612377e-06,1.99709146511385e-06,2.7895120851517924e-06,1.128593905368847e-06,2.542251749260584e-06,5.658275674959218e-06,1.3570090368973743e-06,1.7412692199604915e-06
296,2.4893155998674244e-06,1.6107666185575333e-06,1.4465310061441308e-06,2.429780105738413e-06,2.3109434661664594e-06,1.9875791211678843e-06,1.6269194513679996e-06,1.3288924828844023e-06,2.478241701542816e-06,2.0211207189462197e-06,2.3673826197375448e-06,1.030731435677838e-06,2.504868427165803e-06,5.453033157553127e-06,1.3650728910351746e-06,1.7635429821576733e-06
297,2.528637361450106e-06,1.5864399485231138e-06,1.4390274249805002e-06,2.3961673957159534e-06,2.3249448843200833e-06,1.8765586873554937e-06,1.5695221584700955e-06,1.3648410266006724e-06,2.5124737022080865e-06,2.0453062266582124e-06,1.995962551492094e-06,9.474734366262378e-07,2.4707591914204583e-06,5.234084112206083e-06,1.3717054066636646e-06,1.7894092083673289e-06
298,2.5700758117516378e-06,1.5624089101818535e-06,1.4367546185496548e-06,2.3590110835324757e-06,2.3459292657333133e-06,1.78105335128812e-06,1.5165276887449365e-06,1.4003630070526396e-06,2.55601094150638e-06,2.069743879184294e-06,1.6731121385665961e-06,8.783209348609778e-07,2.4407212970394944e-06,5.0056222456786505e-06,1.377472191841066e-06,1.819110685010462e-06
299,2.613603186311623e-06,1.5395507984170766e-06,1.440281449430565e-06,2.3189849361092064e-06,2.3739435961386635e-06,1.701822422512146e-06,1.467635204995737e-06,1.4346392135966877e-06,2.609457697984984e-06,2.094896764910565e-06,1.3963907765238218e-06,8.227926586516084e-07,2.415102704391615e-06,4.771147133207518e-06,1.3828454394135146e-06,1.8527311318113644e-06
300,2.6591299368567953e-06,1.5187568492460972e-06,1.4500062683918762e-06,2.2768013159814725e-06,2.4086543643599678e-06,1.6392743218576427e-06,1.4224838798879595e-06,1.4670416192745164e-06,2.6732772742359264e-06,2.1211198690506923e-06,1.1630374409096511e-06,7.805014786000313e-07,2.39375049455455e-06,4.533692345546249e-06,1.3881721301933882e-06,1.8901174450769673e-06
301,2.706437832701912e-06,1.5007582569471229e-06,1.466142801301079e-06,2.2330391189227326e-06,2.4494092454495125e-06,1.5934971172233157e-06,1.3806104408014737e-06,1.497086768169017e-06,2.7480418012222908e-06,2.1484151027530915e-06,9.700186712222647e-07,7.511569761983674e-07,2.3760962208008017e-06,4.295951338837039e-06,1.393686321301696e-06,1.9309237324796978e-06
302,2.7552746528180196e-06,1.4860654346720127e-06,1.4887675139029514e-06,2.188196387477364e-06,2.495399804856467e-06,1.5643314067791e-06,1.341591586913825e-06,1.5243008152245326e-06,2.8344321811783996e-06,2.1763705651876808e-06,8.141201558983556e-07,7.344835036349847e-07,2.3614428379119616e-06,4.0601019446326e-06,1.3994699775460255e-06,1.974770132761091e-06
303,2.8053836498351497e-06,1.4750039296568868e-06,1.517875257143451e-06,2.142829968542443e-06,2.545752059833953e-06,1.5515464467920326e-06,1.3052904599823226e-06,1.5482353285632222e-06,2.9330274892535697e-06,2.204160987192478e-06,6.919975234019689e-07,7.301246484259489e-07,2.349315610575253e-06,3.8276619490616925e-06,1.4053968041153964e-06,2.0213064491936063e-06
304,2.856325466740584e-06,1.4677547677353447e-06,1.553422584357404e-06,2.0976219947715593e-06,2.5995209930373813e-06,1.555080170936158e-06,1.271936780872174e-06,1.5686544708345914e-06,3.0440909764656196e-06,2.2305724633818327e-06,6.001796944444314e-07,7.376152205252645e-07,2.3395907048851784e-06,3.5996534325789988e-06,1.4111413112579782e-06,2.0701057065723754e-06
305,2.9073068428708754e-06,1.4643929635349211e-06,1.5954207750362624e-06,2.053369448639299e-06,2.655762688393382e-06,1.5751281939463489e-06,1.241941170645399e-06,1.5856993594249389e-06,3.16744964138128e-06,2.2541171608133745e-06,5.351045123562281e-07,7.564081529047489e-07,2.332289693000913e-06,3.377002359736944e-06,1.4162646545982829e-06,2.1205491815307803e-06
306,2.957278321301093e-06,1.4649981680245767e-06,1.6439962343850622e-06,2.0108798292747966e-06,2.7136180366156904e-06,1.6119635913685726e-06,1.2156683504487005e-06,1.5998507599450536e-06,3.302506710562737e-06,2.273257759653829e-06,4.932141617030394e-07,7.85882913462953e-07,2.327379287340109e-06,3.1609390683874692e-06,1.4203108568000272e-06,2.171852448379954e-06
307,3.005245665344077e-06,1.4697971516592509e-06,1.6992812717025949e-06,1.9708095531363745e-06,2.772177072396978e-06,1.665674393257934e-06,1.1933877261199617e-06,1.6117310185707232e-06,3.4483603663941607e-06,2.2866323251847003e-06,4.710410312968245e-07,8.253236625052657e-07,2.3249391497366535e-06,2.9531536772772215e-06,1.4228726100505271e-06,2.2232499000175847e-06
308,3.0505578602493577e-06,1.4791786017294687e-06,1.7612360422892787e-06,1.9335941428094807e-06,2.830197253554718e-06,1.7360377570476973e-06,1.1753560901425446e-06,1.621990103467873e-06,3.6038466827978414e-06,2.293200557521719e-06,4.652417495362218e-07,8.739085778960379e-07,2.3254864461233655e-06,2.7555990580614197e-06,1.4236113448571748e-06,2.2742528960807606e-06
309,3.093031512884863e-06,1.493537450022451e-06,1.8295592081786325e-06,1.8995015958513485e-06,2.8859612657499418e-06,1.8225155297294428e-06,1.1618975303284976e-06,1.631358710645915e-06,3.7674352620945817e-06,2.292311404041697e-06,4.726810216031282e-07,9.307103870506281e-07,2.3300030399947625e-06,2.570121233390118e-06,1.4222156611162858e-06,2.3247954604843586e-06
310,3.132951964788328e-06,1.5131015105435202e-06,1.9036541800534242e-06,1.8686622146861832e-06,2.9374458206559696e-06,1.9242820181960523e-06,1.1534051058971386e-06,1.6406723316747387e-06,3.937103926430206e-06,2.2837013458529134e-06,4.906284714250779e-07,9.946796322318422e-07,2.3396550139813758e-06,2.398217633142799e-06,1.4183845394105327e-06,2.3751007908666126e-06
311,3.1710426472883758e-06,1.5378616502270069e-06,1.9826112857029417e-06,1.8410045320639996e-06,2.9827955813006764e-06,2.040288131277693e-06,1.150250635091619e-06,1.6507440861729808e-06,4.110335941936369e-06,2.2674840950221164e-06,5.169061610440842e-07,1.0646151514964597e-06,2.3555154624384138e-06,2.2409961151037503e-06,1.4119736152270812e-06,2.4253506767190703e-06
312,3.208390418725359e-06,1.5675853075433973e-06,2.065238479603221e-06,1.8161807644374093e-06,3.0208706465419475e-06,2.1693303225317717e-06,1.152669103194746e-06,1.6621891097713842e-06,4.284330722675957e-06,2.2441748256745195e-06,5.498512534442425e-07,1.1391662735863643e-06,2.378411807143806e-06,2.0992094448896596e-06,1.4032245832454501e-06,2.4754342773628848e-06
313,3.2462880620052913e-06,1.6018828361266304e-06,2.1500989697363773e-06,1.7935795002395333e-06,3.051464477159574e-06,2.3100314309983416e-06,1.1606945227986542e-06,1.6753168548488547e-06,4.456302324066032e-06,2.214640318152325e-06,5.881676555745672e-07,1.2169068773230908e-06,2.4088551961106547e-06,1.973314469531168e-06,1.3928022030427013e-06,2.52491216403848e-06
314,3.286013867427566e-06,1.6403064125633802e-06,2.2355453256344578e-06,1.7724966539137779e-06,3.074981193557585e-06,2.4607818101387305e-06,1.1741446592756963e-06,1.6900921419848354e-06,4.623527511651097e-06,2.1799072752659666e-06,6.307678665042073e-07,1.2964700274142724e-06,2.447046660273877e-06,1.863536390473974e-06,1.3815555540964196e-06,2.5731258299981504e-06
315,3.328568094590906e-06,1.6824438319948091e-06,2.3198667551882114e-06,1.7524306039752001e-06,3.091836729936041e-06,2.6197409410709427e-06,1.192625105227437e-06,1.7061314113287735e-06,4.783069412228376e-06,2.140968824357071e-06,6.766623796665728e-07,1.3766813834820352e-06,2.4929514743639337e-06,1.7698681911608688e-06,1.3702302844813853e-06,2.6193590924474114e-06
316,3.3744345195909056e-06,1.7279898250044506e-06,2.401567471166621e-06,1.7332947455934701e-06,3.1020635489732695e-06,2.7848498650632564e-06,1.2155639631326164e-06,1.7227407492608471e-06,4.931633603069638e-06,2.0986583521915184e-06,7.2494090446952e-07,1.4566516413738212e-06,2.5464002693724903e-06,1.6920370758842033e-06,1.3593624613244415e-06,2.6629546361787116e-06
317,3.423499518232803e-06,1.776756537129984e-06,2.479607228381274e-06,1.7153838787924121e-06,3.1052910798081424e-06,2.9538894566334016e-06,1.2422950904636312e-06,1.739012579797312e-06,5.065957049713447e-06,2.0535648718473373e-06,7.748110464058352e-07,1.53586754106035e-06,2.6071186693165746e-06,1.629540028499279e-06,1.3493360967296283e-06,2.7033230087361034e-06
318,3.47511603747658e-06,1.8285787031975811e-06,2.553455187825686e-06,1.699157747759386e-06,3.1008798835898515e-06,3.124686454941834e-06,1.2721738972182801e-06,1.7539735847022633e-06,5.1835265893462055e-06,2.0061266331173552e-06,8.256085140174945e-07,1.6142888630964486e-06,2.674606362902761e-06,1.5818179762177995e-06,1.3404288904720151e-06,2.739911821004351e-06
319,3.528133415787824e-06,1.883197370237996e-06,2.622946209406047e-06,1.6850133020257603e-06,3.0880591970711065e-06,3.2952527738286846e-06,1.3046660385898429e-06,1.7667274227283032e-06,5.283154262716445e-06,1.9569259970656053e-06,8.7677516577299e-07,1.6923202115951423e-06,2.747984533458574e-06,1.5485994044263634e-06,1.3327730775520635e-06,2.7722049133422456e-06
320,3.580858688557866e-06,1.9402606438003944e-06,2.6880076786203886e-06,1.673165168425164e-06,3.066196067303389e-06,3.4636942125005725e-06,1.3393394362484523e-06,1.7764809508352327e-06,5.3650879236293e-06,1.9068621845871871e-06,9.278713421876921e-07,1.7705780277906045e-06,2.8260234087755107e-06,1.5302037629767885e-06,1.326302041367802e-06,2.7996950335168533e-06
321,3.6311442980928706e-06,1.9993861780104942e-06,2.748359795349798e-06,1.6636507334369074e-06,3.0351644648992348e-06,3.628208343028204e-06,1.3757737322070265e-06,1.782439646089143e-06,5.430612068892051e-06,1.8569910775839031e-06,9.7858939235733e-07,1.8496079167978205e-06,2.90737411582001e-06,1.5274623516476921e-06,1.3207529411515304e-06,2.821773151011399e-06
322,3.6767238103193976e-06,2.0601172828081382e-06,2.803335401950092e-06,1.6563690238204466e-06,2.9955508955074947e-06,3.7872976227495477e-06,1.413477843148598e-06,1.783776424880054e-06,5.481374111215922e-06,1.8082387903260465e-06,1.028681634463397e-06,1.929732920648237e-06,2.9908213802213635e-06,1.5413337374927054e-06,1.315719251614972e-06,2.8375915331038202e-06
323,3.715653827941025e-06,2.1218015371616924e-06,2.851903335048068e-06,1.6510652349387224e-06,2.948649199448224e-06,3.939802711912314e-06,1.451853760447695e-06,1.7798338458731526e-06,5.518744490852999e-06,1.761267821579998e-06,1.0778705510964219e-06,2.0110214602130654e-06,3.0753941602999655e-06,1.5726094255612732e-06,1.3107104765384943e-06,2.846016122576494e-06
324,3.7465909493401662e-06,2.1835649637316885e-06,2.892802492893169e-06,1.6473201308565621e-06,2.896370261020702e-06,4.084746270282778e-06,1.4901763297486208e-06,1.7704349572075683e-06,5.54350302110606e-06,1.7165582704959361e-06,1.125864598265512e-06,2.09331833504404e-06,3.1603064784688235e-06,1.6218396584634398e-06,1.305232226412659e-06,2.8457739374665256e-06
325,3.768779142102011e-06,2.2444010349240187e-06,2.9246635204993957e-06,1.6446050773397945e-06,2.8410767977177874e-06,4.221474664613022e-06,1.5275946489743247e-06,1.7560864456283022e-06,5.556001772097003e-06,1.6746232701424641e-06,1.1724554522233744e-06,2.1763570321758716e-06,3.2447439315186707e-06,1.6893432115872283e-06,1.298877058918772e-06,2.8358092589207756e-06
326,3.781920998121816e-06,2.3032146523496866e-06,2.9461478680119864e-06,1.642304289993291e-06,2.7853234870868166e-06,4.350068333934813e-06,1.5632156110509165e-06,1.7379576459557157e-06,5.556441349471624e-06,1.6361964466272393e-06,1.2175775273422986e-06,2.2598822193689973e-06,3.3275717620114654e-06,1.7751984705257264e-06,1.2913575560817412e-06,2.8156289813679843e-06
327,3.78616430372196e-06,2.3587585552291824e-06,2.9562057918294203e-06,1.6396824534530368e-06,2.731566054365935e-06,4.471466840707966e-06,1.5962945995190337e-06,1.7176501949419108e-06,5.5447724955874365e-06,1.6022506483769816e-06,1.2612656589981303e-06,2.3436112894753427e-06,3.4071949624778425e-06,1.8792052011394454e-06,1.2824787436609714e-06,2.7853156361343667e-06
328,3.782137641770558e-06,2.4096815799509836e-06,2.9544178502513217e-06,1.6359766201507685e-06,2.6819276427364716e-06,4.5870811094524855e-06,1.6264540680664885e-06,1.69691403473556e-06,5.520510580954952e-06,1.5738751947551658e-06,1.3035653281374606e-06,2.427031278717965e-06,3.4817482846927043e-06,2.0008451721137133e-06,1.2720586790129969e-06,2.7452700264104337e-06
