,EMG1,EMG2,EMG3,EMG4,EMG5,EMG6,EMG7,EMG8,EMG9,EMG10,EMG11,EMG12,EMG13,EMG14,EMG15,EMG16
0,1.7646493533534626e-07,3.3230210820540385e-07,5.47909269004492e-07,1.1661389439602974e-07,5.406241492748555e-07,-1.5912279833031616e-07,-1.5670706513193242e-08,-2.3210567219352408e-07,1.7728449522788824e-06,7.402732281661851e-06,1.371789151093061e-07,6.518317093287155e-08,4.335959544755763e-07,2.2398747090788373e-07,1.5121212383680787e-07,-1.7421913585876832e-07
1,2.5429285274167804e-07,4.3583651241102037e-07,6.067246937311789e-07,1.646706247026905e-07,9.484486138327945e-07,4.5211324140185847e-07,1.5173650842051882e-07,-3.581815392050549e-08,2.02193800761616e-06,1.0013182875108417e-05,2.055100088175012e-07,3.650325164171299e-07,5.42831025375699e-07,4.217798891895926e-07,2.220679255806705e-07,7.054522767432391e-08
2,3.308497283671872e-07,5.375311705788194e-07,6.688218101554854e-07,2.1228109886054037e-07,1.3447135477948794e-06,1.0327021014293305e-06,3.16297168051732e-07,1.5498632804335804e-07,2.289135310366345e-06,1.2841201860689439e-05,2.7152246152747803e-07,6.568160880418051e-07,6.540241990276428e-07,6.146516694885072e-07,2.939582953877255e-07,3.0479936444863815e-07
3,4.0582265228032624e-07,6.354170565771467e-07,7.338113974697286e-07,2.590749403972929e-07,1.7257465831369582e-06,1.5772001110100242e-06,4.7639209943318004e-07,3.3902195414860465e-07,2.5724259972507674e-06,1.5878190545500178e-05,3.3453431026211353e-07,9.383504534061109e-07,7.663635931356172e-07,7.997075768954884e-07,3.6564629999436646e-07,5.263608279969609e-07
4,4.789277562048182e-07,7.277638521827585e-07,8.013482375597918e-07,3.0480761166997437e-07,2.087908054311015e-06,2.0801713454413056e-06,6.305452577808483e-07,5.150062251058419e-07,2.8698636419903056e-06,1.9115432429419196e-05,3.9406827875678003e-07,1.2074229265320214e-06,8.790167086702555e-07,9.744954187494173e-07,4.359687231958946e-07,7.336327811329387e-07
5,5.498782851790941e-07,8.13135304955975e-07,8.711549844312055e-07,3.4937485888553637e-07,2.4275240326062604e-06,2.5362398287557207e-06,7.774139279504396e-07,6.816291284261285e-07,3.1796280587956743e-06,2.2544793618310943e-05,4.498204900819222e-07,1.4617458098955488e-06,9.91181080631292e-07,1.1370139017311544e-06,5.038564346221236e-07,9.254839386822446e-07
6,6.18343082170724e-07,8.904326449377983e-07,9.429696609316309e-07,3.927701119332225e-07,2.7410264295599038e-06,2.9403981977540067e-06,9.157637858668925e-07,8.37608193009461e-07,3.4999276457916878e-06,2.6158728878443576e-05,5.015707251369518e-07,1.698948197058128e-06,1.102091022337615e-06,1.2857548916753804e-06,5.683335373212167e-07,1.1009957611936774e-06
7,6.839070785122849e-07,9.589631311203545e-07,1.0164808844251454e-06,4.350238983737293e-07,3.025311854478758e-06,3.2885570747242814e-06,1.0445635056634227e-06,9.818653471952278e-07,3.828874720642113e-06,2.9949103294730145e-05,5.491344911330375e-07,1.91665788523746e-06,1.211005945590549e-06,1.4198128612847963e-06,6.28621434480473e-07,1.2592886123200499e-06
8,7.460500544394812e-07,1.018492429569267e-06,1.0913285633029583e-06,4.7617876803663613e-07,3.278042697034815e-06,3.5781333377632896e-06,1.163187495991442e-06,1.1137613091628812e-06,4.1644296359342015e-06,3.3904969203866414e-05,5.923563729936515e-07,2.1126328948874093e-06,1.3172877197546425e-06,1.5388312553586468e-06,6.843412258444841e-07,1.39944505231297e-06
9,8.041576754870188e-07,1.0692017623328525e-06,1.1671213355771327e-06,5.163085142088624e-07,3.4977150592670476e-06,3.808464107227236e-06,1.2715391249294438e-06,1.2332701212640808e-06,4.504310784009406e-06,3.801009421564073e-05,6.311129959701501e-07,2.284872791150666e-06,1.4205228374892515e-06,1.6427200730546392e-06,7.355625069128409e-07,1.5205612884367332e-06
10,8.576080971651549e-07,1.1115312169436881e-06,1.2434076403832464e-06,5.555443850366906e-07,3.683642867293883e-06,3.9809590165653785e-06,1.3699866091553662e-06,1.3409962646515692e-06,4.845742637323839e-06,4.2241099499970794e-05,6.653480757556627e-07,2.4317656472881726e-06,1.520515582551457e-06,1.7314693445221114e-06,7.826027838207798e-07,1.622007206034172e-06
11,9.059676488530238e-07,1.1460161560492768e-06,1.3196350589818219e-06,5.940655595349085e-07,3.836075341985043e-06,4.098966782676923e-06,1.4592061638883681e-06,1.4380122781897867e-06,5.1851390733065746e-06,4.6566616534075415e-05,6.951216964666862e-07,2.5523450364655628e-06,1.6171259800698247e-06,1.8052950053445496e-06,8.257890306129352e-07,1.7037432930812503e-06
12,9.491859659501664e-07,1.1732657786030798e-06,1.395166729121518e-06,6.320658007066604e-07,3.956406478987409e-06,4.167368924953957e-06,1.5400870581094834e-06,1.5256165696765232e-06,5.518028002919544e-06,5.09473443773567e-05,7.205924093920152e-07,2.6465596574560174e-06,1.710124044455771e-06,1.8648754907456128e-06,8.653474147153026e-07,1.7664649757528105e-06
13,9.876080974488151e-07,1.194055839906492e-06,1.4693693251813174e-06,6.697531152794267e-07,4.0471935417354365e-06,4.1920170513709386e-06,1.6137302112725613e-06,1.6051732064691983e-06,5.83948862505094e-06,5.5336585580709966e-05,7.419260279488536e-07,2.715393191920922e-06,1.799214808876052e-06,1.911320678247995e-06,9.0140540469606e-07,1.811553897039105e-06
14,1.021803833490575e-06,1.2093430765493485e-06,1.5417027959469124e-06,7.07377281060269e-07,4.11179557588019e-06,4.179157029888063e-06,1.6814266329054492e-06,1.6780768225680398e-06,6.145077742199388e-06,5.968104730310988e-05,7.592299782280561e-07,2.760781537604398e-06,1.8841933277141813e-06,1.9459102640642714e-06,9.34032818845056e-07,1.8409202038605424e-06
15,1.0524618792957496e-06,1.220143708796899e-06,1.6117149423349547e-06,7.452162459662725e-07,4.153768682879535e-06,4.134893742632511e-06,1.7445315493574369e-06,1.7457220134651109e-06,6.431805546543806e-06,6.392243783854385e-05,7.72554734433935e-07,2.785372733474307e-06,1.965000838973204e-06,1.9699233279095207e-06,9.63242651600616e-07,1.8567974472962408e-06
16,1.0804894868375649e-06,1.2274269406341772e-06,1.6789280279717554e-06,7.835198138386613e-07,4.176343718536385e-06,4.064749756790141e-06,1.8043134014345068e-06,1.8094179451539327e-06,6.698518127590369e-06,6.800052787339734e-05,7.818949884475447e-07,2.792213611100517e-06,2.0415493053382252e-06,1.9846549891063216e-06,9.889481251703309e-07,1.86156180581502e-06
17,1.1070956296285388e-06,1.2321046132777276e-06,1.7427253505231696e-06,8.224761996257045e-07,4.182241184183055e-06,3.97342134936078e-06,1.8618677698467206e-06,1.870350912267821e-06,6.945330996780893e-06,7.185654775615762e-05,7.871615468444078e-07,2.784429072662395e-06,2.1134821301866665e-06,1.9914095953845414e-06,1.0109655044727112e-06,1.8576227974712542e-06
18,1.1336518810226506e-06,1.2350305193996194e-06,1.8023725044155094e-06,8.622108915133019e-07,4.173865716494985e-06,3.8647609329297025e-06,1.9180569209056086e-06,1.929611552532221e-06,7.1724690741971035e-06,7.543328907984204e-05,7.881663246988194e-07,2.7649289608081702e-06,2.1801113953868764e-06,1.991366427574226e-06,1.0290862684379692e-06,1.8473400281741307e-06
19,1.1614636064384134e-06,1.2369888166468385e-06,1.8572017247864812e-06,9.027815260284484e-07,4.153657044824172e-06,3.7419421557520452e-06,1.973449674949419e-06,1.988155221006232e-06,7.379400280837832e-06,7.867057067790874e-05,7.846466028871017e-07,2.736218528324225e-06,2.240596692937005e-06,1.9854734249929187e-06,1.0431357456351356e-06,1.832916608270995e-06
20,1.1916442255114867e-06,1.2387122915072771e-06,1.9068358352941908e-06,9.441756762639317e-07,4.124224816129731e-06,3.6077673658725495e-06,2.0282935881913737e-06,2.0466801915982882e-06,7.56478299191584e-06,8.150263924499965e-05,7.763154774582654e-07,2.700361842196574e-06,2.29424587918778e-06,1.974513141387926e-06,1.0530244428895293e-06,1.8162970505710186e-06
21,1.2250903952289186e-06,1.240873178430295e-06,1.951275480214276e-06,9.863260826075136e-07,4.088090625054295e-06,3.465003050239201e-06,2.0825137378234275e-06,2.105538513170577e-06,7.72703533291833e-06,8.38649091276306e-05,7.628982139426924e-07,2.6590246485790507e-06,2.340708979646927e-06,1.959300325755172e-06,1.058900245917832e-06,1.7991008840247855e-06
22,1.2624852435105454e-06,1.2440427426469368e-06,1.9907921013571664e-06,1.029103276834533e-06,4.047263063647528e-06,3.3165253813458457e-06,2.135727576292871e-06,2.1647407689740543e-06,7.865195529940538e-06,8.5707317383787e-05,7.441598711767557e-07,2.6135509770475395e-06,2.3799214890091935e-06,1.9408531382126882e-06,1.0613344871623918e-06,1.7826093251679752e-06
23,1.3043145349855342e-06,1.2486813575700422e-06,2.0257435678641147e-06,1.072253613743456e-06,4.003024583596569e-06,3.1651609684136867e-06,2.1872734939307123e-06,2.2240066497479577e-06,7.979673891208794e-06,8.700548006112281e-05,7.199856731347319e-07,2.5650970071464914e-06,2.4119362266924893e-06,1.920402612063392e-06,1.061325201881444e-06,1.7678039494582085e-06
24,1.350892733622927e-06,1.2551259844770177e-06,2.056465609412273e-06,1.1153336430033099e-06,3.95605036101333e-06,3.0133903278959398e-06,2.236273422388373e-06,2.2827669142157427e-06,8.07226242954959e-06,8.776338447917263e-05,6.905081761050999e-07,2.5147604543480483e-06,2.436926238217264e-06,1.8993098012351235e-06,1.0600811755236983e-06,1.7553915542488467e-06
25,1.402373064223645e-06,1.263570623347821e-06,2.083271454390549e-06,1.1577332816129544e-06,3.9066094508905e-06,2.863160060771827e-06,2.281772311901789e-06,2.3401569000281427e-06,8.145192967343236e-06,8.800516414792825e-05,6.562014040915675e-07,2.4636170130597745e-06,2.455363717674338e-06,1.8791156750068266e-06,1.058766486035437e-06,1.745784302551757e-06
26,1.4587434987777117e-06,1.2741034058842028e-06,2.106468857592972e-06,1.1988286864554358e-06,3.854606054442203e-06,2.71586296648898e-06,2.322896375006715e-06,2.395117440947273e-06,8.19993825276699e-06,8.776011523632232e-05,6.178634524774214e-07,2.412658012987291e-06,2.4680709806892776e-06,1.8617183656865366e-06,1.0583566661058942e-06,1.739091323950422e-06
27,1.519846371668328e-06,1.286766656372536e-06,2.1262931650617436e-06,1.2381940825264627e-06,3.7996027744691666e-06,2.5724997296708972e-06,2.3588955170056935e-06,2.446561576472277e-06,8.23661859768337e-06,8.705332461038283e-05,5.764715884810563e-07,2.362670929658748e-06,2.47606468638454e-06,1.8493783064111283e-06,1.0596039582450284e-06,1.7351404862631575e-06
28,1.5854237312498873e-06,1.3015505267387845e-06,2.142757363754258e-06,1.275729895122116e-06,3.7410038332362194e-06,2.4339987126375713e-06,2.3890291417294335e-06,2.4935199252899086e-06,8.254067677849003e-06,8.590880282450808e-05,5.330203002833736e-07,2.3141516554784303e-06,2.4803944879894302e-06,1.8444440485181847e-06,1.0630477736594166e-06,1.7334999464660666e-06
29,1.6551310390746737e-06,1.318334116168283e-06,2.155547520532514e-06,1.3116404155914944e-06,3.6782458377922193e-06,2.301406071861306e-06,2.4123891631528388e-06,2.535259927157155e-06,8.250147917737658e-06,8.435713827712283e-05,4.884616697524977e-07,2.267352463263194e-06,2.482010277573632e-06,1.8490651213353082e-06,1.0690488555980346e-06,1.7335171586138153e-06
30,1.7284784870462548e-06,1.3368568405292715e-06,2.164100828189018e-06,1.346327055437195e-06,3.610868270526515e-06,2.1757362450659054e-06,2.4278441579803393e-06,2.5713485568027816e-06,8.222480454564871e-06,8.243907695706767e-05,4.437204087594486e-07,2.2225100097513967e-06,2.4816331998369862e-06,1.8650850280423593e-06,1.0778368048041686e-06,1.734375900625547e-06
31,1.8047568570144035e-06,1.3567299174150477e-06,2.1678548279306984e-06,1.380270929620269e-06,3.5385713848951286e-06,2.057738332440166e-06,2.4342498977869423e-06,2.601572442969186e-06,8.169754070568455e-06,8.02049075204459e-05,3.997207120345669e-07,2.180161026403244e-06,2.479702347640039e-06,1.8940161543978244e-06,1.0895403133293655e-06,1.7351042635191488e-06
32,1.8830481931806588e-06,1.3774619801426781e-06,2.1665077691590843e-06,1.4139158583062107e-06,3.4613470532801143e-06,1.94788163335142e-06,2.4308330548794298e-06,2.6257025707894562e-06,8.092729125024385e-06,7.771086085558013e-05,3.5743246114195375e-07,2.1412946570626704e-06,2.476395545888473e-06,1.9370305832531336e-06,1.1042006294074036e-06,1.7345607946365035e-06
33,1.9623254533671813e-06,1.3985368935613642e-06,2.1601310205369174e-06,1.447586535478353e-06,3.379582171136602e-06,1.846500633753294e-06,2.4174893970248576e-06,2.6432808646656643e-06,7.994090425669622e-06,7.501293778451807e-05,3.1791183961625254e-07,2.1072046820788725e-06,2.4717258676979335e-06,1.995080404564081e-06,1.1217763910887686e-06,1.7315310634752556e-06
34,2.041558004396304e-06,1.4195285397993238e-06,2.149093278113717e-06,1.4814888642280534e-06,3.2939409110239488e-06,1.7539176962212497e-06,2.3948495861883636e-06,2.653612923446101e-06,7.877435961252172e-06,7.216003470997045e-05,2.823168757035182e-07,2.0792148532019643e-06,2.465696516246074e-06,2.0691863152658752e-06,1.1421329739252436e-06,1.7249623206652132e-06
35,2.119781382316116e-06,1.4401388363427424e-06,2.1338763123519414e-06,1.5157290761593296e-06,3.2050549652201583e-06,1.670474811611972e-06,2.364137482902429e-06,2.65590393958863e-06,7.746168928329187e-06,6.918912587776191e-05,2.5197492286780957e-07,2.058491635057359e-06,2.458349850644098e-06,2.160685647640473e-06,1.165040138885374e-06,1.714205939334665e-06
36,2.1961507374488827e-06,1.4601442158595642e-06,2.1149152608048983e-06,1.5502722214856725e-06,3.113357291188454e-06,1.5964592149865155e-06,2.3269349297913546e-06,2.6493865139614464e-06,7.602985517654494e-06,6.612553216823863e-05,2.2849754276406813e-07,2.0459750052276577e-06,2.4496587591803524e-06,2.2712124133335057e-06,1.1901667835924914e-06,1.6991476355526973e-06
37,2.2699769272360576e-06,1.4793335181822557e-06,2.092555675326453e-06,1.5848940408781195e-06,3.019184998751904e-06,1.5319728770347632e-06,2.284984154918685e-06,2.6334483935036383e-06,7.450255875809123e-06,6.298946145387721e-05,2.1381193913848629e-07,2.042404260182237e-06,2.439477035272499e-06,2.4025320229574816e-06,1.2170391465078046e-06,1.6802128770349569e-06
38,2.3406985408313502e-06,1.4974392768134214e-06,2.067099038801402e-06,1.619191212031422e-06,2.9228348991403926e-06,1.476867973920417e-06,2.240044723651128e-06,2.6078524463732333e-06,7.290790593276021e-06,5.9805044647482794e-05,2.1008913134825698e-07,2.0484355362535846e-06,2.4276761576658474e-06,2.5564941451182444e-06,1.245036348161189e-06,1.6582449499674973e-06
39,2.407760801833926e-06,1.5140520039387233e-06,2.0388217945703267e-06,1.6526610839748153e-06,2.8243923665702726e-06,1.430789258890403e-06,2.1937220180156437e-06,2.57299209610858e-06,7.128202934233526e-06,5.660507274159766e-05,2.1968272035979205e-07,2.064729650238207e-06,2.414325366544795e-06,2.7350289108737434e-06,1.2735100535034136e-06,1.6342560888753036e-06
40,2.4704332528440806e-06,1.528642961210634e-06,2.0079092602931755e-06,1.6848591998135087e-06,2.723602950154073e-06,1.39324654884426e-06,2.147286880461944e-06,2.529908896642727e-06,6.966580802093781e-06,5.34278838474661e-05,2.4514578104439055e-07,2.091849965427152e-06,2.3998213712550658e-06,2.9400541838030435e-06,1.3019510953793815e-06,1.6091804008026336e-06
41,2.5276496631535853e-06,1.540796720149673e-06,1.974385262817454e-06,1.7155326559594792e-06,2.6200682634244566e-06,1.3636835174445684e-06,2.1015792595108703e-06,2.4799586331957186e-06,6.809734299357545e-06,5.030973385831209e-05,2.892850016655327e-07,2.1300551109165355e-06,2.3849745096709354e-06,3.1734683978876556e-06,1.3300302083379694e-06,1.5838002569773058e-06
42,2.5779854262962493e-06,1.5504791779749648e-06,1.938177208601111e-06,1.7445925271771564e-06,2.513706685446286e-06,1.3416098585484555e-06,2.0570086694517667e-06,2.424479234324214e-06,6.6605417537519986e-06,4.727945220362431e-05,3.551567270547909e-07,2.1792247822790395e-06,2.370933969135944e-06,3.4372776700064423e-06,1.357478456872105e-06,1.5588059795553588e-06
43,2.619809167147538e-06,1.5580488821975791e-06,1.8993460816052323e-06,1.7719905433338329e-06,2.4051618848545077e-06,1.3268191968129241e-06,2.013661387052414e-06,2.3647435043263125e-06,6.5207141928154224e-06,4.435819439436095e-05,4.459653368197402e-07,2.2389685542493137e-06,2.358915434240706e-06,3.7335721979030697e-06,1.383965936611047e-06,1.5347872981644675e-06
44,2.651513660588946e-06,1.5640071587977423e-06,1.8583035433987983e-06,1.797659646561409e-06,2.2958479917398513e-06,1.3195724432617134e-06,1.97150214785486e-06,2.301982208897827e-06,6.390811939439214e-06,4.156152921464476e-05,5.64944071944253e-07,2.3087962484218963e-06,2.3499399629070597e-06,4.064219358264438e-06,1.4090997418342296e-06,1.5121289942489843e-06
45,2.6717652803568747e-06,1.5687485858456913e-06,1.8157934406915886e-06,1.8215123819089055e-06,2.1876120592059584e-06,1.3205814876855594e-06,1.930508123509821e-06,2.237307434316061e-06,6.270290446231796e-06,3.8900986372948045e-05,7.153289699529145e-07,2.3882921607921063e-06,2.344738950845355e-06,4.430514306004142e-06,1.4325166184810876e-06,1.4909762904221476e-06
46,2.6797817378323635e-06,1.5724593322105426e-06,1.7726888708092265e-06,1.8433932624761756e-06,2.0823329283190747e-06,1.330780011754157e-06,1.8906585537956497e-06,2.171697149651731e-06,6.157674653366787e-06,3.63849849879856e-05,9.004392240784674e-07,2.4772994626287817e-06,2.343782831943412e-06,4.833162071165567e-06,1.4540026742644896e-06,1.4713043026916125e-06
47,2.675565180386042e-06,1.5751410891907286e-06,1.729856378006989e-06,1.8630467523101402e-06,1.9817773425499116e-06,1.3510718638157223e-06,1.8519874164026044e-06,2.1060979856103603e-06,6.050971282005138e-06,3.402019868550811e-05,1.1237786030252942e-06,2.576048967298397e-06,2.347320815069742e-06,5.272792029701596e-06,1.4735485192980991e-06,1.452962911213189e-06
48,2.6599358486015867e-06,1.5767284852032286e-06,1.6881262601688998e-06,1.880225902478427e-06,1.8876827553053587e-06,1.3822070047515074e-06,1.8148138765526828e-06,2.0414529064309563e-06,5.948214625457591e-06,3.181357727183734e-05,1.3890844115606624e-06,2.685109325210096e-06,2.3553952321385077e-06,5.750765823444944e-06,1.4912906354108853e-06,1.4357019549221213e-06
49,2.6342817498570285e-06,1.5772117151110203e-06,1.6482279753121883e-06,1.8948422737939267e-06,1.8017951108845102e-06,1.424743004634272e-06,1.7799172778302922e-06,1.978550692576814e-06,5.848000317287905e-06,2.9774088998882764e-05,1.7002984674715012e-06,2.8051373060765477e-06,2.3679021961031264e-06,6.269667512931231e-06,1.5074019833649101e-06,1.4192887822238815e-06
50,2.6001867737599142e-06,1.5766502153107484e-06,1.6106921747865022e-06,1.9069952006395152e-06,1.7257611544065904e-06,1.4790384370810396e-06,1.748449863776613e-06,1.917850092356713e-06,5.7498221617810624e-06,2.7913272655150277e-05,2.0614318211265166e-06,2.936597274053456e-06,2.3847075939159303e-06,6.833047197326527e-06,1.5219792832758601e-06,1.4036639331896851e-06
51,2.559269765409263e-06,1.5751306742178849e-06,1.575802982612825e-06,1.916907022974298e-06,1.6610103828434706e-06,1.5453254945062409e-06,1.7216892234779315e-06,1.8594399779555777e-06,5.6539579388475506e-06,2.624423719573668e-05,2.4763477283038017e-06,3.079629469708002e-06,2.4057022199074317e-06,7.444656599633537e-06,1.534929751658931e-06,1.3889829666427254e-06
52,2.513262927133593e-06,1.5728209582658957e-06,1.5436195318947196e-06,1.924830347882032e-06,1.60871412624797e-06,1.6238517959847205e-06,1.7008424651328553e-06,1.803115015524877e-06,5.561102583072169e-06,2.4779805174525846e-05,2.94860381553865e-06,3.234010379885464e-06,2.430764511431435e-06,8.107756731507216e-06,1.545897806384411e-06,1.375509010409464e-06
53,2.4639897022089255e-06,1.570103118042729e-06,1.5140605609008324e-06,1.9309100801486405e-06,1.5697907417986608e-06,1.7149262340643823e-06,1.686965611146658e-06,1.7484716402002188e-06,5.472490183803775e-06,2.353169841673344e-05,3.481469790410354e-06,3.399093304128357e-06,2.459838078070667e-06,8.824692881268373e-06,1.5542932147109218e-06,1.3634498755952445e-06
54,2.4131249960866467e-06,1.5676032543066577e-06,1.4869795323655593e-06,1.9350507190532085e-06,1.5449514817428806e-06,1.8187866855988486e-06,1.6809160431258862e-06,1.6949941122901845e-06,5.390544400537048e-06,2.2511043163100794e-05,4.078042523050376e-06,3.5738633411346e-06,2.493181694323352e-06,9.596649263323832e-06,1.5594923114262348e-06,1.3528659594885716e-06
55,2.3620005396858946e-06,1.5660365406626975e-06,1.4621501074442628e-06,1.936943214827078e-06,1.5347719052378142e-06,1.9354320793150274e-06,1.683286761797966e-06,1.6421869492678654e-06,5.319068330805556e-06,2.17281991468641e-05,4.74125046633318e-06,3.7571874822423767e-06,2.53141973616691e-06,1.0423630955901613e-05,1.5611559793377612e-06,1.3436886585258318e-06
56,2.3116483229268804e-06,1.5659885988772446e-06,1.43926864499025e-06,1.9363242101475535e-06,1.5396988836354788e-06,2.0645503294907317e-06,1.6943603388514108e-06,1.5898025762771414e-06,5.26252106766206e-06,2.119126118645889e-05,5.473620022896156e-06,3.948021555168338e-06,2.575243862999775e-06,1.1304480084638744e-05,1.5593905053923675e-06,1.335792720694099e-06
57,2.262979883456127e-06,1.5677874259770056e-06,1.4180866436055531e-06,1.9332995482687032e-06,1.5599746079874553e-06,2.205528140258406e-06,1.7141363770162672e-06,1.5380789842535688e-06,5.225080979771574e-06,2.090451259585194e-05,6.276879055632404e-06,4.145443001927804e-06,2.6251590638711697e-06,1.2236507896362255e-05,1.5546556580254887e-06,1.3290688541144538e-06
58,2.2168923787043676e-06,1.5715225089733931e-06,1.3985427647478242e-06,1.928402551957595e-06,1.5955632817093798e-06,2.357475612556345e-06,1.742432344929456e-06,1.4878045965831588e-06,5.210201357755963e-06,2.086760454649627e-05,7.151579589409817e-06,4.348655592414058e-06,2.681539121419884e-06,1.3214950494159694e-05,1.5476270466758212e-06,1.3234449426080194e-06
59,2.1742439365872115e-06,1.5771676997213508e-06,1.380768665714836e-06,1.9223111302914447e-06,1.6461252338031024e-06,2.5192487710890197e-06,1.7789906196091187e-06,1.4401404662179763e-06,5.220568535825713e-06,2.107531399596416e-05,8.096811672248714e-06,4.557028777437414e-06,2.744753242092665e-06,1.4233020184841441e-05,1.5390852918966616e-06,1.3188287534722668e-06
60,2.135807007214356e-06,1.5846797988223274e-06,1.365033434590214e-06,1.915588252077205e-06,1.711027243719214e-06,2.6895280695092403e-06,1.8235566323942466e-06,1.396333664374633e-06,5.25805016888301e-06,2.1517634693236696e-05,9.109969713602e-06,4.7701032945667885e-06,2.8150585279116094e-06,1.5282809538340185e-05,1.5298041206848974e-06,1.3150833919918043e-06
61,2.1022621182944454e-06,1.5939771765763482e-06,1.3516698021414944e-06,1.9087400788976613e-06,1.7893987293437579e-06,2.8669426451953546e-06,1.87594347972656e-06,1.3575022926848928e-06,5.323574542993771e-06,2.218029232559555e-05,1.018656291513301e-05,4.9875328265691184e-06,2.892337270029594e-06,1.63562506051848e-05,1.5205152415477665e-06,1.3121216123710925e-06
62,2.0741785705273563e-06,1.604841747374243e-06,1.3409597920107516e-06,1.902404516606115e-06,1.8802051521221952e-06,3.050108797995126e-06,1.93603421818105e-06,1.3245512253653333e-06,5.417091928200829e-06,2.3046117647123962e-05,1.1320034145301527e-05,5.2089388925832765e-06,2.9759367559670924e-06,1.744500472668126e-05,1.5119163482071774e-06,1.3099734009100495e-06
63,2.051969541371181e-06,1.6168277484806592e-06,1.333035846438692e-06,1.8973464239693438e-06,1.9822351636084157e-06,3.2375623215666313e-06,2.0036551282390986e-06,1.2981558104936984e-06,5.5376551565942435e-06,2.4097126441782984e-05,1.2501490952497887e-05,5.433644222224525e-06,3.0647186361280078e-06,1.8539098561833733e-05,1.5046230814678927e-06,1.308698082705416e-06
64,2.035891369033585e-06,1.6292156435010635e-06,1.3278480911346978e-06,1.8942644244374694e-06,2.0940270679183013e-06,3.4277760809657324e-06,2.078379841444087e-06,1.2787552351524861e-06,5.683586925052392e-06,2.531603904147889e-05,1.371933824481074e-05,5.6603221396707025e-06,3.157321310476494e-06,1.9625456571045066e-05,1.4991268716092856e-06,1.3082776882762558e-06
65,2.026086595275942e-06,1.6410637805287029e-06,1.325169858684127e-06,1.8936448391427664e-06,2.2139180512822623e-06,3.619406565465507e-06,2.1593884610360654e-06,1.266584632777222e-06,5.852595508828321e-06,2.6686143941975477e-05,1.495892614680671e-05,5.886667477014333e-06,3.2525290852910106e-06,2.068791809494565e-05,1.495829842704622e-06,1.3086798106944045e-06
66,2.0225750836663437e-06,1.6513956473692214e-06,1.3246559204226914e-06,1.8957424501484194e-06,2.3402456168580447e-06,3.8116400633107453e-06,2.2454227651709855e-06,1.2617834862469408e-06,6.0417103381521205e-06,2.8189684239672555e-05,1.6202348029601644e-05,6.1091902633382845e-06,3.3495153728638048e-06,2.1709408261269502e-05,1.4950727849139789e-06,1.310012780625825e-06
67,2.025185222834176e-06,1.65943756905881e-06,1.325977141231942e-06,1.9005676863973605e-06,2.471486846151901e-06,4.0043522990627965e-06,2.3348279262036504e-06,1.264509418192725e-06,6.247206533161309e-06,2.9806181576565607e-05,1.7428448649890696e-05,6.323204326147517e-06,3.4478281817912485e-06,2.2675272014933848e-05,1.4970779622160677e-06,1.312531263581828e-06
68,2.0335158619585676e-06,1.664763889592207e-06,1.3289648174802455e-06,1.9078237561774127e-06,2.606164420953366e-06,4.197910288521403e-06,2.4256970963396996e-06,1.2749380421185806e-06,6.464777587177165e-06,3.1512739780805996e-05,1.8612980544067753e-05,6.522958463670363e-06,3.5471994739432286e-06,2.3575725980372142e-05,1.5018976569417172e-06,1.3164746871350488e-06
69,2.0469267041466525e-06,1.6673230967307671e-06,1.3336925564555825e-06,1.916858612233174e-06,2.742609187089091e-06,4.392688650198333e-06,2.516123601964948e-06,1.2931520709807345e-06,6.689935556629322e-06,3.328671000520759e-05,1.9728906561318543e-05,6.701729782444547e-06,3.6473176952812426e-06,2.4405897191686983e-05,1.5094595650922523e-06,1.3219603497584628e-06
70,2.06452905685197e-06,1.66744297990319e-06,1.3404803439688806e-06,1.9266641903720906e-06,2.8788123949648376e-06,4.588540545383806e-06,2.604502044004496e-06,1.3190321784924627e-06,6.918338691212541e-06,3.510818978627211e-05,2.0747271692546173e-05,6.8519802913314715e-06,3.747655924054774e-06,2.516340006777445e-05,1.519620758096254e-06,1.329045199555228e-06
71,2.085268987705045e-06,1.665838466665298e-06,1.3498283356192365e-06,1.935929665097894e-06,3.012499203586986e-06,4.7844539482603e-06,2.689747562024941e-06,1.3522263198029964e-06,7.145759048271112e-06,3.695982763940331e-05,2.1639347870412358e-05,6.9660687521902e-06,3.847435939956324e-06,2.5844879578395496e-05,1.5321361648928183e-06,1.3378347792556813e-06
72,2.108106309503211e-06,1.6635096981376378e-06,1.3623035685354443e-06,1.9431950008155686e-06,3.141369830012064e-06,4.978468615072431e-06,2.7713053539416456e-06,1.392176706871364e-06,7.367971019370325e-06,3.8824078185546815e-05,2.238005674026773e-05,7.037618159398221e-06,3.9457364316219745e-06,2.6443942539737598e-05,1.5466035057234892e-06,1.3484753153147628e-06
73,2.132089463081549e-06,1.6615182651165839e-06,1.378408555568672e-06,1.9470926918361984e-06,3.2633382201105894e-06,5.167775998016696e-06,2.848981287250757e-06,1.438147902297946e-06,7.581286460575209e-06,4.068052536953263e-05,2.2951156827781665e-05,7.0627424186263754e-06,4.041613035621115e-06,2.695214146688019e-05,1.5624795090222126e-06,1.3610308148493989e-06
74,2.1562416281564203e-06,1.6608097589292202e-06,1.398455786177725e-06,1.946592770156736e-06,3.37656675340534e-06,5.348898422397404e-06,2.9227772354116393e-06,1.4892757379599459e-06,7.783587172116045e-06,4.250645206172139e-05,2.3341706688173226e-05,7.0400988319523855e-06,4.134109618772008e-06,2.7362379305009487e-05,1.5791605927450072e-06,1.3753656724522457e-06
75,2.179414112578171e-06,1.6622125102315257e-06,1.4224808121314267e-06,1.9412062667254386e-06,3.4792436525762814e-06,5.517903448685863e-06,2.992823289949961e-06,1.5446564827554641e-06,7.974630539860855e-06,4.4280369051179024e-05,2.354517114964272e-05,6.969727858467489e-06,4.222166800516122e-06,2.7672727392184736e-05,1.596074272028546e-06,1.3910946006682129e-06
76,2.200203521564282e-06,1.666536306660408e-06,1.4502074898028075e-06,1.931106131293832e-06,3.5693846235577486e-06,5.6706468840553864e-06,3.059298619838134e-06,1.6033855924800117e-06,8.155092293571261e-06,4.598384798115747e-05,2.3556796997905582e-05,6.852051407765846e-06,4.304447858283548e-06,2.7888651640173426e-05,1.6127849238956682e-06,1.407610880440871e-06
77,2.216923420183453e-06,1.6745725171239662e-06,1.4810418058235123e-06,1.917075349811342e-06,3.6449512858160638e-06,5.803043666062687e-06,3.1222538098466033e-06,1.6644973694560927e-06,8.32525525712104e-06,4.759881645005177e-05,2.3374975500681843e-05,6.688140227226297e-06,4.37908082776223e-06,2.802221295473577e-05,1.6291054449170238e-06,1.4242225388819234e-06
78,2.2277304559356914e-06,1.6869671485428178e-06,1.514073219877345e-06,1.9002643915245173e-06,3.704129453161441e-06,5.911386216595133e-06,3.1814422266438994e-06,1.726894547392041e-06,8.48436765058918e-06,4.910361674592523e-05,2.300487962890856e-05,6.480598396865135e-06,4.443435372179517e-06,2.8088430462868177e-05,1.645095471184324e-06,1.4403663598057846e-06
79,2.2310019169897047e-06,1.7041264855498194e-06,1.5480900783422683e-06,1.8818769626752343e-06,3.7454880062316193e-06,5.9927405482789495e-06,3.236267736205419e-06,1.7893600413043385e-06,8.630787116836579e-06,5.047268995116211e-05,2.246032978486096e-05,6.233939457257489e-06,4.494220931292706e-06,2.8101310883149567e-05,1.6608717468786826e-06,1.4557730482772463e-06
80,2.22582724204801e-06,1.726219941862643e-06,1.5816667217854877e-06,1.8629419120134763e-06,3.7681125120913733e-06,6.04538591545531e-06,3.2857745703428923e-06,1.8506512252056377e-06,8.762578561375024e-06,5.167995383142123e-05,2.176269916937008e-05,5.954301147735682e-06,4.528124690727386e-06,2.8072242248323118e-05,1.6763722171398065e-06,1.4704881038011334e-06
81,2.2123075357326245e-06,1.7532149748270683e-06,1.6133755598964925e-06,1.8442749142005735e-06,3.771928114579842e-06,6.069143589211033e-06,3.3286580537951727e-06,1.909613685079604e-06,8.878261735924953e-06,5.2702064342257614e-05,2.0938035315538066e-05,5.648858417878506e-06,4.5427740624211855e-06,2.801044001829972e-05,1.6912557463164407e-06,1.4847729552370502e-06
82,2.191433055653462e-06,1.7848689951458342e-06,1.6420443887076037e-06,1.826610545582269e-06,3.758080319505935e-06,6.065325611089948e-06,3.363454821349779e-06,1.965261560248728e-06,8.977276710853372e-06,5.35187826559756e-05,2.0013826420049736e-05,5.3251902390351e-06,4.537422367246988e-06,2.792300568467448e-05,1.7049340040419632e-06,1.4989802103810195e-06
83,2.164643321200295e-06,1.8206774604839546e-06,1.666911864121031e-06,1.810754483191726e-06,3.728953452644767e-06,6.0361628661452014e-06,3.3889375602062226e-06,2.016831054144586e-06,9.059834726720915e-06,5.411045166828009e-05,1.9016321420276542e-05,4.990760614030032e-06,4.51293956066902e-06,2.7813611615968493e-05,1.7166640380407228e-06,1.5134652734614673e-06
84,2.133460598865831e-06,1.859910717794765e-06,1.6876515082429176e-06,1.7975966860279036e-06,3.68763363252799e-06,5.984141970822904e-06,3.4044953070768884e-06,2.0638295491306476e-06,9.126277937822182e-06,5.4455993065765084e-05,1.796875434545119e-05,4.652580172310223e-06,4.4712061647500566e-06,2.7680872791193697e-05,1.7256959818993027e-06,1.5285046250059714e-06
85,2.0993616508870546e-06,1.9018645725075525e-06,1.7043328737855477e-06,1.7879630911556596e-06,3.637171943475833e-06,5.911862469426631e-06,3.4102735644691013e-06,2.1060309576007676e-06,9.176356209420206e-06,5.453701020409851e-05,1.6890588396650667e-05,4.316972316848135e-06,4.414375277579091e-06,2.7517716690877974e-05,1.7314226771874404e-06,1.5441823416124844e-06
86,2.0637199276934072e-06,1.94623212431031e-06,1.7173170887606047e-06,1.7824378690425021e-06,3.5801529091914237e-06,5.8222058981596e-06,3.4069720808429288e-06,2.1433381599358036e-06,9.209014409883905e-06,5.434772359639264e-05,1.5797703665653125e-05,3.9893922182290206e-06,4.344550731537047e-06,2.731248024456946e-05,1.7334301255869541e-06,1.5603002522250727e-06
87,2.0277275135678948e-06,1.993346184544262e-06,1.727054285023608e-06,1.781283716506566e-06,3.518665725792271e-06,5.718155817465552e-06,3.3953876489870583e-06,2.1755800467014413e-06,9.2230702981487e-06,5.39014159272878e-05,1.4703089282449878e-05,3.6743812638713977e-06,4.263989742819961e-06,2.705182005795499e-05,1.7314445815696245e-06,1.5763650715549977e-06
88,1.992325371173095e-06,2.0441455603122406e-06,1.7339155914805232e-06,1.7844968673837896e-06,3.4544397542129097e-06,5.602318484076495e-06,3.3759784264212988e-06,2.2024437744715895e-06,9.218289537261807e-06,5.3226135712638164e-05,1.361752573354963e-05,3.3756912995189085e-06,4.175356289546153e-06,2.6724553372194737e-05,1.725251715043225e-06,1.5916151384147213e-06
89,1.9581944965501815e-06,2.0999115310235895e-06,1.7381955925923173e-06,1.7919801996112368e-06,3.388904744275254e-06,5.476613359578384e-06,3.348670655208897e-06,2.223608212269667e-06,9.196009135203453e-06,5.23539271396204e-05,1.2550067079627131e-05,3.0964613228763348e-06,4.0816841213559255e-06,2.6324622540835265e-05,1.7146751710940447e-06,1.6050680346027183e-06
90,1.925846661130036e-06,2.1619262688059226e-06,1.740186177095881e-06,1.8037096341718664e-06,3.3230783863622643e-06,5.342198948764483e-06,3.3129706108620777e-06,2.2389544547956594e-06,9.158892651929265e-06,5.131371045044e-05,1.1508371605858256e-05,2.839352520063263e-06,3.98616435396754e-06,2.5851610103940696e-05,1.6996788894537458e-06,1.6156279276826158e-06
91,1.8957164790230915e-06,2.2312355029083015e-06,1.7401842214092625e-06,1.8197281083150025e-06,3.2574038418468824e-06,5.199654683242344e-06,3.2683707020931297e-06,2.248737242986246e-06,9.109918629805515e-06,5.013171428537646e-05,1.0498965174565106e-05,2.606685569553052e-06,3.891919219240004e-06,2.5308711485124646e-05,1.680498607329209e-06,1.6222419391035927e-06
92,1.8681607127582478e-06,2.308586063769681e-06,1.738429648074378e-06,1.8399815895065217e-06,3.191802350805436e-06,5.049545256291624e-06,3.2148514279268163e-06,2.253630223269337e-06,9.05134703811638e-06,4.883475762256507e-05,9.527495081372693e-06,2.4006297126672567e-06,3.8017785753428722e-06,2.4699467166955296e-05,1.6576069799252018e-06,1.624054232560594e-06
93,1.843435537602031e-06,2.394486669342047e-06,1.7350498961602936e-06,1.8641857160857228e-06,3.126059282790005e-06,4.893017099452563e-06,3.1531147856992656e-06,2.2545691557820765e-06,8.984415469907683e-06,4.745085537372102e-05,8.598938212346734e-06,2.2233784515070365e-06,3.7181053957395735e-06,2.4025219152711462e-05,1.6315413879074966e-06,1.6205403742705052e-06
94,1.8217061526343347e-06,2.4893326615732133e-06,1.7301033000595819e-06,1.8918447917214432e-06,3.0603039140949945e-06,4.731925615524071e-06,3.0843751322343906e-06,2.2525023991456706e-06,8.909651657797696e-06,4.6006082599978865e-05,7.717678254209179e-06,2.077210360847828e-06,3.6427905138350033e-06,2.32850494334839e-05,1.6027814069961656e-06,1.6115986455243977e-06
95,1.8030414106993866e-06,2.5934715807352954e-06,1.7236996375224323e-06,1.922330255439524e-06,2.9951690515842175e-06,4.568462659606116e-06,3.0099718590816367e-06,2.2482705097529168e-06,8.827408169485943e-06,4.452043949478605e-05,6.887433466164931e-06,1.964425421822776e-06,3.5773535475308656e-06,2.2478190021163552e-05,1.5716971270951834e-06,1.5975346513902602e-06
96,1.7874657269806573e-06,2.7071059089726396e-06,1.7160566724842641e-06,1.954866776626146e-06,2.9315171589112084e-06,4.404621119678194e-06,2.931211359486372e-06,2.2426100996142952e-06,8.73848646305405e-06,4.300595115350753e-05,6.111085818316771e-06,1.8872305165777667e-06,3.5229130610459736e-06,2.160685903019787e-05,1.538524939872102e-06,1.5789240759783906e-06
97,1.7751663076370378e-06,2.8301056064996796e-06,1.7074253029480861e-06,1.9884666325668207e-06,2.8700379713049884e-06,4.241925165854079e-06,2.8494383245149955e-06,2.236117108510303e-06,8.64453628648673e-06,4.146860248371731e-05,5.390522398023829e-06,1.8476394773510884e-06,3.4799981475625077e-06,2.0677638823676526e-05,1.5034052904310197e-06,1.5564342070881144e-06
98,1.766641627221427e-06,2.9618643250611084e-06,1.6979876363314005e-06,2.021985163268864e-06,2.8110416741975175e-06,4.081500728086568e-06,2.7660465560462456e-06,2.2291690903756084e-06,8.547775009432779e-06,3.9913230063385317e-05,4.726622310803199e-06,1.8474115993018856e-06,3.448397497950456e-06,1.9701280823811294e-05,1.4664700675049716e-06,1.5306840659347806e-06
99,1.7625648630466603e-06,3.1012719208043383e-06,1.6878817990831735e-06,2.0543210678686685e-06,2.754452875284191e-06,3.9241341605382815e-06,2.6823854500736397e-06,2.221929705394873e-06,8.450164808966865e-06,3.834700935913965e-05,4.119402358746595e-06,1.8880144795550237e-06,3.427186121223179e-06,1.8691884389847825e-05,1.427937528028548e-06,1.5021920844736814e-06
100,1.7635566574560848e-06,3.246764232103251e-06,1.6773293423763189e-06,2.084573617317095e-06,2.6998507505153497e-06,3.7702664305886774e-06,2.599730665326353e-06,2.2144670017880237e-06,8.352801829681518e-06,3.677801793369951e-05,3.5681915428063745e-06,1.970602777190558e-06,3.4149558556492296e-06,1.766605953858503e-05,1.3881992957544965e-06,1.4714370067276792e-06
101,1.7700927511362839e-06,3.396313478625103e-06,1.6666924775328945e-06,2.1119892872805594e-06,2.646617565248572e-06,3.620209531784188e-06,2.519341498297481e-06,2.206875592761861e-06,8.255833589639894e-06,3.521158309877331e-05,3.071730004604615e-06,2.0960915538943955e-06,3.4101874217433036e-06,1.6641977204458058e-05,1.347819337123634e-06,1.4389588653972297e-06
102,1.7824417165321794e-06,3.547303909305843e-06,1.6564239182255902e-06,2.13580501567767e-06,2.5942814321333703e-06,3.4745015719899433e-06,2.4424658511049413e-06,2.199255242736094e-06,8.158510477742626e-06,3.364985846114076e-05,2.6282195557801817e-06,2.2653956335859512e-06,3.411630042547588e-06,1.5638194997375053e-05,1.3073848929292532e-06,1.4054135814262271e-06
103,1.8005561946455218e-06,3.6964203155329218e-06,1.6470200934151196e-06,2.1552693753765484e-06,2.542758680677855e-06,3.3340515731311376e-06,2.370228158366148e-06,2.191557487439952e-06,8.059101670147473e-06,3.209588114604304e-05,2.2354126795212164e-06,2.479735129053833e-06,3.4184875117671112e-06,1.4672513135627803e-05,1.267327855184217e-06,1.3716016382088556e-06
104,1.8240376933259405e-06,3.839754541879587e-06,1.6390233717157707e-06,2.1698793281078452e-06,2.4922253194514166e-06,3.1999883329946673e-06,2.3034859221830726e-06,2.1834746522554748e-06,7.954842882587894e-06,3.055802518053639e-05,1.8907532796329668e-06,2.7408544254377933e-06,3.4302546495917505e-06,1.3761106547916134e-05,1.2278556317680186e-06,1.3384638680750827e-06
105,1.8522109478181102e-06,3.973220551496665e-06,1.6330336240018483e-06,2.179552350134589e-06,2.442880556619472e-06,3.073371579927593e-06,2.2427360277785843e-06,2.1744560749226923e-06,7.842261917626775e-06,2.9050083600187036e-05,1.5914745028010697e-06,3.0511106456156763e-06,3.446383104998496e-06,1.2917916468067594e-05,1.1889728750966646e-06,1.306975931687295e-06
106,1.8841857579294065e-06,4.093124319246485e-06,1.6296760646248471e-06,2.1845390244188414e-06,2.394985164490503e-06,2.954957248069538e-06,2.1880814688918583e-06,2.163800976213952e-06,7.71771037658047e-06,2.7586823258031445e-05,1.334599661088459e-06,3.413422456261841e-06,3.466048652753205e-06,1.2154258347492488e-05,1.1505529078286282e-06,1.2779886057110784e-06
107,1.918825172338008e-06,4.196626904651127e-06,1.6294946943122227e-06,2.185188191669716e-06,2.3491013805562233e-06,2.8451619979326603e-06,2.1392861160666204e-06,2.150810002930979e-06,7.57748289212519e-06,2.6179470670327018e-05,1.1169317180775134e-06,3.831080696243475e-06,3.487997551353142e-06,1.1478774519094392e-05,1.1124715170341287e-06,1.2521226094681632e-06
108,1.954712526270213e-06,4.281983692448448e-06,1.6328227788288477e-06,2.1817673655622784e-06,2.3062080097932914e-06,2.744229186699045e-06,2.095922257046007e-06,2.1349939171731553e-06,7.418020558285115e-06,2.4834299606829444e-05,9.351023174459002e-07,4.307513065867734e-06,3.5105519964881813e-06,1.089780556182254e-05,1.0747232194201825e-06,1.2297241935678622e-06
109,1.9902633775992604e-06,4.3485638939401265e-06,1.6397196787816223e-06,2.1743697491090815e-06,2.2675613680013876e-06,2.6523808191274588e-06,2.057504143112252e-06,2.116261004847804e-06,7.237129644646795e-06,2.355342024746021e-05,7.856727685484174e-07,4.846089828975562e-06,3.5320616849354174e-06,1.0416013788820729e-05,1.0374177495466536e-06,1.2108651770110198e-06
110,2.0239794374315534e-06,4.39656694069216e-06,1.650019962795789e-06,2.162837568019651e-06,2.2344095836364257e-06,2.5697650336951198e-06,2.023487639441326e-06,2.0949820671951176e-06,7.03530460354019e-06,2.2336717149311728e-05,6.652853249203806e-07,5.4498941639826796e-06,3.5516414183211616e-06,1.0036970592695032e-05,1.000718580803192e-06,1.1954375701214609e-06
111,2.0547065476617527e-06,4.4264390216477435e-06,1.6634849941453833e-06,2.146749523869106e-06,2.2077595189920007e-06,2.496367787797094e-06,1.993165554955593e-06,2.071903809218989e-06,6.815598387929165e-06,2.1184836710198552e-05,5.707881438923507e-07,6.121364465641452e-06,3.569495854718614e-06,9.76335977420734e-06,9.648325199409553e-07,1.1833405071051763e-06
112,2.0817813028329708e-06,4.438437500586175e-06,1.6799376894255913e-06,2.1255242056850123e-06,2.1883137577617246e-06,2.4320962978053835e-06,1.9656397970280433e-06,2.0479761171698566e-06,6.58219375763806e-06,2.0101533795109517e-05,4.992360657768288e-07,6.861943901524894e-06,3.5865350664898953e-06,9.596650580076357e-06,9.300548314869119e-07,1.1746160782099827e-06
113,2.1050425993951746e-06,4.432770062091772e-06,1.6992367474299262e-06,2.0985259702149214e-06,2.1765104777444204e-06,2.3768925779546444e-06,1.9399807611187397e-06,2.0241932091998285e-06,6.339022348276584e-06,1.909353147200289e-05,4.478357259379841e-07,7.671906869777313e-06,3.6039297999550188e-06,9.536603673050836e-06,8.967837556098579e-07,1.1694088877959928e-06
114,2.1247307089266877e-06,4.410058875888416e-06,1.7211421657350172e-06,2.065108403207328e-06,2.172541145064107e-06,2.3307412152982374e-06,1.91546721443676e-06,2.0014810954011636e-06,6.089409479034478e-06,1.8168362007479097e-05,4.139149837715106e-07,8.55031341696627e-06,3.623118571143938e-06,9.581023000558901e-06,8.654513162400791e-07,1.1678039803952943e-06
115,2.141297312685004e-06,4.371615264965942e-06,1.745250274833869e-06,2.0246917062644967e-06,2.176315066603609e-06,2.29362049722953e-06,1.8917372513895758e-06,1.9805903498123344e-06,5.8366808699015144e-06,1.7332183106573374e-05,3.948917384431568e-07,9.495018878596816e-06,3.645832514594803e-06,9.72574896727383e-06,8.36481876594024e-07,1.1696979180899795e-06
116,2.1552217681357107e-06,4.319361144059568e-06,1.771016389787292e-06,1.976934343468043e-06,2.1874502711079263e-06,2.265397488590038e-06,1.8687829600935423e-06,1.962003183582864e-06,5.584782682136651e-06,1.658926966367885e-05,3.882847772179628e-07,1.0502738879108478e-05,3.6737596302962203e-06,9.964789807039456e-06,8.103550099404286e-07,1.174805885057444e-06
117,2.166979411951826e-06,4.255548626863159e-06,1.7977373549781845e-06,1.921944752833601e-06,2.2053376709501007e-06,2.245703349871576e-06,1.8468484184616045e-06,1.9459337312754093e-06,5.338109373275524e-06,1.594293259594173e-05,3.918141961494875e-07,1.156908527520766e-05,3.7081748116150197e-06,1.0290582621944508e-05,7.876434737623411e-07,1.1827711725142955e-06
118,2.1771106919751655e-06,4.182506133892797e-06,1.824479915300257e-06,1.8604196700665226e-06,2.2292026159423856e-06,2.233925197080731e-06,1.8263422100683363e-06,1.932427259283591e-06,5.100762088145362e-06,1.539613964788716e-05,4.034753113940898e-07,1.268847148689342e-05,3.749808729197483e-06,1.0694240575770222e-05,7.689669325883938e-07,1.1932543828894987e-06
119,2.186192343721276e-06,4.102533676499013e-06,1.850050456104548e-06,1.7935700151191193e-06,2.2581228010653436e-06,2.2292801684423274e-06,1.8077668211933197e-06,1.9214660364351553e-06,4.875961069479655e-06,1.4951765791440522e-05,4.215020701237611e-07,1.3853902186621726e-05,3.79884467401727e-06,1.1165506425239123e-05,7.549505947273956e-07,1.205933139151023e-06
120,2.1946837077694983e-06,4.01789529193356e-06,1.8730529471229223e-06,1.722828177133516e-06,2.2910291689532116e-06,2.230777048347914e-06,1.791609018618614e-06,1.9130136985631584e-06,4.6659139569770134e-06,1.4613722267550775e-05,4.4434538850140817e-07,1.505671174349739e-05,3.855004439662842e-06,1.1692404041670702e-05,7.462093192664352e-07,1.2204523228512985e-06
121,2.2027708421648354e-06,3.930783269360526e-06,1.8920593635021111e-06,1.6495906376055604e-06,2.3266670352018052e-06,2.2370754476839576e-06,1.7782636843311788e-06,1.9069872923821605e-06,4.4720484877545055e-06,1.4388106665476878e-05,4.7074726472814883e-07,1.6286276036647542e-05,3.917747446014766e-06,1.2261138014489358e-05,7.433485089262961e-07,1.236443738620993e-06
122,2.210303902322053e-06,3.843195381470456e-06,1.9058888239903762e-06,1.5751692408614397e-06,2.3635531644195723e-06,2.2464200301546617e-06,1.768031447299595e-06,1.9031675711742635e-06,4.295470561416201e-06,1.428258372543078e-05,4.997781087249873e-07,1.7529726879153494e-05,3.986426295700575e-06,1.2856723882553824e-05,7.4698791050428e-07,1.2536648094657772e-06
123,2.216810010035208e-06,3.7567560942522773e-06,1.9138578975240496e-06,1.5007935838988049e-06,2.4000850682244813e-06,2.2566666774427433e-06,1.7610695339064757e-06,1.9011101137648276e-06,4.137439983907233e-06,1.4304531315813878e-05,5.307532754245714e-07,1.877177377060203e-05,4.060233789989403e-06,1.3463958910368134e-05,7.577559999531466e-07,1.27209742495843e-06
124,2.2214826573298583e-06,3.672549760757868e-06,1.9158245855426174e-06,1.4275558939063662e-06,2.43482503710454e-06,2.265339287104298e-06,1.7572911708384693e-06,1.900154152861099e-06,3.9995533057950685e-06,1.4459942557696549e-05,5.631273100028513e-07,1.9994673722040588e-05,4.137970813455888e-06,1.4067725038271948e-05,7.762537004263261e-07,1.2918800474549838e-06
125,2.2231893363532047e-06,3.5910899648599674e-06,1.9120030495078094e-06,1.3563785946044521e-06,2.4667091559322918e-06,2.2698546727052633e-06,1.7563535742179636e-06,1.8994927201047645e-06,3.883494138470576e-06,1.4753646358524169e-05,5.964357399209249e-07,2.1178038003440187e-05,4.2178730451144505e-06,1.4652326258168297e-05,8.030798801622843e-07,1.3132269616944845e-06
126,2.22062373543119e-06,3.5125393770962465e-06,1.9026793897028265e-06,1.2880189802940621e-06,2.4949637501188657e-06,2.268068176492082e-06,1.7577419653049107e-06,1.8981896182650003e-06,3.7906497113524e-06,1.5189550498475023e-05,6.302430480061439e-07,2.2298290811685187e-05,4.2977444375809635e-06,1.5201307669219727e-05,8.389222100349926e-07,1.3365014292448372e-06
127,2.2125446054178713e-06,3.4370482540111438e-06,1.8880092821028952e-06,1.2231068313622545e-06,2.5189099879243265e-06,2.2588983418049175e-06,1.7608541211447165e-06,1.895268244336543e-06,3.721950981353223e-06,1.5769952759377734e-05,6.640903792053619e-07,2.332875595789884e-05,4.3753385404083875e-06,1.5699062934166393e-05,8.845914053048473e-07,1.362341312280064e-06
128,2.1979810696892284e-06,3.3648874619821905e-06,1.8680352440616243e-06,1.162235268369018e-06,2.5380176897021626e-06,2.2425623640635463e-06,1.7650777268743855e-06,1.8900406506803875e-06,3.6778737718149344e-06,1.6494404469361207e-05,6.974860153793409e-07,2.4241620214023575e-05,4.448624488842136e-06,1.6133014005327703e-05,9.409667276053296e-07,1.391640146041905e-06
129,2.1764157314213e-06,3.296281689533192e-06,1.8428882404722857e-06,1.1060301337058444e-06,2.55215921316703e-06,2.2202577015856266e-06,1.7699024399336783e-06,1.8824354828351513e-06,3.6583958451483854e-06,1.7358873338133144e-05,7.29923584465845e-07,2.5011407924921176e-05,4.51564828557815e-06,1.6494334406730068e-05,1.0089690921721568e-06,1.425359032704927e-06
130,2.1479228488312634e-06,3.2312198186760663e-06,1.812974336916249e-06,1.0551225819586047e-06,2.561638733620114e-06,2.1935488630425343e-06,1.775041093773748e-06,1.8729598077756235e-06,3.6628885719749233e-06,1.8355319009533504e-05,7.608970892938953e-07,2.5618463797616453e-05,4.57411155686566e-06,1.6776725249548574e-05,1.0896118955050944e-06,1.464316066725622e-06
131,2.1131112070654035e-06,3.1695284564963903e-06,1.7789816093631037e-06,1.010056745279345e-06,2.566856494128353e-06,2.1638347319965163e-06,1.780488524613222e-06,1.8623232217993416e-06,3.690033196454186e-06,1.9471514408329837e-05,7.899271164829795e-07,2.6051121812776725e-05,4.621128739946454e-06,1.6974229105272924e-05,1.1840479893782338e-06,1.5090762257446052e-06
132,2.0729108284315065e-06,3.1111580148940114e-06,1.7417138516893317e-06,9.71206581401897e-07,2.5679646143365457e-06,2.1320832709885827e-06,1.786464009088243e-06,1.8510642368387032e-06,3.7378217625365826e-06,2.069104109191868e-05,8.165804471207716e-07,2.63055902619741e-05,4.6535872295179276e-06,1.7080137455914448e-05,1.293547371008986e-06,1.5599442371150196e-06
133,2.0284910915950276e-06,3.0563854467376437e-06,1.7019253262079006e-06,9.387473959054757e-07,2.564789612828963e-06,2.0988146870976914e-06,1.793243277177984e-06,1.839434311019597e-06,3.803585575473605e-06,2.1993274023082434e-05,8.404358052887541e-07,2.6383126013780368e-05,4.668964499509638e-06,1.7088536727037224e-05,1.419411693935371e-06,1.6170096892859734e-06
134,1.981320192561659e-06,3.0057167182134406e-06,1.660329027886398e-06,9.126704795360325e-07,2.556882005808007e-06,2.064253278087017e-06,1.800989801833978e-06,1.8274995080974994e-06,3.8840301135180545e-06,2.3353059826294805e-05,8.610431082691787e-07,2.6285791773020957e-05,4.6657815833255775e-06,1.6997487779869613e-05,1.5628958294328577e-06,1.6802426162489106e-06
135,1.933060098997935e-06,2.9595600080735913e-06,1.617719793193094e-06,8.927935378222183e-07,2.543603203345527e-06,2.0285354651176757e-06,1.8096815411073903e-06,1.8152401857463163e-06,3.975346488573006e-06,2.4740232494710547e-05,8.779818407495362e-07,2.601429762754877e-05,4.643351045972087e-06,1.6811220797124455e-05,1.725240809714483e-06,1.7497133338325018e-06
136,1.8852691032590017e-06,2.9179829516644566e-06,1.575006513879993e-06,8.787570572465776e-07,2.524350145368969e-06,1.9918126836076145e-06,1.8190733716722633e-06,1.802525387666008e-06,4.07339022583234e-06,2.611950697681795e-05,8.910236925973362e-07,2.556997541504348e-05,4.601539972108332e-06,1.6539593416946257e-05,1.9077794860033294e-06,1.8258861200887273e-06
137,1.839188326351171e-06,2.880733272032891e-06,1.5331193276407382e-06,8.700435360127322e-07,2.4988562514640535e-06,1.954192653413398e-06,1.828640960607598e-06,1.7890687336514163e-06,4.1739227576454444e-06,2.7450869104489046e-05,9.002883715547299e-07,2.4958394046256932e-05,4.540974044916159e-06,1.6195271651248154e-05,2.1119232566834384e-06,1.9097465668673277e-06
138,1.7957309044305745e-06,2.847359500783541e-06,1.4929419069946065e-06,8.660315977784532e-07,2.4674198865331338e-06,1.9156558879358036e-06,1.837594385379664e-06,1.7745100547549287e-06,4.272943942588493e-06,2.8690530545401314e-05,9.062616794486418e-07,2.4191322464312606e-05,4.46329223086119e-06,1.5790785280811314e-05,2.339007067771798e-06,2.0026701581435474e-06
139,1.7555458571408306e-06,2.8172500858165637e-06,1.4552969221245798e-06,8.660900096760339e-07,2.430954697012263e-06,1.8760303371369074e-06,1.8450144752349373e-06,1.7585657443102699e-06,4.366991790033853e-06,2.9793300816318856e-05,9.096479043089047e-07,2.328656255738374e-05,4.3712233846744245e-06,1.533712255611093e-05,2.590164751273904e-06,2.106202044863802e-06
140,1.7190305460019107e-06,2.789592278541268e-06,1.4208840395303939e-06,8.697315609641576e-07,2.390783569030489e-06,1.8349890324268155e-06,1.8500228260706725e-06,1.7411158340755886e-06,4.453226131584437e-06,3.0716682683166835e-05,9.111761120582441e-07,2.2266541829867733e-05,4.268466093838352e-06,1.484373785419608e-05,2.8662954434432486e-06,2.2218904080003725e-06
141,1.6863348606987432e-06,2.763322317246033e-06,1.3902124488946581e-06,8.767552463938417e-07,2.348319506497577e-06,1.7921444877654754e-06,1.8518963522280299e-06,1.7222194895107815e-06,4.529249155709998e-06,3.142544204225564e-05,9.114795412464185e-07,2.115637640273376e-05,4.159215405513146e-06,1.4318891281907432e-05,3.1680441782573967e-06,2.3511449950767692e-06
142,1.6574558914971643e-06,2.7371579497564856e-06,1.363641967996918e-06,8.872486928567686e-07,2.3049342568815257e-06,1.7472720409990247e-06,1.8501340152919461e-06,1.702085837844072e-06,4.592733488642001e-06,3.1894621108848316e-05,9.110604687734281e-07,1.998192421633513e-05,4.047466396732347e-06,1.3769540675365939e-05,3.4957183158658162e-06,2.4950881464668554e-06
143,1.6323740543569667e-06,2.7097640896802127e-06,1.3414803219559276e-06,9.014428896877153e-07,2.26205809940106e-06,1.7004818474507373e-06,1.844490950092212e-06,1.6809992372936553e-06,4.641093851941644e-06,3.210919819744904e-05,9.103084270783597e-07,1.8768073941624833e-05,3.936541713065687e-06,1.3200791490789793e-05,3.849116711262311e-06,2.6544555063708703e-06
144,1.6110960965886357e-06,2.6800080478642106e-06,1.3240005699725668e-06,9.19537767139693e-07,2.221252589151899e-06,1.6522343535111675e-06,1.8349337788209021e-06,1.6592580374699706e-06,4.671600272144213e-06,3.206235329202889e-05,9.095406538242147e-07,1.7537309967216802e-05,3.8289929440197095e-06,1.2615526650273242e-05,4.227352550528411e-06,2.8295655910124935e-06
145,1.5935831784482378e-06,2.647209812238452e-06,1.3113912739756677e-06,9.416162577242056e-07,2.184086653887732e-06,1.6032837368869556e-06,1.8215063493838058e-06,1.637195590033215e-06,4.681958781016614e-06,3.175751727570203e-05,9.090294054008614e-07,1.6308774827122893e-05,3.7266288559122848e-06,1.2014856151317566e-05,4.628816635164087e-06,3.020301615444331e-06
146,1.579670432478538e-06,2.6112403881376056e-06,1.3037704420542534e-06,9.676562875879074e-07,2.1519062698258646e-06,1.5545853362688278e-06,1.8042023942874565e-06,1.6152390880027416e-06,4.670800810832116e-06,3.1213008306568264e-05,9.089937698046294e-07,1.5098080765077115e-05,3.630500549680919e-06,1.1399359248166817e-05,5.051325708742415e-06,3.226048466049816e-06
147,1.5690578046877755e-06,2.5723476210031164e-06,1.3012748204310742e-06,9.975480019549468e-07,2.1256547469719455e-06,1.507127526850275e-06,1.7829265808911299e-06,1.593904452311638e-06,4.637777538281144e-06,3.0461564712171202e-05,9.095796367048243e-07,1.391763956784901e-05,3.540877876523437e-06,1.0770440345957187e-05,5.492270985763762e-06,3.4455717700103147e-06
148,1.5613264081306926e-06,2.530860654054247e-06,1.3040901350275832e-06,1.0310615638469309e-06,2.1058022335287957e-06,1.4617531064342664e-06,1.7574909617964094e-06,1.5736947453650574e-06,4.583588223014182e-06,2.9543224686462955e-05,9.108584615954151e-07,1.27770606420271e-05,3.4572784329440877e-06,1.0131120596180155e-05,5.948510100961485e-06,3.6768878263785483e-06
149,1.5559422963509214e-06,2.487075319047728e-06,1.3123650326875107e-06,1.0678055554626556e-06,2.0923814076168493e-06,1.4190734664628791e-06,1.7276043175527232e-06,1.554970128542048e-06,4.510087090754967e-06,2.8498102904541178e-05,9.128375226790717e-07,1.1683500361047666e-05,3.3786946778487728e-06,9.486007748966374e-06,6.4159953796105315e-06,3.91717846440422e-06
150,1.5522616534984084e-06,2.4413242271447644e-06,1.326126104076652e-06,1.1072256489589328e-06,2.085093568208613e-06,1.3794526179632142e-06,1.6929875208982646e-06,1.5379104295342414e-06,4.4200840662257655e-06,2.7363687697362518e-05,9.154752219619712e-07,1.0642022350717215e-05,3.304144924608928e-06,8.840674492603724e-06,6.889398347585221e-06,4.162756456972518e-06
151,1.5494989703900697e-06,2.394026718690747e-06,1.3452751900904803e-06,1.1486519726268408e-06,2.083381438395591e-06,1.343003046510978e-06,1.6536916446052585e-06,1.522603550588939e-06,4.3167557645091455e-06,2.61750464409121e-05,9.186922952623993e-07,9.655930187799866e-06,3.2332558980285847e-06,8.200990266145273e-06,7.361927743845615e-06,4.409067982741627e-06
152,1.546710891693628e-06,2.3457198184566972e-06,1.3695790345409611e-06,1.1913475680855833e-06,2.0864187231650637e-06,1.3096272079713372e-06,1.6103893989306558e-06,1.5091519306201459e-06,4.203232181966182e-06,2.4964613224066104e-05,9.223598783990385e-07,8.727046768068386e-06,3.1663486674684763e-06,7.572776460912853e-06,7.825278506847815e-06,4.650747357707413e-06
153,1.5429280431961968e-06,2.297180884415925e-06,1.398597423366837e-06,1.2345163167648617e-06,2.093124981636954e-06,1.2791603384953918e-06,1.564357848464822e-06,1.4977342371873684e-06,4.082637679293036e-06,2.3760896697910063e-05,9.262680902087145e-07,7.856001344333823e-06,3.1040345427557634e-06,6.961611540984343e-06,8.269615588322821e-06,4.881785470157197e-06
154,1.5373688537435879e-06,2.2495623078621938e-06,1.4316305451344344e-06,1.2773354374406724e-06,2.1023568901272287e-06,1.2515273356111965e-06,1.517167036618273e-06,1.4886747955643122e-06,3.958137906759336e-06,2.2587419678246645e-05,9.300925807651379e-07,7.0425793726500294e-06,3.0468768343303094e-06,6.3724633943385976e-06,8.68375580951726e-06,5.0958618609538615e-06
155,1.5295736281096268e-06,2.204348639732636e-06,1.4677232570654197e-06,1.3190609515913881e-06,2.113238825842545e-06,1.2267566450681396e-06,1.4703354878552473e-06,1.4825202373943093e-06,3.832657961043086e-06,2.146250867631622e-05,9.333961394361848e-07,6.286106521030527e-06,2.995341189367926e-06,5.809309186958785e-06,9.055824682639632e-06,5.286806924208527e-06
156,1.5194488253932196e-06,2.163101263467853e-06,1.5056814159050459e-06,1.3591212467916042e-06,2.1253448501819703e-06,1.2049208444145285e-06,1.4251568350873506e-06,1.4800168942070935e-06,3.70852928059454e-06,2.0399469281949626e-05,9.357095717946243e-07,5.585727121798811e-06,2.949758707004093e-06,5.275057422721034e-06,9.374452029069629e-06,5.449125674686976e-06
157,1.5072476512230101e-06,2.1271555183369314e-06,1.5441264691787898e-06,1.3971379912133718e-06,2.1385574974274497e-06,1.1861545010058549e-06,1.382672704242994e-06,1.4819451069925925e-06,3.5873504879897125e-06,1.940689225743644e-05,9.366688187669651e-07,4.940426245447777e-06,2.9102095643699637e-06,4.771672261320547e-06,9.630235759158799e-06,5.578518955333295e-06
158,1.4934319056294043e-06,2.097450423368985e-06,1.5816648513797203e-06,1.4328808652171776e-06,2.152760415355792e-06,1.170663386083676e-06,1.3436792353618155e-06,1.4889281217137668e-06,3.470007703396327e-06,1.8489162713599856e-05,9.360926542590503e-07,4.348849310112408e-06,2.876499304861304e-06,4.300327533287337e-06,9.816872876529453e-06,5.6722276020451355e-06
159,1.478447647256251e-06,2.0745213882329064e-06,1.617120274619931e-06,1.4661625395516897e-06,2.1675689230102362e-06,1.1586547749384192e-06,1.3087664076576034e-06,1.5013369734808931e-06,3.35679311518847e-06,1.764702995519862e-05,9.339225977895347e-07,3.8091787569195774e-06,2.848225970625102e-06,3.861638058398398e-06,9.931267053698596e-06,5.728854133301079e-06
160,1.4625538631523942e-06,2.0585583619313315e-06,1.64965533539955e-06,1.496781845501681e-06,2.1822043203169725e-06,1.1502934977462602e-06,1.2784208482050486e-06,1.5192990893848596e-06,3.2475957279945076e-06,1.6878058727277842e-05,9.301141644470445e-07,3.3192352167329086e-06,2.8247813852528226e-06,3.455955470452026e-06,9.972433592279594e-06,5.74761698176701e-06
161,1.4457517065302642e-06,2.0494730668041595e-06,1.6786707761931316e-06,1.5246028036024768e-06,2.195601022618212e-06,1.1456911906158062e-06,1.2530987038359383e-06,1.5427506051852007e-06,3.1420025404989283e-06,1.6176837747123143e-05,9.245783332249735e-07,2.8767296739169075e-06,2.8052790617717434e-06,3.083572240139261e-06,9.94015572732647e-06,5.727814336070966e-06
162,1.4277934147597675e-06,2.046975330845756e-06,1.7035758659068717e-06,1.5496164613584434e-06,2.206708685981748e-06,1.1448505303223934e-06,1.2331804823816748e-06,1.5714460413587237e-06,3.0393357965201923e-06,1.5535017824192547e-05,9.171675540987166e-07,2.4795116833248078e-06,2.7885065534104523e-06,2.7447142098999187e-06,9.834863294765712e-06,5.669204276076211e-06
163,1.408298493098077e-06,2.050601192407598e-06,1.7236257924780725e-06,1.5718530115011583e-06,2.2147505144968312e-06,1.1475977011819508e-06,1.218882277083098e-06,1.6049207566906467e-06,2.938814771584368e-06,1.4941865960185286e-05,9.07744583952031e-07,2.125684809269981e-06,2.7729480291135014e-06,2.4393723001554972e-06,9.658814993564922e-06,5.572850734602629e-06
164,1.3869723015885827e-06,2.0597040829654153e-06,1.7379240947063821e-06,1.5912702445950722e-06,2.2192200468526568e-06,1.1535786854658467e-06,1.2102208661954422e-06,1.6424883556323191e-06,2.839791406815806e-06,1.4385772978926181e-05,8.963158663945118e-07,1.813503250310931e-06,2.756988549630035e-06,2.1671486485308693e-06,9.417141068048474e-06,5.441584827382149e-06
165,1.3638244440172171e-06,2.0735165308882425e-06,1.7456073728253622e-06,1.607767786062235e-06,2.2196578059188273e-06,1.1623061760549706e-06,1.207023915531507e-06,1.6832719952882807e-06,2.74189633454123e-06,1.3855849166003578e-05,8.830670049113327e-07,1.5411219723526876e-06,2.7393189097740704e-06,1.9272065491899165e-06,9.11780533422263e-06,5.2798323890507325e-06
166,1.3392750031636697e-06,2.0912452193106144e-06,1.7461215044926265e-06,1.6212848098161252e-06,2.2154994671487242e-06,1.1732117655680536e-06,1.208957066254266e-06,1.7262330688621703e-06,2.645018512769352e-06,1.3342544972722769e-05,8.683035902311091e-07,1.3064118291887432e-06,2.7191966787003003e-06,1.718287734331839e-06,8.77071423641497e-06,5.093041770504052e-06
167,1.3140884702244734e-06,2.1120879511527023e-06,1.7393398734733715e-06,1.6318227856997735e-06,2.2062020625039954e-06,1.185721594887834e-06,1.2155938562307553e-06,1.770250581679342e-06,2.5492163366673197e-06,1.2837167177756048e-05,8.524260203741641e-07,1.1069626651532655e-06,2.696287399102642e-06,1.538765499041913e-06,8.386510574095524e-06,4.887028192294335e-06
168,1.2891553464485436e-06,2.1351712229288588e-06,1.7254017293818046e-06,1.6393405349858845e-06,2.1915000893284924e-06,1.1993414140574246e-06,1.226552944730701e-06,1.8142548689661246e-06,2.4548076100872656e-06,1.233108023869939e-05,8.359027030968578e-07,9.402307440407443e-07,2.6702796654316013e-06,1.3867050937846222e-06,7.975547041349884e-06,4.667448870252948e-06
169,1.265267576216039e-06,2.1594712617357193e-06,1.7044892864218953e-06,1.6436887566197627e-06,2.171536791407054e-06,1.2136610819394282e-06,1.2416101080221905e-06,1.8573133976260338e-06,2.3625886904861244e-06,1.1816223122189304e-05,8.192133742809172e-07,8.036927859945627e-07,2.6406218318535215e-06,1.259917319015496e-06,7.547359447219711e-06,4.4394934908147164e-06
170,1.2430556994748913e-06,2.183843892067566e-06,1.6768256295348474e-06,1.644715392345615e-06,2.146784472660561e-06,1.2283121718990822e-06,1.2606434657263484e-06,1.8986282907906145e-06,2.2738182884857573e-06,1.1287410722776225e-05,8.028230396198992e-07,6.948759925913489e-07,2.6064953577212836e-06,1.1560936748617476e-06,7.110509905948287e-06,4.20772330228439e-06
171,1.2230595219381995e-06,2.2072086399244652e-06,1.6428629669675633e-06,1.6424059590065173e-06,2.117827054545896e-06,1.243023926527887e-06,1.2834522113009413e-06,1.9374587282372004e-06,2.1898955024545484e-06,1.0744214198624838e-05,7.871629636247952e-07,6.112951054734531e-07,2.566901436883215e-06,1.0730794587201887e-06,6.6724531295429504e-06,3.975978351824237e-06
172,1.2057632665829318e-06,2.228693748877727e-06,1.6033958169279246e-06,1.6369007049589408e-06,2.0852373928829985e-06,1.2577459050901957e-06,1.3096286425790826e-06,1.9729818563424976e-06,2.1120540724308364e-06,1.0190443377415194e-05,7.72582973025682e-07,5.504224504897612e-07,2.5208005220825942e-06,1.0091432713095066e-06,6.239366510682576e-06,3.7474050386423163e-06
173,1.1915610967593575e-06,2.247609303610212e-06,1.559488765574499e-06,1.6284239885957307e-06,2.0497185816779067e-06,1.2726594301442854e-06,1.3385630643056817e-06,2.0042031398116976e-06,2.0412673918652376e-06,9.63192166044706e-06,7.593044329847927e-07,5.097107466309644e-07,2.4674392175789065e-06,9.63057754082735e-07,5.816118433246576e-06,3.524583630721893e-06
174,1.1807341621247032e-06,2.2633744912177655e-06,1.5123306088606333e-06,1.617226985896538e-06,2.0123213215635026e-06,1.2880931177346892e-06,1.369541195488503e-06,2.0300002116766185e-06,1.9782308049171257e-06,9.074522290146865e-06,7.47404690439801e-07,4.866272328170017e-07,2.406794854732579e-06,9.339665478430184e-07,5.406383804847029e-06,3.3095830253926554e-06
175,1.1734803647337916e-06,2.2755120067582095e-06,1.4630974799682574e-06,1.6035958325363378e-06,1.9744628690495262e-06,1.3044800456546062e-06,1.4018807109354666e-06,2.0492226587986424e-06,1.9232887970884563e-06,8.523579399955009e-06,7.368261323278482e-07,4.786803656838811e-07,2.339721745203482e-06,9.211545109697424e-07,5.012781028416317e-06,3.103895554299309e-06
176,1.1699876734119404e-06,2.2836179888860355e-06,1.412823392090316e-06,1.5879135733549151e-06,1.93774656736022e-06,1.322306764160162e-06,1.4350144547782517e-06,2.060827242647356e-06,1.8763598026781537e-06,7.98414585503626e-06,7.273907455700546e-07,4.834424751792734e-07,2.267626494904401e-06,9.238707970050036e-07,4.637027073498966e-06,2.9084126708855454e-06
177,1.170460315986908e-06,2.287220351492104e-06,1.3623145418186645e-06,1.5706986262703532e-06,1.9037229270884765e-06,1.3419859345721371e-06,1.4684337718841914e-06,2.0641355956089463e-06,1.836925087736755e-06,7.460988153712771e-06,7.188568233849181e-07,4.985947008396969e-07,2.1920301421260836e-06,9.412728011141167e-07,4.280147189820407e-06,2.723574739988347e-06
178,1.1750335029329815e-06,2.285701797589292e-06,1.3121763597629774e-06,1.552541976821528e-06,1.8736908552309648e-06,1.3637504340029101e-06,1.5016055657369793e-06,2.05915605509425e-06,1.8040701705798957e-06,6.958078189794541e-06,7.110394970625097e-07,5.220067166795542e-07,2.114377773423432e-06,9.724268008534755e-07,3.942655613457461e-06,2.5496241899815817e-06
179,1.1836644435926417e-06,2.278453806073939e-06,1.2629457200903935e-06,1.5339897158831677e-06,1.8486082227393072e-06,1.3876603631644129e-06,1.5340225780816756e-06,2.0467414980448515e-06,1.7766005939530999e-06,6.47812280183021e-06,7.03885131950789e-07,5.518441255759804e-07,2.036021769295028e-06,1.0162772069492485e-06,3.6246568431427374e-06,2.386754183600935e-06
180,1.1960953234331705e-06,2.2650691985844803e-06,1.2152185982505243e-06,1.5155253725834467e-06,1.8291178776506523e-06,1.4137188398564477e-06,1.565297843461374e-06,2.0284211200394377e-06,1.7532776587245027e-06,6.022484148912116e-06,6.97404281283417e-07,5.866329317755272e-07,1.9581680647787984e-06,1.071588959930511e-06,3.325979420452221e-06,2.2350502427144415e-06
181,1.2118872374218753e-06,2.2453555722356563e-06,1.169687539348427e-06,1.4976790717972533e-06,1.8155927180962755e-06,1.4420068373865442e-06,1.595157582242121e-06,2.005994620683614e-06,1.733091346109765e-06,5.591407299054744e-06,6.915621778277507e-07,6.251967770296438e-07,1.881826452878734e-06,1.136915008763882e-06,3.046390447772874e-06,2.0943903468909246e-06
182,1.2304659326282545e-06,2.2192729632027335e-06,1.1270978950811295e-06,1.4810964783078414e-06,1.8081138698686909e-06,1.4727164087157226e-06,1.6233762585641827e-06,1.981176858259656e-06,1.7154234769951108e-06,5.184459373397015e-06,6.862732300055058e-07,6.665554984630255e-07,1.8078766334625686e-06,1.2106132690719926e-06,2.7857377658284045e-06,1.9645273412541505e-06
183,1.2511236512467757e-06,2.1869943714394585e-06,1.088161055684835e-06,1.466465296141586e-06,1.8064055810197727e-06,1.5060602190843038e-06,1.649774251271422e-06,1.955466818728944e-06,1.70006450911702e-06,4.801012984219904e-06,6.814835501966636e-07,7.09897996203549e-07,1.7371665752821222e-06,1.29092629453292e-06,2.5439276660846615e-06,1.84530553696668e-06
184,1.2730238519795489e-06,2.1490936400942266e-06,1.0534845618096256e-06,1.4543820021557771e-06,1.8098018160387948e-06,1.5421594113571856e-06,1.6743018187061055e-06,1.930125450430548e-06,1.6871316595802852e-06,4.4404121669372514e-06,6.772166375398683e-07,7.5456162801368e-07,1.6705034891873952e-06,1.3761040926284619e-06,2.3208631985444887e-06,1.7367556762157746e-06
185,1.2953021855644796e-06,2.1066659498042156e-06,1.0235548395677776e-06,1.4452595845064866e-06,1.817285143030412e-06,1.5810037882115873e-06,1.697097233537261e-06,1.9061255997610242e-06,1.6769481986299716e-06,4.101837500636962e-06,6.735182187630699e-07,7.999788129201592e-07,1.6085542730286077e-06,1.4644638764799263e-06,2.116433135694457e-06,1.638960359862294e-06
186,1.3172557631649487e-06,2.0611903693073577e-06,9.98724292326746e-07,1.4392916416599062e-06,1.827573597206076e-06,1.6224530189194187e-06,1.7184022755140184e-06,1.8841094301960504e-06,1.669924612235774e-06,3.7843344209195913e-06,6.703658278633099e-07,8.456637154174546e-07,1.551765733780848e-06,1.5543358807361432e-06,1.930479429766225e-06,1.5518785422113398e-06
187,1.3385335626524339e-06,2.0141742818279543e-06,9.791837225343943e-07,1.4364732909887882e-06,1.839187782283121e-06,1.6662362000199475e-06,1.7383900724266381e-06,1.8643997629062724e-06,1.6664487243686503e-06,3.4871133416488544e-06,6.676439064734638e-07,8.912195886167546e-07,1.5003617631705771e-06,1.6440900772827891e-06,1.7627396665230392e-06,1.4753298624487716e-06
188,1.3592229761811572e-06,1.966824328033794e-06,9.649598179527072e-07,1.436686045454067e-06,1.8504884976235772e-06,1.7119852555526397e-06,1.7570738917884843e-06,1.847072318810335e-06,1.6668170490148527e-06,3.209777529424284e-06,6.651881658741352e-07,9.36297253928956e-07,1.4543865138248878e-06,1.7324188488440631e-06,1.6128319927852405e-06,1.4090779580570564e-06
189,1.3797627934448517e-06,1.9199025583132914e-06,9.559448603477906e-07,1.4397702634706672e-06,1.8597850268715123e-06,1.7593033790548747e-06,1.7743280283420824e-06,1.8320976853838251e-06,1.6712079832360023e-06,2.952296351519497e-06,6.628376532621324e-07,9.805398465057897e-07,1.4137135299749525e-06,1.8186343151874877e-06,1.4802428608841375e-06,1.3528615962907972e-06
190,1.4007403879167485e-06,1.873714747074382e-06,9.519273810095126e-07,1.4454978744323594e-06,1.8655827570403029e-06,1.807864642584271e-06,1.7898947908810722e-06,1.819458648127907e-06,1.6796453775248711e-06,2.7147637827717643e-06,6.604575130379469e-07,1.0235594850158024e-06,1.3780030094518283e-06,1.902636592483244e-06,1.3642798866555814e-06,1.306353676933351e-06
191,1.4227205419912757e-06,1.8281546305177843e-06,9.525963498036264e-07,1.4535113593302416e-06,1.8668693408945994e-06,1.8575724835874068e-06,1.8033660447703066e-06,1.8091183085797499e-06,1.6919958990220029e-06,2.4970702173589857e-06,6.579364816082982e-07,1.0649448237540213e-06,1.3467022531995038e-06,1.9846229085349675e-06,1.2640718258537612e-06,1.2690980707665731e-06
192,1.4461875462046692e-06,1.7828112870102576e-06,9.575491827371305e-07,1.463325460305964e-06,1.8632658021295828e-06,1.908693088997769e-06,1.8142744232815362e-06,1.8009012165357271e-06,1.7080148774672332e-06,2.2987299307419365e-06,6.55186752635327e-07,1.1043149522130493e-06,1.3192070360027977e-06,2.064835942931052e-06,1.178685001588189e-06,1.2404483072820965e-06
193,1.471548293500427e-06,1.7371525338144327e-06,9.663257989426646e-07,1.4744053825296417e-06,1.854967710539018e-06,1.961804614396141e-06,1.8222928100238936e-06,1.7944641446087946e-06,1.7273265715867386e-06,2.1189318467722593e-06,6.521310549893523e-07,1.1413775612592893e-06,1.2951420421177178e-06,2.1434875381719373e-06,1.1072519208193666e-06,1.2195217846270549e-06
194,1.499101465520176e-06,1.690758178647235e-06,9.784238585915714e-07,1.4863333100774251e-06,1.8425154220359853e-06,2.0175532016878013e-06,1.8273812652013763e-06,1.789396198887197e-06,1.749341957989393e-06,1.95663147075794e-06,6.486510865017009e-07,1.1758966035030947e-06,1.2744958818192134e-06,2.2208027671136006e-06,1.0489735054784785e-06,1.2051916331583456e-06
195,1.5289717260250015e-06,1.6435246121701634e-06,9.933268684277962e-07,1.4989805139400652e-06,1.8264926372267794e-06,2.0763851679734753e-06,1.8298071309349065e-06,1.7853203381650786e-06,1.7732162274634453e-06,1.810610145573824e-06,6.445573148327189e-07,1.2076074390692654e-06,1.257476844266619e-06,2.297047664167998e-06,1.0030315707483813e-06,1.1961548454574127e-06
196,1.5610879927161996e-06,1.595734563899484e-06,1.0106091809506917e-06,1.5125048737792745e-06,1.8072908728922393e-06,2.1384242029245026e-06,1.8300648640924237e-06,1.7819091145799083e-06,1.7978605912955565e-06,1.6795319582231276e-06,6.396384088964209e-07,1.236214626988518e-06,1.2443117515218844e-06,2.3724547870024786e-06,9.685131160470176e-07,1.191107053054479e-06
197,1.5952209760085464e-06,1.547970746284088e-06,1.0300233446576722e-06,1.527159480136837e-06,1.78503620418037e-06,2.203561513128931e-06,1.8287071068090106e-06,1.7788738457015543e-06,1.8220134063621858e-06,1.5619434483453865e-06,6.337625383491403e-07,1.261490074359561e-06,1.235171376426221e-06,2.4470769303706567e-06,9.444015091763186e-07,1.1889426661268228e-06
198,1.6310135172803475e-06,1.5009607982873752e-06,1.0514460598271138e-06,1.5431011553615532e-06,1.7596711532755567e-06,2.2717058119016757e-06,1.8261513064008638e-06,1.776003873321783e-06,1.8443749933199613e-06,1.4562290924269425e-06,6.269798274753272e-07,1.2833862292889407e-06,1.2301515486791403e-06,2.520641282388399e-06,9.296372641708171e-07,1.1888263311164123e-06
199,1.6679637880707612e-06,1.4554234334963506e-06,1.074728567774079e-06,1.5603311194864635e-06,1.7311348139339193e-06,2.343013758160191e-06,1.822589973845994e-06,1.7732279153875995e-06,1.8637499509955462e-06,1.360617250382061e-06,6.195804800205943e-07,1.3021030088385718e-06,1.2292432096184024e-06,2.5924686145912527e-06,9.23184285027344e-07,1.1900991390826043e-06
200,1.7054072299792165e-06,1.4119402520445208e-06,1.0995803954130702e-06,1.578705054424156e-06,1.699543342547093e-06,2.4179195210952105e-06,1.8180570127405784e-06,1.7706058265714836e-06,1.8791752322507555e-06,1.273232344230289e-06,6.120565017283872e-07,1.3180741278662847e-06,1.2323184728406318e-06,2.661463882376381e-06,9.24080159572231e-07,1.1921547205948336e-06
201,1.7425957367934258e-06,1.3709136517293756e-06,1.125541136414387e-06,1.5979046245451447e-06,1.6652496760852724e-06,2.4969382118033582e-06,1.812589878518848e-06,1.7682205087891219e-06,1.8900317670318946e-06,1.1922316438700046e-06,6.049708057766959e-07,1.3318651847227686e-06,1.2391824147904883e-06,2.726152090922006e-06,9.315065407369011e-07,1.1944639399998554e-06
202,1.778852503817397e-06,1.332651705748063e-06,1.1520307738499218e-06,1.6173701909666387e-06,1.6287972485380302e-06,2.580376066280979e-06,1.806329045689271e-06,1.7660387471872563e-06,1.8960331082956011e-06,1.116078102870065e-06,5.988286262963898e-07,1.3440272615064792e-06,1.2496824836206718e-06,2.7848751846391054e-06,9.448425571243903e-07,1.196731370348864e-06
203,1.8136132293889524e-06,1.297515933444975e-06,1.1784506489291036e-06,1.6362573084700068e-06,1.5909095938284008e-06,2.6681109999834913e-06,1.7994398692812604e-06,1.7638253731780287e-06,1.8970482991053618e-06,1.0437078222320242e-06,5.940271841097875e-07,1.354988864808201e-06,1.263742309434295e-06,2.8362774612083796e-06,9.636433199737104e-07,1.1989378504334409e-06
204,1.8462800315741751e-06,1.2660246238483904e-06,1.204272939564519e-06,1.6534706650559829e-06,1.5525226570131695e-06,2.7595055339735353e-06,1.7920234970860064e-06,1.761191565717917e-06,1.8929501779263126e-06,9.743659861987989e-07,5.908636208037968e-07,1.3650649819973593e-06,1.2812483749129548e-06,2.8798853773529014e-06,9.875831170274146e-07,1.2011642209041222e-06
205,1.8760341842547467e-06,1.2388374569498833e-06,1.2290580778914438e-06,1.6678274721844512e-06,1.5147212203367432e-06,2.853423215697243e-06,1.7842194920821368e-06,1.7578205363193914e-06,1.8836014866259986e-06,9.073084686174801e-07,5.89550696169865e-07,1.374559447350299e-06,1.3019207111543578e-06,2.916404902613361e-06,1.0164312056602204e-06,1.2033999785832403e-06
206,1.901742650774616e-06,1.216640570976179e-06,1.2523988584550006e-06,1.6783244942677948e-06,1.4785878616897498e-06,2.948338735813559e-06,1.776373804208138e-06,1.7537181022871915e-06,1.8688900570042812e-06,8.416525533732159e-07,5.902301796066584e-07,1.3838126648576628e-06,1.3252871106296363e-06,2.9475770464967237e-06,1.0500481065541894e-06,1.2055159470462362e-06
207,1.9220182406588566e-06,1.2000586094867749e-06,1.2738641180000498e-06,1.684343320841299e-06,1.4450932978065694e-06,3.0425141471060873e-06,1.7690630357327438e-06,1.7492235231844933e-06,1.8487633150404143e-06,7.764413131504047e-07,5.929919496761082e-07,1.3931220041590101e-06,1.3507163185880399e-06,2.975752181939695e-06,1.0883393456732895e-06,1.207339238788614e-06
208,1.935479959784945e-06,1.189664708250149e-06,1.2930224718483692e-06,1.685688093500242e-06,1.4150302175472276e-06,3.134163088239522e-06,1.7629573419211357e-06,1.7447633375553223e-06,1.8232616573703748e-06,7.109039181928342e-07,5.978833458340133e-07,1.4026653317223512e-06,1.3774283485796639e-06,3.0034532023601614e-06,1.1311537098820287e-06,1.208728319809565e-06
209,1.9411415260369205e-06,1.1860005824764801e-06,1.3094954316055688e-06,1.6825228265900791e-06,1.3889548640999195e-06,3.2216253016134263e-06,1.7586120904645154e-06,1.7406389417639911e-06,1.7926212956451406e-06,6.44788272327457e-07,6.049106803885704e-07,1.4125282678871516e-06,1.4045074966358913e-06,3.033071415927741e-06,1.1781948334780834e-06,1.2096689140021357e-06
210,1.93871342418193e-06,1.1895380821431376e-06,1.3229226652583326e-06,1.6752512082776787e-06,1.3671591262892818e-06,3.303631299347764e-06,1.75631973487847e-06,1.737039101386464e-06,1.7574163011156027e-06,5.784922655182598e-07,6.140585601673756e-07,1.4227469930355316e-06,1.4310338471280462e-06,3.0667503470233286e-06,1.2290301722728676e-06,1.210384246989854e-06
211,1.9286519081702946e-06,1.2006290169415957e-06,1.3328888855860485e-06,1.664348750237678e-06,1.3496606497707532e-06,3.379552873222168e-06,1.7561153981937825e-06,1.734115790446809e-06,1.7184707587583297e-06,5.128926016782338e-07,6.253144784874476e-07,1.433313072942819e-06,1.4563255511820028e-06,3.106484856215388e-06,1.283190234648842e-06,1.2113316275837211e-06
212,1.911944559606173e-06,1.2194780809311959e-06,1.3389705261715833e-06,1.6503100420143577e-06,1.3362287244280314e-06,3.449403065191698e-06,1.7578584691069794e-06,1.7319354611876147e-06,1.6765643765082887e-06,4.4908963790833914e-07,6.386737920327908e-07,1.444207217172477e-06,1.4800462090372602e-06,3.15429528568339e-06,1.3402296716103142e-06,1.213039179728636e-06
213,1.8897446494243973e-06,1.2461620930558286e-06,1.340905860223211e-06,1.633808260350502e-06,1.3265260336962613e-06,3.513501459740151e-06,1.7612452308208613e-06,1.7303996942604969e-06,1.6322937435496355e-06,3.882554368989331e-07,6.54131768908526e-07,1.4554612771815875e-06,1.5020620361797356e-06,3.2122980175542467e-06,1.3996619037986529e-06,1.2159252981936082e-06
214,1.863039624038376e-06,1.2807072590610855e-06,1.3387473946298128e-06,1.6158394573752317e-06,1.3203434615239099e-06,3.5719975089517933e-06,1.765778988299246e-06,1.7292503296414337e-06,1.5862086982905943e-06,3.3156574254357356e-07,6.71660031851475e-07,1.4671794204478638e-06,1.5223276261666153e-06,3.28272895360938e-06,1.4608389815469117e-06,1.2202231621597031e-06
215,1.8324969606263e-06,1.3231219696054825e-06,1.3329122533660358e-06,1.5976316018870497e-06,1.317764320181522e-06,3.6245855362995435e-06,1.7707790055492926e-06,1.728083533515756e-06,1.5390268179553437e-06,2.8017729370994504e-07,6.911670095243511e-07,1.47953684589042e-06,1.5409622198641106e-06,3.368056110778243e-06,1.5228767914354535e-06,1.2259826384901184e-06
216,1.798468279183357e-06,1.3733092123467651e-06,1.3241366078512078e-06,1.580418890711785e-06,1.3191329825805591e-06,3.670540776524746e-06,1.775376761091913e-06,1.7263217804009372e-06,1.491694206642337e-06,2.3523458345368392e-07,7.124786377736762e-07,1.49282172520775e-06,1.5582783072007783e-06,3.4711468980310266e-06,1.5846764878773343e-06,1.2331005389950328e-06
217,1.7610508296907255e-06,1.4309624832571259e-06,1.3133488406006911e-06,1.5652883323101967e-06,1.3248714284529669e-06,3.7088637657256285e-06,1.778521089849174e-06,1.723198349321475e-06,1.4452733972105507e-06,1.9787858114583664e-07,7.353492731370275e-07,1.5074748424664293e-06,1.5746961213658544e-06,3.59529284604497e-06,1.64505314063545e-06,1.2413972308506949e-06
218,1.7202234019526238e-06,1.4955724162583358e-06,1.3014864444648732e-06,1.5531393849185356e-06,1.3352886112858897e-06,3.7383500102888334e-06,1.779085895234739e-06,1.717837813847606e-06,1.4008248016191128e-06,1.6927735689487282e-07,7.594832518289311e-07,1.5240202837817614e-06,1.590740043096421e-06,3.743923720440698e-06,1.7028584895433614e-06,1.2507487645492274e-06
219,1.6760975058736303e-06,1.5665424374114698e-06,1.2893355563932318e-06,1.5446644631137855e-06,1.3504917553701046e-06,3.757694853852259e-06,1.775964067740452e-06,1.709472451322117e-06,1.3593510534586913e-06,1.5069692874577944e-07,7.845530634292148e-07,1.5429072162621376e-06,1.6070753975355227e-06,3.920159642624904e-06,1.756985222854318e-06,1.261214879182723e-06
220,1.6291064388766463e-06,1.6433074466733905e-06,1.277482821564735e-06,1.5402957178820373e-06,1.370388661048521e-06,3.765792890963549e-06,1.7680279269107876e-06,1.6976869684208411e-06,1.3217453746449765e-06,1.4355769407970008e-07,8.10195628074924e-07,1.5643801839236985e-06,1.6244550337444184e-06,4.12656425510476e-06,1.806341984126318e-06,1.2730809697723802e-06
221,1.5799701779061195e-06,1.725331595890214e-06,1.2663600789547553e-06,1.5401493046132233e-06,1.394694397287703e-06,3.7621539626776202e-06,1.7541649295101133e-06,1.6825606553719208e-06,1.2887428385725856e-06,1.4946006529734712e-07,8.360026845473029e-07,1.588443211274589e-06,1.643636843500376e-06,4.365225888327133e-06,1.8499377303004495e-06,1.2867685649951792e-06
222,1.5295674286210763e-06,1.8119701315631032e-06,1.2562736071748463e-06,1.5440182644046437e-06,1.4229296192389786e-06,3.7471652677062965e-06,1.733574040035326e-06,1.6646773650383275e-06,1.260947537039863e-06,1.7025271806037968e-07,8.615373784128454e-07,1.614937552873054e-06,1.6653102001508793e-06,4.637913099153072e-06,1.8870788279684605e-06,1.302657648305147e-06
223,1.4788579667675556e-06,1.9023119703700039e-06,1.2474186551293992e-06,1.551409203664019e-06,1.454494682651848e-06,3.7220047166862075e-06,1.7060802719057266e-06,1.6449842049532483e-06,1.2389333203928014e-06,2.081309347241172e-07,8.863801351360098e-07,1.6436665503844467e-06,1.6900028675842143e-06,4.946006181061413e-06,1.9175440351720024e-06,1.3209409663632608e-06
224,1.428807470169096e-06,1.9951162616343275e-06,1.2399878208274515e-06,1.5615685985221605e-06,1.4888413951915306e-06,3.68825057622022e-06,1.6721601659837706e-06,1.6245447100658615e-06,1.2233090298443119e-06,2.656421681917231e-07,9.101711347173704e-07,1.6744083212963902e-06,1.7180048238711009e-06,5.290260552820712e-06,1.941545212873301e-06,1.3415764269032686e-06
225,1.3802830042768304e-06,2.0888959959873287e-06,1.2343607725221928e-06,1.5735026904538734e-06,1.525592641355738e-06,3.6474018396582475e-06,1.6327276574477356e-06,1.6043441620520167e-06,1.214693058368141e-06,3.455721589716057e-07,9.325982408992697e-07,1.7068052936579044e-06,1.7493340466586085e-06,5.6706089824591394e-06,1.959491690655879e-06,1.3643133057524137e-06
226,1.3339693374969404e-06,2.182120028824068e-06,1.2312090738826282e-06,1.5860516472402698e-06,1.5644795746596814e-06,3.6005210863320934e-06,1.588906851941583e-06,1.5851972537117033e-06,1.2136509663775414e-06,4.5081629718018405e-07,9.533675571866077e-07,1.7402687811448924e-06,1.7837088161328158e-06,6.0860460138553e-06,1.9718335109708418e-06,1.3887426582441842e-06
227,1.2903211187147445e-06,2.273362973250308e-06,1.2314098507060953e-06,1.5980671561577712e-06,1.6052362331527363e-06,3.5480563495836204e-06,1.5418770167836887e-06,1.5676861000693665e-06,1.220633728955383e-06,5.843004159952585e-07,9.722166717636968e-07,1.7739605011916192e-06,1.8205461642709795e-06,6.534671223655994e-06,1.9791019583284323e-06,1.4143090803228685e-06
228,1.2495423404093659e-06,2.3612502269457256e-06,1.2358647846258087e-06,1.6087147591236738e-06,1.6476116013092595e-06,3.489789182770962e-06,1.492755751929771e-06,1.552164458496617e-06,1.2359082733487746e-06,7.48920653299492e-07,9.889325703150765e-07,1.8068174414662098e-06,1.8590676212804813e-06,7.01401113338462e-06,1.9819743310037456e-06,1.4402658305219581e-06
229,1.2116075680088836e-06,2.444309337040257e-06,1.245376812132468e-06,1.617760656418451e-06,1.6914574084758037e-06,3.425002412071722e-06,1.442583024929046e-06,1.5389082486558822e-06,1.2594940105921436e-06,9.474906423302885e-07,1.0033383298656762e-06,1.8375525230759507e-06,1.898503387513458e-06,7.52148164952547e-06,1.981214450381945e-06,1.465671523674822e-06
230,1.1763489818235756e-06,2.520961352855076e-06,1.2606026723518518e-06,1.625562474448142e-06,1.7368818454035336e-06,3.3530468458536634e-06,1.3924518173213218e-06,1.528306591545157e-06,1.2911387350288495e-06,1.1827325697640915e-06,1.0152529665616785e-06,1.8646360667097972e-06,1.938262268174741e-06,8.054659204203737e-06,1.9775454098607265e-06,1.4895448959842745e-06
231,1.1435759109872906e-06,2.5896809101920884e-06,1.2820387609198216e-06,1.632734223649994e-06,1.78440059336886e-06,3.274135105782189e-06,1.3436099404016336e-06,1.5208939534373114e-06,1.3303743726225294e-06,1.457312516845658e-06,1.0244768791793048e-06,1.8864001676387005e-06,1.977935382012607e-06,8.611253788434681e-06,1.9716037206468797e-06,1.5111221708781264e-06
232,1.1131246612351456e-06,2.6492080743261723e-06,1.3100143220168164e-06,1.6398088834272365e-06,1.8348616981932431e-06,3.189791820137537e-06,1.297392332861014e-06,1.5172443092558884e-06,1.3766777525854796e-06,1.773881146685359e-06,1.0308588163872273e-06,1.9013480409349206e-06,2.0171651660864406e-06,9.188979702961387e-06,1.963977246880241e-06,1.5299910828203493e-06
233,1.0848507653965486e-06,2.698751135577924e-06,1.3446588128995855e-06,1.6471049227463615e-06,1.8891727715258585e-06,3.1025779468260168e-06,1.255072994055779e-06,1.5179054552193272e-06,1.4296621474772983e-06,2.135077507616373e-06,1.0343788542451385e-06,1.9085193524887163e-06,2.055575011154214e-06,9.785444678740131e-06,1.9551751735756537e-06,1.5459893994444722e-06
234,1.0586761105988056e-06,2.7380985076754934e-06,1.3858480277927322e-06,1.6546799653422994e-06,1.9481131789861515e-06,3.0153930346296376e-06,1.2177574937604629e-06,1.523382673172806e-06,1.4891664770890711e-06,2.5434518665048735e-06,1.0351860652726733e-06,1.9076932039632852e-06,2.0928198080408032e-06,1.0397883581993054e-05,1.945488999329907e-06,1.5590344460327269e-06
235,1.0346449953948862e-06,2.7675279420431272e-06,1.4331680780176966e-06,1.6622843725781506e-06,2.012292816891582e-06,2.930940865999827e-06,1.1863417806129536e-06,1.5341097312666427e-06,1.5551899097900326e-06,3.0013408108079902e-06,1.0336268628699295e-06,1.8993749858947476e-06,2.128623729263432e-06,1.1022744259615918e-05,1.9348650113382826e-06,1.5690589267285161e-06
236,1.0128751630447154e-06,2.7875775460462157e-06,1.4859142361256495e-06,1.6694077690843441e-06,2.0820960875334925e-06,2.851500206510523e-06,1.1615150087976582e-06,1.5504413623348255e-06,1.6277349698543132e-06,3.510779990148688e-06,1.0302569087183789e-06,1.8846682084069132e-06,2.162805610041664e-06,1.1655818738028935e-05,1.9229063903222155e-06,1.576012489215538e-06
237,9.934661226451645e-07,2.7988763169368198e-06,1.5431229215291622e-06,1.6755005473956729e-06,2.157586956919331e-06,2.778830087979058e-06,1.143780654314801e-06,1.572638394226067e-06,1.7066943999847984e-06,4.073422877219995e-06,1.0257731091499862e-06,1.8651227214737814e-06,2.195345332892629e-06,1.2293293614236852e-05,1.9090453599313057e-06,1.5798665510109227e-06
238,9.764800122157853e-07,2.8020564241222965e-06,1.6036517533650653e-06,1.680279807616245e-06,2.238456157478051e-06,2.7141445045355316e-06,1.1334778501826986e-06,1.6007874459429915e-06,1.7918296951494488e-06,4.690392428074394e-06,1.0208683809418232e-06,1.8425585356274792e-06,2.2263644364484935e-06,1.2932736288636012e-05,1.8928080623763341e-06,1.5806682345633956e-06
239,9.619577450841855e-07,2.7976459828905957e-06,1.6663276897916963e-06,1.6838864682849308e-06,2.3240039348646696e-06,2.658132687033458e-06,1.1308134644718947e-06,1.6347297147769486e-06,1.8827430758718325e-06,5.362103104239371e-06,1.0160986794372747e-06,1.8188480441183143e-06,2.255976977698318e-06,1.3572795236556608e-05,1.8739992631919927e-06,1.5786154782013603e-06
240,9.498748947568265e-07,2.7860304551948855e-06,1.7300838260643264e-06,1.686794675889151e-06,2.41314033382677e-06,2.6109882158506195e-06,1.1359129008710948e-06,1.6741212390456992e-06,1.9788038909041466e-06,6.0880974350533964e-06,1.0118215637791898e-06,1.7956989188318377e-06,2.2841533150969847e-06,1.4211737689322673e-05,1.8527249022310358e-06,1.5740201573963327e-06
241,9.400719905497948e-07,2.7675521164544666e-06,1.793947580890051e-06,1.689611021948795e-06,2.5044180064809402e-06,2.5724329430488805e-06,1.1488307397658426e-06,1.7186284350877732e-06,2.079070094760069e-06,6.8668709917580925e-06,1.0081939310776997e-06,1.7745074385207844e-06,2.310659483332713e-06,1.4846241939028202e-05,1.8293159410783653e-06,1.5671623029073142e-06
242,9.322800975046401e-07,2.742550776884866e-06,1.8569406868688935e-06,1.6928903174933737e-06,2.596093910162696e-06,2.5417333501521913e-06,1.1694890271124143e-06,1.7680849661101862e-06,2.1822335105950384e-06,7.695714268908712e-06,1.0052353996124742e-06,1.7563399339634853e-06,2.3350756445191813e-06,1.5471399108836127e-05,1.8041980942959062e-06,1.558200684669353e-06
243,9.262457189286656e-07,2.71125958068146e-06,1.9181015245267566e-06,1.696989327895884e-06,2.686236186920243e-06,2.51777675202675e-06,1.1976070188254576e-06,1.8224458792316417e-06,2.286694395957929e-06,8.570729874776207e-06,1.0029411661945304e-06,1.742040937013053e-06,2.3570513841698916e-06,1.6081381083057997e-05,1.7777526599509974e-06,1.54722358387052e-06
244,9.218118249838428e-07,2.673767760358667e-06,1.9766538695646558e-06,1.7019864259042515e-06,2.7729180811217385e-06,2.4992486965897354e-06,1.2326881387539703e-06,1.8816379594659995e-06,2.3908291259358513e-06,9.487146610640714e-06,1.0013334454664108e-06,1.7323432793237117e-06,2.376792750975818e-06,1.6669990493402503e-05,1.750256649164674e-06,1.5343547143010583e-06
245,9.188908204913652e-07,2.6302121251157166e-06,2.032169803565556e-06,1.7077215378420112e-06,2.8544761003299575e-06,2.484807072382824e-06,1.2741133997238617e-06,1.9455214530277476e-06,2.4932158703489046e-06,1.0439809652404731e-05,1.0004006631083234e-06,1.727872175510031e-06,2.395268909862609e-06,1.7230900763338653e-05,1.721866880221755e-06,1.5197724300642337e-06
246,9.174401448670667e-07,2.581058952619728e-06,2.084631487443083e-06,1.713969236217386e-06,2.929681660321313e-06,2.4731473810787206e-06,1.3213358390359877e-06,2.0139554357989286e-06,2.5925793043381477e-06,1.1423536966251949e-05,1.000040643760443e-06,1.7291206308534788e-06,2.4138554689069395e-06,1.775759832893608e-05,1.6925879226360956e-06,1.5036102137412667e-06
247,9.174933155874843e-07,2.527187021783455e-06,2.1343763070261195e-06,1.7206310635551338e-06,2.9976436841109994e-06,2.4629792315475315e-06,1.374033258097098e-06,2.0867983377058506e-06,2.687665514607568e-06,1.2432962221626405e-05,1.0001140350247486e-06,1.7364522509503195e-06,2.4338919634604415e-06,1.824318686713205e-05,1.6623237970682346e-06,1.4858813670815385e-06
248,9.191592800586699e-07,2.469712756268578e-06,2.181941633806524e-06,1.7277559718041422e-06,3.0575028522306248e-06,2.4529857405630757e-06,1.4320969114771209e-06,2.163794499518402e-06,2.7773125642364314e-06,1.3461840557791396e-05,1.0005424818408793e-06,1.750042793843024e-06,2.456537081625807e-06,1.8680044135374687e-05,1.631034199886688e-06,1.4665211974236628e-06
249,9.225627631812038e-07,2.409793882986491e-06,2.2278462214431316e-06,1.7353722256268614e-06,3.1082566263129693e-06,2.441805174488893e-06,1.4954965872279954e-06,2.2444318853148692e-06,2.8605389418481338e-06,1.4502759138778958e-05,1.001348353517831e-06,1.7697675103608823e-06,2.4827145094049317e-06,1.9059121775234754e-05,1.5988170724256448e-06,1.445452061373581e-06
250,9.277810995217329e-07,2.3485697149650232e-06,2.2723612175758594e-06,1.7433600632875115e-06,3.1488847607186484e-06,2.4280542976897396e-06,1.5641125515037378e-06,2.3278654290707637e-06,2.9365118132539482e-06,1.5548138934035674e-05,1.0026408858252203e-06,1.7951535885033002e-06,2.512974756054553e-06,1.936961473291263e-05,1.5658842806593172e-06,1.4226432744531705e-06
251,9.348089017030907e-07,2.287170471665399e-06,2.3153873419536875e-06,1.7515250000393935e-06,3.1785931230833774e-06,2.4104287214051906e-06,1.6376106023276833e-06,2.412926207614231e-06,3.0046490382179376e-06,1.659189293900445e-05,1.004564095805481e-06,1.8254414771702364e-06,2.5473980499360523e-06,1.9600246167393394e-05,1.532602493054676e-06,1.3982626191454864e-06
252,9.435521447641883e-07,2.2267092163184308e-06,2.3565571252653363e-06,1.7597554920382677e-06,3.197018241699515e-06,2.387897145699754e-06,1.7154152759170154e-06,2.4981234976384823e-06,3.0649078029589986e-06,1.763056124262315e-05,1.007200691709633e-06,1.859688633448078e-06,2.5856074426937183e-06,1.9741810519098777e-05,1.4995601419763422e-06,1.3728506210824982e-06
253,9.5383606653187e-07,2.168218333835033e-06,2.3954731118729494e-06,1.7680953185559008e-06,3.2044069989129333e-06,2.3598984070015593e-06,1.7967672047583354e-06,2.5815762339815677e-06,3.1179267494771237e-06,1.8663563528162462e-05,1.0104856615072765e-06,1.8968123742979032e-06,2.6268567325039117e-06,1.97892366242063e-05,1.4674562966329056e-06,1.3473074279136239e-06
254,9.654186399035678e-07,2.1125161167571595e-06,2.4318041149201493e-06,1.7767154414667165e-06,3.2017547338165016e-06,2.3263369877533254e-06,1.8807985108134948e-06,2.660995136230369e-06,3.1649039764861673e-06,1.9692604638040645e-05,1.0141843970700962e-06,1.9355845638411683e-06,2.67018766644316e-06,1.974209146571426e-05,1.436881944183446e-06,1.3226680086412353e-06
255,9.78039144251119e-07,2.0600839294215696e-06,2.465137003327669e-06,1.78584742850277e-06,3.1907958429892955e-06,2.287332857394279e-06,1.9665445898109138e-06,2.733874683031494e-06,3.207409722386115e-06,2.0720169720277964e-05,1.0179258722091694e-06,1.9746750701583608e-06,2.71454542787659e-06,1.9603637178251034e-05,1.4081979049705682e-06,1.29986437153668e-06
256,9.915104795959656e-07,2.0110619269210165e-06,2.4948122914877983e-06,1.7957233879544563e-06,3.1737772205348945e-06,2.2430675736658337e-06,2.0528896015017558e-06,2.7978766930855384e-06,3.247215863943559e-06,2.174763858177601e-05,1.021243774502493e-06,2.0127000237229164e-06,2.7587269143837326e-06,1.937897842165565e-05,1.381528142487562e-06,1.2796090422995091e-06
257,1.0057629575303082e-06,1.965357802123873e-06,2.519930193431872e-06,1.8065545643016743e-06,3.153077713650421e-06,2.1939849840034705e-06,2.1385559727841354e-06,2.851246446293631e-06,3.286061390489049e-06,2.2774237882186093e-05,1.0235923124723647e-06,2.048161720185375e-06,2.801372230985332e-06,1.9072851131688267e-05,1.3568035091672467e-06,1.2623629528304678e-06
258,1.0207637486140405e-06,1.922788309417169e-06,2.5394411788464107e-06,1.818549858211633e-06,3.130838383682602e-06,2.1410782165262725e-06,2.222141033175296e-06,2.8930839631362726e-06,3.3253672059838558e-06,2.379688881395959e-05,1.024384697995749e-06,2.0793442750641567e-06,2.8412720319696644e-06,1.8687983871104243e-05,1.333823600186123e-06,1.248343926724097e-06
259,1.0364160384295798e-06,1.8831631012047796e-06,2.5522345203720395e-06,1.831910870186763e-06,3.1087837134962464e-06,2.085921694785993e-06,2.3020885579741068e-06,2.923316857076388e-06,3.366014985488769e-06,2.4809616550258645e-05,1.0231294342699185e-06,2.104389068221623e-06,2.8778024100468763e-06,1.8225193487084488e-05,1.3123249562781328e-06,1.2375926947055469e-06
260,1.052572569906056e-06,1.8462404990360587e-06,2.5572702677465595e-06,1.8467536453259848e-06,3.0882937966982407e-06,2.0304332180072037e-06,2.376696300136354e-06,2.942345228958058e-06,3.4082795345866323e-06,2.5802460972083582e-05,1.0196047566052856e-06,2.121652565217108e-06,2.911087374164075e-06,1.7685320657112554e-05,1.2920267501017207e-06,1.2300991057790976e-06
261,1.069106410294283e-06,1.8115953190337032e-06,2.553757663376741e-06,1.8630212829529482e-06,3.070536715900817e-06,1.976516918211215e-06,2.44436911725608e-06,2.9505519167339323e-06,3.4519283221461292e-06,2.6761635352070773e-05,1.0139212490237284e-06,2.130141171953351e-06,2.9417811483622003e-06,1.7071639823405354e-05,1.2726321054824359e-06,1.2259324033632862e-06
262,1.0859266962754449e-06,1.7785294461331187e-06,2.5412821544524494e-06,1.8804742037309527e-06,3.0564221981451636e-06,1.925790383802151e-06,2.5040079132603994e-06,2.9479801771234758e-06,3.4963524233602643e-06,2.7672031975152498e-05,1.0064387501114403e-06,2.1297301624295135e-06,2.9706641847937993e-06,1.6391201765829873e-05,1.2538428295593613e-06,1.2252996190597782e-06
263,1.1029678764635676e-06,1.7461339216136273e-06,2.519800553215971e-06,1.8987086432317298e-06,3.046432304559404e-06,1.8795626770130104e-06,2.555211970249981e-06,2.9343764736709377e-06,3.540602433406691e-06,2.8521170506215396e-05,9.976221027533163e-07,2.1210899155218242e-06,2.9983306714627004e-06,1.565455746458524e-05,1.2353883480963237e-06,1.2284987915146038e-06
264,1.120177646158271e-06,1.7135510882255767e-06,2.4895477811695557e-06,1.917112945969564e-06,3.040551307619112e-06,1.8390212231140298e-06,2.598154586206584e-06,2.9095395867473207e-06,3.5834589266923554e-06,2.9302594462378098e-05,9.87901752512834e-07,2.105435626127193e-06,3.0251052404267936e-06,1.4874256733194798e-05,1.2169687508154497e-06,1.2358083552296715e-06
265,1.1374625212969094e-06,1.680331173097624e-06,2.450973225073016e-06,1.9348412773686997e-06,3.0383693043509105e-06,1.8053885505669408e-06,2.6332335265247135e-06,2.8736802657868068e-06,3.6236211545081374e-06,3.0017079086931737e-05,9.775653161819333e-07,2.084229133089923e-06,3.05104601706098e-06,1.4062940991085118e-05,1.1981456668656512e-06,1.2474094307135452e-06
266,1.1546673738902732e-06,1.6466063467560565e-06,2.4047502219597684e-06,1.95092947196275e-06,3.039280530789472e-06,1.7798772986778757e-06,2.660720311990887e-06,2.8275453611871936e-06,3.659829476731822e-06,3.0670860666928605e-05,9.667058466489992e-07,2.0589082692136663e-06,3.075879808675262e-06,1.3232090461524459e-05,1.1783201729596323e-06,1.26337854573323e-06
267,1.1717026662017078e-06,1.6129342681302496e-06,2.351780467406287e-06,1.964488343206999e-06,3.0426093465358438e-06,1.7635507576836243e-06,2.6806288588550125e-06,2.772341476563702e-06,3.6909410728588054e-06,3.127177704186354e-05,9.552667213287744e-07,2.0307137101773266e-06,3.0989637549856888e-06,1.2392120981057516e-05,1.1568318508429054e-06,1.2836825507622199e-06
268,1.188729022221412e-06,1.5800025033483599e-06,2.293083668529497e-06,1.97483878552779e-06,3.0475954369566964e-06,1.7572513052865338e-06,2.692858157971683e-06,2.7096292888309476e-06,3.7162323366776027e-06,3.1826924509719116e-05,9.431928300915174e-07,2.000642904356245e-06,3.119366338543988e-06,1.1553168196842157e-05,1.1331259642742394e-06,1.3081506738992406e-06
269,1.2061849494303477e-06,1.5484725562362869e-06,2.2295801597569327e-06,1.9815640720730485e-06,3.0534622895470744e-06,1.7615644052903052e-06,2.697491601144521e-06,2.641250006860858e-06,3.7357616629496454e-06,3.2344376869340484e-05,9.30567274397429e-07,1.9694386846913156e-06,3.135983472711029e-06,1.0725249233737665e-05,1.1069003250199503e-06,1.336475079204629e-06
270,1.2246186115348314e-06,1.518978873564633e-06,2.1619548966675925e-06,1.9845312893907885e-06,3.0596716305086216e-06,1.7767833309114968e-06,2.695088441128642e-06,2.569241729290728e-06,3.750289931046883e-06,3.2836192367414e-05,9.175922376071947e-07,1.937542133722107e-06,3.147605301373441e-06,9.917545163596747e-06,1.0781351123160646e-06,1.3682459365667877e-06
271,1.2444992520459506e-06,1.4920972003449352e-06,2.090744850123251e-06,1.9839052769811554e-06,3.0660171932992952e-06,1.8029173812384707e-06,2.686811255970819e-06,2.495726500035106e-06,3.760910542198558e-06,3.331874747463133e-05,9.044813589075466e-07,1.90510965362739e-06,3.1530436981134466e-06,9.137603783279383e-06,1.0470401276215071e-06,1.402989044847997e-06
272,1.2661361336693258e-06,1.4682251675012156e-06,2.0165370647370286e-06,1.980097127030491e-06,3.0723191004594676e-06,1.8397119964095051e-06,2.674305762308636e-06,2.422781654451548e-06,3.7690383338317777e-06,3.381030915133456e-05,8.913949380443591e-07,1.8721996126845038e-06,3.1514686288108942e-06,8.391117328211287e-06,1.014047053992897e-06,1.4401533737031891e-06
273,1.2896901957043515e-06,1.4474923676484667e-06,1.940105869389402e-06,1.973600541268638e-06,3.0780712359039385e-06,1.8866516599217251e-06,2.6593849369278173e-06,2.352317690758273e-06,3.77674348501481e-06,3.432782996372545e-05,8.784138165540774e-07,1.839018028851919e-06,3.1427052718647903e-06,7.682198789811874e-06,9.798369659261163e-07,1.4790194165364667e-06
274,1.3152128513601707e-06,1.429763536629796e-06,1.8624447559351693e-06,1.9647959994494787e-06,3.082590945613921e-06,1.94298796870211e-06,2.64367030963697e-06,2.286005188538611e-06,3.786862750541306e-06,3.488412225187185e-05,8.655285144810922e-07,1.8059861338190423e-06,3.1271314201856194e-06,7.013737280665923e-06,9.452850079377623e-07,1.5186214906372648e-06
275,1.3426361577013647e-06,1.4146716120754966e-06,1.7846985444737564e-06,1.9538303197635238e-06,3.0856540121922405e-06,2.007783159490778e-06,2.6283610814887883e-06,2.225252271083645e-06,3.802690868826984e-06,3.548567781965733e-05,8.526341386813572e-07,1.7735905642792934e-06,3.1053361282763965e-06,6.387733096276145e-06,9.113066945737481e-07,1.5578127097211812e-06
276,1.3717295985682311e-06,1.4016147291067876e-06,1.7080312604284262e-06,1.9406126990217583e-06,3.0879269203091094e-06,2.0798984582467978e-06,2.614176563368943e-06,2.171169436862039e-06,3.827463445488437e-06,3.613121996352791e-05,8.395106033100631e-07,1.7422346519647765e-06,3.077879087730709e-06,5.805785903204138e-06,8.787309367076434e-07,1.5954972004346634e-06
277,1.4021450781365029e-06,1.3897505241640187e-06,1.6335237500307353e-06,1.925003780848154e-06,3.0907066849537913e-06,2.157955294300273e-06,2.6013687081807214e-06,2.124510767469709e-06,3.863907673245916e-06,3.681093223319755e-05,8.258126481797588e-07,1.7122675336209247e-06,3.045142652595961e-06,5.269601867658599e-06,8.482939554626999e-07,1.6308753298235397e-06
278,1.4335334972371436e-06,1.3780969688796357e-06,1.5621595073041128e-06,1.9072027847554294e-06,3.095278855949815e-06,2.2404163777423225e-06,2.589777331230348e-06,2.0856555006349106e-06,3.9140775772468676e-06,3.750624008287966e-05,8.111011833264826e-07,1.6841144340969003e-06,3.0071869238730164e-06,4.7810919773236384e-06,8.206820273121241e-07,1.6634767210251558e-06
279,1.4655521036129922e-06,1.3657825205472504e-06,1.4948485824065552e-06,1.8880453930961732e-06,3.1024425609399897e-06,2.3257921028135423e-06,2.578979951134453e-06,2.054699880646534e-06,3.979473321805702e-06,3.819056199978375e-05,7.949309935520236e-07,1.6583119699529203e-06,2.9637735071074635e-06,4.342055970723388e-06,7.965345660449722e-07,1.6929861970140584e-06
280,1.4977522322734532e-06,1.352324586507128e-06,1.4324039263861031e-06,1.868913477727092e-06,3.112349042040718e-06,2.412740938461777e-06,2.5684125462326823e-06,2.0316838735512323e-06,4.061190936430423e-06,3.883175465346307e-05,7.769642201956639e-07,1.6354157762104624e-06,2.914704290562731e-06,3.9540389585725424e-06,7.764364168798143e-07,1.7190915909310397e-06
281,1.5294901476556466e-06,1.3377644297425628e-06,1.3754629697035911e-06,1.851372035874325e-06,3.1245737861915697e-06,2.499999040143181e-06,2.5573251383641356e-06,2.016818979544485e-06,4.159861368331819e-06,3.939574974080183e-05,7.570120592504255e-07,1.6159101981956345e-06,2.860200824949145e-06,3.6186429291984295e-06,7.609083267641838e-07,1.741495136707542e-06
282,1.5598810378203309e-06,1.322601585332035e-06,1.3244406922343765e-06,1.836883033253996e-06,3.138344945470376e-06,2.586439736078955e-06,2.5447690990101e-06,2.0104945049366287e-06,4.275427220152421e-06,3.98489114131781e-05,7.349705101591486e-07,1.6001657851495591e-06,2.800920470983422e-06,3.3378468790972927e-06,7.503759576589736e-07,1.7600228120544264e-06
283,1.587814315234906e-06,1.3075978127295525e-06,1.2795517569023953e-06,1.8267016938696817e-06,3.1527585973293194e-06,2.67138378149251e-06,2.5298438960789374e-06,2.013052850545252e-06,4.407008990118108e-06,4.015752800642538e-05,7.107179157236026e-07,1.588398543055007e-06,2.737682169530866e-06,3.1139697597285223e-06,7.451799241143495e-07,1.7747052759385725e-06
284,1.6121559124902762e-06,1.2935860349751337e-06,1.2408331660806397e-06,1.8218149813224984e-06,3.1668842505874444e-06,2.7547711017188514e-06,2.512043904151446e-06,2.0245732919794554e-06,4.553019699400196e-06,4.028776145655866e-05,6.840494368962898e-07,1.580694351023351e-06,2.6713287185518106e-06,2.9494570501828106e-06,7.456352729807649e-07,1.7857987889883743e-06
285,1.6321275452118248e-06,1.2813945365110603e-06,1.2081530627704266e-06,1.8228638549852434e-06,3.1799434275419447e-06,2.83690417995219e-06,2.4914296199533584e-06,2.04482594260588e-06,4.711398931046095e-06,4.021036994520423e-05,6.546901339437374e-07,1.577175085937777e-06,2.602845737050137e-06,2.8467545603995513e-06,7.520438833669284e-07,1.7937559587598245e-06
286,1.6476123937733664e-06,1.2718472389856286e-06,1.181235062466565e-06,1.8301102932353244e-06,3.191690442772962e-06,2.9180812265300147e-06,2.4685452280038696e-06,2.0733273360331357e-06,4.879701857869599e-06,3.990742763299895e-05,6.223532665266847e-07,1.5781646697866647e-06,2.5334916074588247e-06,2.80831442999082e-06,7.646601303659532e-07,1.7991055612431866e-06
287,1.6591615333972636e-06,1.2657143164687735e-06,1.1596668108383966e-06,1.8434533485569667e-06,3.20271925971092e-06,2.998530807922108e-06,2.444139527313845e-06,2.109402498452292e-06,5.0551340776534876e-06,3.937382126827312e-05,5.867654836716968e-07,1.5841641776697021e-06,2.4648205974169106e-06,2.8366618576424646e-06,7.836922956701425e-07,1.8022729397293444e-06
288,1.6677480590419911e-06,1.2636140325851491e-06,1.1429194484221751e-06,1.8624370308973793e-06,3.214314489160772e-06,3.078547316506669e-06,2.4188656931111e-06,2.152238026652449e-06,5.234803645781821e-06,3.861220012774422e-05,5.47654113117345e-07,1.5956756128016575e-06,2.3986722404979767e-06,2.9343769906539268e-06,8.093218270428946e-07,1.8034880518512265e-06
289,1.6744660049427978e-06,1.2659653040819663e-06,1.130437607553207e-06,1.886256126432232e-06,3.227896084184441e-06,3.158481441600621e-06,2.3931686074350204e-06,2.200883292268224e-06,5.415907741042563e-06,3.7628919745126746e-05,5.047514738714767e-07,1.6130746680175608e-06,2.3371078663971818e-06,3.1038932654610943e-06,8.416802130887134e-07,1.802820711278743e-06
290,1.680297788574442e-06,1.272992541290012e-06,1.1217119515126263e-06,1.91378671455751e-06,3.2445092200210246e-06,3.2384891229576374e-06,2.367349532197255e-06,2.2541576416561366e-06,5.595442099915996e-06,3.643710595063436e-05,4.5786151178081776e-07,1.6366418050228676e-06,2.2822108007267684e-06,3.347272537039647e-06,8.808116392661827e-07,1.8002245294062619e-06
291,1.6859911598755985e-06,1.28470867948906e-06,1.1162310661345366e-06,1.943601738823476e-06,3.264614716869459e-06,3.3182384833542192e-06,2.341598141676928e-06,2.3105424914334384e-06,5.769774123996817e-06,3.506188436457921e-05,4.070004125640551e-07,1.6666745730670167e-06,2.2358293539612396e-06,3.666179024432872e-06,9.266651382185908e-07,1.7955406683907682e-06
292,1.6920359162219856e-06,1.3008900120720271e-06,1.1134092865674253e-06,1.9739944241176327e-06,3.2880207779819886e-06,3.396824306140345e-06,2.3158951621777483e-06,2.368147564205714e-06,5.93460316830606e-06,3.3539315877284994e-05,3.5253446454174294e-07,1.7035244618736024e-06,2.1994424856287457e-06,4.061976125998026e-06,9.791004912747329e-07,1.7885534057864745e-06
293,1.6987088021115118e-06,1.3211291398983012e-06,1.1126272803402777e-06,2.0031086736053524e-06,3.3138054794812964e-06,3.47293077687741e-06,2.2899204416412224e-06,2.4247505227767444e-06,6.085284398397251e-06,3.190920222465639e-05,2.952221392516116e-07,1.7475053058918502e-06,2.1741804484199154e-06,4.535728191016274e-06,1.0378885804698184e-06,1.7791370632743372e-06
294,1.7061989843430426e-06,1.3449560701253684e-06,1.1133434957796753e-06,2.0291531053210806e-06,3.340286920371989e-06,3.5450079511769563e-06,2.263062416377422e-06,2.477944644202582e-06,6.217353529003123e-06,3.020850779740176e-05,2.3618126934691022e-07,1.7988176461728753e-06,2.160898119398456e-06,5.088189559744744e-06,1.1027485841715965e-06,1.7673712450758262e-06
295,1.7147614390200853e-06,1.3719155112849338e-06,1.1151629320415556e-06,2.0505681349206652e-06,3.3651430770959575e-06,3.6112315488199185e-06,2.2344656374587417e-06,2.5254175407295013e-06,6.327117863393892e-06,2.8468991533436525e-05,1.7684565323669463e-07,1.857604007979732e-06,2.160258577138504e-06,5.720046028500742e-06,1.1735058814987268e-06,1.753491306641967e-06
296,1.724742178087786e-06,1.4015727286984613e-06,1.1178346028861232e-06,2.0660909555140604e-06,3.3857204214754827e-06,3.669399556954657e-06,2.203158902328302e-06,2.5652445678959305e-06,6.411985512104818e-06,2.6717205766604898e-05,1.1891185565703839e-07,1.924000621007799e-06,2.172822311185846e-06,6.432293131866065e-06,1.250305877374642e-06,1.7377035366177107e-06
297,1.7364955325843783e-06,1.4335345352505707e-06,1.1212260908752965e-06,2.074758895070634e-06,3.3994375212334724e-06,3.717096275587633e-06,2.168356463199074e-06,2.5960658621837956e-06,6.4703480343941245e-06,2.497498798083762e-05,6.4253473610095e-08,1.9980424311720244e-06,2.199044798967705e-06,7.226405278420115e-06,1.3336367415892652e-06,1.7200497394052548e-06
298,1.7503768001938606e-06,1.4675050009806798e-06,1.125317128613372e-06,2.0758506702767577e-06,3.404135363184872e-06,3.7521330764457915e-06,2.1297683224715123e-06,2.6171157854968707e-06,6.501256199169424e-06,2.326055489916033e-05,1.4843426137807396e-08,2.0795244957940614e-06,2.239180253690301e-06,8.10430382577825e-06,1.4240908456917722e-06,1.700497841045034e-06
299,1.7667815108269064e-06,1.5032759299353297e-06,1.1301696317769607e-06,2.0687392461714467e-06,3.39836688269251e-06,3.7730008089632997e-06,2.08763275107063e-06,2.628141686349801e-06,6.50421283152548e-06,2.159005080622746e-05,-2.7248353582378168e-08,2.167976294664029e-06,2.293312772339696e-06,9.068326533933145e-06,1.5220871469155663e-06,1.6792121483111488e-06
300,1.7860564653297837e-06,1.5406162087718129e-06,1.1358218981551256e-06,2.052815290185923e-06,3.3816433596150618e-06,3.7790066519246985e-06,2.0424377658596434e-06,2.629269130016169e-06,6.479082899287685e-06,1.997876302823145e-05,-5.981062687146119e-08,2.2627072441087535e-06,2.361601785494199e-06,1.0121173002511136e-05,1.627726314263744e-06,1.6567336606670506e-06
301,1.8083157635821448e-06,1.5791807693782738e-06,1.1421749850701488e-06,2.027673042557683e-06,3.354424585862312e-06,3.7699536125427175e-06,1.99465870613465e-06,2.6208155392595797e-06,6.425890222108598e-06,1.844142240732566e-05,-8.0459375977545e-08,2.3628107829508364e-06,2.4444859763739795e-06,1.1265671592012896e-05,1.7407527531235505e-06,1.6338797891321583e-06
302,1.8333377674400154e-06,1.6185065321990754e-06,1.1489630933569568e-06,1.9934346615260453e-06,3.317704813908951e-06,3.7458068190896593e-06,1.944802182437199e-06,2.6030469691078526e-06,6.344592264384377e-06,1.699148402234007e-05,-8.659681582659307e-08,2.4671663289075425e-06,2.542612087564819e-06,1.250432216747542e-05,1.860557328562194e-06,1.6114667449850585e-06
303,1.8606235359109547e-06,1.6580164382173865e-06,1.155803351943109e-06,1.950957652293963e-06,3.2725834154411685e-06,3.706868526794781e-06,1.893630633961249e-06,2.5760463133926783e-06,6.235263016535609e-06,1.5639922963956727e-05,-7.537107708093909e-08,2.5745639897542473e-06,2.6566299593039227e-06,1.3838616269597572e-05,1.986189547094829e-06,1.5900953231366276e-06
304,1.889577262066087e-06,1.6970540731440828e-06,1.162295162900792e-06,1.9018202431299446e-06,3.220285152782801e-06,3.654199827466197e-06,1.8422725680188877e-06,2.53984388259053e-06,6.098610581429875e-06,1.4394437392359392e-05,-4.369667714891418e-08,2.6839513911774322e-06,2.787072777820412e-06,1.5268183410011364e-05,2.116367904906104e-06,1.5701026479812006e-06
305,1.9196860379739863e-06,1.735032197160159e-06,1.1681193483308318e-06,1.8480775429929943e-06,3.162421259373411e-06,3.589696846104113e-06,1.7921043875502941e-06,2.494659058673437e-06,5.936251260889231e-06,1.3259484939454322e-05,1.168868274112751e-08,2.7946525343616904e-06,2.9342711273049577e-06,1.679010812059364e-05,2.2494696703764842e-06,1.5516098122957309e-06
306,1.9505927950707033e-06,1.7715762767834096e-06,1.1730425310851872e-06,1.7918828366791747e-06,3.10096758705253e-06,3.5157149787649923e-06,1.744487159846566e-06,2.441057082574351e-06,5.750632283498737e-06,1.2236887024706991e-05,9.42103417613723e-08,2.9064524776408375e-06,3.0982181466949408e-06,1.8398813364335874e-05,2.3834715381415833e-06,1.5345981454328716e-06
307,1.9820824024256124e-06,1.8065174369102027e-06,1.1768237601688807e-06,1.7351781088850248e-06,3.0379142677857196e-06,3.4345463083624697e-06,1.700532993079469e-06,2.3799708985834297e-06,5.544959160241588e-06,1.1326628299256755e-05,2.0750674099920704e-07,3.019569487461498e-06,3.2784155287846687e-06,2.008639309052519e-05,2.5158944111179994e-06,1.5190071621699996e-06
308,2.0140228786191102e-06,1.8397654518833134e-06,1.1791331284296443e-06,1.6795733989581423e-06,2.9749395274616825e-06,3.3480459812761554e-06,1.661027309964821e-06,2.312564870774425e-06,5.323208949743032e-06,1.0527791710998233e-05,3.554813094999689e-07,3.134537184058154e-06,3.473757447314541e-06,2.184293846416672e-05,2.643874296362817e-06,1.5047969964105116e-06
309,2.046257488197334e-06,1.871185955089941e-06,1.1795650365471402e-06,1.626349812207611e-06,2.913282419952061e-06,3.257523832358082e-06,1.6265055880144453e-06,2.240058945114846e-06,5.090036915448516e-06,9.839848421125306e-06,5.423117658797488e-07,3.251963494698869e-06,3.682568006674837e-06,2.3656605979849404e-05,2.764389806585248e-06,1.491902388455976e-06
310,2.0785379343215547e-06,1.9006135326116256e-06,1.1777867805901739e-06,1.5764746156705473e-06,2.8537599548221296e-06,3.1638924668804267e-06,1.5973956021314228e-06,2.1637178477724663e-06,4.850537126478144e-06,9.264210075982844e-06,7.724451640552439e-07,3.3722415016456557e-06,3.902840089599283e-06,2.551351374390756e-05,2.8745604331426407e-06,1.4801300960371546e-06
311,2.110625473197067e-06,1.9279674432565864e-06,1.1737676359018456e-06,1.5305914817479306e-06,2.7968438071313314e-06,3.0679456784385735e-06,1.574119132158058e-06,2.0849061244251694e-06,4.609972673981479e-06,8.804961282618988e-06,1.0505756556722676e-06,3.495481138780248e-06,4.132508014160326e-06,2.7397759780928966e-05,2.9719239435579398e-06,1.4691144312694376e-06
312,2.1424792601736913e-06,1.9532678447953697e-06,1.1678700740547574e-06,1.4890059263770817e-06,2.742672338989718e-06,2.9705480638266594e-06,1.557091830237504e-06,2.0049756594999694e-06,4.373500151192005e-06,8.467975003587224e-06,1.3815555414811757e-06,3.6217715427835865e-06,4.369491941673727e-06,2.9291770178361263e-05,3.0546296988018246e-06,1.4583727079938893e-06
313,2.1743177661181238e-06,1.976507939479128e-06,1.160684470504522e-06,1.4516805566990129e-06,2.6909965006676345e-06,2.8725918941736225e-06,1.5466407662561095e-06,1.925095388542357e-06,4.145893837906951e-06,8.259619447869774e-06,1.7702359437372279e-06,3.7514910669464e-06,4.6114431972600505e-06,3.1176787816182836e-05,3.1214909817668756e-06,1.447444557583157e-06
314,2.2064846212105487e-06,1.997518433610577e-06,1.1527715291431725e-06,1.4182439418900574e-06,2.6412599419483625e-06,2.7748134896836287e-06,1.5429332934149477e-06,1.8462087729601117e-06,3.931416129537369e-06,8.186359506294779e-06,2.2212803089767454e-06,3.88541383452055e-06,4.855483701886688e-06,3.303309622800787e-05,3.1718942048824646e-06,1.4360781199390009e-06
315,2.2392178167103755e-06,2.0159103840201624e-06,1.1445093044094226e-06,1.3880510667411867e-06,2.59292677898339e-06,2.677768308116421e-06,1.545991689077373e-06,1.7690202791667148e-06,3.7338558796232546e-06,8.254831944965527e-06,2.7390026387989198e-06,4.024672741746647e-06,5.098244220235253e-06,3.483999209890012e-05,3.205649132389729e-06,1.4243746102233193e-06
316,2.2724380647389436e-06,2.0311711517357495e-06,1.136070817920405e-06,1.3603484938664346e-06,2.545890752927702e-06,2.5820878559429123e-06,1.5557271452310622e-06,1.6939364271702334e-06,3.5565317119752162e-06,8.471822582354078e-06,3.327252992347046e-06,4.17067275152041e-06,5.336115189525833e-06,3.657609214313071e-05,3.2228105093294096e-06,1.4127856982298905e-06
317,2.3056324124591095e-06,2.042936268356012e-06,1.1274691535343571e-06,1.334517795727534e-06,2.5006436907326764e-06,2.4887211801481767e-06,1.571897801401425e-06,1.6210742765190646e-06,3.4022131881385604e-06,8.844221942112428e-06,3.989303018419323e-06,4.324956605892219e-06,5.565497606351304e-06,3.8220228936721844e-05,3.2234717622115744e-06,1.401945910823138e-06
318,2.3378546413936164e-06,2.0512325479159848e-06,1.1186495184582184e-06,1.3102452658675167e-06,2.4580616153432334e-06,2.3988534353203116e-06,1.5940843495851596e-06,1.550423908164102e-06,3.273063387397208e-06,9.379351961169053e-06,4.727685534188474e-06,4.489067095362387e-06,5.7829936461112455e-06,3.975199347054287e-05,3.207739273740824e-06,1.3924390625762029e-06
319,2.3678119646731267e-06,2.056467576427067e-06,1.1096254176488625e-06,1.287487310657423e-06,2.4190498257468233e-06,2.3135839380095123e-06,1.621838912361128e-06,1.4821004155984994e-06,3.1705969004997587e-06,1.0085762839707302e-05,5.544039381481655e-06,4.664464573685201e-06,5.9854635115763864e-06,4.115041098118782e-05,3.1760007538370933e-06,1.3846334774272125e-06
320,2.3940245173921027e-06,2.059202514978809e-06,1.1005700299960927e-06,1.2663345163596135e-06,2.38433517652761e-06,2.233668662838895e-06,1.6549359892139546e-06,1.4164815442555156e-06,3.0956401917753996e-06,1.0973636277854237e-05,6.439047165232205e-06,4.852509082348224e-06,6.169826548139723e-06,4.239107564715539e-05,3.129184645941188e-06,1.3786522385780947e-06
321,2.415059398927682e-06,2.059894221390798e-06,1.0917922043634762e-06,1.2469672179474983e-06,2.3543831478357283e-06,2.159495137927782e-06,1.693487951989323e-06,1.354107883638294e-06,3.0483279220857345e-06,1.2054141796279306e-05,7.412502743588738e-06,5.0545039337906335e-06,6.332787402336966e-06,4.3445202057129514e-05,3.0687659579649643e-06,1.3744384173903941e-06
322,2.429775482250023e-06,2.0587335928095265e-06,1.0836499127352423e-06,1.229671706402072e-06,2.3293776081257617e-06,2.0911899454642374e-06,1.7378145089053419e-06,1.2954768770107361e-06,3.028140081637289e-06,1.3338173764185166e-05,8.46347968853143e-06,5.271739696480274e-06,6.471014529063254e-06,4.428313738427745e-05,2.9966044930234822e-06,1.3718031137485399e-06
323,2.437473035636994e-06,2.055657780142561e-06,1.0764555635414623e-06,1.214791235777186e-06,2.309320646106502e-06,2.028677312787745e-06,1.788173019800164e-06,1.2409228510243251e-06,3.034026516937415e-06,1.4835115935583827e-05,9.590458156434489e-06,5.505431088788645e-06,6.581855620023389e-06,4.488012447199683e-05,2.914766351385267e-06,1.370381450800215e-06
324,2.4379119581553005e-06,2.0505432982933566e-06,1.0703985619104377e-06,1.202655112275593e-06,2.2941655190280067e-06,1.9716960138054025e-06,1.8445372482619234e-06,1.190597728193905e-06,3.064607945427489e-06,1.6552039961618433e-05,1.0791195006655504e-05,5.756554199906497e-06,6.663919959966633e-06,4.52209537692026e-05,2.8254017741935597e-06,1.369564368536505e-06
325,2.4312622144893554e-06,2.0433885954037226e-06,1.06550971146559e-06,1.1935654507722195e-06,2.2838220553089296e-06,1.919933286187105e-06,1.906544405628224e-06,1.1444804096007814e-06,3.1182559220509836e-06,1.8493584356254507e-05,1.2062285652976668e-05,6.025704429700297e-06,6.7169290362872245e-06,4.5302681798144574e-05,2.7306583385762787e-06,1.3685213689084601e-06
326,2.4180557820835646e-06,2.0342759143254943e-06,1.0616515109190619e-06,1.1877911131622754e-06,2.2780456293894466e-06,1.8732718246513747e-06,1.9736106540090103e-06,1.1024504068391116e-06,3.1929574374049434e-06,2.0662176925352e-05,1.3398646390691135e-05,6.313013321399946e-06,6.740957323097269e-06,4.513507401936826e-05,2.6326039650972134e-06,1.366295633894995e-06
327,2.3991124682397314e-06,2.0232250388372433e-06,1.058532559068801e-06,1.1855179878550068e-06,2.2763757208098575e-06,1.8319186056382809e-06,2.0451039129088387e-06,1.0644382372356433e-06,3.2861489920147536e-06,2.3057701673096497e-05,1.479318738587914e-05,6.618021032596546e-06,6.735859922695073e-06,4.473741533285744e-05,2.5331982504657885e-06,1.3619055745513678e-06
328,2.375367993327854e-06,2.0102401452781555e-06,1.0557703928317172e-06,1.1867956945849991e-06,2.2782438744674226e-06,1.7962696655403037e-06,2.1203940510164542e-06,1.0304953962697444e-06,3.3947323742289604e-06,2.5676292341385677e-05,1.6236680325624698e-05,6.9394299282383815e-06,6.701464589787393e-06,4.413206955070496e-05,2.4342916851184943e-06,1.3545420867949926e-06
