,EMG1,EMG2,EMG3,EMG4,EMG5,EMG6,EMG7,EMG8,EMG9,EMG10,EMG11,EMG12,EMG13,EMG14,EMG15,EMG16
0,8.456143115186756e-07,2.755710569884306e-07,3.6697364215225495e-07,5.752725158150448e-07,1.1958062322732016e-06,7.929973464098057e-07,-3.4143781657617477e-07,1.5802997769198258e-07,3.855341622386611e-07,5.948817412632584e-07,1.8735180314016574e-07,4.457501076233027e-07,6.38116961880366e-07,1.439814379015375e-06,-1.263578705062523e-07,1.4516092253093824e-07
1,1.0281451160741898e-06,3.874937781961587e-07,5.580824595047816e-07,7.043771669165339e-07,1.2758808406178075e-06,1.0012169881694486e-06,4.86269604561634e-08,2.9946360315101687e-07,5.726874368049824e-07,9.496852825158751e-07,2.9238910169015663e-07,5.439022240463872e-07,1.211056541781137e-06,1.5998813508246838e-06,4.135681751247348e-08,2.7349544249549155e-07
2,1.209462801314868e-06,4.962513958424289e-07,7.428659246605783e-07,8.319445485229757e-07,1.3585993347585378e-06,1.2084748765360358e-06,4.2395730449414124e-07,4.3789193458197245e-07,7.61819084790176e-07,1.350998909571441e-06,3.9257067174993e-07,6.478170283047772e-07,1.7582665570078629e-06,1.7724117303543824e-06,2.050448632981331e-07,4.005318295064798e-07
3,1.3871181093244093e-06,5.99851650125292e-07,9.185258221464961e-07,9.564533163689357e-07,1.4434550248909833e-06,1.413949164066421e-06,7.785225614480205e-07,5.721985767655499e-07,9.513282658835721e-07,1.801839851361001e-06,4.868503291618671e-07,7.565961905644365e-07,2.2677997499119076e-06,1.955409841950284e-06,3.624444208220205e-07,5.241671908891185e-07
4,1.5585612059916922e-06,6.967077579928803e-07,1.0826363080609138e-06,1.0764438337787746e-06,1.5297847616770583e-06,1.6166667346442905e-06,1.1071417774778869e-06,7.013618024570037e-07,1.1396229930840345e-06,2.3055928627033856e-06,5.744690009436596e-07,8.697346585451056e-07,2.72994005969387e-06,2.1478935610659505e-06,5.117518654579884e-07,6.426652108580406e-07
5,1.721327887006366e-06,7.857259295990322e-07,1.233279683174324e-06,1.1905505205795702e-06,1.6167267880317325e-06,1.8155146304185896e-06,1.4057402293476923e-06,8.245473882682703e-07,1.3251816523153357e-06,2.86597573526403e-06,6.549750930243239e-07,9.869382626595538e-07,3.1379085427451407e-06,2.3499220853450813e-06,6.518407296485873e-07,7.548815621544657e-07
6,1.8733613527246387e-06,8.662493530866887e-07,1.3690618942836762e-06,1.2975029507387156e-06,1.7032902559954117e-06,2.009221935826013e-06,1.6714664911016756e-06,9.411861661144133e-07,1.5068010361383786e-06,3.486888741479052e-06,7.281948606285023e-07,1.1079629493239234e-06,3.4880284506882426e-06,2.562109211880568e-06,7.823155633308618e-07,8.602561086523289e-07
7,2.013214020179836e-06,9.379119925553725e-07,1.4890702149984924e-06,1.3961992056326072e-06,1.7885083007407906e-06,2.196287475886041e-06,1.9027330557553162e-06,1.050932999909748e-06,1.6838485783456783e-06,4.172063915268546e-06,7.941249926774464e-07,1.2325158771017538e-06,3.7793739230097342e-06,2.7850255793111166e-06,9.033935880575381e-07,9.58554289937295e-07
8,2.1399032284674566e-06,1.000527499900704e-06,1.5928240974095653e-06,1.4858516498127032e-06,1.8715513345471338e-06,2.374951240519083e-06,2.0991853725723533e-06,1.1535194935954452e-06,1.8562709302959363e-06,4.924660681735936e-06,8.527960625180472e-07,1.3601563210789312e-06,4.0132721629450675e-06,3.0187944237215742e-06,1.0157325888307425e-06,1.0495862755786918e-06
9,2.2525556321887188e-06,1.0540675701213363e-06,1.680209857311217e-06,1.5660186095212956e-06,1.9517167032537694e-06,2.5432880079418753e-06,2.2615696609123423e-06,1.2486736883902745e-06,2.024357424893733e-06,5.747028449993482e-06,9.042462422673575e-07,1.4902154362331598e-06,4.192954576185826e-06,3.262909155948873e-06,1.120337906140676e-06,1.1330855641734704e-06
10,2.3501870368125777e-06,1.0986577875816343e-06,1.7514285197640895e-06,1.6364943860897475e-06,2.028319926447828e-06,2.699403402155775e-06,2.3915417127699263e-06,1.3362075649959715e-06,2.188517629680959e-06,6.640617922422548e-06,9.486331486399164e-07,1.621751108327121e-06,4.323140677091033e-06,3.5162071858781093e-06,1.21853687728507e-06,1.2087371216982652e-06
11,2.4317528722898376e-06,1.1345241430456078e-06,1.8070020344255656e-06,1.6972426293425551e-06,2.1005385047681805e-06,2.8416459387624644e-06,2.49148632608399e-06,1.4161626036017693e-06,2.3492462585030306e-06,7.605845586192589e-06,9.863236158356666e-07,1.7535270418881187e-06,4.4092841184220965e-06,3.7769450400561364e-06,1.3118940385209075e-06,1.276310182055196e-06
12,2.49630240061474e-06,1.1619100504722032e-06,1.8477805483582198e-06,1.7484265623786371e-06,2.167257172499049e-06,2.9687209635313344e-06,2.5643456712717844e-06,1.488847647149014e-06,2.5071170360016107e-06,8.641785891082072e-06,1.0178250287645529e-06,1.8840581272601625e-06,4.456814112178281e-06,4.042868268547887e-06,1.4020386028896452e-06,1.3358451106120738e-06
13,2.5430722705366892e-06,1.1810228950190129e-06,1.874830676193824e-06,1.7904074213423995e-06,2.226995194557105e-06,3.079635409794042e-06,2.6134112218173434e-06,1.554739094739775e-06,2.662605730340413e-06,9.745789344687189e-06,1.043645228860511e-06,2.011759722281667e-06,4.4708142167538995e-06,4.311179307417949e-06,1.490495899344967e-06,1.3877616126400216e-06
14,2.5715580532965097e-06,1.1920911957296186e-06,1.8892026962501914e-06,1.823657042570729e-06,2.2780395414882965e-06,3.173539921925339e-06,2.642098449782652e-06,1.6143451831840751e-06,2.815849187593142e-06,1.0913219466160867e-05,1.0642325400320632e-06,2.13514515278337e-06,4.455968971995335e-06,4.578592926409387e-06,1.578567160188532e-06,1.4328004719982954e-06
15,2.5816751778622845e-06,1.1955283908042331e-06,1.8917495150468405e-06,1.8486831505546567e-06,2.318829047292347e-06,3.249646468545999e-06,2.653784877231123e-06,1.6681037396636076e-06,2.966544271540669e-06,1.2137295190556195e-05,1.0799734006352524e-06,2.253004595343151e-06,4.416476326529718e-06,4.8417662281645665e-06,1.6672421309953364e-06,1.4718637178826164e-06
16,2.5739556114047486e-06,1.1920232904451819e-06,1.8831448387458413e-06,1.8660502224042552e-06,2.3483958435325657e-06,3.3073313803121054e-06,2.651717617717781e-06,1.7162914575530367e-06,3.113973170357199e-06,1.3408862255810468e-05,1.0911585204989586e-06,2.3645334449274974e-06,4.356062615757162e-06,5.097984171207997e-06,1.757148483753361e-06,1.5058477607925838e-06
17,2.549592103565843e-06,1.1824356833834462e-06,1.8640567190815234e-06,1.8764682980202567e-06,2.3665971336544977e-06,3.3463587171948077e-06,2.6389017302058273e-06,1.758952718826257e-06,3.257031555291885e-06,1.4716140045056167e-05,1.0979348057537675e-06,2.469356297470634e-06,4.278267336737989e-06,5.345739183622951e-06,1.8485498668811076e-06,1.5355085576372923e-06
18,2.510296647859897e-06,1.167628903722673e-06,1.835349140648213e-06,1.8808727255648184e-06,2.3740926586800104e-06,3.3670735111663404e-06,2.617945205381604e-06,1.7959019633566456e-06,3.394256284948674e-06,1.6044716807276832e-05,1.1003031135973546e-06,2.56739751844414e-06,4.186778028677721e-06,5.585031060013907e-06,1.9413924893191314e-06,1.5613979247340573e-06
19,2.4581236888688967e-06,1.1484241844787898e-06,1.7982151842658534e-06,1.8804030591902082e-06,2.3721795191169205e-06,3.3704620986995295e-06,2.590937795026426e-06,1.8267956503315733e-06,3.523988152532038e-06,1.7377875937586736e-05,1.0981878331295939e-06,2.6586314200656856e-06,4.08547649425731e-06,5.81735806417175e-06,2.0353716352347668e-06,1.5838791415421682e-06
20,2.395305803652825e-06,1.1256686764165945e-06,1.7541637052976002e-06,1.8762273726599284e-06,2.3625513014076963e-06,3.3580836587888806e-06,2.5594039886819366e-06,1.8512471200721647e-06,3.64472943210183e-06,1.8697032224999095e-05,1.091583870606472e-06,2.7428178110670657e-06,3.978156693808694e-06,6.0453361524282914e-06,2.1299653824925835e-06,1.6031511956783945e-06
21,2.3240371444215617e-06,1.1002663588671873e-06,1.7048414433413745e-06,1.8693088377503456e-06,2.347040791448976e-06,3.3319430053522474e-06,2.5242912070333884e-06,1.868991729649113e-06,3.7554906694240906e-06,1.9981857429886387e-05,1.0807182273129973e-06,2.819303941768025e-06,3.868162023484166e-06,6.271960514220727e-06,2.224425170787853e-06,1.6192379759570844e-06
22,2.246298677872433e-06,1.0731075350240139e-06,1.6517972290372311e-06,1.8602975283457287e-06,2.3274339107736396e-06,3.2943106680048536e-06,2.4859835937636282e-06,1.8800651974107283e-06,3.855839442691167e-06,2.1209863429196907e-05,1.066081797085478e-06,2.8869327168049637e-06,3.7581644163154964e-06,6.499852975621927e-06,2.3177537947744998e-06,1.6320048150937646e-06
23,2.1638715152252157e-06,1.0450015712053913e-06,1.5963303805033067e-06,1.8496080699755607e-06,2.3053592101835953e-06,3.2474347661561947e-06,2.444418735103849e-06,1.884888726073306e-06,3.945599945367672e-06,2.235629692553817e-05,1.048292929931101e-06,2.944154685511027e-06,3.6501612971204014e-06,6.7309431420983196e-06,2.4086874690801044e-06,1.6412396754075388e-06
24,2.0784685331032086e-06,1.0166812077683847e-06,1.5394651016016966e-06,1.8375680044205965e-06,2.2821821607986593e-06,3.193230590223144e-06,2.399313187553247e-06,1.884187523654585e-06,4.024383914133682e-06,2.339569574034173e-05,1.0279503744695092e-06,2.9894110832881477e-06,3.545653985816995e-06,6.966569498517338e-06,2.495674801192886e-06,1.6467086018421538e-06
25,1.9918369722809845e-06,9.888009053167407e-07,1.482032307979212e-06,1.8244675443813263e-06,2.2589079855490075e-06,3.133161617594842e-06,2.3503199863762076e-06,1.8787724950471532e-06,4.091183977860373e-06,2.430484569577005e-05,1.0055980109059963e-06,3.021620238010796e-06,3.4458244390894847e-06,7.207606599288744e-06,2.5768341571169945e-06,1.6481743604598628e-06
26,1.9057536088591672e-06,9.619005604997509e-07,1.4248150193820253e-06,1.8104822818799136e-06,2.2361974024439198e-06,3.068346832422244e-06,2.2970461571145504e-06,1.8693042472030752e-06,4.144169065489967e-06,2.5065442321924e-05,9.817512770248183e-07,3.0404861075921832e-06,3.3515226299926005e-06,7.454405017772969e-06,2.6499208365199508e-06,1.6455041441919128e-06
27,1.8219010202818197e-06,9.364023120453141e-07,1.3686364158756415e-06,1.7956724309293122e-06,2.214540295410235e-06,2.99968909057779e-06,2.2391427775824588e-06,1.8561877801605918e-06,4.180721778869212e-06,2.5665325299629728e-05,9.569100641715504e-07,3.0465119358821503e-06,3.2631471009820554e-06,7.706632932980433e-06,2.712399213892193e-06,1.6388219692739284e-06
28,1.7417308468225745e-06,9.126670682586951e-07,1.314303180025481e-06,1.7801957004313147e-06,2.1944612069747808e-06,2.927879633664252e-06,2.176556235013574e-06,1.8396662966553378e-06,4.197878806680701e-06,2.609770578846343e-05,9.31558230994928e-07,3.0408076455648162e-06,3.18068770626405e-06,7.96318324669377e-06,2.7616868361184096e-06,1.628509673418789e-06
29,1.6664110996549108e-06,8.910524263015873e-07,1.262470427941419e-06,1.7645036840230239e-06,2.1765647147783925e-06,2.8533688994758364e-06,2.1097078886211747e-06,1.8200541448076657e-06,4.193262389701735e-06,2.63584294494889e-05,9.061658458324051e-07,3.0248576157746838e-06,3.1039982730474163e-06,8.222276725832856e-06,2.795546679106582e-06,1.6150527932521953e-06
30,1.5968366168353172e-06,8.718860037385653e-07,1.2135493102400693e-06,1.7492683970666797e-06,2.161387906657752e-06,2.7764314365798672e-06,2.039467728423075e-06,1.797970431688999e-06,4.165996683362752e-06,2.6443851746231234e-05,8.811849407862322e-07,3.0003539561517285e-06,3.0330193998278487e-06,8.481775690447742e-06,2.8124608767165917e-06,1.5989459542124387e-06
31,1.5336446516149689e-06,8.553731104565781e-07,1.1676986679041043e-06,1.735192461143314e-06,2.149283084609724e-06,2.6972903984409684e-06,1.9670372710119505e-06,1.774401568495494e-06,4.116865158203447e-06,2.6351991937068606e-05,8.570458337019172e-07,2.969073848998998e-06,2.967716609470207e-06,8.73946897043016e-06,2.8117111156087625e-06,1.5807790736573191e-06
32,1.47719570470477e-06,8.415419412846119e-07,1.1248683859157015e-06,1.7229467246491795e-06,2.1405405941365122e-06,2.6162538211476467e-06,1.8938103643721866e-06,1.7505218571190208e-06,4.047631201141318e-06,2.6085229567006703e-05,8.341513507350296e-07,2.9327213103495763e-06,2.90796848319064e-06,8.993042874003142e-06,2.793106342400516e-06,1.5613515569879735e-06
33,1.4275483855294894e-06,8.302548840613955e-07,1.0848721715418016e-06,1.7131599573055795e-06,2.1356045352958017e-06,2.533938589991425e-06,1.8211733556045999e-06,1.7274409521860716e-06,3.960270819813843e-06,2.5651355022107536e-05,8.128491062975835e-07,2.8927209780407545e-06,2.853662220823492e-06,9.239911840784268e-06,2.7567680424453876e-06,1.5416170614690527e-06
34,1.3844665696599933e-06,8.212561797319659e-07,1.0474909265343078e-06,1.7063500540032735e-06,2.135076093132577e-06,2.451567759827769e-06,1.7502816239540983e-06,1.7060982418105944e-06,3.856779993846868e-06,2.5062845475701228e-05,7.934299478881216e-07,2.8500663281587296e-06,2.804760876110378e-06,9.477436467017365e-06,2.703365702359296e-06,1.5224973357023754e-06
35,1.3474317342640868e-06,8.142601481908531e-07,1.0125742939139618e-06,1.7029020707819208e-06,2.1395123186347225e-06,2.3711118028694754e-06,1.681931567768053e-06,1.6872821257719513e-06,3.7394080697408613e-06,2.433566399848613e-05,7.761810518187653e-07,2.805342152756657e-06,2.761192740671755e-06,9.703634900803022e-06,2.634517680135279e-06,1.5047334511384347e-06
36,1.3156721550630678e-06,8.090928176312681e-07,9.800666988353355e-07,1.70312544208077e-06,2.1492487937547097e-06,2.295101526085354e-06,1.6166127770823193e-06,1.6716134407545277e-06,3.6108829744186984e-06,2.348795946653435e-05,7.614174456964635e-07,2.7589153213360865e-06,2.7228450248469663e-06,9.917806072461114e-06,2.552792579520592e-06,1.4888507192524212e-06
37,1.2882516450335398e-06,8.058301431013444e-07,9.499312686148327e-07,1.7072453736793588e-06,2.164321385885466e-06,2.2262247732198672e-06,1.5547326927888097e-06,1.65947967661727e-06,3.4743996930268736e-06,2.2538614097589224e-05,7.494641892874191e-07,2.711146473645157e-06,2.689743598297785e-06,1.0120356431236435e-05,2.461267208937622e-06,1.4751941503372335e-06
38,1.2641621046499026e-06,8.048192050587332e-07,9.220639862015185e-07,1.7152950190321002e-06,2.1844854133482554e-06,2.1669532034106195e-06,1.4968458647574077e-06,1.6510001007524758e-06,3.3332822289173894e-06,2.1505843774659512e-05,7.406338089209455e-07,2.6624583415012905e-06,2.662156877260759e-06,1.0311832437444392e-05,2.363034677511266e-06,1.4639467436654442e-06
39,1.2423507763585047e-06,8.065668875293091e-07,8.963032035319307e-07,1.7270711515022162e-06,2.209343535229658e-06,2.119333389424135e-06,1.4436688019861652e-06,1.646017009329321e-06,3.1905192356922345e-06,2.0406027532728915e-05,7.351966503367388e-07,2.6132389863406445e-06,2.6405385846841093e-06,1.0492222546381069e-05,2.2609385420023857e-06,1.4551199621494527e-06
40,1.2217682412575135e-06,8.116211549785004e-07,8.725155010000914e-07,1.7422698121977506e-06,2.238461122883673e-06,2.0849311964863793e-06,1.3959115110194068e-06,1.6441112120208318e-06,3.048498252189259e-06,1.9253108913357916e-05,7.333401138873918e-07,2.563731442197627e-06,2.625449751219512e-06,1.0661409831654096e-05,2.1574911709750353e-06,1.448567245769995e-06
41,1.2015475658953002e-06,8.20508463056892e-07,8.506625880367254e-07,1.7606876252696481e-06,2.2713384925489972e-06,2.0648850611452075e-06,1.3541345653014823e-06,1.6447031448035974e-06,2.9089757519526667e-06,1.8059530293135346e-05,7.351413560372056e-07,2.5140678350868036e-06,2.6175111725493214e-06,1.082018902026097e-05,2.0548216590297704e-06,1.4440298861163722e-06
42,1.1812209417043016e-06,8.336739376863682e-07,8.307800961458365e-07,1.7822553211273903e-06,2.307277047383754e-06,2.0600377383163504e-06,1.3187044999359419e-06,1.647202942621373e-06,2.773194691118335e-06,1.683873532159559e-05,7.405533079486469e-07,2.4644521945822173e-06,2.6173080912874992e-06,1.0970823995734495e-05,1.954621016392751e-06,1.4412306359376607e-06
43,1.160784139331617e-06,8.514156573404674e-07,8.128846644069211e-07,1.806846597668883e-06,2.3452729954192625e-06,2.071089020324309e-06,1.2897925320376683e-06,1.6510670753390517e-06,2.642175052246353e-06,1.5607186965591424e-05,7.493954187166755e-07,2.415356906611264e-06,2.625218584941132e-06,1.1116994266297178e-05,1.8581304436322955e-06,1.4400025417367295e-06
44,1.1405579126416848e-06,8.738508777247152e-07,7.969153557924638e-07,1.8340470164504695e-06,2.384065715102727e-06,2.098682386229162e-06,1.2673771489104074e-06,1.6557710423789347e-06,2.5170842845739035e-06,1.4384075509606985e-05,7.613556080025556e-07,2.3675823178667694e-06,2.641316316006257e-06,1.1263489375705755e-05,1.7661707514490675e-06,1.440362889236949e-06
45,1.1209688013325364e-06,9.009106237668907e-07,7.827764562002288e-07,1.8630478735029592e-06,2.422352909519561e-06,2.143361475498187e-06,1.251274958889313e-06,1.6608867898301402e-06,2.399376226745031e-06,1.318920347193602e-05,7.760167086407794e-07,2.322122923528182e-06,2.665472455399111e-06,1.1415886973226103e-05,1.6792019796212758e-06,1.4425078448342822e-06
46,1.1024368349971975e-06,9.323399500391559e-07,7.704078610891001e-07,1.8926993339537016e-06,2.459043580205113e-06,2.205422447026865e-06,1.241228626349354e-06,1.6662795683069815e-06,2.290628840028267e-06,1.2040802831216232e-05,7.928957282819474e-07,2.2799050472346474e-06,2.697510447093813e-06,1.1580240954331153e-05,1.5974342138925697e-06,1.4467651113735737e-06
47,1.0854264753037069e-06,9.677067875496236e-07,7.59781860586262e-07,1.921731933145993e-06,2.493440844542733e-06,2.2847791409220397e-06,1.2369882884131205e-06,1.6721685033767605e-06,2.192392538981264e-06,1.0954444811019393e-05,8.114725573636763e-07,2.2415295143309393e-06,2.7372337945161474e-06,1.1762703725012213e-05,1.5209666809740826e-06,1.453481380559144e-06
48,1.0705061598630831e-06,1.006466266800138e-06,7.508450542992379e-07,1.949095393103559e-06,2.5253485926371406e-06,2.3809005169191537e-06,1.2383034728896463e-06,1.678927566120659e-06,2.106175711702213e-06,9.942975556443064e-06,8.312096098408581e-07,2.207126085489152e-06,2.7843761077772156e-06,1.196902094213109e-05,1.4498593309293287e-06,1.4628679428774331e-06
49,1.0582885678032352e-06,1.0481024224921038e-06,7.434864464916242e-07,1.974250896961929e-06,2.5551082853364345e-06,2.4927632120929242e-06,1.2448377867250191e-06,1.686845092182032e-06,2.0333749311206913e-06,9.016796442882956e-06,8.515501167226401e-07,2.176328281978831e-06,2.8386298852129764e-06,1.2203875970633589e-05,1.384099919560046e-06,1.474924982750587e-06
50,1.0493276971835654e-06,1.0922391636837133e-06,7.37566221763923e-07,1.9972709780644993e-06,2.5835261208520455e-06,2.6187880295192116e-06,1.256095305053659e-06,1.6960372127231735e-06,1.9751171990272255e-06,8.184061830777411e-06,8.718991608017725e-07,2.1483139705983685e-06,2.899822272700625e-06,1.2470210070808331e-05,1.3235808570806448e-06,1.48945812796079e-06
51,1.0440671648015797e-06,1.1386056922712666e-06,7.330182470493058e-07,2.0187346475685394e-06,2.6116401164852956e-06,2.7567988700419044e-06,1.2714330393129542e-06,1.7064814059157132e-06,1.932185987300099e-06,7.450854993247466e-06,8.916410878591578e-07,2.1218555740989012e-06,2.9681492481650117e-06,1.2768821680935754e-05,1.268190526852761e-06,1.5060872472615797e-06
52,1.0428112484543554e-06,1.1869415024176474e-06,7.299865569292895e-07,2.0395024861531483e-06,2.640389236197715e-06,2.9040548431362766e-06,1.290142363694964e-06,1.718131499756877e-06,1.9050707983655942e-06,6.821502473532836e-06,9.101886315700184e-07,2.0953631782977993e-06,3.044245593759684e-06,1.3098294059947432e-05,1.2179173714646764e-06,1.5242259846253242e-06
53,1.0457015687680863e-06,1.236988079000881e-06,7.288541902553583e-07,2.060463616275582e-06,2.6703976252212167e-06,3.057421440589219e-06,1.311531402452241e-06,1.7310406335069894e-06,1.8940745463328213e-06,6.298925048460015e-06,9.269941342162727e-07,2.067059889179705e-06,3.1289679247729185e-06,1.3455108691592748e-05,1.1728291261567856e-06,1.5430809634275545e-06
54,1.0527275909820684e-06,1.2885232130470532e-06,7.301089931044978e-07,2.0823117203702408e-06,2.7019805626139656e-06,3.213711839913646e-06,1.334985169359979e-06,1.7453345937748427e-06,1.8994227580401506e-06,5.884805783689798e-06,9.415381632952096e-07,2.035453922769079e-06,3.2231507668342794e-06,1.3834121962709656e-05,1.132989369806872e-06,1.5617269906628654e-06
55,1.0637596687368061e-06,1.3413092685879939e-06,7.341917662421318e-07,2.1053906831218537e-06,2.7352325488110213e-06,3.3700981087961763e-06,1.3600157725717935e-06,1.761068778611769e-06,1.9212564209676725e-06,5.579584116203521e-06,9.534092546660193e-07,1.9998833875139577e-06,3.327561803857401e-06,1.4229421260543927e-05,1.0984109400659178e-06,1.5792831457080927e-06
56,1.078621022870692e-06,1.3949664226905836e-06,7.414430984101697e-07,2.129644779450227e-06,2.770090595859593e-06,3.5243878516813124e-06,1.3862726808970439e-06,1.7781219855311572e-06,1.9595149386250987e-06,5.38248342491246e-06,9.62462929890835e-07,1.96067415737823e-06,3.442807077719237e-06,1.4635036056723796e-05,1.0690527013957676e-06,1.595082466304152e-06
57,1.0972155181777205e-06,1.44888586654166e-06,7.521085969786241e-07,2.1546620491656493e-06,2.806444933906351e-06,3.6749899312163656e-06,1.4134550274836617e-06,1.7961195959934948e-06,2.01391973509349e-06,5.291634882106977e-06,9.688662265188742e-07,1.918834892471321e-06,3.569068623763193e-06,1.5045080524847358e-05,1.0448330139457328e-06,1.6087112688080164e-06
58,1.1195883747391008e-06,1.502227813476501e-06,7.6637478125658e-07,2.1797592941738076e-06,2.8443370696620385e-06,3.820574889343457e-06,1.4411603940838907e-06,1.8143722691495897e-06,2.0840895598717595e-06,5.304168778738315e-06,9.729698393690059e-07,1.8756074689558632e-06,3.7059406040692473e-06,1.5453190737280746e-05,1.0256163960832523e-06,1.6199430222233308e-06
59,1.1458285485935925e-06,1.5539709268436555e-06,7.844426359548354e-07,2.204099061086785e-06,2.8840909305080516e-06,3.959747737003991e-06,1.4688194539590562e-06,1.8319608368647152e-06,2.1695741807565083e-06,5.416247695308363e-06,9.751616048928204e-07,1.8321352587865112e-06,3.852412541554793e-06,1.585144714308003e-05,1.0111843490637452e-06,1.6286271433817743e-06
60,1.1759240034304157e-06,1.6030558865066187e-06,8.065632319055607e-07,2.2268543017743236e-06,2.9262114967892588e-06,4.091143656595333e-06,1.4958103084795573e-06,1.8480222597832604e-06,2.2697266145948948e-06,5.623131717597763e-06,9.757791778935308e-07,1.789321344051507e-06,4.006865574065586e-06,1.6229719503138892e-05,1.0012265773572889e-06,1.6345849914474003e-06
61,1.209692936734239e-06,1.648643840291982e-06,8.329809366065765e-07,2.2473364438099137e-06,2.9712197824279727e-06,4.213909218744007e-06,1.5216368034895848e-06,1.8620814926111607e-06,2.3835623351386383e-06,5.919309737626015e-06,9.750565876406368e-07,1.7478344092150795e-06,4.1670544685406254e-06,1.657631503657545e-05,9.953279304123523e-07,1.6376120215212576e-06
62,1.2468030161761507e-06,1.69030808981518e-06,8.638555190725382e-07,2.26495464426488e-06,3.019737112388771e-06,4.328055116207792e-06,1.5459542379374292e-06,1.8742214629324616e-06,2.5097548942312478e-06,6.298725416833971e-06,9.73109744723393e-07,1.7081803564573486e-06,4.330062716684687e-06,1.687969261533192e-05,9.929489889846888e-07,1.6375755232068599e-06
63,1.286825585445693e-06,1.728030293270726e-06,8.992455089011347e-07,2.2790769088376622e-06,3.072709419709139e-06,4.4342941148649245e-06,1.5684064883870787e-06,1.8850072920126358e-06,2.646776058320586e-06,6.755137109779887e-06,9.699856298628321e-07,1.6708032213626318e-06,4.492386962349611e-06,1.7130461148973368e-05,9.934624243051353e-07,1.6344551968328014e-06
64,1.32924157268148e-06,1.762111384418336e-06,9.391364384139314e-07,2.289019109979515e-06,3.1313920724944036e-06,4.533500147088044e-06,1.5884842407580673e-06,1.8952248606714867e-06,2.793050248664488e-06,7.282555406106344e-06,9.657624001799065e-07,1.6361535973490267e-06,4.6504066974948405e-06,1.7322982740697198e-05,9.962615421639508e-07,1.6282791841051198e-06
65,1.3733985306993377e-06,1.7930653629642013e-06,9.834415706054928e-07,2.294175137951336e-06,3.1970681261155586e-06,4.626283400872349e-06,1.605600651416248e-06,1.9055919733785884e-06,2.9469984956472446e-06,7.875511288104806e-06,9.606143534636068e-07,1.6046369203009419e-06,4.801114390768719e-06,1.7456010940913147e-05,1.0008460620286607e-06,1.6190831267813941e-06
66,1.4185253653473634e-06,1.8214234016244493e-06,1.0319615566042849e-06,2.29410043145841e-06,3.2708249367498867e-06,4.713040884165117e-06,1.6193140946176655e-06,1.916639481710388e-06,3.107052321587901e-06,8.528804282768102e-06,9.547809402670064e-07,1.5765313280143845e-06,4.942648469483118e-06,1.753224927081379e-05,1.0067938972628007e-06,1.607001676693808e-06
67,1.4638493602429153e-06,1.8474887324780312e-06,1.0843452476864538e-06,2.2885077457052433e-06,3.3535723795357236e-06,4.794304425979542e-06,1.6294224779505903e-06,1.9288134063414214e-06,3.2717871619199194e-06,9.236724497827875e-06,9.485045738571385e-07,1.5520205133180457e-06,5.074224171732713e-06,1.755729741859177e-05,1.0136714929461236e-06,1.5924280889593608e-06
68,1.5087258808640248e-06,1.871202885580876e-06,1.1400664635991614e-06,2.2772851348763338e-06,3.4461247125104625e-06,4.87083805127803e-06,1.6358066673932363e-06,1.942589737330741e-06,3.4400604184638218e-06,9.99234461825081e-06,9.420329764567271e-07,1.5312874231677122e-06,5.195491499819267e-06,1.7538490198714435e-05,1.0209829428225586e-06,1.5760501143266838e-06
69,1.5526819118189393e-06,1.8921907479943494e-06,1.1984171430066681e-06,2.260531414760028e-06,3.5491109835706556e-06,4.943273878389982e-06,1.6382479486807738e-06,1.9584082128153885e-06,3.6108926774969615e-06,1.0787591591898265e-05,9.356671171689495e-07,1.5145775841726576e-06,5.30599632375758e-06,1.7483766648756443e-05,1.0281614353797229e-06,1.5586779202334683e-06
70,1.5953931615896043e-06,1.9099339248621317e-06,1.2585491960084534e-06,2.238485348033492e-06,3.662796844960782e-06,5.011754024336866e-06,1.6364645519364942e-06,1.9765208267181264e-06,3.783144259790859e-06,1.1614243441814417e-05,9.297452289286614e-07,1.502240041124542e-06,5.405206111019663e-06,1.7400481909611787e-05,1.0346084413317293e-06,1.541020362152904e-06
71,1.6366760783447487e-06,1.923920696925423e-06,1.3195911473408558e-06,2.2113860442857367e-06,3.7869959493127554e-06,5.076021119334311e-06,1.630286136256401e-06,1.9969163790820988e-06,3.955364608445381e-06,1.2465284487115316e-05,9.245441006618551e-07,1.4947178918468801e-06,5.492628768583838e-06,1.729415488429849e-05,1.0397821157647028e-06,1.5235787128152368e-06
72,1.676486973748288e-06,1.93361571167214e-06,1.3807731950957342e-06,2.17946013275706e-06,3.921008498763965e-06,5.13578114447733e-06,1.619752491747655e-06,2.0192924044439887e-06,4.1259454494235925e-06,1.3335738787473845e-05,9.202043584277939e-07,1.4924661073238299e-06,5.567612556750758e-06,1.716744110772778e-05,1.0432260554066182e-06,1.506624620826871e-06
73,1.714863138068338e-06,1.9383367496928246e-06,1.4414380293122844e-06,2.1430182862888883e-06,4.063582753820122e-06,5.190972513311452e-06,1.6051203550993535e-06,2.0430496827209866e-06,4.293216367312712e-06,1.4222422412333379e-05,9.167453269075328e-07,1.4959135491604078e-06,5.6291690446393584e-06,1.7019731593538707e-05,1.0445328363334998e-06,1.4901733313431187e-06
74,1.7518073213691273e-06,1.937293707035741e-06,1.5009312328378898e-06,2.1024530603930675e-06,4.21305401892241e-06,5.241757189262076e-06,1.5868818415875083e-06,2.0673994182917174e-06,4.455243612976336e-06,1.5122714949363033e-05,9.141110575873292e-07,1.505531754350921e-06,5.6761373694797265e-06,1.684741518555074e-05,1.0433760984847328e-06,1.4739524180944162e-06
75,1.787169319563806e-06,1.92988018559865e-06,1.5585116136990026e-06,2.0581312536718865e-06,4.367594900532919e-06,5.2882087855749105e-06,1.5657558696009936e-06,2.0915735854625996e-06,4.609693495267733e-06,1.603290032509675e-05,9.121730525196091e-07,1.5218658150458075e-06,5.7074044848402325e-06,1.6644647473281802e-05,1.0396012388252648e-06,1.4574029153624129e-06
76,1.8206051268337258e-06,1.9160239097967672e-06,1.6133617411501558e-06,2.0103512054582658e-06,4.5253356249960355e-06,5.329967011421067e-06,1.5425497758492008e-06,2.114988794900629e-06,4.754079687450916e-06,1.694673496115313e-05,9.107071450904968e-07,1.5454298712925882e-06,5.721770239709095e-06,1.640469132100087e-05,1.033262720766324e-06,1.4397502216215175e-06
77,1.851703719197087e-06,1.8963147371836792e-06,1.6646378305588979e-06,1.9594233509061758e-06,4.684215664084979e-06,5.366224256860466e-06,1.5179715520827859e-06,2.1372646754938e-06,4.886043293215079e-06,1.785473393307039e-05,9.094070002660411e-07,1.5765477344697755e-06,5.717640443504762e-06,1.612174816357466e-05,1.024577097467921e-06,1.4201544065811084e-06
78,1.880241125636218e-06,1.8718648092907334e-06,1.7115180030936287e-06,1.9058008185524013e-06,4.84164101513849e-06,5.395911046892133e-06,1.49254466724697e-06,2.158147317096889e-06,5.0032234776681135e-06,1.8744221392154865e-05,9.079703542899939e-07,1.6152519796406294e-06,5.693080652342898e-06,1.5792676305454192e-05,1.0138515143778165e-06,1.3978861757000144e-06
79,1.9063534093548138e-06,1.8440539487196424e-06,1.7532766385876475e-06,1.8501547088743789e-06,4.99426004078565e-06,5.417648679474597e-06,1.4666636393233519e-06,2.1774437291531777e-06,5.102904740639552e-06,1.9599791561723604e-05,9.062218669285054e-07,1.6613207671234404e-06,5.646336542940379e-06,1.5417774942780022e-05,1.0014873525562153e-06,1.3724497628238542e-06
80,1.9304625576621824e-06,1.8142724464385627e-06,1.789385428106501e-06,1.793309618274111e-06,5.138117616283428e-06,5.429582756202456e-06,1.4407079085366849e-06,2.194998905579555e-06,5.182080621769757e-06,2.040367061796137e-05,9.041535009339566e-07,1.7144573530247527e-06,5.5764254539088126e-06,1.5000122810232971e-05,9.880498106551393e-07,1.3435853330149073e-06
81,1.953011751750295e-06,1.7837752764235866e-06,1.8195891832344328e-06,1.7361007053511635e-06,5.2691287794669426e-06,5.42954338720077e-06,1.4150717771871464e-06,2.21069007892514e-06,5.238190876500484e-06,2.1135555590331496e-05,9.01831999806105e-07,1.774469821469888e-06,5.483270622179267e-06,1.4543884766457254e-05,9.74258135500766e-07,1.3111597755368617e-06
82,1.9742478026279695e-06,1.7536890943688884e-06,1.843902110512422e-06,1.6793288011543535e-06,5.383717650443178e-06,5.415496167742005e-06,1.3901076696130636e-06,2.2244210585437826e-06,5.269909141578275e-06,2.1772505024215285e-05,8.99272559803527e-07,1.8412677967424224e-06,5.367329254988356e-06,1.4053018164537553e-05,9.608482408968227e-07,1.2751210969093396e-06
83,1.9942597460768543e-06,1.7250088926410378e-06,1.8625146647048663e-06,1.6238193913673202e-06,5.4795179598887e-06,5.385986065970883e-06,1.3660750891359686e-06,2.236077091830365e-06,5.27717449680671e-06,2.2290685712581343e-05,8.963741356035417e-07,1.9146966222624666e-06,5.229455266354903e-06,1.3531432048435593e-05,9.484248941468838e-07,1.2356436203672001e-06
84,2.0132216004123293e-06,1.6985124754974618e-06,1.8756321583099546e-06,1.5704241689202804e-06,5.555853404769296e-06,5.340493384603811e-06,1.3431113794574778e-06,2.245401341019855e-06,5.260452631624688e-06,2.2669519796752044e-05,8.92916040035614e-07,1.994374416434468e-06,5.071371946601271e-06,1.2983729982207632e-05,9.373934282734265e-07,1.193276670264527e-06
85,2.031564145120361e-06,1.6747422010892397e-06,1.8832986266396066e-06,1.5199303309225074e-06,5.613588620138242e-06,5.279644879223695e-06,1.3212749899232364e-06,2.251880091435661e-06,5.2200459533688e-06,2.2895684072125074e-05,8.886028895543607e-07,2.0795975449235352e-06,4.896059514799406e-06,1.2415058246320328e-05,9.279737254637434e-07,1.1488812696595732e-06
86,2.0499332823474892e-06,1.6541354637841763e-06,1.8853432129379963e-06,1.4729644509561324e-06,5.65436041502303e-06,5.20512705026249e-06,1.3007169782518903e-06,2.2547968964599763e-06,5.156201229134851e-06,2.2963750210033425e-05,8.831769479719482e-07,2.169344555883844e-06,4.70751497798042e-06,1.183067736432729e-05,9.202924345228558e-07,1.1034290222634143e-06
87,2.0690646782289617e-06,1.63719344159522e-06,1.8815588301841692e-06,1.4299351464553125e-06,5.679768248920928e-06,5.119247274568769e-06,1.2818506570254563e-06,2.253468785633573e-06,5.069762949691138e-06,2.2873110866013408e-05,8.765635337281766e-07,2.2624107770855357e-06,4.510127268168844e-06,1.1236701766684635e-05,9.14489848164468e-07,1.0578324451147525e-06
88,2.089687352713281e-06,1.6245397332947167e-06,1.8719935176859744e-06,1.3910127679891053e-06,5.6909832661705665e-06,5.024307861873347e-06,1.265325010497078e-06,2.2474901546386477e-06,4.962424007209778e-06,2.2624338120068303e-05,8.689325807370177e-07,2.3575430937633412e-06,4.3080558384626955e-06,1.0641203784226436e-05,9.107309560912928e-07,1.0128752380678387e-06
89,2.112410532315116e-06,1.6168521601272638e-06,1.8570843280308935e-06,1.3561308479044995e-06,5.6886357526759e-06,4.922183480604221e-06,1.251853643344793e-06,2.2368023387934527e-06,4.836280139256399e-06,2.221870134388541e-05,8.606025996821873e-07,2.453436700468999e-06,4.104850755132276e-06,1.0053972323931861e-05,9.091578078821087e-07,9.692260788163944e-07
90,2.1375977062100443e-06,1.6147409155213728e-06,1.8375055755021721e-06,1.3250142419400961e-06,5.6726615946052865e-06,4.814415927519758e-06,1.2421106729323174e-06,2.2216037439128798e-06,4.693494916874791e-06,2.1661102020302076e-05,8.518642035019679e-07,2.5486786557403034e-06,3.903401162187391e-06,9.48504748209454e-06,9.098884432072332e-07,9.274682536727234e-07
91,2.1653307448259257e-06,1.6186156633322485e-06,1.8138839300380888e-06,1.2972398444315925e-06,5.642154842585204e-06,4.7026218127109e-06,1.2367129354610228e-06,2.202307622084252e-06,4.536610331264982e-06,2.0963248828639827e-05,8.428668297358444e-07,2.6417517462444558e-06,3.7060826658400298e-06,8.943378204679016e-06,9.130234711793974e-07,8.881041664155898e-07
92,2.195448316383019e-06,1.6285774763591792e-06,1.786648380216988e-06,1.2723263191803784e-06,5.595525057940448e-06,4.588668810542685e-06,1.2361645845780013e-06,2.17963948669567e-06,4.368881311271588e-06,2.0144360457330402e-05,8.336252021426018e-07,2.7310588643820786e-06,3.5148678131426345e-06,8.436323602190504e-06,9.186007134482759e-07,8.515588153112501e-07
93,2.2275551932834054e-06,1.6443647371454387e-06,1.7561152923356734e-06,1.24990676564614e-06,5.531019882329123e-06,4.4743779426451085e-06,1.2407625041436934e-06,2.1546891683877704e-06,4.1939906229850545e-06,1.9229131301929875e-05,8.240928244929841e-07,2.814948502404708e-06,3.331292638197928e-06,7.969693974449901e-06,9.265506213716786e-07,8.182063033170838e-07
94,2.261073998356655e-06,1.6653365073201968e-06,1.7226546815794892e-06,1.2299356902974483e-06,5.447338715611726e-06,4.361031274405084e-06,1.2505551357820887e-06,2.12873976435794e-06,4.0153914515914765e-06,1.824423542951532e-05,8.142088439636605e-07,2.8918371352945063e-06,3.1564212277219228e-06,7.547881572062911e-06,9.367282882577239e-07,7.883956612512112e-07
95,2.295456196965109e-06,1.6904826920546794e-06,1.6867280234104222e-06,1.212718583448188e-06,5.344060097417314e-06,4.249109211782177e-06,1.2653796739153782e-06,2.1029690764236406e-06,3.8358396997154225e-06,1.7215074293720204e-05,8.038886413410819e-07,2.9604430523951023e-06,2.9909250805372742e-06,7.174007744093966e-06,9.49015074254888e-07,7.624449336771131e-07
96,2.3303986990627078e-06,1.7184883454640742e-06,1.6488048362392931e-06,1.1987633552792752e-06,5.221824201234966e-06,4.138419127693986e-06,1.2849400196837087e-06,2.0782609271909114e-06,3.657300218021278e-06,1.6164038920608466e-05,7.930315795757364e-07,3.0199896148798437e-06,2.835180435489324e-06,6.850034855660186e-06,9.633712538641781e-07,7.406321898398567e-07
97,2.3658162411478973e-06,1.7478851667721895e-06,1.6093438247146097e-06,1.1886556234960958e-06,5.082383747028063e-06,4.028464346764672e-06,1.3089045037128358e-06,2.0551900527619863e-06,3.4810689944728256e-06,1.5110198364951653e-05,7.81589706383778e-07,3.070273388581779e-06,2.6893856126065865e-06,6.576800317682061e-06,9.797658930705155e-07,7.23222529645429e-07
98,2.401586760417664e-06,1.7772807083230937e-06,1.5688767512561711e-06,1.1829724132159194e-06,4.928594502787931e-06,3.918790026252251e-06,1.3370062523151048e-06,2.034031656489264e-06,3.307967146859233e-06,1.4069374852821855e-05,7.696320620707408e-07,3.111619369075173e-06,2.5537561905133936e-06,6.354269691626882e-06,9.980968308552796e-07,7.104885227013639e-07
99,2.437319293729741e-06,1.8055627767550854e-06,1.5280522171048638e-06,1.1821689339997862e-06,4.7642164992581425e-06,3.8091693211685607e-06,1.3690806759765356e-06,2.014724308994567e-06,3.1385661984289374e-06,1.3054199357333241e-05,7.573302942940153e-07,3.1447553844974962e-06,2.428644872291601e-06,6.1822014466410526e-06,1.01819979933846e-06,7.026694809679952e-07
100,2.4723235312061428e-06,1.8319198486270536e-06,1.487581294644701e-06,1.1865090301151562e-06,4.593388055813835e-06,3.699653206579024e-06,1.4049807401705203e-06,1.9968897959747124e-06,2.9734117104264147e-06,1.2074394977800764e-05,7.448681933081102e-07,3.170581033418355e-06,2.3144890384990137e-06,6.060841347924351e-06,1.0398668611364847e-06,6.999052304106402e-07
101,2.5057335004913214e-06,1.8556781792274354e-06,1.4481532956907251e-06,1.1960736250375937e-06,4.419939231462289e-06,3.5905227098754724e-06,1.4444203717753504e-06,1.9799768799683444e-06,2.8132072733541343e-06,1.1137162215100676e-05,7.323440822759577e-07,3.1898519888394377e-06,2.211689574627431e-06,5.991243912574543e-06,1.0628047410035291e-06,7.022074179631258e-07
102,2.5366401886653034e-06,1.8762147399259575e-06,1.410382828971498e-06,1.210767083191512e-06,4.246900396579521e-06,3.482181714759748e-06,1.4868649250898283e-06,1.9634588672862195e-06,2.658911502906797e-06,1.0247375648789224e-05,7.197263219966815e-07,3.2029574431662827e-06,2.1204892342921023e-06,5.975215186777794e-06,1.0865799871714008e-06,7.094644298989757e-07
103,2.564172067336603e-06,1.8930989660003369e-06,1.3748046493491376e-06,1.2302895093923773e-06,4.076328912524061e-06,3.3750865787322476e-06,1.5315344153256514e-06,1.9469865190565624e-06,2.5116722118407447e-06,9.407710822220424e-06,7.068610570614602e-07,3.209960473210474e-06,2.0408644666824513e-06,6.014926150485968e-06,1.110597799389081e-06,7.214402429138904e-07
104,2.5875452234955063e-06,1.906262156695308e-06,1.3419037671471186e-06,1.25414660556326e-06,3.909318176228862e-06,3.269779768550844e-06,1.5774782023723958e-06,1.9304584932948366e-06,2.3726071269296735e-06,8.61899412105979e-06,6.935156686278896e-07,3.2108165767249478e-06,1.9724952237172716e-06,6.1123064934367984e-06,1.1341237845130055e-06,7.377728684159444e-07
105,2.6060657884857818e-06,1.915977495360985e-06,1.3121449218558363e-06,1.2817345668976397e-06,3.7461409000421252e-06,3.1669475665230717e-06,1.6236154057166687e-06,1.9139995542634947e-06,2.2426462147467553e-06,7.880791268606407e-06,6.794426568289251e-07,3.2055475546577744e-06,1.9148091363892103e-06,6.268638932082929e-06,1.1563357063248731e-06,7.580033820237424e-07
106,2.6190340516795625e-06,1.922688267516857e-06,1.285952402197346e-06,1.3124255655766683e-06,3.586589748518343e-06,3.0673494410500587e-06,1.6687288368744614e-06,1.8978265488833448e-06,2.1225577707538167e-06,7.19202768069173e-06,6.644284340504e-07,3.1942650050126255e-06,1.8669997796475713e-06,6.484595334349269e-06,1.176396331013832e-06,7.816091272422258e-07
107,2.625661135477745e-06,1.9268391600124794e-06,1.2636334888292815e-06,1.3455734371478148e-06,3.4304164612531715e-06,2.9715921422971948e-06,1.7115472390702548e-06,1.8820460059106655e-06,2.012955635994322e-06,6.5515110707820905e-06,6.48332562886457e-07,3.177100246480674e-06,1.8280527481674769e-06,6.760384319096228e-06,1.1935618961987969e-06,8.080091812472056e-07
108,2.6252089634795086e-06,1.9287963094116653e-06,1.2453209325430153e-06,1.3804789416891548e-06,3.2776055485237717e-06,2.879922060417195e-06,1.7509737674506502e-06,1.8665474359220642e-06,1.914185854766715e-06,5.958282538743937e-06,6.311481402984245e-07,3.154164096527899e-06,1.7968967750092525e-06,7.095641081274063e-06,1.2072973352931768e-06,8.365820902757613e-07
109,2.617287663019244e-06,1.9288314506036304e-06,1.2309774107033547e-06,1.4164541754035875e-06,3.1283607914562926e-06,2.792258279168422e-06,1.7863146063835897e-06,1.851100871783688e-06,1.826257642641729e-06,5.411679572872187e-06,6.130295770352053e-07,3.1255761718968116e-06,1.772568482511775e-06,7.489051933051296e-06,1.2173319738204512e-06,8.667273638443303e-07
110,2.6020026894158467e-06,1.927103385196302e-06,1.2204053323813205e-06,1.4530160733657614e-06,2.982990879272633e-06,2.7084941878676605e-06,1.8173541641375513e-06,1.8355486894682955e-06,1.7488914995673101e-06,4.911085812960861e-06,5.942318563456915e-07,3.091501895748621e-06,1.7541843123298786e-06,7.93790719028678e-06,1.2236376347415267e-06,8.979505509920138e-07
111,2.579832925684352e-06,1.9235961241967175e-06,1.2132310826726665e-06,1.490023261323422e-06,2.841929336704296e-06,2.6288359551532293e-06,1.8442863678533809e-06,1.8199242512229013e-06,1.6816227558455015e-06,4.455518739819602e-06,5.750274579411878e-07,3.05219679434682e-06,1.7408052003531292e-06,8.437802110569937e-06,1.2263712795158233e-06,9.299290466964682e-07
112,2.551420634043871e-06,1.918044984583889e-06,1.2088960985875971e-06,1.5275933122526363e-06,2.705850175462235e-06,2.553908264494285e-06,1.8676046772802263e-06,1.8044655491971504e-06,1.6238916195020201e-06,4.043279462617473e-06,5.556817533687847e-07,3.0081252555374554e-06,1.7313991338952823e-06,8.982619366790916e-06,1.2258051006996838e-06,9.625028316668323e-07
113,2.5175012473355767e-06,1.909957734761123e-06,1.2067048886162332e-06,1.5658647374664077e-06,2.575658943900004e-06,2.484608688219848e-06,1.8879878268473231e-06,1.7895934894012302e-06,1.5750760582261605e-06,3.671806684676595e-06,5.364711284240143e-07,2.9601154802777456e-06,1.7248799079926666e-06,9.564794834057687e-06,1.222245968024884e-06,9.956081883007972e-07
114,2.479009806203878e-06,1.8988210226979394e-06,1.2059517271087356e-06,1.604793598808525e-06,2.45229101712451e-06,2.421922151488949e-06,1.9061463915973434e-06,1.7758925475442966e-06,1.5344804680232828e-06,3.337741646002172e-06,5.176891524471473e-07,2.9093780026466598e-06,1.720167494312904e-06,1.0175812746488044e-05,1.2160262923549013e-06,1.0292494939001416e-06
115,2.437177479436358e-06,1.8844462282960538e-06,1.2060245450895036e-06,1.6441201722788547e-06,2.336517296073609e-06,2.3668049416489153e-06,1.92269145524928e-06,1.7640362386339283e-06,1.501300311411081e-06,3.037192541569898e-06,4.996245221455161e-07,2.8572933697547857e-06,1.7163356698746349e-06,1.080679611576485e-05,1.2075860533625547e-06,1.0635220639705703e-06
116,2.3934235908685883e-06,1.867205730054103e-06,1.2063611202963309e-06,1.6834938453110742e-06,2.2289348794170184e-06,2.3200527002930234e-06,1.9381450869378103e-06,1.7546300267735653e-06,1.4746183068352587e-06,2.7661749646724706e-06,4.825421301278008e-07,2.8051532104904767e-06,1.712809531859259e-06,1.144889040066541e-05,1.197487810292802e-06,1.0985919132791727e-06
117,2.349101275579496e-06,1.8479363665913416e-06,1.2063199381198157e-06,1.722638067970787e-06,2.1300221260892217e-06,2.282127991075363e-06,1.953021331149813e-06,1.7480733413284732e-06,1.4534784822711096e-06,2.5210929065588166e-06,4.666875400773943e-07,2.7541216249152645e-06,1.7094390889249397e-06,1.209321129378997e-05,1.186316027027356e-06,1.134595428884169e-06
118,2.305308029986191e-06,1.8277032191366792e-06,1.2051604066603478e-06,1.7614755530849931e-06,2.0401058225661444e-06,2.2530493071805096e-06,1.967805488967868e-06,1.7444985249692508e-06,1.436932448649787e-06,2.299098953980609e-06,4.522849327882992e-07,2.705362375988125e-06,1.7063521252486632e-06,1.2730478130853091e-05,1.1746082969480899e-06,1.1715522363111373e-06
119,2.2627974516010054e-06,1.8077266323425282e-06,1.2022157983924389e-06,1.8002022258821732e-06,1.9593233846030702e-06,2.2324129664865868e-06,1.9828802785576873e-06,1.7437272224749818e-06,1.4239872701178039e-06,2.0982291253518572e-06,4.39513815217832e-07,2.6600250979640436e-06,1.7037047001764893e-06,1.335058495674117e-05,1.1628803945388042e-06,1.2093643209958212e-06
120,2.221910433091665e-06,1.7893542174712085e-06,1.1971207267804775e-06,1.8392689417704457e-06,1.8876295443407035e-06,2.2195205850927913e-06,1.998563681635635e-06,1.7452501790782873e-06,1.4135698399676298e-06,1.917259305383566e-06,4.2849121709849327e-07,2.6190157535604225e-06,1.7015702965661392e-06,1.3942148691183176e-05,1.1516497314101221e-06,1.2478564882720825e-06
121,2.1825870007337177e-06,1.7739015501333772e-06,1.189886248559052e-06,1.8792244901436427e-06,1.824761619132988e-06,2.2134772740500868e-06,2.0151832392303693e-06,1.748290837272598e-06,1.404613668071216e-06,1.7553430095295519e-06,4.192700968426226e-07,2.5828075894665555e-06,1.7000629273931558e-06,1.4492250348744113e-05,1.1413829251841632e-06,1.2868044657965037e-06
122,2.1445666088740005e-06,1.7624851113339029e-06,1.1807613189473331e-06,1.9204834047083372e-06,1.7702168861092686e-06,2.2131598273685672e-06,2.0330236051359727e-06,1.751904099968253e-06,1.396243574809324e-06,1.6116223459397655e-06,4.118425954401848e-07,2.5514921440339236e-06,1.6995409435208738e-06,1.4987262773759756e-05,1.132405288020341e-06,1.325975977168358e-06
123,2.1077160410786002e-06,1.7559662801370055e-06,1.1700119948389568e-06,1.9631563549646985e-06,1.7233739739068305e-06,2.2171910257052452e-06,2.052276976992949e-06,1.7550201766061256e-06,1.3879281249662707e-06,1.4850113369291922e-06,4.0614745072308183e-07,2.5250081280019035e-06,1.7006716408669093e-06,1.541520409620507e-05,1.1248482745985145e-06,1.365237872743849e-06
124,2.0723022500644325e-06,1.7549919535673768e-06,1.1578273090823424e-06,2.006994012045061e-06,1.6836951512928627e-06,2.224073491637756e-06,2.0731739250417004e-06,1.7564793794815434e-06,1.3794495730820335e-06,1.3741858438435789e-06,4.020918733131527e-07,2.503356521047433e-06,1.7042904929328716e-06,1.5768361540865143e-05,1.118662076281216e-06,1.4046673533326973e-06
125,2.03908847819313e-06,1.7600734989885193e-06,1.1444406026892645e-06,2.051379303819346e-06,1.6508229992322535e-06,2.232325713550458e-06,2.0961643896358895e-06,1.7551981871370612e-06,1.370701084642879e-06,1.2776813360538418e-06,3.9958252695964766e-07,2.4866585277928663e-06,1.7112040727114657e-06,1.6044469898627842e-05,1.1136596265940931e-06,1.4445121420753803e-06
126,2.0092595558022146e-06,1.7716086429727173e-06,1.1303244970741931e-06,2.095339727542628e-06,1.6245524250329853e-06,2.2404496477252067e-06,2.1219579343087095e-06,1.7504709920012293e-06,1.3615340895901434e-06,1.1940577634514194e-06,3.985599561511202e-07,2.475097590589145e-06,1.7221286905090049e-06,1.6246064360163635e-05,1.1095670644766545e-06,1.485007098308869e-06
127,1.984237395345182e-06,1.7898064958692216e-06,1.1162334484808113e-06,2.1376497420334653e-06,1.6048352038407937e-06,2.246957004768344e-06,2.151393610803484e-06,1.7421981772713092e-06,1.3518451108854568e-06,1.122117975159032e-06,3.9904435157996e-07,2.4689244935731664e-06,1.7377542156294208e-06,1.637886086243035e-05,1.1061180786526724e-06,1.5262253117070352e-06
128,1.9654546154192503e-06,1.8145878008057775e-06,1.1030421324229007e-06,2.177056447212564e-06,1.591807473907293e-06,2.2506921626338424e-06,2.185205173590926e-06,1.7308365377828072e-06,1.341809637279217e-06,1.0610664582307618e-06,4.011556755510517e-07,2.468577522778389e-06,1.7587540014991937e-06,1.6449988426323213e-05,1.1031818194748455e-06,1.5680828613093358e-06
129,1.9541743018214425e-06,1.8455676189396603e-06,1.091536470788417e-06,2.212530320174345e-06,1.585670218954778e-06,2.251201526186786e-06,2.223819610957933e-06,1.7171062378167506e-06,1.331992786654774e-06,1.010490321533877e-06,4.050673312143586e-07,2.474733950215201e-06,1.7856881034810464e-06,1.6466372729717785e-05,1.1008116567052162e-06,1.6104796624795587e-06
130,1.951423069351279e-06,1.8821897476128033e-06,1.0822974332175307e-06,2.2433835696746965e-06,1.5864808627778852e-06,2.2487508986845216e-06,2.267271808558977e-06,1.7016962605212219e-06,1.323206095179051e-06,9.701954501032477e-07,4.1094903875368924e-07,2.4881248398658434e-06,1.8189472108448466e-06,1.6433976581354663e-05,1.0991640944836397e-06,1.6534085927123722e-06
131,1.9580112491685636e-06,1.9239649278042113e-06,1.075678968629682e-06,2.2692036690202817e-06,1.5940921367805031e-06,2.2439575289596135e-06,2.3151811608670248e-06,1.6851880102203926e-06,1.3162604278607648e-06,9.400387185334402e-07,4.1895793055674856e-07,2.509224282953491e-06,1.8587931252700845e-06,1.6358854162743345e-05,1.0983848874272998e-06,1.696869255844999e-06
132,1.9745504535876154e-06,1.9706169713409914e-06,1.0718520838282604e-06,2.289750800874031e-06,1.6083013464384521e-06,2.2373368600139295e-06,2.36676278779178e-06,1.6681746254558737e-06,1.3118341596093005e-06,9.198262380085301e-07,4.292449599737574e-07,2.5380856027343835e-06,1.905357204626192e-06,1.6249039860410064e-05,1.0985529189232245e-06,1.7407202245519743e-06
133,2.0014138893589386e-06,2.021977330231282e-06,1.0709002803592838e-06,2.304993207774715e-06,1.6290398822179482e-06,2.229053277420796e-06,2.4209247873841394e-06,1.6513408293532207e-06,1.3104627538836238e-06,9.092613595285733e-07,4.4194414302318164e-07,2.574392675177228e-06,1.9585636595960365e-06,1.6114723317145866e-05,1.0996571464763658e-06,1.7847116693459375e-06
134,2.0386514441745914e-06,2.0777200964623217e-06,1.0728931993620095e-06,2.315204534560203e-06,1.6563897487003216e-06,2.2188992247305454e-06,2.4764300451586105e-06,1.6353646754420554e-06,1.3125150093806268e-06,9.079312446026443e-07,4.571613778926575e-07,2.6175673012341174e-06,2.0181137779643336e-06,1.5966251221674156e-05,1.1015964097384547e-06,1.828620124618132e-06
135,2.0859041114589534e-06,2.1371691299115084e-06,1.0778635791680687e-06,2.3208924819774246e-06,1.6903926442448782e-06,2.206335572471745e-06,2.5320067583806136e-06,1.6207669305111457e-06,1.3181309159188316e-06,9.153127921528644e-07,4.7497628839275564e-07,2.6669259450250517e-06,2.0835626582113763e-06,1.581202967117675e-05,1.1042387839208325e-06,1.8722753450399104e-06
136,2.142374724423231e-06,2.1992565328267047e-06,1.0857227687885225e-06,2.3225611451689975e-06,1.730844704460839e-06,2.190508792655717e-06,2.586363853451907e-06,1.6078677127512901e-06,1.3271961739020272e-06,9.307748586586869e-07,4.954871302350703e-07,2.7219529423938874e-06,2.154398327122196e-06,1.565763785162638e-05,1.1075081956957986e-06,1.9155012178703033e-06
137,2.2068888570968863e-06,2.262554016297765e-06,1.096208797463565e-06,2.3205537044121388e-06,1.7772775773274847e-06,2.1703516970757807e-06,2.6381351607906886e-06,1.596814060845121e-06,1.3393990237709416e-06,9.535774895637573e-07,5.189660606182058e-07,2.7824442617027224e-06,2.2301094674514395e-06,1.550581021482093e-05,1.1114329386549802e-06,1.9580718399672184e-06
138,2.2779794707981434e-06,2.3254012664030474e-06,1.1089258188912865e-06,2.315043461852226e-06,1.8290806484190137e-06,2.1448288054792957e-06,2.6857689519614534e-06,1.5875651378642943e-06,1.3543790091495016e-06,9.828697183576169e-07,5.461010697442473e-07,2.8483606013873484e-06,2.3102988779872476e-06,1.5356694179715348e-05,1.1161207539281757e-06,1.999676554566588e-06
139,2.3538986106012607e-06,2.3862195577948225e-06,1.1234489108761803e-06,2.3060322114510803e-06,1.8855489630253477e-06,2.1131628920328395e-06,2.7275212642206277e-06,1.5798297620677585e-06,1.3719010042590938e-06,1.017675255719108e-06,5.78152591524336e-07,2.919742512150515e-06,2.3947855534052743e-06,1.5208155633469707e-05,1.1217080429025627e-06,2.0398724283079347e-06
140,2.4325990121469382e-06,2.443862888481923e-06,1.1393763113540756e-06,2.2933251057139874e-06,1.945795966465973e-06,2.074934238246665e-06,2.7617407391371827e-06,1.573024339407922e-06,1.3919036178118045e-06,1.0568865009147278e-06,6.168929460515141e-07,2.996924758360809e-06,2.48352905328973e-06,1.5056183317112976e-05,1.1283831522800178e-06,2.078091726851393e-06
141,2.5117699667408903e-06,2.49773070728395e-06,1.1562891361086788e-06,2.2765120848305983e-06,2.0086490121144698e-06,2.0301759663488377e-06,2.7872835639928045e-06,1.5662973188506385e-06,1.4143728413463255e-06,1.0993519687422334e-06,6.64414671910982e-07,3.080732442403564e-06,2.5763607251152267e-06,1.489514174828432e-05,1.1364243469634894e-06,2.1137430238347765e-06
142,2.5889216758689955e-06,2.547598502043835e-06,1.173734988353468e-06,2.254996115182776e-06,2.0725887583889333e-06,1.979493256208546e-06,2.8036870263168823e-06,1.558599290447076e-06,1.439161637237237e-06,1.1440666560905416e-06,7.230469385339427e-07,3.1723741151272224e-06,2.6727116279220273e-06,1.4717813308073142e-05,1.1461165413960007e-06,2.1462789448792396e-06
143,2.661543508567475e-06,2.5933828180520093e-06,1.1913018339308286e-06,2.22819441769652e-06,2.135740985918438e-06,1.923997055924308e-06,2.8110014914401444e-06,1.5487694243617508e-06,1.46588288445704e-06,1.1902828228955792e-06,7.954695580154782e-07,3.2731853088886637e-06,2.771487992827181e-06,1.451621479385881e-05,1.157616474027549e-06,2.175188130323969e-06
144,2.727356072706216e-06,2.6350717408515666e-06,1.2087176163899692e-06,2.195890745533758e-06,2.195949831583076e-06,1.8649999655940015e-06,2.8095355368797294e-06,1.5357441075792841e-06,1.493927416572265e-06,1.23741259514386e-06,8.848019055989768e-07,3.3845161663480487e-06,2.8710937681683963e-06,1.4283595467480377e-05,1.170918972235212e-06,2.200063158886243e-06
145,2.784520827550689e-06,2.6728300026578094e-06,1.2258994307621086e-06,2.1584976534973e-06,2.25091868176789e-06,1.8037699636481153e-06,2.7997494178444017e-06,1.518944691360885e-06,1.5226028859872726e-06,1.2848901874797428e-06,9.944754257714097e-07,3.5078253009706714e-06,2.969516507908909e-06,1.4016306388971122e-05,1.185904929702723e-06,2.2207439954765566e-06
146,2.831667723941159e-06,2.707045328745935e-06,1.2429141549877707e-06,2.1170555801542843e-06,2.2983975312510554e-06,1.7415287847015777e-06,2.7822159221552867e-06,1.4985690138449288e-06,1.5512800176096932e-06,1.3321614438968333e-06,1.1280380026599037e-06,3.6447688577102183e-06,3.064448963707646e-06,1.3714372767428764e-05,1.2023515816955582e-06,2.2373160431454064e-06
147,2.8678161792274498e-06,2.7381320415849603e-06,1.259872374786486e-06,2.072997929980168e-06,2.3364476309397428e-06,1.679513778199218e-06,2.757525760392214e-06,1.4754833957842044e-06,1.5794024336920754e-06,1.3787216742240746e-06,1.2890803381865676e-06,3.797103164657764e-06,3.153559787905171e-06,1.3381079475961564e-05,1.2198842723851091e-06,2.2498776110336925e-06
148,2.8923650555020267e-06,2.7662404859000933e-06,1.2768524473278219e-06,2.027823637359114e-06,2.363775283208261e-06,1.6189598068099712e-06,2.726273716803953e-06,1.4508075613385724e-06,1.6064237327863736e-06,1.4241489414180294e-06,1.48120446158327e-06,3.966462003572483e-06,3.2349034711952205e-06,1.3022262383760505e-05,1.2379419205539636e-06,2.258279503759866e-06
149,2.9051250333829597e-06,2.7911721173355335e-06,1.2939180819475807e-06,1.982828825389357e-06,2.3800151174648565e-06,1.5610768678141317e-06,2.6892025753640558e-06,1.4255472188881667e-06,1.6318091017294208e-06,1.468147175866139e-06,1.7079139008740345e-06,4.154119292031718e-06,3.3071720758199426e-06,1.2645252817968417e-05,1.2558042014721982e-06,2.2620490818105938e-06
150,2.9061792532458626e-06,2.812513404858571e-06,1.3111677424189096e-06,1.938986836170149e-06,2.3857989556972002e-06,1.5070643350767215e-06,2.647333473310165e-06,1.4004919177697463e-06,1.6550833881876192e-06,1.5105573409550945e-06,1.972504682676958e-06,4.360771048561174e-06,3.3695581933576086e-06,1.225732068754501e-05,1.272725185461316e-06,2.260506713486717e-06
151,2.895577017442785e-06,2.829713577790905e-06,1.3287262084668948e-06,1.8969356535493204e-06,2.382505304757643e-06,1.4581172101057055e-06,2.6019614614485697e-06,1.376290512058466e-06,1.6759152633185034e-06,1.5513369630930853e-06,2.2780665182154874e-06,4.586469233263284e-06,3.4213473595789073e-06,1.1864256259981998e-05,1.2881737128256252e-06,2.253013672874236e-06
152,2.87318767547984e-06,2.842006344414502e-06,1.346678989799523e-06,1.8569779343592078e-06,2.371799015535228e-06,1.4154042600457201e-06,2.5545277045616574e-06,1.3535012613605216e-06,1.6942400697809675e-06,1.5904828002553643e-06,2.6275515132875925e-06,4.830826343126461e-06,3.461609336224082e-06,1.1469728048269287e-05,1.3019996127125555e-06,2.239276159728453e-06
153,2.8388883277999067e-06,2.848390860448379e-06,1.3650205962602526e-06,1.8191177381339257e-06,2.3553154535356803e-06,1.380021008155329e-06,2.5064018225242366e-06,1.3325843412860572e-06,1.7103130987901966e-06,1.6278930176582658e-06,3.0238007071823216e-06,5.093337558323085e-06,3.4892990240917676e-06,1.1075202752731747e-05,1.3143547877700498e-06,2.2194802734956617e-06
154,2.7928689486496904e-06,2.847810163932107e-06,1.38369470112876e-06,1.7832139299573733e-06,2.3346307535166233e-06,1.3529222009930115e-06,2.458664640162714e-06,1.3139595867585133e-06,1.7246132196293696e-06,1.6633595074691777e-06,3.4694827619992236e-06,5.373602232197738e-06,3.503674481706075e-06,1.0680173182845237e-05,1.3254876697613146e-06,2.1941195459608657e-06
155,2.735809660874905e-06,2.8394045480028844e-06,1.4027438935759322e-06,1.7491911649816886e-06,2.3112417930142093e-06,1.3348518677038203e-06,2.412023165653442e-06,1.2981331818566719e-06,1.7376353572160768e-06,1.6968036571891662e-06,3.966971055753791e-06,5.671392720230134e-06,3.504637757415522e-06,1.0282886559540832e-05,1.3356381209233762e-06,2.163805736889399e-06
156,2.6689228057497898e-06,2.8226899711365373e-06,1.4224578471483915e-06,1.7171298373553718e-06,2.2864451427294634e-06,1.3262985921778683e-06,2.3668554716680893e-06,1.285733230522424e-06,1.7496886362360808e-06,1.7284996325699488e-06,4.518199121035185e-06,5.986611637833693e-06,3.492790714808017e-06,9.881484645575964e-06,1.345045539917528e-06,2.129288633675323e-06
157,2.5939487074352217e-06,2.797631903097683e-06,1.4433548254991825e-06,1.6871542363284552e-06,2.261333659013096e-06,1.3275093941671816e-06,2.323237166569493e-06,1.2773894547340088e-06,1.7608263731310652e-06,1.759000938113426e-06,5.124522597725934e-06,6.319213778604135e-06,3.469308169216552e-06,9.474934297340104e-06,1.3539613851068287e-06,2.0914143530902415e-06
158,2.513096024594343e-06,2.7646297206627897e-06,1.4659862692034985e-06,1.6592679570177736e-06,2.2369251748760965e-06,1.3385702244988435e-06,2.2809302428831757e-06,1.2735841833584274e-06,1.7709765762890329e-06,1.7889106470216422e-06,5.786629887764457e-06,6.6691524091987005e-06,3.4357473151006646e-06,9.063183720163079e-06,1.3626674355459062e-06,2.050885557819347e-06
159,2.4288418029803396e-06,2.724384477079455e-06,1.490737771448241e-06,1.6333100166287672e-06,2.214192603466605e-06,1.3594845616673144e-06,2.239494486239651e-06,1.2746034573686723e-06,1.7802129657526807e-06,1.8187588132605144e-06,6.504545889177908e-06,7.036337421787917e-06,3.393773674165796e-06,8.646641154361916e-06,1.3715133396321626e-06,2.0080947714924206e-06
160,2.3436355548754436e-06,2.6776541568974e-06,1.5177567060430015e-06,1.6089982963923456e-06,2.1939647461706694e-06,1.390172377009569e-06,2.198564600240517e-06,1.2805809382989776e-06,1.788910861660062e-06,1.8489536361361184e-06,7.2776913312078405e-06,7.420618516715998e-06,3.3448239171359924e-06,8.225758542362198e-06,1.380890916402484e-06,1.963186699194591e-06
161,2.259717232880882e-06,2.6250492306756137e-06,1.5469835090363792e-06,1.5859708458037762e-06,2.1768515813542392e-06,1.4304171004191634e-06,2.1581195539165276e-06,1.2915438754532518e-06,1.7976264043647066e-06,1.8797214102532232e-06,8.104854128446861e-06,7.821854717374048e-06,3.2899306724643764e-06,7.801339921732674e-06,1.391131062134595e-06,1.916269052173396e-06
162,2.1791030765377996e-06,2.5670301783729924e-06,1.578189126576535e-06,1.5638542810836822e-06,2.163223800482929e-06,1.4798301356786237e-06,2.118563471114165e-06,1.307415180117372e-06,1.8069354036532094e-06,1.9110845633270185e-06,8.983972427025278e-06,8.239965763988094e-06,3.2298907477130664e-06,7.375191361990787e-06,1.4024138143888386e-06,1.8676373541607062e-06
163,2.1035509811149356e-06,2.5040251938892765e-06,1.6109422051162906e-06,1.5424122589136667e-06,2.153217009545582e-06,1.5378320038457906e-06,2.0806040748300124e-06,1.3280252728861663e-06,1.8174445805046124e-06,1.942896694707202e-06,9.911814769512667e-06,8.674717399970249e-06,3.1656178863681507e-06,6.950231107247041e-06,1.414739186390499e-06,1.8178369771735316e-06
164,2.0344379169029645e-06,2.436450483457291e-06,1.644550362846314e-06,1.521732473569057e-06,2.1467725528965495e-06,1.6036436957782788e-06,2.045051716681624e-06,1.353143172009143e-06,1.8298143794684433e-06,1.974852738525823e-06,1.0883737061038932e-05,9.125209675350675e-06,3.09832791466981e-06,6.5298790037914355e-06,1.4279421239419016e-06,1.7675043481872221e-06
165,1.9726695676061254e-06,2.3646533539958694e-06,1.6780579688743526e-06,1.5023116192743878e-06,2.1436866614855728e-06,1.6763216460277146e-06,2.012636807913516e-06,1.3824461758971684e-06,1.8446796237636375e-06,2.0064000149292657e-06,1.1893568158973874e-05,9.589305773368618e-06,3.029379761220263e-06,6.11737047840791e-06,1.441708117395063e-06,1.717186907678429e-06
166,1.9186761316210783e-06,2.2889688491389185e-06,1.7102958911963606e-06,1.4849198084542678e-06,2.143662713245343e-06,1.754820504897274e-06,1.9838687884656644e-06,1.4154604905888368e-06,1.8625912939926657e-06,2.036617490145762e-06,1.2933472503545279e-05,1.0063198919716848e-05,2.9599802015706204e-06,5.71554524642227e-06,1.4555875119462722e-06,1.6673069569187694e-06
167,1.8724782209877413e-06,2.209835132078309e-06,1.740009761689472e-06,1.4703155306306759e-06,2.146435798449835e-06,1.8380560773608894e-06,1.9590051035516478e-06,1.4515677147616605e-06,1.8840057769945089e-06,2.064188036568654e-06,1.3993647933012923e-05,1.054112987353507e-05,2.891094389998263e-06,5.326984650704619e-06,1.469075742953273e-06,1.6182218213993687e-06
168,1.833848335593749e-06,2.1277757921904008e-06,1.7661023814765348e-06,1.4590218444463927e-06,2.151979206181461e-06,1.925016890565161e-06,1.938180994952901e-06,1.4900347680095224e-06,1.909263525175097e-06,2.087556622103268e-06,1.50619242112484e-05,1.1015173429137671e-05,2.8235917444351336e-06,4.954040496285311e-06,1.4817415286285944e-06,1.5703134386396618e-06
169,1.8025496885597979e-06,2.0432957349609068e-06,1.7878691182635514e-06,1.4512881185796482e-06,2.160656100604189e-06,2.014943532528349e-06,1.921576233936262e-06,1.5300278973845903e-06,1.9385952323997212e-06,2.105312448209952e-06,1.612335925790958e-05,1.1475100409345546e-05,2.7583847522032454e-06,4.598674825057887e-06,1.4932865971060004e-06,1.5240475681930508e-06
170,1.7785131289110798e-06,1.9568296039227e-06,1.8050815086171386e-06,1.4471986643611523e-06,2.173146413114615e-06,2.1074738491128918e-06,1.909487141362821e-06,1.570698823781944e-06,1.972141054114742e-06,2.116586911160482e-06,1.715984716077213e-05,1.1908515808067869e-05,2.6963997116244276e-06,4.26243254518295e-06,1.5035045015294765e-06,1.4799103788163811e-06
171,1.7618577475287385e-06,1.868732466039269e-06,1.8179322771729411e-06,1.4468108600541932e-06,2.190159408246304e-06,2.202602838318056e-06,1.902339509139357e-06,1.6113770184804877e-06,2.009941763460066e-06,2.1211147111486814e-06,1.8150006648073795e-05,1.2301515475829987e-05,2.6384609708690036e-06,3.946576086740633e-06,1.5121881361880598e-06,1.438250962170511e-06
172,1.752805146598371e-06,1.7793343532082975e-06,1.8269447067858242e-06,1.4502102723299647e-06,2.212148723637927e-06,2.3004211211238628e-06,1.9006958087380093e-06,1.6517547456709615e-06,2.0519470213924833e-06,2.118924538861007e-06,1.9069942547395998e-05,1.2639902175967259e-05,2.5852749458477907e-06,3.6520639549390364e-06,1.5190233322932529e-06,1.3991936155686288e-06
173,1.7515571173491828e-06,1.6891253992878753e-06,1.8329034769138865e-06,1.4574504033900434e-06,2.2391769577322844e-06,2.400809647109914e-06,1.9052061182536442e-06,1.691912419331091e-06,2.0979900302933386e-06,2.110020239295231e-06,1.9895161323202652e-05,1.2910745596018562e-05,2.5374734929685083e-06,3.3793429060825937e-06,1.5235382412630734e-06,1.3627083337098474e-06
174,1.7581961798568284e-06,1.5988966740393602e-06,1.8367809998119585e-06,1.4684590108045049e-06,2.2708675208739953e-06,2.5032807984629753e-06,1.9164658683288064e-06,1.7321399389029805e-06,2.147676084774442e-06,2.094390536385975e-06,2.060311543712033e-05,1.3103929914291652e-05,2.495515890524171e-06,3.128239072280313e-06,1.5251815134850183e-06,1.3287494279935482e-06
175,1.772639047881253e-06,1.5096569688534019e-06,1.8396231114242708e-06,1.4829937097302415e-06,2.306372065710866e-06,2.6069862751762808e-06,1.9348532369289458e-06,1.7727223858553245e-06,2.200359872247201e-06,2.0723010355453394e-06,2.1175405981736276e-05,1.3213280520448213e-05,2.4595048717105072e-06,2.898109026950155e-06,1.5234689954597246e-06,1.2973370541693939e-06
176,1.7945986371792137e-06,1.4225060379459087e-06,1.8424099359960515e-06,1.5006440109907597e-06,2.344362340803321e-06,2.7107850523241057e-06,1.9604344598070725e-06,1.8138459040078217e-06,2.2553575373533373e-06,2.0445114937531035e-06,2.1599033522921067e-05,1.323685141086427e-05,2.4291240892407676e-06,2.688174138581029e-06,1.518069684616224e-06,1.2685491369490593e-06
177,1.8235779754051497e-06,1.3386161185323204e-06,1.8459264443272617e-06,1.520888468169689e-06,2.3830588969141972e-06,2.8132400688017316e-06,1.9929689990469338e-06,1.8555381126333217e-06,2.3122157512328774e-06,2.012157415993021e-06,2.1866610849970894e-05,1.3176055549278124e-05,2.4037178314515943e-06,2.497854867316215e-06,1.5088145032570318e-06,1.2424474633484576e-06
178,1.8589687503605032e-06,1.2591763226453273e-06,1.8506753737419573e-06,1.543204748841637e-06,2.4203764062694635e-06,2.9126282431760943e-06,2.032015856924919e-06,1.8975878331528378e-06,2.370733769311768e-06,1.976387545167293e-06,2.1975175074032913e-05,1.3033828796773731e-05,2.3824090757682045e-06,2.3269257208850705e-06,1.4957236022042031e-06,1.2189997628329736e-06
179,1.900201984087484e-06,1.185250522190155e-06,1.856872909764308e-06,1.567117373847419e-06,2.454301592589534e-06,3.0071624445628033e-06,2.0770414268238546e-06,1.939521263999259e-06,2.4307390553791986e-06,1.9380414483271685e-06,2.1923623427783755e-05,1.2813022996103022e-05,2.3641952523521034e-06,2.1754078745421226e-06,1.4790782295007384e-06,1.1980537699192846e-06
180,1.946868481953411e-06,1.1176769778611893e-06,1.8644987463032255e-06,1.5921016005614273e-06,2.4833599131414557e-06,3.095331537013258e-06,2.127376079220032e-06,1.9806104944181114e-06,2.4919198498151e-06,1.8975364609717748e-06,2.1711190279880037e-05,1.2516401203233535e-05,2.3480537077625875e-06,2.0432868687695966e-06,1.4594055317182268e-06,1.1793373856245753e-06
181,1.998792109417191e-06,1.0570437459217253e-06,1.8732967524461217e-06,1.6174381672463574e-06,2.5067735791690316e-06,3.176102776873174e-06,2.182056877295905e-06,2.019892017365351e-06,2.553847985999581e-06,1.8549598074173952e-06,2.13392807039596e-05,1.2148038604713254e-05,2.3330575899550207e-06,1.9302617890653445e-06,1.4372980799615775e-06,1.1624558993405734e-06
182,2.0560200407039675e-06,1.003699633700476e-06,1.8827078507903553e-06,1.642152968970066e-06,2.524227056774141e-06,3.2488797657951307e-06,2.2397138779854358e-06,2.056293136953817e-06,2.616055231172969e-06,1.8102760451009912e-06,2.0814811039796474e-05,1.1714616412081166e-05,2.3183721302155966e-06,1.8356877453416268e-06,1.413218446067168e-06,1.1469324583819305e-06
183,2.1186961761239436e-06,9.57803053060536e-07,1.8918375585028525e-06,1.6650432008887673e-06,2.5356914663750504e-06,3.313247197111667e-06,2.2985814592694735e-06,2.0888377941959673e-06,2.6781061316988587e-06,1.7634729676021216e-06,2.0151705421389143e-05,1.1225660221211006e-05,2.3031309345304554e-06,1.7586973938670595e-06,1.3874686600095093e-06,1.1323613520345574e-06
184,2.1868655784398164e-06,9.194026870151325e-07,1.8995656770815819e-06,1.684753340892949e-06,2.541572005216954e-06,3.3686904242104335e-06,2.3567176108257923e-06,2.1167174568805215e-06,2.73971725276382e-06,1.7145421110429584e-06,1.936982146515072e-05,1.0692912665026573e-05,2.2863943732441217e-06,1.6983438013661152e-06,1.3602921865792627e-06,1.1186466715101766e-06
185,2.2603284416764785e-06,8.884839650422282e-07,1.9048023372633174e-06,1.6999732240464673e-06,2.5428347987725727e-06,3.4145761079667307e-06,2.4124292925736153e-06,2.139165958523324e-06,2.800884697106294e-06,1.663413701975699e-06,1.8492522352445327e-05,1.0129412822422972e-05,2.2672701778239517e-06,1.6536464609840955e-06,1.331933694867147e-06,1.1061489513985795e-06
186,2.3386462005753054e-06,8.649367097887801e-07,1.9067391527764014e-06,1.7097491352593024e-06,2.5407886072371105e-06,3.450402309480421e-06,2.4646309497673145e-06,2.1553822624224915e-06,2.8619420978636596e-06,1.6099349607605536e-06,1.7544189573570773e-05,9.548653057924692e-06,2.2451170013936065e-06,1.6235691424444821e-06,1.3025756132767555e-06,1.0955969792214893e-06
187,2.421235419996938e-06,8.484922649375841e-07,1.9049336836643865e-06,1.713650621837439e-06,2.5366573235492027e-06,3.4760108465944185e-06,2.5128346174566893e-06,2.1647313051495883e-06,2.9234956796851287e-06,1.5538888860188151e-06,1.654832969813299e-05,8.963927735297739e-06,2.2197164212481072e-06,1.6070102892622263e-06,1.2722561132230685e-06,1.087842896304192e-06
188,2.5073558134096637e-06,8.387049910646359e-07,1.899238476632018e-06,1.7116194549833372e-06,2.5312733211295278e-06,3.4916010554124664e-06,2.556799917789737e-06,2.1671138863368745e-06,2.9862174916968755e-06,1.495194973345269e-06,1.552626579547822e-05,8.387905556211254e-06,2.1912974991142106e-06,1.602782799349209e-06,1.2408952026019575e-06,1.0836546087699758e-06
189,2.5959500191268994e-06,8.349997602584785e-07,1.889701773436602e-06,1.7037173629681906e-06,2.5250608349588203e-06,3.497603251070266e-06,2.5961617427789926e-06,2.1631691793892184e-06,3.0506101776185132e-06,1.4343078587752241e-06,1.4496292584828628e-05,7.832420808494135e-06,2.1604423891456812e-06,1.6095450372222034e-06,1.2084111705525145e-06,1.0836319095709154e-06
190,2.685498781131396e-06,8.367474349783518e-07,1.8764975523754077e-06,1.6900242751849687e-06,2.518210102874113e-06,3.4944290905184865e-06,2.6302947757738877e-06,2.154108520022875e-06,3.116868963970015e-06,1.3724184494969325e-06,1.347337432654952e-05,7.308355867405054e-06,2.1279842841952614e-06,1.625779428887712e-06,1.174821030799849e-06,1.0881830362021994e-06
191,2.774061173090741e-06,8.433323339322898e-07,1.859834940020588e-06,1.670617572932794e-06,2.5108198375123012e-06,3.482162175683257e-06,2.6583785547271957e-06,2.1413001175520224e-06,3.1848214269438408e-06,1.3111994313700848e-06,1.2469357741350619e-05,6.825473706435315e-06,2.094873720076884e-06,1.6498603298920623e-06,1.1402555532102422e-06,1.0974984479112292e-06
192,2.8595227303421572e-06,8.542024581355104e-07,1.8398666435679665e-06,1.6455673123942686e-06,2.50289896700701e-06,3.460412975092649e-06,2.6795033620296543e-06,2.125904457165492e-06,3.2539597984113986e-06,1.2524196042634334e-06,1.1493433011766912e-05,6.392251605027897e-06,2.0619897742152915e-06,1.6801639048790791e-06,1.1049143992381427e-06,1.1115406388918928e-06
193,2.939879180704663e-06,8.688722323821779e-07,1.8167190974167127e-06,1.6150057760402626e-06,2.494387760925671e-06,3.4284807427062236e-06,2.6928178102627775e-06,2.1087238850295017e-06,3.3235755186178688e-06,1.1977758975560908e-06,1.0552613499345882e-05,6.015849383032839e-06,2.030026010791833e-06,1.7152211974440725e-06,1.0690465156376376e-06,1.1300620381900993e-06
194,3.0133647272848338e-06,8.868799440803542e-07,1.7906267369609005e-06,1.5791547809519855e-06,2.485401570510596e-06,3.3857505973649726e-06,2.697780318278873e-06,2.0902000740162575e-06,3.392853109445433e-06,1.1488641330829497e-06,9.652158975240844e-06,5.702186439464796e-06,1.999538714309218e-06,1.7537902202966324e-06,1.0329846500464533e-06,1.1526259762446047e-06
195,3.0784392567499894e-06,9.077482304515138e-07,1.7619996482296442e-06,1.5382391996055118e-06,2.476545366204093e-06,3.332168861687238e-06,2.6944013391714766e-06,2.070434294463305e-06,3.460925158073572e-06,1.1071515743406246e-06,8.795926575931839e-06,5.455998828803224e-06,1.9710728268772965e-06,1.7947201498745298e-06,9.971833121716097e-07,1.1786543955709617e-06
196,3.1337711177218213e-06,9.309596931252366e-07,1.731361783947925e-06,1.492488172918121e-06,2.468965704895607e-06,3.268576830369718e-06,2.6832763372905436e-06,2.0491747791693557e-06,3.527090182924023e-06,1.073988464508478e-06,7.986636479831152e-06,5.280880229374738e-06,1.9452361526157623e-06,1.8368024690173069e-06,9.622358362798108e-07,1.207543047698624e-06
197,3.178286774696621e-06,9.559479657834875e-07,1.6992542616827195e-06,1.4423184039457736e-06,2.4640701353510723e-06,3.196702802930989e-06,2.665370085100213e-06,2.0258343234684747e-06,3.5912072816681325e-06,1.0506802314196592e-06,7.226033151222836e-06,5.179427810831744e-06,1.922656971027313e-06,1.8788378048071843e-06,9.288884501274166e-07,1.2387942582498892e-06
198,3.2112614800861577e-06,9.821296303990404e-07,1.6662115455361914e-06,1.3884939633626014e-06,2.463119724172469e-06,3.1188502612479704e-06,2.6417163823147748e-06,1.9996272756107936e-06,3.6539382310912883e-06,1.0385388710542069e-06,6.51495722972929e-06,5.153481269718371e-06,1.9038366745815982e-06,1.9198189650052638e-06,8.980402284251125e-07,1.272076058153292e-06
199,3.2323252004897327e-06,1.00898809152488e-06,1.632827578314559e-06,1.3320650549844814e-06,2.466925466322667e-06,3.0374947874742122e-06,2.6132080548384496e-06,1.9697805035742213e-06,3.7165084378531e-06,1.0388424069747918e-06,5.853415656898372e-06,5.204289246430534e-06,1.8889977166042168e-06,1.9589776200033842e-06,8.707229588257152e-07,1.307190523581757e-06
200,3.2412745348640587e-06,1.0361269611722899e-06,1.5997981225851211e-06,1.274140279797597e-06,2.475753397291125e-06,2.954936301473046e-06,2.580488736408505e-06,1.935681282615946e-06,3.78015773014025e-06,1.0527793717364982e-06,5.2407370406346955e-06,5.332476067331705e-06,1.8780229775887723e-06,1.995636085804198e-06,8.480699661151282e-07,1.3440165339939602e-06
201,3.2378775269860547e-06,1.0631964271060116e-06,1.567853763575435e-06,1.2157120702037936e-06,2.489449608297493e-06,2.8730435679894103e-06,2.543901382930713e-06,1.8969030910766926e-06,3.845744695903539e-06,1.0814968336465402e-06,4.67580340768998e-06,5.537838105972572e-06,1.8704841176445917e-06,2.0290923533999934e-06,8.31243530770388e-07,1.3825072027453642e-06
202,3.2219548641558845e-06,1.0897883371340714e-06,1.537724133806697e-06,1.1576587886508192e-06,2.507740345192586e-06,2.7931181889115268e-06,2.50357452055798e-06,1.8531870713461194e-06,3.913661509584919e-06,1.1261833954036958e-06,4.157255027995086e-06,5.819169847994422e-06,1.8657747402932969e-06,2.058735629230958e-06,8.213322153915361e-07,1.422733410439932e-06
203,3.193620428272791e-06,1.1154807005148605e-06,1.5102366495287328e-06,1.1008296918499708e-06,2.5305540278706103e-06,2.715946460547024e-06,2.459678816209938e-06,1.804468941961032e-06,3.983877727547329e-06,1.1880361171976413e-06,3.683558367384078e-06,6.1742784651333675e-06,1.8633568312041907e-06,2.0842460240166882e-06,8.192945416604925e-07,1.464862371248191e-06
204,3.1533986677838147e-06,1.140007636093539e-06,1.4863639165840674e-06,1.046064583731833e-06,2.558155650855166e-06,2.6420623870143162e-06,2.4126630160090208e-06,1.7509365733035387e-06,4.055938756592816e-06,1.268132813290571e-06,3.252954002790475e-06,6.6000957587975796e-06,1.8629531059034926e-06,2.105653138657069e-06,8.259639830177515e-07,1.5090362932684998e-06
205,3.1022254648959023e-06,1.1633444909252803e-06,1.467101139707716e-06,9.9413487930157e-07,2.591013891883358e-06,2.5720870140139947e-06,2.363321117477086e-06,1.6930592749064447e-06,4.129040825613205e-06,1.3673311294044754e-06,2.8634360861384524e-06,7.0927542926611955e-06,1.8644993841378137e-06,2.1232982526200244e-06,8.420803733557787e-07,1.5552561236508905e-06
206,3.041417582516354e-06,1.1856050245601824e-06,1.4533078333039345e-06,9.456989850822371e-07,2.6295890934434255e-06,2.5069559846677295e-06,2.312756113363756e-06,1.6315487105152843e-06,4.202376605302881e-06,1.4862359669143406e-06,2.51284453500867e-06,7.647700276362278e-06,1.8679172657020207e-06,2.1378062706602103e-06,8.683428248582952e-07,1.6033600365444074e-06
207,2.972536265769245e-06,1.2068988415428755e-06,1.4456126696912861e-06,9.013084823771684e-07,2.6742983650746683e-06,2.447993366768347e-06,2.2623076730999263e-06,1.5672363906208966e-06,4.275575793211488e-06,1.625241046429793e-06,2.198966270826138e-06,8.259992484237937e-06,1.8729646439676943e-06,2.1500066758692577e-06,9.054510558107193e-07,1.6531254996912165e-06
208,2.8971458036775662e-06,1.2273074246493405e-06,1.444370419653846e-06,8.614086384070006e-07,2.7255813755567053e-06,2.396891627401263e-06,2.213397735411903e-06,1.5009613228448762e-06,4.348907614041534e-06,1.7846418257457859e-06,1.919515802516298e-06,8.924742720973261e-06,1.879349535093925e-06,2.160795306996418e-06,9.54068397818085e-07,1.7044302449694925e-06
209,2.8166788362409016e-06,1.2469298568024686e-06,1.4496563239171598e-06,8.263135965412313e-07,2.7837983948926946e-06,2.355596074670669e-06,2.1672962640091734e-06,1.433595856524937e-06,4.423178387578174e-06,1.9647497522969626e-06,1.6720428932813756e-06,9.637444445478892e-06,1.8870221830536437e-06,2.1710690758866622e-06,1.0147457654233506e-06,1.7572831160801743e-06
210,2.7325465205758366e-06,1.2659001158960083e-06,1.4612789738456486e-06,7.962204285494424e-07,2.8489813245196646e-06,2.3260787315926614e-06,2.1249640895893347e-06,1.3661193143730878e-06,4.4994985013830895e-06,2.1659460198203663e-06,1.4539633473736249e-06,1.0394023953374234e-05,1.8963621026737649e-06,2.1817137605945953e-06,1.0879383324365774e-06,1.8116803859191464e-06
211,2.6463376431398873e-06,1.2843540048236817e-06,1.4788035927763415e-06,7.712935150059994e-07,2.92066344195643e-06,2.3101225872855018e-06,2.087106135691107e-06,1.299562869388611e-06,4.579017368538388e-06,2.3886722388614977e-06,1.2627594435792538e-06,1.1190717390276452e-05,1.9080848577930905e-06,2.1935197767178088e-06,1.1741519482392088e-06,1.86751555703719e-06
212,2.5598407786564416e-06,1.3023485020858665e-06,1.5016070373798993e-06,7.517435081647324e-07,2.9978958649748116e-06,2.3092730289495676e-06,2.0543803392412097e-06,1.2349052066912973e-06,4.662619928728661e-06,2.6333415806129832e-06,1.096141687033724e-06,1.2023954001200748e-05,1.922995496618591e-06,2.20711959004897e-06,1.2741107700053538e-06,1.924704794879639e-06
213,2.4748401420801244e-06,1.3197859661191684e-06,1.5289684380853171e-06,7.378158116201419e-07,3.079466372241325e-06,2.3248979891983834e-06,2.0276024473430347e-06,1.1730818092541967e-06,4.750796514233001e-06,2.900162641076909e-06,9.520128719700012e-07,1.2890239276705117e-05,1.941810568019815e-06,2.2230255533644008e-06,1.3888048940120797e-06,1.9834197236642026e-06
214,2.392931167724371e-06,1.3363983642173629e-06,1.5601274428974065e-06,7.297063367577769e-07,3.164242822667155e-06,2.3581611518919303e-06,2.00780049850266e-06,1.1150356257895705e-06,4.8438608152622805e-06,3.1889367121727437e-06,8.283251041297638e-07,1.37858773155676e-05,1.9650815521882887e-06,2.2415830287758327e-06,1.519376317703774e-06,2.044227297636576e-06
215,2.3155486190231807e-06,1.3517840261198742e-06,1.5942475853315163e-06,7.274882244367716e-07,3.251420070322738e-06,2.4098875903182126e-06,1.99606866538627e-06,1.0616718847230248e-06,4.9422189072140985e-06,3.498899314342064e-06,7.230292596610133e-07,1.4706488603169408e-05,1.9931780910087736e-06,2.262815097442715e-06,1.6669498124126812e-06,2.1080348703146436e-06
216,2.244046051424779e-06,1.3654926460078333e-06,1.630389492446034e-06,7.311028007567374e-07,3.3405327223301996e-06,2.4804785978367262e-06,1.9933260798274647e-06,1.0137481465583958e-06,5.046380077152318e-06,3.828622973089978e-06,6.341707791430848e-07,1.564643036368824e-05,2.0263568055156636e-06,2.2864178615010506e-06,1.832555281126431e-06,2.175882598063949e-06
217,2.1796311789384613e-06,1.3771394899812564e-06,1.6676091796402526e-06,7.404056867917117e-07,3.431317935761522e-06,2.569988092894085e-06,2.0001589719553853e-06,9.718058694641194e-07,5.156812589286368e-06,4.175955688034442e-06,5.600095119703978e-07,1.659817574856692e-05,2.0648322010880647e-06,2.311976890228005e-06,2.0171590503311287e-06,2.248714532571921e-06
218,2.123248870848807e-06,1.3865108879078897e-06,1.7050624007587685e-06,7.552118342360422e-07,3.5235414219444515e-06,2.6783182715278287e-06,2.0168000036464695e-06,9.361838323904147e-07,5.2738153913831865e-06,4.537984807829421e-06,4.990753777863131e-07,1.755173392633641e-05,2.108708710367332e-06,2.339246255369389e-06,2.221680829578157e-06,2.327278517280784e-06
219,2.0755366450272128e-06,1.3936676090875883e-06,1.7419842318099055e-06,7.752837035895449e-07,3.616780430850826e-06,2.8053680267071888e-06,2.043149074897004e-06,9.070752282944684e-07,5.397406854005354e-06,4.911011309686888e-06,4.5014351929620275e-07,1.8494284031567444e-05,2.157871850786728e-06,2.368347352646591e-06,2.446948661447432e-06,2.4122208601244866e-06
220,2.0368567734793276e-06,1.3990067998503966e-06,1.7776286098011168e-06,8.002855556119059e-07,3.7101789245250464e-06,2.9510058896139764e-06,2.0787890986442956e-06,8.845832382720896e-07,5.527206369051442e-06,5.290456504736439e-06,4.121431154238015e-07,1.9409946835815098e-05,2.212062461365109e-06,2.399735559095949e-06,2.6937194767260064e-06,2.5042288896142088e-06
221,2.0073958326345507e-06,1.403171524159323e-06,1.811276703104575e-06,8.297956127293627e-07,3.8023801793073734e-06,3.1148835044603386e-06,2.123017162858811e-06,8.68776073186688e-07,5.6622898135069824e-06,5.670692387201342e-06,3.8409450580915155e-07,2.0279456076388756e-05,2.2711190195586447e-06,2.4339390928298933e-06,2.9628113047407377e-06,2.6040018145202993e-06
222,1.987237250406669e-06,1.4068260030922675e-06,1.8422681476554151e-06,8.634020411592779e-07,3.891821529036378e-06,3.296198089649172e-06,2.1748819143308947e-06,8.597243878742373e-07,5.801053208214293e-06,6.044899277343348e-06,3.6513613453996985e-07,2.1080103996672823e-05,2.3351431154611223e-06,2.4713701016847076e-06,3.2551703420345585e-06,2.712049887723653e-06
223,1.976300189181896e-06,1.4104879845369275e-06,1.8699526783181663e-06,9.007797550735528e-07,3.977248717576192e-06,3.4935256929312044e-06,2.2332460393389117e-06,8.574766349123809e-07,5.941242779511569e-06,6.405056206870851e-06,3.5457257750756984e-07,2.178692790579029e-05,2.40443119332239e-06,2.512366955263208e-06,3.5717454237857867e-06,2.8285224093928263e-06
224,1.974215031721369e-06,1.4145226365367838e-06,1.893595269774444e-06,9.416477892951919e-07,4.058117663881237e-06,3.704753133619112e-06,2.296872599552647e-06,8.620107759994778e-07,6.080188386138843e-06,6.742318090456411e-06,3.518817865847202e-07,2.2375525425079356e-05,2.4792315936860917e-06,2.557294227082938e-06,3.91326490072859e-06,2.953212452184466e-06
225,1.9802357988727253e-06,1.4191801146089262e-06,1.9123972508714716e-06,9.856474545394407e-07,4.134686674047524e-06,3.927061925287906e-06,2.364463934099006e-06,8.732309602016766e-07,6.2151246313344765e-06,7.0480315125897705e-06,3.566963831713165e-07,2.282570168730089e-05,2.5594786843043046e-06,2.6065750418387224e-06,4.280014780470676e-06,3.085706672659543e-06
226,1.993193478771171e-06,1.4245618394995174e-06,1.925684736638979e-06,1.0322635891206696e-06,4.207808169484743e-06,4.157004486364333e-06,2.4346440296565927e-06,8.909752436912951e-07,6.3435896268592954e-06,7.315010533822585e-06,3.6876631935714295e-07,2.3124496289570066e-05,2.6446736700036074e-06,2.660655761926248e-06,4.671608953995195e-06,3.2255290369494297e-06
227,2.0115112528765727e-06,1.4305984476698954e-06,1.9331445484587878e-06,1.0808660610649885e-06,4.278521325085493e-06,4.390721233918072e-06,2.5059605070353478e-06,9.149786645303156e-07,6.463838611336861e-06,7.5382615241471145e-06,3.879009973741629e-07,2.3267220933071238e-05,2.7340519864994965e-06,2.719880880256339e-06,5.086796757071839e-06,3.3721182706653663e-06
228,2.0333295947244458e-06,1.4371465624708043e-06,1.934993785833358e-06,1.1308701762392308e-06,4.347642096436743e-06,4.624209542862137e-06,2.576986062924655e-06,9.448184032098836e-07,6.574981936638556e-06,7.714872866773599e-06,4.139246415200545e-07,2.3255768349207172e-05,2.8269584564834786e-06,2.784358054526485e-06,5.523369592103113e-06,3.5246094905486084e-06
229,2.0567162242921257e-06,1.4441254578860399e-06,1.9319830762143416e-06,1.1819346242140087e-06,4.415630770715445e-06,4.8535603324224036e-06,2.646544815164129e-06,9.798789292765855e-07,6.676609851696792e-06,7.843477586921248e-06,4.466602464884691e-07,2.3094915462647677e-05,2.9230807100599235e-06,2.8539376469110024e-06,5.978116545583477e-06,3.681577732923986e-06
230,2.0798665775951706e-06,1.451551960127379e-06,1.9251760683884512e-06,1.23405211989628e-06,4.482760954802477e-06,5.0751651363188705e-06,2.713951859955279e-06,1.0193478896541814e-06,6.7680992413169425e-06,7.9236563894606e-06,4.859097886395594e-07,2.2789365467937405e-05,3.0222825945541336e-06,2.928229715982024e-06,6.446754203669544e-06,3.840897824569584e-06
231,2.1012328890402303e-06,1.4594633202338655e-06,1.915694732245477e-06,1.2874400254600852e-06,4.549285368651395e-06,5.285879155269665e-06,2.779065634681131e-06,1.0622822279558417e-06,6.848300423543862e-06,7.955276207049593e-06,5.314195252366334e-07,2.2344006568204346e-05,3.1242138451113465e-06,3.006576575428474e-06,6.923794809400188e-06,3.999713407780813e-06
232,2.1195899639740783e-06,1.467833324470535e-06,1.9046806882543746e-06,1.3423144912088444e-06,4.615432726522415e-06,5.4831499287528165e-06,2.842076901473656e-06,1.1077582094193187e-06,6.916033423073309e-06,7.938000213885793e-06,5.828564673539051e-07,2.176650950090752e-05,3.228078980119875e-06,3.0880803039420505e-06,7.402357970086794e-06,4.154458029434047e-06
233,2.134058990122176e-06,1.4765890085651975e-06,1.8933851284580015e-06,1.398743591971334e-06,4.6813247629926525e-06,5.665178070295485e-06,2.903166302630261e-06,1.155001925479991e-06,6.970836316879894e-06,7.871645459390453e-06,6.397993501477671e-07,2.1069488774239382e-05,3.3326773102052767e-06,3.171679206172744e-06,7.874002663382286e-06,4.3009394929600994e-06
234,2.14409020625476e-06,1.4857454573243957e-06,1.8831319791370183e-06,1.4566732904360812e-06,4.746884020439869e-06,5.831022901319133e-06,2.962256312683754e-06,1.2033749036829914e-06,7.013182175758607e-06,7.757381022140067e-06,7.017208411594322e-07,2.0270872654737958e-05,3.436521372927959e-06,3.2561214695753974e-06,8.3287033655203e-06,4.434517708752956e-06
235,2.1493647494141454e-06,1.4955532764312669e-06,1.8751515827195327e-06,1.5160296734150651e-06,4.8117620319911194e-06,5.980347980334654e-06,3.0189731385863666e-06,1.2522368589645043e-06,7.044135534318455e-06,7.598638955386919e-06,7.679682342047942e-07,1.939276783794059e-05,3.537834762521529e-06,3.339857561568866e-06,8.755036600369931e-06,4.550339464386192e-06
236,2.149618421381427e-06,1.5065105695927482e-06,1.8704825474977268e-06,1.5767394550938764e-06,4.87528779314789e-06,6.112771372672147e-06,3.0727011292451483e-06,1.3008343693429037e-06,7.064969431875144e-06,7.400867223455838e-06,8.377722494369144e-07,1.845954976043723e-05,3.6344297050594765e-06,3.4210476360548123e-06,9.14058243193711e-06,4.643582140024227e-06
237,2.1445982350909318e-06,1.5191992289578432e-06,1.8699928627505292e-06,1.6386406495314035e-06,4.9363612997058895e-06,6.227410991944098e-06,3.1225892080260338e-06,1.3483034153334545e-06,7.07711254249128e-06,7.17046288769854e-06,9.1027787163216e-07,1.7495874780360482e-05,3.723729727594037e-06,3.497778674286414e-06,9.472693350862874e-06,4.70981535174588e-06
238,2.1343013734460304e-06,1.5340655118917944e-06,1.874379310557497e-06,1.701430855465283e-06,4.9933812101319615e-06,6.323098919375271e-06,3.1675857504873973e-06,1.3937616094086702e-06,7.082283655595773e-06,6.913757603785717e-06,9.845875804927205e-07,1.6525076539233127e-05,3.8031729670102277e-06,3.568396033947708e-06,9.739837538837491e-06,4.7456427163645175e-06
239,2.1192350885967684e-06,1.551311340538345e-06,1.8840796177628893e-06,1.7647463833199727e-06,5.04446242134334e-06,6.398954690293809e-06,3.2066482208670678e-06,1.4364374901852636e-06,7.082426619667516e-06,6.636503079475767e-06,1.0598286147945764e-06,1.556806823105578e-05,3.870807240795923e-06,3.631771258455915e-06,9.933223398512467e-06,4.749411644656614e-06
240,2.1004219192180236e-06,1.570963796549048e-06,1.8991767477963037e-06,1.828235214892175e-06,5.087885098007676e-06,6.454822397796196e-06,3.2390922788486412e-06,1.4757368087167961e-06,7.079303249491695e-06,6.3436798287798124e-06,1.1351901293681762e-06,1.4642676376683777e-05,3.9256717212415736e-06,3.6873211154376707e-06,1.0047762136181378e-05,4.721360775999356e-06
241,2.079240322287492e-06,1.593038500894649e-06,1.9193462183957843e-06,1.8914859443414537e-06,5.122388253910133e-06,6.491384544777374e-06,3.264832753606699e-06,1.5111970154336257e-06,7.073936904873676e-06,6.039371160085828e-06,1.2098585629074023e-06,1.3763368526257762e-05,3.967761762308633e-06,3.7347347789756686e-06,1.0081518600637982e-05,4.662928720366146e-06
242,2.057257719349269e-06,1.617622732178735e-06,1.9438319263912372e-06,1.9539164817574673e-06,5.147062606729841e-06,6.509840590191698e-06,3.2842586761733166e-06,1.5424951465432154e-06,7.066271781905656e-06,5.7268627428209705e-06,1.2829299930208765e-06,1.2941370907492915e-05,3.9976211545524535e-06,3.7737290718009095e-06,1.003415837116932e-05,4.575909717621219e-06
243,2.0360588713923815e-06,1.6447796297002498e-06,1.971453841175493e-06,2.0148081576796635e-06,5.160934475348311e-06,6.51124132028571e-06,3.2978185238436143e-06,1.5696071571794026e-06,7.055306669567413e-06,5.4091278233824195e-06,1.3534264956095125e-06,1.2184971883630017e-05,4.015816245954118e-06,3.8042035116121982e-06,9.90626691332099e-06,4.462278023664396e-06
244,2.017069243436309e-06,1.6743690826719664e-06,2.000687498546446e-06,2.073481542681967e-06,5.162669291242192e-06,6.496084097902425e-06,3.3057377493663057e-06,1.5929157602000548e-06,7.0395666172654295e-06,5.0893076635628975e-06,1.420366550616223e-06,1.1499688528448479e-05,4.0227467123132214e-06,3.826603227458061e-06,9.700313752013924e-06,4.324535936794149e-06
245,2.0014471316550872e-06,1.7059493815549086e-06,2.0298581210650266e-06,2.1294236916831147e-06,5.150877461339481e-06,6.464628152979305e-06,3.30807861227747e-06,1.6131006558107901e-06,7.017525239269579e-06,4.770717983218797e-06,1.4827587327583687e-06,1.0888279973193278e-05,4.019037818597369e-06,3.842008595222203e-06,9.421801869306595e-06,4.165934061937641e-06
246,1.990084778073957e-06,1.7387810300478336e-06,2.0573915284278247e-06,2.182228714557216e-06,5.124887092451439e-06,6.4174603395754405e-06,3.304856204076782e-06,1.6308934813357246e-06,6.987768963846527e-06,4.456449549200617e-06,1.5395432432800345e-06,1.0350859338574367e-05,4.006065732815349e-06,3.8519136907411824e-06,9.07934046335046e-06,3.990346753545049e-06
247,1.983657935654806e-06,1.7718503527234373e-06,2.08193662942593e-06,2.231469031356305e-06,5.085193822008875e-06,6.355544514965455e-06,3.2959472385025384e-06,1.6468471621506681e-06,6.949075140379837e-06,4.148980321064561e-06,1.589623687457662e-06,9.885208834481174e-06,3.9859417623666745e-06,3.857963047786408e-06,8.683884625742437e-06,3.8019830858912736e-06
248,1.982628081885202e-06,1.8039110748287103e-06,2.102289972736798e-06,2.2767035085115712e-06,5.033088347765398e-06,6.279677862115496e-06,3.280998441953268e-06,1.6612254933525393e-06,6.900685322673361e-06,3.850147517067802e-06,1.6320231495947518e-06,9.487160839017107e-06,3.960935142432447e-06,3.8617124707853405e-06,8.247653309069722e-06,3.6051067602401224e-06
249,1.9871909497876952e-06,1.8336320630967918e-06,2.1173098807500564e-06,2.317582861575359e-06,4.969852381129329e-06,6.1899587888477055e-06,3.259643351137676e-06,1.674072028237271e-06,6.842707546180813e-06,3.561515841851925e-06,1.6660379270788525e-06,9.150820589014211e-06,3.9328774382848205e-06,3.864376037069136e-06,7.782949182129479e-06,3.40381632668918e-06
250,1.9973064687143064e-06,1.8598919177367622e-06,2.1259905235650892e-06,2.3538909076370634e-06,4.896338841275757e-06,6.085893953833611e-06,3.2319350793328067e-06,1.685410358173842e-06,6.776324855392818e-06,3.284801803765632e-06,1.6912708105674443e-06,8.868558051924096e-06,3.902954687850903e-06,3.86669945132835e-06,7.301162485028913e-06,3.201883388277598e-06
251,2.01289835720724e-06,1.8820821746570622e-06,2.1275923811565706e-06,2.3855450342559225e-06,4.813321474076264e-06,5.967172466357768e-06,3.1986799904590504e-06,1.6953825424313785e-06,6.703706007786109e-06,3.0219719545257548e-06,1.707541150954571e-06,8.631018550460597e-06,3.871866552338504e-06,3.869034882832146e-06,6.812236365385179e-06,3.002629500394797e-06
252,2.0340666757735855e-06,1.9001424895789893e-06,2.1216300383311624e-06,2.4126629908587707e-06,4.722231789113523e-06,5.834557300391955e-06,3.1614891599252504e-06,1.704207442078139e-06,6.627734445410958e-06,2.7749931098046055e-06,1.7147204408389655e-06,8.42749696755771e-06,3.840039499756857e-06,3.871408221747716e-06,6.324583899572819e-06,2.808818177275207e-06
253,2.061090133589505e-06,1.9142734721501992e-06,2.1077933604397643e-06,2.435654570496546e-06,4.625608777040927e-06,5.690370269194757e-06,3.1225148000663283e-06,1.7121309228505075e-06,6.551578765669414e-06,2.5454972851075548e-06,1.7125641017155733e-06,8.246768232244457e-06,3.8077005491353416e-06,3.873508691820347e-06,5.845217028884028e-06,2.6225953948179455e-06
254,2.0942128431411503e-06,1.9246513010682965e-06,2.086064338728422e-06,2.4551656258632464e-06,4.526902135560582e-06,5.538444930423177e-06,3.0839802172547957e-06,1.7194923947903653e-06,6.478088581771043e-06,2.334576931053976e-06,1.7006820742704702e-06,8.07821711235039e-06,3.775042510102109e-06,3.8747910170083954e-06,5.379898019014311e-06,2.44553773762167e-06
255,2.1334089641383286e-06,1.9313415112034814e-06,2.0569617010043405e-06,2.471800230155057e-06,4.429791572383736e-06,5.383702702079279e-06,3.047745530866337e-06,1.726722030099336e-06,6.4091928989517566e-06,2.142744120302672e-06,1.6787325138282204e-06,7.912985558122787e-06,3.7426095564975365e-06,3.8746763289646e-06,4.933244977656653e-06,2.2787921218735483e-06
256,2.1782926220673002e-06,1.9342283509095183e-06,2.0215585988778177e-06,2.4858151706829247e-06,4.337560678825384e-06,5.231584138704262e-06,3.0151144738433768e-06,1.7341837741658955e-06,6.345583180844606e-06,1.969981941742787e-06,1.6466863054951867e-06,7.74477206408619e-06,3.711520627496339e-06,3.872682227586886e-06,4.5087679996206985e-06,2.123202647700514e-06
257,2.228163806885422e-06,1.9329075912694626e-06,1.98121621574501e-06,2.497060652154887e-06,4.252867408792583e-06,5.087516667510391e-06,2.9868928273820234e-06,1.7420356163868732e-06,6.286805237887987e-06,1.8158110930820177e-06,1.604938363415229e-06,7.5700408549963154e-06,3.683287161943399e-06,3.868494958840299e-06,4.1088936913317505e-06,1.979338510048554e-06
258,2.2820716598466856e-06,1.9268094109514026e-06,1.9373118333498798e-06,2.5051764784564607e-06,4.177727935433461e-06,4.956478766126997e-06,2.963571291615021e-06,1.7502233046251764e-06,6.231729467158756e-06,1.6793434276782062e-06,1.5542396295288037e-06,7.387732101881734e-06,3.6594315390550968e-06,3.862043084512574e-06,3.735097080614544e-06,1.8474835904223671e-06
259,2.338836721764987e-06,1.915626374288876e-06,1.891106792119636e-06,2.5097722513607415e-06,4.113531166084974e-06,4.842657293743435e-06,2.945532882806049e-06,1.7586137958719848e-06,6.179317826534785e-06,1.559356481316208e-06,1.4956015783813977e-06,7.1987317822125135e-06,3.6411307026194953e-06,3.853443847640963e-06,3.3881610828675973e-06,1.7276787200476396e-06
260,2.3970774685732726e-06,1.899682467828629e-06,1.8436859879747053e-06,2.5103962221272004e-06,4.061198359765107e-06,4.749235556491655e-06,2.9332382397480377e-06,1.76718093707158e-06,6.129367545154264e-06,1.4544273955637163e-06,1.4302935726147482e-06,7.005243235854786e-06,3.628996201564469e-06,3.842689927330875e-06,3.0684387814264774e-06,1.6197781668990794e-06
261,2.455299386564697e-06,1.8798792764455963e-06,1.7959841818094602e-06,2.5064558112702784e-06,4.02145234653152e-06,4.678369928172066e-06,2.927324224698704e-06,1.7760532124693659e-06,6.082708135346548e-06,1.363085751589779e-06,1.35986818313864e-06,6.810119720772767e-06,3.6230056272536953e-06,3.829237332974589e-06,2.7760061418473674e-06,1.523511921422423e-06
262,2.512050635277093e-06,1.8573244740719904e-06,1.7489237631073667e-06,2.4973508591786297e-06,3.994891855465133e-06,4.631341727814022e-06,2.9285486481291813e-06,1.7853904577947277e-06,6.040709601431067e-06,1.283893107841958e-06,1.2860666472411489e-06,6.616262669423355e-06,3.622490195881496e-06,3.811771253410917e-06,2.510726239888977e-06,1.4386166135557649e-06
263,2.5660764909798332e-06,1.833020485433246e-06,1.7034774220921372e-06,2.482782845098688e-06,3.981799519145508e-06,4.608794904434024e-06,2.937580457524148e-06,1.7952890213466348e-06,6.004536283887324e-06,1.2154641826345358e-06,1.2106358729168793e-06,6.426115016214425e-06,3.6261221901695283e-06,3.788267168098364e-06,2.2722732462901956e-06,1.364939679650885e-06
264,2.616324300027095e-06,1.8077584910714067e-06,1.6605345997582487e-06,2.463036495256626e-06,3.982037925860122e-06,4.610950801012061e-06,2.95473962941662e-06,1.805782846824271e-06,5.974605590994303e-06,1.1565669213372854e-06,1.1352167728168811e-06,6.2412118475439755e-06,3.6319355770722753e-06,3.7563616253889467e-06,2.0601112198190704e-06,1.3023743217612672e-06
265,2.661749280243555e-06,1.7821319537545734e-06,1.620720259796064e-06,2.4390900080744866e-06,3.9952384485413405e-06,4.6377046860512835e-06,2.979838830511879e-06,1.8167868550135847e-06,5.950398745470122e-06,1.10626282545876e-06,1.0613281583268232e-06,6.061937845332734e-06,3.637414982122179e-06,3.7139185869001085e-06,1.8734638006791924e-06,1.2507233446027666e-06
266,2.7011756079137734e-06,1.75663745910658e-06,1.5843341828805224e-06,2.412452564050212e-06,4.020966790293527e-06,4.688576543524474e-06,3.0121587007417864e-06,1.8279565071889659e-06,5.930634705822607e-06,1.0638594614193888e-06,9.90374019143972e-07,5.887694111255996e-06,3.6397292912909246e-06,3.6595341535198817e-06,1.711318661083318e-06,1.209646258231876e-06
267,2.733417562622379e-06,1.73182747424325e-06,1.551435216308221e-06,2.384769600483381e-06,4.058560862287254e-06,4.762600017803582e-06,3.0504784515929224e-06,1.8386187880054225e-06,5.913692973389383e-06,1.028705187397353e-06,9.236476978218485e-07,5.717402887677079e-06,3.6362681091209504e-06,3.5928352115368762e-06,1.572423145204896e-06,1.178649014420121e-06
268,2.757482296737285e-06,1.7083785919900134e-06,1.522013576150007e-06,2.3574403468598783e-06,4.10680053516458e-06,4.858248404447717e-06,3.0931510385154305e-06,1.8478210120852963e-06,5.8979678120275004e-06,1.0000960567349468e-06,8.623266543714446e-07,5.5500747523646675e-06,3.6253142127876383e-06,3.514550006169105e-06,1.4552527065701123e-06,1.1570521130254908e-06
269,2.772695593322595e-06,1.686997863093804e-06,1.4961781330842069e-06,2.331451686821212e-06,4.163762558902892e-06,4.9734090804530445e-06,3.1382247116438694e-06,1.8543918377324822e-06,5.881975183473491e-06,9.773256393141369e-07,8.074787086349184e-07,5.38514955963903e-06,3.606265431860288e-06,3.4262606709601135e-06,1.3580048956663253e-06,1.14397958637188e-06
270,2.7788168808268132e-06,1.6682422910722176e-06,1.4742847392234245e-06,2.3073805578591656e-06,4.227017737998223e-06,5.1054105371350694e-06,3.183563839936037e-06,1.857013663946242e-06,5.8643660356679505e-06,9.597066451244937e-07,7.601542606773917e-07,5.222494071613838e-06,3.5793807521749018e-06,3.3299627681303015e-06,1.2786107982222743e-06,1.138382624852654e-06
271,2.7761201257465e-06,1.6523867480983827e-06,1.4569282585297266e-06,2.2854221028783635e-06,4.294077659589327e-06,5.251182818430174e-06,3.227002768057524e-06,1.8544598752130748e-06,5.843962587345916e-06,9.466180999368482e-07,7.215913107373769e-07,5.0622740558319975e-06,3.545750246625844e-06,3.2278663955166573e-06,1.2147568278389349e-06,1.1390444297918588e-06
272,2.7653165572612934e-06,1.6393998841049719e-06,1.4447834926280059e-06,2.2654713442730516e-06,4.362925249273398e-06,5.407618694865602e-06,3.2665908029769437e-06,1.8460175772002656e-06,5.81975290524056e-06,9.377254363627966e-07,6.93395469468723e-07,4.905003856833714e-06,3.50753294483178e-06,3.1224397323285968e-06,1.1640196352222983e-06,1.1445930584048045e-06
273,2.7473487941751335e-06,1.6289872033058524e-06,1.4384125100505652e-06,2.247293337795322e-06,4.432456507074921e-06,5.572059004493548e-06,3.3008451375706024e-06,1.8318507154917204e-06,5.790835903751272e-06,9.331688554899655e-07,6.775267372884326e-07,4.751732705632538e-06,3.467741092762953e-06,3.01621860842236e-06,1.124120465647005e-06,1.1536268772659222e-06
274,2.7232441259133115e-06,1.6206713561663173e-06,1.4381509506187421e-06,2.230618506987604e-06,4.502588443099881e-06,5.74267533352391e-06,3.328827548556344e-06,1.8130159246941187e-06,5.756280516436523e-06,9.334494385392975e-07,6.761595887771792e-07,4.604072216128564e-06,3.4295132698835842e-06,2.9114003396604573e-06,1.0930920977398462e-06,1.1649071091713121e-06
275,2.6941037835528406e-06,1.6139196842772643e-06,1.4440588527985336e-06,2.215142763010759e-06,4.573858524855352e-06,5.9185294479156764e-06,3.349930687905553e-06,1.791102370025924e-06,5.714819731571843e-06,9.391838540175367e-07,6.916338105371985e-07,4.464002268077255e-06,3.3955714901560542e-06,2.8096845786858067e-06,1.0692254700707356e-06,1.1774354778762367e-06
276,2.661068103727915e-06,1.6082898405700613e-06,1.455896101772222e-06,2.2005934056209622e-06,4.646719312106535e-06,6.099232348280445e-06,3.3635397571343887e-06,1.7677679421544876e-06,5.664685026129767e-06,9.510486002576837e-07,7.265547164961132e-07,4.3336903224169816e-06,3.368181917544958e-06,2.712411053523961e-06,1.0509434231238513e-06,1.1904062005350096e-06
277,2.6251598028038613e-06,1.6035069942029907e-06,1.4731206103311278e-06,2.1867799209126517e-06,4.721048448050927e-06,6.284348579950087e-06,3.3690136329438846e-06,1.744436887387951e-06,5.603916679284273e-06,9.69873157481484e-07,7.838802774637033e-07,4.215446161539598e-06,3.3493272303762475e-06,2.6207219221993842e-06,1.0367889966095993e-06,1.2031556195326696e-06
278,2.5871878772238377e-06,1.5994071868654556e-06,1.4949304255348844e-06,2.173483194114626e-06,4.796139594999819e-06,6.473021831638545e-06,3.366158201647755e-06,1.7221880606364132e-06,5.530841485568051e-06,9.966391021321285e-07,8.668574298309844e-07,4.11170299273605e-06,3.340748850604835e-06,2.535655084384774e-06,1.0254911362013973e-06,1.2151256652580203e-06
279,2.5478518847181443e-06,1.5958270515646792e-06,1.5203695523009283e-06,2.160323798053307e-06,4.8709703915952925e-06,6.664223489389561e-06,3.355725290553172e-06,1.7017469455207968e-06,5.444338662145615e-06,1.0324157815142757e-06,9.789224407587776e-07,4.024920769561691e-06,3.3437996417347498e-06,2.458169589207011e-06,1.0160089148422902e-06,1.2258859112703986e-06
280,2.507893267799697e-06,1.5926234212119407e-06,1.5484704417708452e-06,2.1468219016125734e-06,4.944550591115246e-06,6.857312182419745e-06,3.3394082841205215e-06,1.6835208892747802e-06,5.343973079084843e-06,1.0783872582787703e-06,1.1236997555879366e-06,3.9573798501942975e-06,3.359271154384303e-06,2.3890624935098252e-06,1.007572123227923e-06,1.2352737496723472e-06
281,2.4680809223691265e-06,1.5898309107009387e-06,1.57836479552211e-06,2.1326482625000007e-06,5.01633594157564e-06,7.052258870937712e-06,3.3193566353417073e-06,1.6676522542493343e-06,5.230128523216877e-06,1.1358694844236823e-06,1.3049826615507765e-06,3.910895901638191e-06,3.3873425457220886e-06,2.328835433142768e-06,9.997181034221596e-07,1.2434936768719556e-06
282,2.4290088049447205e-06,1.5877277604720207e-06,1.6092954257416646e-06,2.1178649822006404e-06,5.086588702024066e-06,7.2493848312838765e-06,3.297600243322837e-06,1.6540997678215939e-06,5.104123088543673e-06,1.2062182599576962e-06,1.5265915360089683e-06,3.886611999883556e-06,3.4277073195462945e-06,2.2776913195645074e-06,9.922449345823048e-07,1.2510265202480875e-06
283,2.3908797073980623e-06,1.586694187603562e-06,1.6405141571517049e-06,2.1029437915854695e-06,5.1564617905349625e-06,7.448957041194603e-06,3.2756764068500357e-06,1.6427586246095848e-06,4.968246598288513e-06,1.2907293511750693e-06,1.7922042785702169e-06,3.88499765339724e-06,3.4798354687497864e-06,2.235728256469541e-06,9.850666645644777e-07,1.2584373264635718e-06
284,2.353448835850674e-06,1.5870284159025164e-06,1.6711339643700854e-06,2.0885355857317253e-06,5.227714834794963e-06,7.650987036148049e-06,3.254496888796851e-06,1.6335689913191925e-06,4.825643836342316e-06,1.390583409100012e-06,2.1052566125314655e-06,3.9059899974036565e-06,3.543113305570241e-06,2.203113092318297e-06,9.781045357155438e-07,1.2662178374348954e-06
285,2.316135679980587e-06,1.5888598050302458e-06,1.700053430627699e-06,2.075167391758632e-06,5.302188537823032e-06,7.855257531099172e-06,3.2343540792973063e-06,1.6265404532297508e-06,4.679991680665692e-06,1.5068202734015259e-06,2.4688969543193144e-06,3.9491644665649395e-06,3.6167091781660783e-06,2.1800285623069024e-06,9.71324417732713e-07,1.2747047523567588e-06
286,2.27821776828124e-06,1.5921347872563338e-06,1.7260084412217804e-06,2.063082196071908e-06,5.381308257467631e-06,8.061311839824241e-06,3.214966051396893e-06,1.6216968532885744e-06,4.535022236462041e-06,1.640346878026984e-06,2.8859596949597295e-06,4.0139123559024745e-06,3.6994820997880895e-06,2.166565888757997e-06,9.648297464620325e-07,1.2840614691226127e-06
287,2.2390506685077646e-06,1.5966647334838584e-06,1.7476841885944135e-06,2.0522944648323976e-06,5.465846269838549e-06,8.268174520367275e-06,3.195599343855685e-06,1.6190148112326898e-06,4.394067064228074e-06,1.7919819281042213e-06,3.358992811925595e-06,4.099629765717243e-06,3.790163993844918e-06,2.1627815597189103e-06,9.58877805814702e-07,1.29428870132757e-06
288,2.198315965484483e-06,1.6022384066941802e-06,1.7638316273216377e-06,2.042740005800801e-06,5.5559105613130466e-06,8.473856446905423e-06,3.175420516080186e-06,1.6184020010662164e-06,4.259793623143123e-06,1.9626403352011982e-06,3.89034385097419e-06,4.205900390181926e-06,3.8874864621061195e-06,2.1687818800932022e-06,9.53813465056959e-07,1.305219806799069e-06
289,2.1562350184741245e-06,1.6087548442296406e-06,1.7734270713433233e-06,2.0343547367342074e-06,5.650920519393718e-06,8.674954424169548e-06,3.154007871786288e-06,1.6197105448234014e-06,4.134143657307169e-06,2.153730430893708e-06,4.482209315023322e-06,4.332622972005076e-06,3.990042684786351e-06,2.1846538213831766e-06,9.49973128326855e-07,1.3164893101475438e-06
290,2.1135547566127692e-06,1.6162982382757243e-06,1.77589368757668e-06,2.0270505765224875e-06,5.749512674345194e-06,8.866713298941164e-06,3.1316565258888274e-06,1.6227539484123528e-06,4.018372744982996e-06,2.3675268737218882e-06,5.136582051369813e-06,4.479993046702824e-06,4.096218999222165e-06,2.21029148233722e-06,9.476222871939623e-07,1.327498358495118e-06
291,2.071233781539994e-06,1.6250799977543562e-06,1.7713075769791945e-06,2.020680228401367e-06,5.849556982143004e-06,9.043615549867679e-06,3.109245419901613e-06,1.6272807582549456e-06,3.913138769618113e-06,2.6071796111513902e-06,5.855070931468998e-06,4.648289762473637e-06,4.2043962660960854e-06,2.2452511771246284e-06,9.469497015970444e-07,1.337412191179904e-06
292,2.0300854316708184e-06,1.6353260568768416e-06,1.760469797401251e-06,2.0150877771395034e-06,5.948267076334686e-06,9.20008576962013e-06,3.0878232571642734e-06,1.6329212355154311e-06,3.818597007787219e-06,2.876324834959794e-06,6.6385957696861175e-06,4.837529001238743e-06,4.313180189033108e-06,2.288711560484338e-06,9.480562267151097e-07,1.3452677795507404e-06
293,1.990667213458969e-06,1.6472576493597432e-06,1.7447581773776228e-06,2.0102715084099534e-06,6.042189952632125e-06,9.33087258291547e-06,3.0681985835889854e-06,1.6391806553951448e-06,3.7344214800614956e-06,3.178600279295932e-06,7.487089809344968e-06,5.0470898890428925e-06,4.421444264905181e-06,2.339542537562755e-06,9.509153068376408e-07,1.350255758270473e-06
294,1.9533453938198176e-06,1.6611027214624631e-06,1.7258027637971654e-06,2.006590983519786e-06,6.127127076137506e-06,9.431162206691241e-06,3.050664792704867e-06,1.6454734298096958e-06,3.6598225030517542e-06,3.5173726912198653e-06,8.399324776587507e-06,5.275412465234693e-06,4.528141839342753e-06,2.3964795154201688e-06,9.553786509705721e-07,1.3520410926086985e-06
295,1.9182896260970134e-06,1.6770002123998918e-06,1.7052028628203114e-06,2.004883286474468e-06,6.198322323329801e-06,9.49681615583031e-06,3.034869940807974e-06,1.6512008757234058e-06,3.593690141731881e-06,3.895665069232696e-06,9.372728807605369e-06,5.519840239067677e-06,4.631969700393256e-06,2.4583341050601874e-06,9.612636656693308e-07,1.3508463046816162e-06
296,1.8854005851227047e-06,1.694884841340659e-06,1.6844329596494663e-06,2.00639278306109e-06,6.251087141495686e-06,9.524900899704321e-06,3.0198647511568983e-06,1.6559511093825579e-06,3.5347187048261145e-06,4.316063542857658e-06,1.040303974059743e-05,5.776619960146968e-06,4.731222922133431e-06,2.524054084064004e-06,9.684364186197838e-07,1.347220163024128e-06
297,1.8543264890545718e-06,1.714535428189018e-06,1.6648217891092891e-06,2.012557419333552e-06,6.281611106988143e-06,9.514205275526743e-06,3.0043721796330127e-06,1.659716010585854e-06,3.4813698254418454e-06,4.780537626832631e-06,1.1483895638707186e-05,6.040967608526485e-06,4.824050979423028e-06,2.5925475125067202e-06,9.767875081168833e-07,1.3417262093819904e-06
298,1.8245820312507332e-06,1.735784587878048e-06,1.6474948344629732e-06,2.0247710719190048e-06,6.287522691209762e-06,9.465249658993892e-06,2.987149153382942e-06,1.662898747895787e-06,3.4319170332586004e-06,5.290250716487815e-06,1.2606514952154212e-05,6.3071008944737305e-06,4.908793625458374e-06,2.662414321093185e-06,9.861559130486659e-07,1.3348316447897986e-06
299,1.7956744065453534e-06,1.7587052134851919e-06,1.6333431654864331e-06,2.0442025682166357e-06,6.267974654064691e-06,9.379507300086951e-06,2.9671341110223813e-06,1.666159391206313e-06,3.384782645457287e-06,5.8453829786570255e-06,1.3759437131204806e-05,6.568316275039355e-06,4.984060102357567e-06,2.731772497869042e-06,9.96326240913404e-07,1.3270133917816468e-06
300,1.7671652349700658e-06,1.7835985779261742e-06,1.623043406690035e-06,2.0717129664126548e-06,6.223253209671965e-06,9.258142223745346e-06,2.9433288548884653e-06,1.6703468857845542e-06,3.33897891530228e-06,6.44499649139699e-06,1.4928229149196732e-05,6.817272648677421e-06,5.048579965304561e-06,2.798216686997876e-06,1.0070765918132193e-06,1.3188610527400346e-06
301,1.7386767804578724e-06,1.8107893637944495e-06,1.6170906438048407e-06,2.1078482286469413e-06,6.15403534227885e-06,9.101165337596006e-06,2.91477539177355e-06,1.6765649457355104e-06,3.2944031031192526e-06,7.087008423359565e-06,1.609514138738028e-05,7.046533434247451e-06,5.100913212771968e-06,2.8588670861618787e-06,1.0181745113869698e-06,1.311065132941177e-06
302,1.709926801649164e-06,1.8404220994454767e-06,1.6158650506241647e-06,2.1528198848165098e-06,6.060728404414357e-06,8.907632425090132e-06,2.8808240527355884e-06,1.68617087931739e-06,3.251876021479783e-06,7.76822377106035e-06,1.7238791550562712e-05,7.2492339415497855e-06,5.139123284923392e-06,2.9105507816831903e-06,1.0293215768475754e-06,1.3043954319179751e-06
303,1.6808329093946948e-06,1.8723992902259969e-06,1.6197164072176212e-06,2.2064490692129934e-06,5.943436289183843e-06,8.676589671868759e-06,2.8414261974853063e-06,1.7005808361324518e-06,3.212880752760022e-06,8.484262023549226e-06,1.8333990457129987e-05,7.4194591973739125e-06,5.160773209813562e-06,2.9501921207009515e-06,1.0401406424134995e-06,1.299712766662618e-06
304,1.6516017865196834e-06,1.9063940267211393e-06,1.628969278208291e-06,2.268123299801055e-06,5.802546521612816e-06,8.40812188293139e-06,2.7971551923614664e-06,1.7210192385267882e-06,3.1791673051429303e-06,9.229289680967394e-06,1.935204414223889e-05,7.5519527826650055e-06,5.163520039956411e-06,2.9753208934118274e-06,1.0502505479392236e-06,1.2979185214800261e-06
305,1.6227053464595006e-06,1.9418487623962325e-06,1.643826383092237e-06,2.336831471886161e-06,5.639424744898506e-06,8.104094963134657e-06,2.7489769798286793e-06,1.7484011151676147e-06,3.1525095474724185e-06,9.995672662159033e-06,2.026229323389359e-05,7.64156352358279e-06,5.145870017064164e-06,2.9843289404819168e-06,1.0593611800582953e-06,1.2998476806821931e-06
306,1.5947541446536554e-06,1.9779613180808565e-06,1.664271657693447e-06,2.411335475884423e-06,5.456808887660081e-06,7.768462698382193e-06,2.69800224985955e-06,1.7833329559814454e-06,3.134618682498765e-06,1.077371875958426e-05,2.103541774813704e-05,7.683488450665281e-06,5.107341453456874e-06,2.9763019343191356e-06,1.0672880864619598e-06,1.3062008969030315e-06
307,1.5683370018885595e-06,2.0136617937151517e-06,1.6900471891203967e-06,2.4904257818882446e-06,5.2587846935300645e-06,7.407169695177635e-06,2.645365168121274e-06,1.8261217376447657e-06,3.127008926892653e-06,1.155151769391164e-05,2.164768448893223e-05,7.674561289605406e-06,5.048111480421862e-06,2.9509838214697986e-06,1.0738657189211237e-06,1.317514595848839e-06
308,1.5438758099428902e-06,2.047604993797913e-06,1.7206673405817486e-06,2.573079271670638e-06,5.050414390044155e-06,7.027668881347316e-06,2.5921603645924455e-06,1.876781539840296e-06,3.130825562907288e-06,1.231482749546157e-05,2.208377093354572e-05,7.614399257187929e-06,4.968970298767241e-06,2.909254128658375e-06,1.0788841749619477e-06,1.3341496194136222e-06
309,1.5215431207219142e-06,2.0782762301787354e-06,1.7554363971816407e-06,2.658387885792627e-06,4.837203446126726e-06,6.638090063087003e-06,2.5393493188406806e-06,1.9350544366181534e-06,3.1467701740947933e-06,1.304721077753284e-05,2.233586144467958e-05,7.5051634473518454e-06,4.871712333297018e-06,2.853479569001902e-06,1.0821862246763808e-06,1.3563192197139336e-06
310,1.5012892538257817e-06,2.1042765457067074e-06,1.7934804618625716e-06,2.7453193315732216e-06,4.624556435774032e-06,6.246293646941508e-06,2.48768406627495e-06,2.000405073907635e-06,3.1750640588771663e-06,1.3730837759310121e-05,2.239996848593539e-05,7.350155664590958e-06,4.759193357540662e-06,2.7871779336652966e-06,1.0838575226007816e-06,1.3841113705056217e-06
311,1.4829444684639616e-06,2.1246733620960187e-06,1.8337535303582313e-06,2.8324785005899554e-06,4.417306104789653e-06,5.859186983145077e-06,2.43770228601442e-06,2.0719849851918046e-06,3.2153701383991216e-06,1.4348067498056312e-05,2.227407101504277e-05,7.152800096282549e-06,4.634767037376471e-06,2.714296699621122e-06,1.0843052677687767e-06,1.4174553180313617e-06
312,1.4662937819028893e-06,2.1391666806199765e-06,1.8749780034156702e-06,2.9179865943837145e-06,4.219430857427095e-06,5.482507261120258e-06,2.3897322691215113e-06,2.148619622997666e-06,3.2667586531476942e-06,1.4883285237962991e-05,2.1960424887494786e-05,6.916906654626739e-06,4.501642693575329e-06,2.638612232069211e-06,1.0841359592460449e-06,1.456095090241075e-06
313,1.4511062124176913e-06,2.1479300923811035e-06,1.9155925016580634e-06,2.999514597794945e-06,4.034045808756566e-06,5.120902816539519e-06,2.3438630551140585e-06,2.2288454861729482e-06,3.3277871221400406e-06,1.5324261446360405e-05,2.14688436763808e-05,6.647377062714302e-06,4.362580728385098e-06,2.563429001791889e-06,1.0839479301074687e-06,1.4996314891715604e-06
314,1.4371893128572701e-06,2.1512520156401927e-06,1.953779278297357e-06,3.0743870160509038e-06,3.86357309611812e-06,4.778014138747379e-06,2.2999710570919924e-06,2.3109996695825824e-06,3.3966632090727253e-06,1.5662678636814387e-05,2.0817372497364907e-05,6.350372036835508e-06,4.21980726156048e-06,2.4914997223634392e-06,1.0842085892093737e-06,1.547565688881269e-06
315,1.4244433812125235e-06,2.1492217858249383e-06,1.9875423827194624e-06,3.1396240304016754e-06,3.7098899593262232e-06,4.4564761650193075e-06,2.257874814921985e-06,2.3933740636810038e-06,3.4714128901803705e-06,1.5893749675531097e-05,2.003025586405573e-05,6.032948391717236e-06,4.0749578700755585e-06,2.425065199094337e-06,1.0852441619714255e-06,1.599274561437635e-06
316,1.4128235149529678e-06,2.141616986190372e-06,2.014848038235837e-06,3.192070921184234e-06,3.574367857780426e-06,4.1579410069924096e-06,2.2175009873607024e-06,2.474417075234269e-06,3.54998369184961e-06,1.6014845193227972e-05,1.913473045437774e-05,5.7024936095855226e-06,3.929104527095641e-06,2.3659375755398155e-06,1.0872567356038322e-06,1.6539826980090115e-06
317,1.4022930883723165e-06,2.1280691188477224e-06,2.0339017706375723e-06,3.2288758918884033e-06,3.4578566660860396e-06,3.883198486620308e-06,2.178899100453815e-06,2.5528987162588797e-06,3.630356567563699e-06,1.6023857424425275e-05,1.815790610234523e-05,5.3661533319171975e-06,3.78288732579805e-06,2.315534809220673e-06,1.0903515807209244e-06,1.7108310326686755e-06
318,1.3929128142290296e-06,2.1084737111427317e-06,2.0435065014112563e-06,3.2481293676421994e-06,3.3606517507673817e-06,3.6324510852033517e-06,2.1421123684258634e-06,2.6279495394697044e-06,3.7108504669503227e-06,1.5919226698485316e-05,1.7124488693786875e-05,5.030390597620685e-06,3.6365918738060286e-06,2.2748675306408594e-06,1.094590526536616e-06,1.7690217051484641e-06
319,1.3849713134297753e-06,2.083378377632175e-06,2.043281855567859e-06,3.2492148271435275e-06,3.2824598364326876e-06,3.405696224529734e-06,2.107024906227808e-06,2.6989759323550566e-06,3.790584655210423e-06,1.5702196242368137e-05,1.6055735492086703e-05,4.700759272367054e-06,3.490171643838013e-06,2.2445373275922745e-06,1.1000143205944006e-06,1.8279281405620908e-06
320,1.3789883700824921e-06,2.0540308375876466e-06,2.0335510093430364e-06,3.232713715102759e-06,3.222426557785845e-06,3.2029416188951015e-06,2.0732888934596335e-06,2.7655579740082514e-06,3.869716653821902e-06,1.537897524766245e-05,1.4969508087781134e-05,4.381893524803324e-06,3.3434337989364403e-06,2.2247366073822316e-06,1.1066437563853583e-06,1.8871250830704443e-06
321,1.3756075598786067e-06,2.0220567220152953e-06,2.0149576660703e-06,3.200028053377225e-06,3.1792363996334277e-06,3.024092658484816e-06,2.040383760541694e-06,2.827434484593798e-06,3.9491137449249e-06,1.4960722125825237e-05,1.3880758756516138e-05,4.077640029426021e-06,3.19640352084313e-06,2.2152389688681413e-06,1.1145360448480784e-06,1.946390617938726e-06
322,1.3754700699881064e-06,1.9890491505057428e-06,1.98816665765999e-06,3.1529296413167994e-06,3.1512296539714294e-06,2.8688025362447072e-06,2.0077587865422737e-06,2.8845505683050455e-06,4.029626873406658e-06,1.4461870752109286e-05,1.2801984198949733e-05,3.7911898969873554e-06,3.049606331128141e-06,2.215404585136943e-06,1.123826491802015e-06,2.0056792068311497e-06
323,1.379122594831931e-06,1.9563401947722862e-06,1.9538945779748788e-06,3.0931351226291814e-06,3.1365247804325213e-06,2.7365535327714545e-06,1.974952204077777e-06,2.9370401638542184e-06,4.111482765291862e-06,1.38983573668547e-05,1.1743650027003082e-05,3.525101643933283e-06,2.9040848848944597e-06,2.224240100483644e-06,1.1346495891273661e-06,2.065006133862171e-06
324,1.3869873989532414e-06,1.924974910698035e-06,1.9130943674495377e-06,3.0219677622629438e-06,3.1331083945366207e-06,2.6267457673041093e-06,1.9416280840459147e-06,2.985100104650795e-06,4.194033122655692e-06,1.3286429144483524e-05,1.071457091125708e-05,3.2812815282729146e-06,2.7611691816459285e-06,2.240504010131302e-06,1.1470238587682592e-06,2.124303781585866e-06
325,1.3993516572895783e-06,1.8957819349265274e-06,1.8669972879023727e-06,2.940233537150779e-06,3.1388284644833715e-06,2.5385751388930408e-06,1.907524764256105e-06,3.0288703011825293e-06,4.275767465876747e-06,1.264175038066849e-05,9.722140035494149e-06,3.0610304521937104e-06,2.622145944234595e-06,2.2627834704170567e-06,1.160838676930027e-06,2.1833372278400796e-06
326,1.4163067285643805e-06,1.869445340370842e-06,1.8169578776387e-06,2.8484154740423747e-06,3.1514204605439024e-06,2.4709242703547006e-06,1.8723556596653732e-06,3.0684198295191287e-06,4.354530506677277e-06,1.1978498117432045e-05,8.772453982879232e-06,2.8651139442359267e-06,2.488015311643428e-06,2.2896218823325507e-06,1.1759306524448344e-06,2.2416087584150458e-06
327,1.4376674663905635e-06,1.8464985487540298e-06,1.7642855142496127e-06,2.7471117943265483e-06,3.1688088101881646e-06,2.4224726412124205e-06,1.8357448314797685e-06,3.103747611047589e-06,4.427832314118693e-06,1.1308720287834606e-05,7.870431525814918e-06,2.6937791686686327e-06,2.3594168318642514e-06,2.3197412874448756e-06,1.192153581091464e-06,2.298215477564001e-06
328,1.462947127557725e-06,1.827255876904691e-06,1.7102358847528436e-06,2.6374639180024817e-06,3.1896153550668426e-06,2.3918371447233176e-06,1.797275514374041e-06,3.1346663562042846e-06,4.49306457746869e-06,1.0642385251001193e-05,7.019917308606047e-06,2.546766937792018e-06,2.2367059958202205e-06,2.3520997237073583e-06,1.2093839717921566e-06,2.3517935178762363e-06
