,EMG1,EMG2,EMG3,EMG4,EMG5,EMG6,EMG7,EMG8,EMG9,EMG10,EMG11,EMG12,EMG13,EMG14,EMG15,EMG16
0,3.059247045959096e-07,1.9855888918792246e-07,2.679189071205036e-07,2.129321802945097e-07,1.4157152347044166e-07,1.2483760727495934e-07,3.577136197610871e-07,4.21312780362703e-07,2.736162214658049e-07,2.2252181924563786e-06,2.1741216713368095e-07,6.408846372537803e-07,5.965783906740843e-07,1.910023164610234e-06,2.754859856146348e-06,9.245389911711737e-07
1,4.6845007338719077e-07,3.132635960243541e-07,4.0003603838453147e-07,3.0526982275192414e-07,2.963463010770334e-07,3.241905969432796e-07,4.690399267297049e-07,5.174038312916047e-07,4.358223133850138e-07,2.6509300841062444e-06,2.528223387074967e-07,7.7683707613545e-07,7.422145490274361e-07,3.1097605273018367e-06,3.629446684351069e-06,1.329712345647876e-06
2,6.29434781037945e-07,4.2402945670879527e-07,5.253995981971683e-07,3.975387451848142e-07,4.4704545295736544e-07,5.15888394498158e-07,5.829540082504943e-07,6.126464148157362e-07,5.997241117345182e-07,3.080968982809791e-06,2.897505739267812e-07,9.215850515077065e-07,8.871678120429639e-07,4.25807741967285e-06,4.487727583403952e-06,1.7228197197633346e-06
3,7.874506291502075e-07,5.298739994517624e-07,6.436218146430691e-07,4.882776305774452e-07,5.930912227425266e-07,6.97785171969693e-07,6.973426328783154e-07,7.053094063805556e-07,7.636092942718777e-07,3.51012205455232e-06,3.277070314877915e-07,1.073830256184193e-06,1.0282804011032926e-06,5.304249117811473e-06,5.324995900004508e-06,2.10177342418888e-06
4,9.413283688742337e-07,6.299360814663485e-07,7.54234584840278e-07,5.761456567699643e-07,7.340629296539709e-07,8.682791796454687e-07,8.103247103464704e-07,7.938368865137238e-07,9.264668995264214e-07,3.933581136084694e-06,3.6621707369680745e-07,1.2322808163170418e-06,1.1630126872051837e-06,6.214089016688086e-06,6.135607400379105e-06,2.4642857282990413e-06
5,1.0901500016588779e-06,7.235662483818117e-07,8.566786106436856e-07,6.601033140001408e-07,8.696870145871515e-07,1.0261133900229428e-06,9.204337407224939e-07,8.770368797449684e-07,1.0876994290930778e-06,4.346831018885359e-06,4.0487790633160285e-07,1.395739939877971e-06,1.289814873287026e-06,6.972582072833669e-06,6.912806748150164e-06,2.8077262217375454e-06
6,1.2330819890267788e-06,8.103865844696944e-07,9.503022394792913e-07,7.395003139256168e-07,9.997554560312777e-07,1.17010650666863e-06,1.0266995443140562e-06,9.542061489913119e-07,1.2468464135161046e-06,4.7457656330816935e-06,4.433694545353229e-07,1.5632592684295319e-06,1.4082782246088644e-06,7.580440117653943e-06,7.648694010048806e-06,3.12897930487345e-06
7,1.3692433943209169e-06,8.902417798911007e-07,1.0343630555783023e-06,8.139467859999102e-07,1.1241094472481117e-06,1.2990805612686228e-06,1.1285387288823986e-06,1.0251344315706417e-06,1.4035200805920976e-06,5.1266407574632174e-06,4.81425697883971e-07,1.7341822210485043e-06,1.5189044989111817e-06,8.047529275732562e-06,8.334438279184504e-06,3.4244273960640074e-06
8,1.4976916245512414e-06,9.630594495037495e-07,1.108085881007632e-06,8.831246296514981e-07,1.2427682335669963e-06,1.412073198765975e-06,1.2255188308315056e-06,1.0899901509872273e-06,1.5573992768411762e-06,5.485595986077535e-06,5.188313121383915e-07,1.9079991477231304e-06,1.6226102673879043e-06,8.3873079352103e-06,8.960721667998905e-06,3.6901620942565165e-06
9,1.6174196527260892e-06,1.0287810299844694e-06,1.1708229415729822e-06,9.466936087923887e-07,1.3561254462170041e-06,1.508645116098881e-06,1.3171634863068616e-06,1.1491255194443328e-06,1.7082122975212806e-06,5.818107810766126e-06,5.554179282644006e-07,2.084154331419749e-06,1.7202868429043853e-06,8.613827383229985e-06,9.518304415423258e-06,3.922390151945731e-06
10,1.7273809555592804e-06,1.08744996025527e-06,1.2222616970528286e-06,1.0042722812088034e-06,1.4650595636036498e-06,1.5889838332321618e-06,1.4028685666778219e-06,1.2029230972928487e-06,1.855719889197777e-06,6.118855619291796e-06,5.910091825037842e-07,2.2619220451800704e-06,1.8126406931871548e-06,8.740435054683404e-06,9.99868870175125e-06,4.117895912343949e-06
11,1.8266549127864849e-06,1.1393235810820313e-06,1.2625211527275105e-06,1.05548417246798e-06,1.570844461489444e-06,1.6536963378167484e-06,1.4819300391043955e-06,1.2517936241620406e-06,1.9996298584041457e-06,6.38213860090577e-06,6.253515100005144e-07,2.4403891000925072e-06,1.9002621550215653e-06,8.779297914552497e-06,1.0394921454862229e-05,4.274462381913256e-06
12,1.9146598047752913e-06,1.1848481364136525e-06,1.2920390684057092e-06,1.1000819956926435e-06,1.674928077257878e-06,1.7034754731140788e-06,1.553658115150769e-06,1.296241535232067e-06,2.1394977179563486e-06,6.602631045419386e-06,6.580824905492816e-07,2.6185314200754897e-06,1.9836831232246616e-06,8.741501080066427e-06,1.0702398035179866e-05,4.391168024807442e-06
13,1.991223068471998e-06,1.2245105751487778e-06,1.311431251763959e-06,1.1380850857655604e-06,1.7787605433435281e-06,1.738959393868324e-06,1.6174436714224186e-06,1.3368334121753141e-06,2.2746851827817164e-06,6.7761482548574414e-06,6.887290720689879e-07,2.795246947695934e-06,2.06328553379108e-06,8.637319330256594e-06,1.0919215157837585e-05,4.468366497415354e-06
14,2.0564731977563845e-06,1.2586845150822206e-06,1.321543127141444e-06,1.1698177200219667e-06,1.883689655763107e-06,1.7609127347232012e-06,1.672747500724047e-06,1.3740765566161296e-06,2.4043131801314603e-06,6.900148049718142e-06,7.167225040814899e-07,2.9692809655361583e-06,2.1391783571846137e-06,8.476252976206269e-06,1.1045522957344138e-05,4.50723176335895e-06
15,2.110680395547204e-06,1.287550319025443e-06,1.3235594262663655e-06,1.1957895749392544e-06,1.9908325596320637e-06,1.7704858242930699e-06,1.7191916200427803e-06,1.4083505970557398e-06,2.5272437152992796e-06,6.97379357101568e-06,7.414810294454992e-07,3.139174074466429e-06,2.211215889998077e-06,8.266921513025369e-06,1.1082112174266303e-05,4.50923855198555e-06
16,2.154237526419315e-06,1.3111267634525793e-06,1.3189271859976647e-06,1.2165208213776147e-06,2.1009615019387987e-06,1.7692191745449878e-06,1.7567265301435913e-06,1.439949260496775e-06,2.6421386111079006e-06,6.99758170758074e-06,7.625904819909983e-07,3.3033198148085356e-06,2.2791649433447463e-06,8.017106460743844e-06,1.1029770871940712e-05,4.4761694628200905e-06
17,2.1878325381889253e-06,1.3294081518168648e-06,1.3091341112656857e-06,1.232467263050094e-06,2.2144839145693756e-06,1.7587714117721766e-06,1.7856147492035707e-06,1.4691513555222073e-06,2.7474758227280495e-06,6.972757656502123e-06,7.799586809265763e-07,3.4600671621555053e-06,2.3428822750884987e-06,7.733974975144908e-06,1.0890388732377497e-05,4.410593883549859e-06
18,2.2125827204244425e-06,1.3425094057818309e-06,1.2955538647549775e-06,1.2440624221565227e-06,2.331475450880403e-06,1.7406500140744644e-06,1.8062666767377121e-06,1.4962166245239796e-06,2.841536679048692e-06,6.900709996922356e-06,7.93785881939815e-07,3.607750614074891e-06,2.4023649342761663e-06,7.42424913043948e-06,1.0668604541360645e-05,4.316194457531452e-06
19,2.229894462325059e-06,1.3507050968440454e-06,1.2794311467304102e-06,1.2518178882512235e-06,2.4516634627563885e-06,1.7161669890642085e-06,1.8191499946831344e-06,1.5212799055264096e-06,2.9225906327015424e-06,6.782487605133161e-06,8.043931851287819e-07,3.7445680666293947e-06,2.4576766436157754e-06,7.094196788723978e-06,1.0372386155178324e-05,4.1976181028737815e-06
20,2.241177632495588e-06,1.354377343970746e-06,1.2619039429184887e-06,1.256406454892228e-06,2.5743664776885934e-06,1.686578215399321e-06,1.824752588564239e-06,1.5442227792764814e-06,2.989308493728154e-06,6.618918144375967e-06,8.120868477619652e-07,3.8683645940292415e-06,2.5088671480627318e-06,6.749604473817757e-06,1.0012398380028464e-05,4.059990980425606e-06
21,2.247684573008509e-06,1.3539995408113092e-06,1.2439748220466304e-06,1.2586277312881606e-06,2.6985531583322893e-06,1.6532329597445914e-06,1.8236173281831926e-06,1.5646409516513535e-06,3.0411041996905843e-06,6.411536028290501e-06,8.171224451409879e-07,3.976586372802336e-06,2.555958008529279e-06,6.395821346422886e-06,9.600892037296475e-06,3.908338878506582e-06
22,2.250447127618566e-06,1.350196684091016e-06,1.2264429100013786e-06,1.2592713978710104e-06,2.823136572913555e-06,1.6175887594042913e-06,1.8165360116747576e-06,1.5819626286576993e-06,3.078088486150182e-06,6.163496848881545e-06,8.196996256241368e-07,4.066653756630294e-06,2.5989649243338875e-06,6.037725841309203e-06,9.150640982866169e-06,3.747120616316606e-06
23,2.250162697775411e-06,1.3437527422437092e-06,1.2098548205821203e-06,1.259006227459981e-06,2.9473349236802385e-06,1.5810663604365707e-06,1.8046647118895056e-06,1.5956576047970093e-06,3.1007345152908624e-06,5.8797548706891824e-06,8.199518712384754e-07,4.136653111289888e-06,2.6379370482073802e-06,5.6795722761129286e-06,8.674013669706399e-06,3.5800125252618933e-06
24,2.2470908995272413e-06,1.3354934696067707e-06,1.1945303937080842e-06,1.2583627585831012e-06,3.0707534388227877e-06,1.5448688633725474e-06,1.7893355375166772e-06,1.6053666861842167e-06,3.1097779580772568e-06,5.566771395959207e-06,8.179574857980825e-07,4.1859800631977505e-06,2.673059262822711e-06,5.324929190730156e-06,8.182198107305946e-06,3.409937694933633e-06
25,2.2411210816544966e-06,1.3261918572029935e-06,1.1806584481965345e-06,1.2577677262182472e-06,3.193083402563058e-06,1.5099223190311108e-06,1.7717510020686506e-06,1.6108436285681316e-06,3.106480648138255e-06,5.232171303998228e-06,8.137960787207034e-07,4.215663190391147e-06,2.7047519459208235e-06,4.976878506406101e-06,7.684776902971702e-06,3.2391911188348475e-06
26,2.232056567937417e-06,1.316612409473947e-06,1.1683729685942697e-06,1.2575605152757796e-06,3.3137365124095773e-06,1.4769921065772567e-06,1.7528044051563997e-06,1.6118716970094026e-06,3.0927391113588143e-06,4.884289843571738e-06,8.076400024937406e-07,4.228315934392374e-06,2.7335825257630628e-06,4.638337281155102e-06,7.189731327656986e-06,3.069563303669092e-06
27,2.219992066936944e-06,1.3075766307674552e-06,1.1577522199535145e-06,1.2580341527042144e-06,3.431739166211191e-06,1.4468682256454744e-06,1.7330389252574576e-06,1.6083433239641916e-06,3.0708252036689527e-06,4.531555300077032e-06,7.997988972152601e-07,4.227737693667431e-06,2.7599993305623356e-06,4.312174810940862e-06,6.7036311970920285e-06,2.9025217685087842e-06
28,2.205547859048883e-06,1.299907036844738e-06,1.1487985088917078e-06,1.25956606074763e-06,3.5458103509347352e-06,1.420427193952504e-06,1.7126908466549976e-06,1.6003703245332397e-06,3.043097390838722e-06,4.18211089421835e-06,7.906575567191392e-07,4.218235046168039e-06,2.7841537670943943e-06,4.0010054471002754e-06,6.231797830668577e-06,2.7393954849969926e-06
29,2.1898147036529335e-06,1.2942944717663107e-06,1.1414393356130418e-06,1.2627334761230234e-06,3.654387820334599e-06,1.398533308599127e-06,1.6917831586029476e-06,1.5882301879002552e-06,3.0119051264780723e-06,3.8438602304270085e-06,7.805814791529386e-07,4.203918184764745e-06,2.8059664964995965e-06,3.7068784689932968e-06,5.778466712583762e-06,2.5813814801343705e-06
30,2.1740964146178267e-06,1.2912359741390052e-06,1.1355284582618957e-06,1.2682932028868324e-06,3.7556139556987264e-06,1.381929469006609e-06,1.6702095331699405e-06,1.5722085318147984e-06,2.9796186119519207e-06,3.524474698034412e-06,7.698758840125242e-07,4.188267451623061e-06,2.825251211257626e-06,3.431129836652524e-06,5.346978342200991e-06,2.429488201629861e-06
31,2.1596300097755124e-06,1.2910954600266534e-06,1.1308456936492998e-06,1.2770489679648538e-06,3.847504913484821e-06,1.3711918688692468e-06,1.647804640924713e-06,1.5525141827949444e-06,2.9486120743948927e-06,3.231178432093672e-06,7.587866323417093e-07,4.173977557320049e-06,2.841681161418193e-06,3.174507143055841e-06,4.939920976044163e-06,2.2846436714123715e-06
32,2.1474038886191973e-06,1.2941772216871742e-06,1.127088042800168e-06,1.2896887149474818e-06,3.928422669379912e-06,1.3667141944620317e-06,1.6244857517829983e-06,1.5293889764235908e-06,2.9210956688800946e-06,2.970641474612193e-06,7.474971750385188e-07,4.162880159060133e-06,2.854728764873055e-06,2.937470750872526e-06,4.559149673633287e-06,2.1478190918647706e-06
33,2.1381293467010526e-06,1.3007080553048158e-06,1.1238728582894891e-06,1.3066752087045554e-06,3.997673371550559e-06,1.3687292190005103e-06,1.600478064200208e-06,1.503351179310089e-06,2.8989032361301726e-06,2.7490515243198472e-06,7.361190169674653e-07,4.155893998202976e-06,2.8637850478947074e-06,2.7203590950003466e-06,4.2057085637919e-06,2.019945819668934e-06
34,2.132294114407147e-06,1.3108053137751202e-06,1.1207915527299029e-06,1.328238679553202e-06,4.055865042435625e-06,1.377350910917156e-06,1.5764594952560157e-06,1.4753184682464347e-06,2.8833835261298865e-06,2.5721482958707735e-06,7.24732282720353e-07,4.153120250801109e-06,2.868399796996999e-06,2.5232743809428716e-06,3.879814151939973e-06,1.9017434267690512e-06
35,2.130165722066605e-06,1.324533350285006e-06,1.1174755273199613e-06,1.354451036784063e-06,4.104751835667225e-06,1.3925736758434169e-06,1.5534695065922575e-06,1.4464897896113458e-06,2.875379234182259e-06,2.445171628445476e-06,7.134788789295944e-07,4.154120460017793e-06,2.868492940315479e-06,2.3459226623122868e-06,3.580967320549133e-06,1.7936651113358404e-06
36,2.1317692055446228e-06,1.3419688087642716e-06,1.1136595350175178e-06,1.3853144212621755e-06,4.146611332138925e-06,1.4142387040523398e-06,1.5326947041514436e-06,1.4181471837240003e-06,2.875232777884337e-06,2.3728184823539898e-06,7.026047517227032e-07,4.158251735450629e-06,2.8644362349144004e-06,2.187598894159687e-06,3.3080803957851316e-06,1.695963694724897e-06
37,2.136912960091965e-06,1.3631551238127892e-06,1.1092603512385865e-06,1.4207875891941978e-06,4.183520813962832e-06,1.4420109241843505e-06,1.5153263665727589e-06,1.3915396032379963e-06,2.8828009627160224e-06,2.3592430195060205e-06,6.923980708051228e-07,4.164855762234164e-06,2.856973963152117e-06,2.04730936646536e-06,3.0596189449732027e-06,1.6087500379928582e-06
38,2.1452549082134696e-06,1.3879735839298483e-06,1.1043962367138218e-06,1.4607375218696761e-06,4.21694021523734e-06,1.4754042150393797e-06,1.5024619372927108e-06,1.367834105149015e-06,2.8974646176054368e-06,2.4081192147252392e-06,6.830872745935296e-07,4.173149515122617e-06,2.847109131820756e-06,1.9240350255043116e-06,2.8338066798736514e-06,1.5319604852846003e-06
39,2.1564293982729076e-06,1.416042853293167e-06,1.0992837268228193e-06,1.5048897862313486e-06,4.247653267043777e-06,1.5138557746579903e-06,1.4949928029233377e-06,1.3480642624004827e-06,2.9181206737012395e-06,2.522822183849852e-06,6.747770722677333e-07,4.181948589730552e-06,2.836069858533977e-06,1.8170344466340278e-06,2.6287712036861733e-06,1.465282789643303e-06
40,2.1701588031024916e-06,1.4467136499482577e-06,1.0940837781020256e-06,1.552810185515248e-06,4.275777282230677e-06,1.556757054672497e-06,1.493538631442085e-06,1.3330834136767368e-06,2.943170422600354e-06,2.706650444085599e-06,6.674512911306052e-07,4.18965211938454e-06,2.8252604358395918e-06,1.7259272190390243e-06,2.442612040761801e-06,1.4081435956407338e-06
41,2.1861935524763673e-06,1.4791323665733916e-06,1.0887960203068773e-06,1.6038646020750483e-06,4.300682561423724e-06,1.603455587021029e-06,1.4984332885544502e-06,1.3235669052727677e-06,2.9705789301955397e-06,2.9628739327245786e-06,6.610171017465919e-07,4.194705926406009e-06,2.816073224072028e-06,1.6505003552039556e-06,2.2735333017759803e-06,1.3597928441340211e-06
42,2.204176700657576e-06,1.5122935359488042e-06,1.0832113606465828e-06,1.6571481281658692e-06,4.320919966375078e-06,1.6533693306778178e-06,1.5097245119636162e-06,1.3200310044586574e-06,2.998119610694088e-06,3.294594051090036e-06,6.553391778825712e-07,4.196211574705778e-06,2.8096251290163864e-06,1.5905137503816478e-06,2.120025112560864e-06,1.3194688345890956e-06
43,2.2235995274726845e-06,1.5450799267712172e-06,1.0768992716707402e-06,1.711454578372091e-06,4.3342829300800385e-06,1.7061449546714298e-06,1.5272202995939677e-06,1.3227991003013343e-06,3.0237391400086656e-06,3.704634165715029e-06,6.502462935044873e-07,4.194211051900188e-06,2.8065851579666795e-06,1.5456890600348884e-06,1.9809477758867157e-06,1.28656904207733e-06
44,2.2437749949080538e-06,1.5763897539831107e-06,1.069233567856678e-06,1.765362623502499e-06,4.338107073086345e-06,1.7616331485534549e-06,1.5506089187591929e-06,1.3319347948555657e-06,3.045721281655325e-06,4.1954960352146085e-06,6.455425920458114e-07,4.18952115910572e-06,2.8071717765675503e-06,1.5157482576438007e-06,1.85546042719736e-06,1.260683314023539e-06
45,2.263816317697843e-06,1.6053361070507317e-06,1.0594714912841054e-06,1.817451274481086e-06,4.329809858476378e-06,1.8196799235609476e-06,1.5795624371322454e-06,1.3472198506099812e-06,3.0625755696187363e-06,4.769240771403749e-06,6.410611124808764e-07,4.18330664556233e-06,2.8112514909050755e-06,1.5003997257465317e-06,1.7428355766695996e-06,1.2414500269322935e-06
46,2.282773299166202e-06,1.6313345602194823e-06,1.046902351611761e-06,1.8665371050477511e-06,4.3074765611658015e-06,1.8799401135091245e-06,1.6137190312891754e-06,1.3681921119873553e-06,3.073022760011153e-06,5.4273182615885276e-06,6.367257781504656e-07,4.176616462831351e-06,2.818446434359086e-06,1.499320706749072e-06,1.6422738967294272e-06,1.2283877028460885e-06
47,2.2998644366644435e-06,1.6539715458236711e-06,1.0310499824455383e-06,1.911772687820386e-06,4.270263919124916e-06,1.941800871171285e-06,1.6525862154370878e-06,1.3941843111745602e-06,3.076250190549846e-06,6.17042592912952e-06,6.325480528658841e-07,4.170015306785183e-06,2.828252924486406e-06,1.5121418402235666e-06,1.5528496585912338e-06,1.220857060320509e-06
48,2.31452918016501e-06,1.6727686215935193e-06,1.0118286838853321e-06,1.95253114484599e-06,4.218514333525435e-06,2.004365037190476e-06,1.6954728355315716e-06,1.4243366057748852e-06,3.0721039845191095e-06,6.998420622975961e-06,6.285838000732383e-07,4.163427045159752e-06,2.8401628918314536e-06,1.53842545503283e-06,1.4735701931643078e-06,1.2181272896878372e-06
49,2.326234525226106e-06,1.6870816547790785e-06,9.895300341335175e-07,1.98817250928248e-06,4.153574214820006e-06,2.0664532676449576e-06,1.7414568514244048e-06,1.457648644231997e-06,3.0609172094438764e-06,7.910302026724457e-06,6.249172654261792e-07,4.1562082250154785e-06,2.853667277530028e-06,1.5776594075784858e-06,1.4034285385456535e-06,1.2194242308542176e-06
50,2.334329934126324e-06,1.696286070338325e-06,9.646790134813767e-07,2.0179365877120032e-06,4.0773721304340405e-06,2.1265907441724288e-06,1.7893421167326196e-06,1.493108978626848e-06,3.0432056226630974e-06,8.904130112278004e-06,6.216473634409998e-07,4.147279845133926e-06,2.8680815139290925e-06,1.6293074257570833e-06,1.3414412921310113e-06,1.2239805096618277e-06
51,2.338196241522177e-06,1.7001605878726526e-06,9.379516634081953e-07,2.0410992115535234e-06,3.991874773727782e-06,2.1830319509263925e-06,1.8376361749043808e-06,1.529801788648651e-06,3.01965305524316e-06,9.976849204619077e-06,6.188432340787935e-07,4.135225109667135e-06,2.8823312810719137e-06,1.692909058418867e-06,1.2867088315111457e-06,1.2312131052183602e-06
52,2.337528234172466e-06,1.6991880997325496e-06,9.101886740483353e-07,2.057229631410174e-06,3.898624507418145e-06,2.2339601365828103e-06,1.8846115815741074e-06,1.5668960362893702e-06,2.99131249938957e-06,1.1124332817037773e-05,6.165296406774882e-07,4.118444729825314e-06,2.894884895427134e-06,1.7681382740569231e-06,1.2384287769402566e-06,1.240924020643807e-06
53,2.332462134261204e-06,1.6945046469596173e-06,8.823490639876283e-07,2.066303425063953e-06,3.7986123255334597e-06,2.27786439200877e-06,1.9284538502123066e-06,1.603618793449829e-06,2.95965743893376e-06,1.23416519842308e-05,6.147538644883734e-07,4.095432990235874e-06,2.9039309883342773e-06,1.8548603346576742e-06,1.1958516792582464e-06,1.253253223216464e-06
54,2.323500310158455e-06,1.6875136395103833e-06,8.553900230173795e-07,2.068621660426862e-06,3.6925488375891832e-06,2.313894967512966e-06,1.967474821390721e-06,1.639352345325985e-06,2.926462365832649e-06,1.3623019404650578e-05,6.136447261400154e-07,4.0651067128915336e-06,2.9076986587766108e-06,1.953257043912926e-06,1.1582589126685627e-06,1.2684064743818753e-06
55,2.3113670468099347e-06,1.6795035366135725e-06,8.301876317380412e-07,2.0646887029897497e-06,3.5812751191640288e-06,2.3419049794316886e-06,2.0003394209380682e-06,1.6737237272085583e-06,2.8936758658761645e-06,1.496111957010972e-05,6.133731603909717e-07,4.02699627299243e-06,2.9045953577074107e-06,2.06389067022071e-06,1.1249582651410508e-06,1.2864484621150215e-06
56,2.2968977309535385e-06,1.671537146158116e-06,8.075165898348308e-07,2.0551886453751276e-06,3.46604191622039e-06,2.3620854209632275e-06,2.0261944524967285e-06,1.7065096314783625e-06,2.8632584303057996e-06,1.634622689161461e-05,6.140809906186564e-07,3.981165865870187e-06,2.8930913475348555e-06,2.1876237883685855e-06,1.095293417554728e-06,1.3072906592852018e-06
57,2.2809662681948645e-06,1.6645226891641219e-06,7.8804538264857e-07,2.040991319594544e-06,3.348598925968289e-06,2.3744998204392307e-06,2.04461649303614e-06,1.737516500668622e-06,2.8369316151051997e-06,1.7765625528999482e-05,6.158717771204155e-07,3.928005401740702e-06,2.871759845861605e-06,2.325451033156766e-06,1.0686925669865176e-06,1.330761337525452e-06
58,2.264434237087002e-06,1.6592420685109778e-06,7.723264643413063e-07,2.0230383240691387e-06,3.2311092320419407e-06,2.378858157984168e-06,2.055397095271671e-06,1.766620115139262e-06,2.815956406494663e-06,1.920342353046513e-05,6.188505435464947e-07,3.86813703811425e-06,2.8395927755929023e-06,2.478280131205617e-06,1.0447121513472046e-06,1.3566526896977894e-06
59,2.2481135720004597e-06,1.656290536064683e-06,7.608021274997331e-07,2.002179983135155e-06,3.115913954929269e-06,2.3745627368526382e-06,2.058308538189857e-06,1.793812856029645e-06,2.8010951201799604e-06,2.0640686034668356e-05,6.231404909115634e-07,3.8024583802930004e-06,2.796125408773623e-06,2.6467364254324305e-06,1.0230821799732932e-06,1.384752659927545e-06
60,2.232697464223531e-06,1.6560563286234902e-06,7.538474174019713e-07,1.97917950847956e-06,3.0052319817633625e-06,2.360941506802086e-06,2.0530982967232074e-06,1.819110577989385e-06,2.79277754939994e-06,2.2055821917878106e-05,6.288663225660826e-07,3.732186762260148e-06,2.7412964540970157e-06,2.831083437341306e-06,1.0038019215404688e-06,1.4148522334455584e-06
61,2.2186538639232567e-06,1.6588308387153974e-06,7.518029815439298e-07,1.9548868231261464e-06,2.900884513225331e-06,2.3375926431076024e-06,2.039801097390461e-06,1.8424898173853226e-06,2.7913401018309604e-06,2.342489027592466e-05,6.361424331474965e-07,3.6588554004957555e-06,2.675533358367348e-06,3.0313042980850106e-06,9.87183917137796e-07,1.4466979296384588e-06
62,2.2061938519993845e-06,1.6649669780040941e-06,7.549566486868122e-07,1.930338880121227e-06,2.804120945946524e-06,2.3046946117637143e-06,2.01909023743288e-06,1.8639784678525459e-06,2.797114536817033e-06,2.472134384051483e-05,6.450548536095669e-07,3.584263688260517e-06,2.6000264969358885e-06,3.247424019253043e-06,9.73714874852528e-07,1.479944435509085e-06
63,2.195343446901366e-06,1.6749421913174708e-06,7.63514117115841e-07,1.906637615714596e-06,2.715627456576277e-06,2.2631366262324784e-06,1.9923304297447577e-06,1.8836963577615208e-06,2.8102806950788113e-06,2.5915617862369153e-05,6.556315951832381e-07,3.5103149821347274e-06,2.5166656802756635e-06,3.4800118905354102e-06,9.63833315241034e-07,1.5141582138083098e-06
64,2.1859527215163282e-06,1.6892968769470722e-06,7.775872819217294e-07,1.8847511464890664e-06,2.6357123399026754e-06,2.2144437979824776e-06,1.9613213134317766e-06,1.9017279500217811e-06,2.830703805511933e-06,2.697656646712323e-05,6.678360405004511e-07,3.438718874527918e-06,2.4276861062059034e-06,3.730509270725814e-06,9.578097450766584e-07,1.5488289968527428e-06
65,2.1775855459808105e-06,1.708517914956576e-06,7.971716122710583e-07,1.8654138953152655e-06,2.564514504774301e-06,2.1605899893463883e-06,1.927983708746871e-06,1.9179911764937222e-06,2.857919016555855e-06,2.7875920876996894e-05,6.81572156504399e-07,3.3707107991245686e-06,2.3354554941394577e-06,4.001137645598119e-06,9.557434763830471e-07,1.5833434397257896e-06
66,2.1694810063342994e-06,1.7329258211876696e-06,8.221153342581192e-07,1.8490894852215079e-06,2.5020482024950595e-06,2.1038052984650465e-06,1.8941740989705713e-06,1.9322397113803606e-06,2.891116343166623e-06,2.859314757461031e-05,6.966651110886279e-07,3.3069657293210034e-06,2.242372942285615e-06,4.294560959704682e-06,9.576108785905637e-07,1.6169754813738753e-06
67,2.160722902003964e-06,1.7626013433156263e-06,8.521294722163854e-07,1.8359549396482576e-06,2.4480732085508494e-06,2.046393920716798e-06,1.8615855409120605e-06,1.9442167749175336e-06,2.9290784843781743e-06,2.9116412199402914e-05,7.128446799230228e-07,3.2476489599640483e-06,2.1506745889905946e-06,4.6135668936409365e-06,9.63321756375581e-07,1.6489876908817095e-06
68,2.1505156139161358e-06,1.797386374651475e-06,8.868605695276066e-07,1.8259246258439193e-06,2.4019988860414233e-06,1.9905325111206104e-06,1.8316354294566129e-06,1.9538472147489e-06,2.9702597544676406e-06,2.9438887811849934e-05,7.297809122583762e-07,3.1924077306709827e-06,2.0622692884755333e-06,4.960809768950166e-06,9.727291522619734e-07,1.6788287216252181e-06
69,2.1383882976888677e-06,1.8369198720227784e-06,9.259791721710236e-07,1.8186533405986693e-06,2.3629624212657985e-06,1.9380917727841627e-06,1.8053643340298299e-06,1.9612358251968596e-06,3.0130389883055288e-06,2.955495106745802e-05,7.471467073327606e-07,3.140303847840584e-06,1.9787705276829147e-06,5.338710469819004e-06,9.855872616328164e-07,1.7063256830477402e-06
70,2.1242392854048665e-06,1.8806147948438156e-06,9.69196272962575e-07,1.8135056302269406e-06,2.3299777966319065e-06,1.8905556111722403e-06,1.7834351606687503e-06,1.9664335885877136e-06,3.05589554671978e-06,2.9461006312346226e-05,7.64649750140453e-07,3.0898818862844896e-06,1.9016437333333285e-06,5.749697823034436e-06,1.0015011804763242e-06,1.7317860551339485e-06
71,2.1082355779110015e-06,1.92759689135252e-06,1.0161820155437483e-06,1.8095941007372704e-06,2.3020583705562537e-06,1.8490387103211939e-06,1.7662690007571678e-06,1.9692311926533324e-06,3.0973119698290857e-06,2.9159965020899206e-05,7.82037520772119e-07,3.0394323019861588e-06,1.8322746637928875e-06,6.196543350013584e-06,1.0198907631883634e-06,1.7559547767169203e-06
72,2.0906612538176317e-06,1.97670569104262e-06,1.066463246821539e-06,1.8059639559031253e-06,2.278337786493462e-06,1.8143572475787399e-06,1.7542376994868376e-06,1.9692284608210795e-06,3.1356021082033414e-06,2.8664664003901903e-05,7.990945581385806e-07,2.9872888020724014e-06,1.7718904778972535e-06,6.682301218977305e-06,1.039981479511777e-06,1.7798259732594758e-06
73,2.0718326783683776e-06,2.0265596476801506e-06,1.1193834413097131e-06,1.8018327139270742e-06,2.2581202570950626e-06,1.7870966963716856e-06,1.7477383856592627e-06,1.9661455218174274e-06,3.1689451531356236e-06,2.799698068529678e-05,8.156127528649315e-07,2.9320521863544285e-06,1.7214535604277839e-06,7.209820359371281e-06,1.060819697886375e-06,1.8043939329534654e-06
74,2.0521158343420474e-06,2.075621776060295e-06,1.1741550389764512e-06,1.7966535005905893e-06,2.240780812111451e-06,1.767612022959981e-06,1.7470889176632525e-06,1.9600451373185196e-06,3.195555845987137e-06,2.7183203869776083e-05,8.313593824455822e-07,2.8727604846386074e-06,1.6816732360602675e-06,7.78114094942982e-06,1.0813009992260607e-06,1.8304857043757206e-06
75,2.0319594159443566e-06,2.1222459029308905e-06,1.2299840726542062e-06,1.7899847115334492e-06,2.2256808055383964e-06,1.7559562758699904e-06,1.7524151904152337e-06,1.9512485352124173e-06,3.2139075324514064e-06,2.6249876473265804e-05,8.461017763136277e-07,2.8089456067807267e-06,1.6531036820576884e-06,8.396992432537643e-06,1.100263337809168e-06,1.8587323238902786e-06
76,2.0118291228104834e-06,2.1647273573183898e-06,1.2862043190705968e-06,1.781443251057177e-06,2.21222761196082e-06,1.7518134721993103e-06,1.7636625503977318e-06,1.940219292911252e-06,3.223089369698296e-06,2.5223005586984304e-05,8.596513873431716e-07,2.740528145920009e-06,1.6361631734549882e-06,9.056519045279226e-06,1.1167076627839649e-06,1.889574516219474e-06
77,1.992033792266777e-06,2.2013997329846767e-06,1.3423658717476233e-06,1.7708394202934574e-06,2.1999050652813504e-06,1.75450966068018e-06,1.7806472077893127e-06,1.9276444115424664e-06,3.223098882661629e-06,2.4128376151309312e-05,8.718629026784771e-07,2.6677050686542907e-06,1.6310793481993502e-06,9.75727170908123e-06,1.1300596455390874e-06,1.923232584395845e-06
78,1.9725529555068684e-06,2.230802357155441e-06,1.3982455894574811e-06,1.7582661309957507e-06,2.1881463006255543e-06,1.7631053198378342e-06,1.8030860612587864e-06,1.914446039089735e-06,3.214681930365322e-06,2.299080161889013e-05,8.826177321629979e-07,2.5909512303824427e-06,1.6379609512709014e-06,1.0495273628070897e-05,1.1402565178805041e-06,1.959683705989207e-06
79,1.9529500595927015e-06,2.251866530287347e-06,1.4537568435800496e-06,1.7439865482845587e-06,2.17621182879682e-06,1.776476819139911e-06,1.8306440502119279e-06,1.901604565860519e-06,3.198760124856422e-06,2.1833579044048867e-05,8.918258701794568e-07,2.511042083590468e-06,1.6570073173588673e-06,1.1264947925014532e-05,1.147581772123449e-06,1.9986809342465794e-06
80,1.9323593381410454e-06,2.263975619757705e-06,1.508817099353269e-06,1.728263595939574e-06,2.1633316926092732e-06,1.793301144026201e-06,1.862945149839285e-06,1.8900199578940877e-06,3.175922805863643e-06,2.0678432415808934e-05,8.994371764907729e-07,2.4290149420778412e-06,1.6886082856750504e-06,1.205896988939023e-05,1.1524589584256298e-06,2.039832525586396e-06
81,1.9095607917105036e-06,2.266811177917825e-06,1.5632676192534169e-06,1.7113544623575045e-06,2.14911334342548e-06,1.8120031392596374e-06,1.899466232971792e-06,1.8804854911998774e-06,3.146330174013437e-06,1.954464851410071e-05,9.054604698475266e-07,2.3461165929829444e-06,1.7332786846725615e-06,1.2868174701168338e-05,1.1553715260307183e-06,2.082680024634603e-06
82,1.8832282420052342e-06,2.2601890078718705e-06,1.6168409255848718e-06,1.6936463309960226e-06,2.1338248404258527e-06,1.8307586445995482e-06,1.939392487347208e-06,1.8737031925245604e-06,3.1099557336476326e-06,1.8447904802962735e-05,9.099710365899916e-07,2.263759813978846e-06,1.791616971077566e-06,1.3681437125410955e-05,1.1568078992221713e-06,2.1266637516477335e-06
83,1.852323467906816e-06,2.24419878782747e-06,1.6691801974780903e-06,1.6757167910970227e-06,2.1182379362856384e-06,1.8475874456787317e-06,1.9815555523568346e-06,1.8702646799276707e-06,3.0668673287017417e-06,1.7399992245762514e-05,9.130681461540031e-07,2.183429228570057e-06,1.8642921680482936e-06,1.4485434069151804e-05,1.157212420944517e-06,2.17103982691598e-06
84,1.816412219136952e-06,2.2195549094542927e-06,1.7199462701461076e-06,1.6582403522424652e-06,2.1032328378183253e-06,1.8605997931289358e-06,2.0244524813203357e-06,1.8705647509676561e-06,3.017321075309238e-06,1.6409128120218165e-05,9.147974160604012e-07,2.1065304123093206e-06,1.9519726337611475e-06,1.5264673534589953e-05,1.1570458817910436e-06,2.2148582884134394e-06
85,1.7757250165193594e-06,2.1877207282117354e-06,1.7689102440034218e-06,1.6418355872414988e-06,2.089529320214418e-06,1.8683708213376427e-06,2.0663409061203028e-06,1.8747575171244056e-06,2.9617706647679015e-06,1.5480216990765773e-05,9.151180542534947e-07,2.034278344379978e-06,2.0552456882969337e-06,1.600247986176216e-05,1.1568463442423646e-06,2.2569680871346843e-06
86,1.7310402664837024e-06,2.150619932300688e-06,1.815904609743104e-06,1.6269336763930868e-06,2.07763310003491e-06,1.870227022150045e-06,2.1055236352256134e-06,1.8828521272799464e-06,2.9010901626018535e-06,1.4615194177322045e-05,9.139669950702156e-07,1.9676944845053324e-06,2.1745186376093045e-06,1.668292894381943e-05,1.1571423008023137e-06,2.2960509884694837e-06
87,1.683554843647829e-06,2.1101888860739822e-06,1.860657727710314e-06,1.6137227044674553e-06,2.0679806371573367e-06,1.8662611692941621e-06,2.1408332886062227e-06,1.8948787087256797e-06,2.836888120263619e-06,1.3813766370785607e-05,9.113763284771235e-07,1.9076376413770616e-06,2.3098778737640184e-06,1.7292817729731293e-05,1.1583227095982895e-06,2.3307461288828726e-06
88,1.634745629769023e-06,2.068082505142819e-06,1.9026410292636715e-06,1.6022218287728156e-06,2.061208283069483e-06,1.857081104236581e-06,2.172018730449751e-06,1.910972209156641e-06,2.7714771264093235e-06,1.307453730745196e-05,9.075535386643527e-07,1.8547635605362927e-06,2.460983750552511e-06,1.7822872349724957e-05,1.1606208301192196e-06,2.359819476524866e-06
89,1.5861660194664166e-06,2.0255991366618004e-06,1.9410426460469367e-06,1.5924465046570775e-06,2.05824967274091e-06,1.8434764384043745e-06,2.199697772188271e-06,1.9312854409784223e-06,2.7075227951110783e-06,1.2396229240265723e-05,9.028678932996383e-07,1.8094776143725527e-06,2.627051573080165e-06,1.8268036689836663e-05,1.1641945241605757e-06,2.3822853851369117e-06
90,1.5392949709312882e-06,1.9837534577270368e-06,1.974878520457299e-06,1.5845382510752188e-06,2.060096480854036e-06,1.8262847577549315e-06,2.2248992343209557e-06,1.9557908675330637e-06,2.647709874154452e-06,1.1778607499786488e-05,8.977549928576815e-07,1.7719950998769614e-06,2.8068873783915545e-06,1.8626905778075554e-05,1.1691783340783865e-06,2.397468458872216e-06
91,1.4955268269788383e-06,1.943427106990424e-06,2.0031880541326697e-06,1.578780727393268e-06,2.0674602559603435e-06,1.8065063384869346e-06,2.2485499971796766e-06,1.9841069225285364e-06,2.5945185041993853e-06,1.1222809753115623e-05,8.92614005439044e-07,1.742439018779211e-06,2.9988947481105994e-06,1.8900217906744144e-05,1.175640480307251e-06,2.4050520152693355e-06
92,1.4561660648672688e-06,1.905489703491112e-06,2.025268818862056e-06,1.575508500663616e-06,2.0806055101566044e-06,1.7853656687919329e-06,2.271218698194638e-06,2.0154228255616577e-06,2.5500560440179806e-06,1.0731158710514841e-05,8.877782825019392e-07,1.7208378795628536e-06,3.2010307089578663e-06,1.9088784055099177e-05,1.1835029081342873e-06,2.405131194887862e-06
93,1.422361358673013e-06,1.8707933364144089e-06,2.0408866415470198e-06,1.5749656298087584e-06,2.09935572862124e-06,1.7641504730761332e-06,2.293111956027163e-06,2.0485057682385983e-06,2.5159613399584396e-06,1.0306807097989342e-05,8.835502192791425e-07,1.7070583450883933e-06,3.4107879977109584e-06,1.9192714972869702e-05,1.1925155808748753e-06,2.398221749623027e-06
94,1.3950599207743307e-06,1.8400450077756773e-06,2.0503576527451446e-06,1.577192248955665e-06,2.123151340502592e-06,1.744011962310503e-06,2.314111954435679e-06,2.0817503154891433e-06,2.4934536977161837e-06,9.953280459982904e-06,8.802063991934578e-07,1.7007758531957087e-06,3.6252289807226768e-06,1.9213607221640863e-05,1.20232584126372e-06,2.385166285122493e-06
95,1.375002922723621e-06,1.813668540624346e-06,2.0544484884000756e-06,1.5819678966316497e-06,2.1511468134971125e-06,1.7258926380981123e-06,2.3337362017694084e-06,2.1132953644418533e-06,2.483539967902271e-06,9.674018284828822e-06,8.779339712613036e-07,1.7014513932099828e-06,3.8410759754012295e-06,1.9158269579170647e-05,1.2126123742104579e-06,2.3669279370276367e-06
96,1.3627309126326053e-06,1.791780015516789e-06,2.054169021821813e-06,1.5888182759329287e-06,2.18234542002971e-06,1.7105413662061425e-06,2.351104565985838e-06,2.141286024720575e-06,2.48721350013394e-06,9.4726436329649e-06,8.767734479651617e-07,1.70827215139043e-06,4.054956736032305e-06,1.904074173567335e-05,1.2231802453152996e-06,2.344332052140818e-06
97,1.358589616646868e-06,1.7742441081098953e-06,2.0505554363290787e-06,1.5971146598403232e-06,2.215635755506408e-06,1.6985449548708491e-06,2.3650425089154277e-06,2.1642284478143526e-06,2.5054416500376158e-06,9.354044770517658e-06,8.766577431570647e-07,1.7201114172658884e-06,4.263828799529235e-06,1.8881054416971337e-05,1.2339336057307514e-06,2.3179214960444107e-06
98,1.3627522979560687e-06,1.7606746021608574e-06,2.0444734246619205e-06,1.6062068783528461e-06,2.2497236141028727e-06,1.6903775226357018e-06,2.37432635185898e-06,2.1812196321898997e-06,2.5389901848010104e-06,9.324908396665134e-06,8.775212963885638e-07,1.7355779976860089e-06,4.465342191976497e-06,1.870180901646752e-05,1.2447589505635635e-06,2.2880564097003306e-06
99,1.375261787646429e-06,1.7504061458633504e-06,2.0364913112704337e-06,1.6154683251229197e-06,2.2831591359996832e-06,1.6864533931129985e-06,2.3779415191979665e-06,2.1919328459458293e-06,2.5882945939162093e-06,9.392865509192523e-06,8.793453432424074e-07,1.7532153913865543e-06,4.65777839461255e-06,1.8524737161218752e-05,1.255438851314525e-06,2.255150571941703e-06
100,1.3960616414987607e-06,1.7425947101666954e-06,2.026868851994931e-06,1.6243015244541427e-06,2.3145059369889495e-06,1.687128568352036e-06,2.3752019358784588e-06,2.196474114549112e-06,2.6534670509562123e-06,9.565000933581868e-06,8.82094949809511e-07,1.7717910979695613e-06,4.839526967505654e-06,1.8368690138628534e-05,1.2656706627099482e-06,2.219785085038026e-06
101,1.4249881575586047e-06,1.736397300058782e-06,2.015611759177904e-06,1.632269398184001e-06,2.3425267696558034e-06,1.692636692452004e-06,2.36573482010391e-06,2.195259986306662e-06,2.7344014214908996e-06,9.846736095392497e-06,8.856526831520323e-07,1.7904755158863788e-06,5.008617406253076e-06,1.8249138559403847e-05,1.275135198175693e-06,2.182564803712822e-06
102,1.4617504623195548e-06,1.7310234209767216e-06,2.002577925569144e-06,1.6392869969524608e-06,2.366350871741376e-06,1.7029933634118899e-06,2.3494982635016356e-06,2.1889227867233613e-06,2.8308425424103007e-06,1.0241378430398357e-05,8.898143289705404e-07,1.8088340904836856e-06,5.162788420269857e-06,1.8178325844294622e-05,1.2835165718455785e-06,2.1438877255015593e-06
103,1.505946790934747e-06,1.7257130294646312e-06,1.9877012454951e-06,1.645625709454706e-06,2.3855912134143294e-06,1.7179141405342382e-06,2.326897875941444e-06,2.1781605492519945e-06,2.9422803828910596e-06,1.0750045860108307e-05,8.943228204233397e-07,1.8267318102916066e-06,5.299875842761684e-06,1.816530502942993e-05,1.2904468551397983e-06,2.103922518879426e-06
104,1.5570772586871427e-06,1.7198324320759271e-06,1.9712566805452453e-06,1.6517045279483298e-06,2.400264773992754e-06,1.7368129235069863e-06,2.2988034525157378e-06,2.1635375387457343e-06,3.067768686996361e-06,1.1371604744446125e-05,8.989145457210386e-07,1.8442011576722754e-06,5.418047500559066e-06,1.8216056544876315e-05,1.2954621017951473e-06,2.0628128760644017e-06
105,1.6145105557552671e-06,1.712985726571279e-06,1.953909626166952e-06,1.6578780500165174e-06,2.4105531345337077e-06,1.7589324060502213e-06,2.2663201663776614e-06,2.145400588831145e-06,3.2058371896036207e-06,1.210257485038846e-05,9.033491964333073e-07,1.8612728013409161e-06,5.515920693678353e-06,1.8333979071726123e-05,1.2981051826765594e-06,2.0208527089623116e-06
106,1.677474404311421e-06,1.7049722084168848e-06,1.9364439448817676e-06,1.6643312707909175e-06,2.4166721134997804e-06,1.7835232168693983e-06,2.2305930474174993e-06,2.1240131073250765e-06,3.3544540747201007e-06,1.2937087417322314e-05,9.074199996599907e-07,1.877882533918875e-06,5.592850739115002e-06,1.8520316155235535e-05,1.2981661547763446e-06,1.978481078610803e-06
107,1.745104544738059e-06,1.6956878384368941e-06,1.919426692945101e-06,1.6710266453810144e-06,2.418866798345051e-06,1.8099062952824185e-06,2.1929340518690484e-06,2.099767013412978e-06,3.5109775160693048e-06,1.3866858612450172e-05,9.109711822478723e-07,1.8939800090988094e-06,5.649282823054368e-06,1.8774958942421672e-05,1.2958538462837266e-06,1.9361808908992713e-06
108,1.8164586749071173e-06,1.6851066202767412e-06,1.903121705596924e-06,1.6776750097310059e-06,2.4173007527476572e-06,1.837456865654916e-06,2.1550242590740118e-06,2.0732812385476403e-06,3.672133714827902e-06,1.488115215353117e-05,9.138962265347284e-07,1.909729222532852e-06,5.6867674892734074e-06,1.909827789157353e-05,1.2917330754213098e-06,1.8943955112392162e-06
109,1.8904302330202837e-06,1.6732976257910357e-06,1.8876250269637057e-06,1.6837388185288682e-06,2.4118757101848064e-06,1.865680706586836e-06,2.118817377574815e-06,2.0453315816553484e-06,3.8340017511135746e-06,1.596681959200598e-05,9.161203725208479e-07,1.925589368288843e-06,5.707458206431161e-06,1.9492181731043387e-05,1.2864975244795608e-06,1.85347231515944e-06
110,1.9656239569306503e-06,1.6603947932875402e-06,1.872968714100861e-06,1.6884738408255204e-06,2.40225324673388e-06,1.894310238635268e-06,2.0862081574936223e-06,2.0166608523624394e-06,3.99202850915077e-06,1.7108505492487115e-05,9.176447263059788e-07,1.9422690982381246e-06,5.713327956177056e-06,1.9958617563809625e-05,1.2807720774344302e-06,1.813620870849263e-06
111,2.0402710837235605e-06,1.6465252475951601e-06,1.8590830366202636e-06,1.6911092970477768e-06,2.3881520573069155e-06,1.923233411750862e-06,2.0587641557372755e-06,1.9877828463505044e-06,4.141254363265441e-06,1.8288999709768745e-05,9.1859534995893e-07,1.9606528831499037e-06,5.70561246476172e-06,2.049697599259971e-05,1.2750332959544806e-06,1.7749422708801237e-06
112,2.1121903850375532e-06,1.6317488487647023e-06,1.8457143833342273e-06,1.69121396210646e-06,2.3697056135505175e-06,1.9522929470338833e-06,2.0376271284664915e-06,1.9589277128016177e-06,4.276783388509045e-06,1.9489722187149718e-05,9.191655697800828e-07,1.9816901489699483e-06,5.684798798831723e-06,2.1102567209124134e-05,1.2696155756316303e-06,1.7375856430848064e-06
113,2.17882928731797e-06,1.6160773376045638e-06,1.8323780113213393e-06,1.6890048129518142e-06,2.3476013576238897e-06,1.9811392100979904e-06,2.023486739335543e-06,1.9301340053204185e-06,4.394274091475045e-06,2.069137617855488e-05,9.195540889134824e-07,2.0062420663308437e-06,5.650994681634102e-06,2.176664882078627e-05,1.2647508675429188e-06,1.7019477016231936e-06
114,2.237510982142285e-06,1.5995947958158174e-06,1.818337370812877e-06,1.6852928681322654e-06,2.3229089534063196e-06,2.0092573375117524e-06,2.016567046471169e-06,1.9013357148804838e-06,4.490306132370928e-06,2.1874410355398778e-05,9.20009952238123e-07,2.0350159233465392e-06,5.604324328141869e-06,2.2478131779151644e-05,1.2606112847303553e-06,1.6687133599971093e-06
115,2.285927088466341e-06,1.5825491486543648e-06,1.8026712163171483e-06,1.6811229237780575e-06,2.296764114018131e-06,2.036140596158195e-06,2.0166881182897827e-06,1.8724830135847506e-06,4.562583868398954e-06,2.3018513819697702e-05,9.208725380424891e-07,2.0686849897027924e-06,5.5451316859531485e-06,2.3226567215050988e-05,1.257360197161099e-06,1.638677858725165e-06
116,2.322634766840418e-06,1.565268012845859e-06,1.7844934827620015e-06,1.6774580317007166e-06,2.270120527245062e-06,2.061434973141476e-06,2.023485392855884e-06,1.8438141271644876e-06,4.609787087369754e-06,2.4101391256668792e-05,9.22525922387485e-07,2.1080656245015884e-06,5.4739609234769814e-06,2.4004203171772167e-05,1.255179718105231e-06,1.6125466212194241e-06
117,2.3471612371770913e-06,1.547975854657459e-06,1.7632087743643059e-06,1.6750755486263363e-06,2.2436138580049586e-06,2.0848909792794156e-06,2.0367100939658073e-06,1.816021471820839e-06,4.630998134755497e-06,2.5098828704322936e-05,9.253648517967175e-07,2.1541216862976956e-06,5.391454780499491e-06,2.4805094891545956e-05,1.2542349985303177e-06,1.5908507874993835e-06
118,2.359660009783449e-06,1.5306969681345603e-06,1.7386530000084436e-06,1.6745418539040632e-06,2.2175136171399494e-06,2.106190499190639e-06,2.0563504336042847e-06,1.79005678685256e-06,4.625192574478903e-06,2.5987378866233058e-05,9.298148810151182e-07,2.207747683439655e-06,5.29833769615079e-06,2.562211504975544e-05,1.2546864017309385e-06,1.573907497523161e-06
119,2.36058292659083e-06,1.5132951996761902e-06,1.7110901112135673e-06,1.676155901246145e-06,2.191823872604067e-06,2.124888120316268e-06,2.082476709744676e-06,1.766808331208264e-06,4.591311017334974e-06,2.6748026040694685e-05,9.363215496465001e-07,2.2695124097155993e-06,5.1955018529609724e-06,2.6444684822476673e-05,1.256862816990313e-06,1.5618146566839177e-06
120,2.3506251643438583e-06,1.495601501222317e-06,1.6810812695032013e-06,1.6798895203966677e-06,2.166562710396557e-06,2.1405446706498802e-06,2.1150403712664292e-06,1.7469442576147827e-06,4.528756698882559e-06,2.7368114804263246e-05,9.452916126969331e-07,2.3395239834316625e-06,5.084085006593889e-06,2.7258604349781657e-05,1.2614462965438145e-06,1.5545347167803844e-06
121,2.330657098506485e-06,1.4775565667930622e-06,1.6492900710689223e-06,1.685371007324768e-06,2.14205663188063e-06,2.152884422530281e-06,2.153789132871677e-06,1.7308992762420188e-06,4.437905897391167e-06,2.784097458935844e-05,9.57060078608803e-07,2.417407092740647e-06,4.965445225886794e-06,2.8046570998933458e-05,1.2694337704321807e-06,1.5519855946625796e-06
122,2.3015460246631743e-06,1.4592862554709503e-06,1.6163410085445013e-06,1.6919388202137499e-06,2.1189945062123564e-06,2.1618247987426215e-06,2.1982427943979945e-06,1.7188880877683123e-06,4.320458092622554e-06,2.816486273790712e-05,9.718853536682828e-07,2.5023681401879558e-06,4.841034969421752e-06,2.8787913647720282e-05,1.2819161444433106e-06,1.5540299290294546e-06
123,2.264127942954175e-06,1.4410816650592162e-06,1.5827581431040942e-06,1.698768643448436e-06,2.0982107082097113e-06,2.1674187973274393e-06,2.2477205294476547e-06,1.7109325902139722e-06,4.179530296029563e-06,2.8342196971505354e-05,9.899232480225714e-07,2.593332613396131e-06,4.712214698840261e-06,2.945853816980613e-05,1.2998902372084039e-06,1.5603751266160275e-06
124,2.2193519094009844e-06,1.4233026176840368e-06,1.548922096814027e-06,1.7050360103848496e-06,2.080456842986047e-06,2.169872168995743e-06,2.3014009070051505e-06,1.7069228716283644e-06,4.0194036676170574e-06,2.837795331641075e-05,1.0112069354725406e-06,2.689034367370722e-06,4.5800080420558385e-06,3.0033006336865466e-05,1.324168989648748e-06,1.570469761247607e-06
125,2.1683391865296816e-06,1.4062478922466681e-06,1.5150919871423502e-06,1.7100548841960904e-06,2.0663035802799083e-06,2.169707111287224e-06,2.358333220549253e-06,1.706651677538017e-06,3.844971498708354e-06,2.827669684816506e-05,1.0356649472900136e-06,2.787991942260675e-06,4.444871574539291e-06,3.0488404102325424e-05,1.3553356299513594e-06,1.5835035028252182e-06
126,2.1122875606600477e-06,1.3900764994916548e-06,1.4815664858364402e-06,1.7133560743590053e-06,2.056050554045267e-06,2.1679027685686673e-06,2.417430025832792e-06,1.7097967419470022e-06,3.6611178388526773e-06,2.8040411535005468e-05,1.0631406694727122e-06,2.888504673059619e-06,4.3066852045579464e-06,3.080754299156027e-05,1.39372586548159e-06,1.5985965210839674e-06
127,2.052392893625357e-06,1.3748194807731733e-06,1.448841179759253e-06,1.7147226843594513e-06,2.0496011254611175e-06,2.1657814537578324e-06,2.477453238120606e-06,1.7159281660268995e-06,3.4722763961939563e-06,2.7668762720315762e-05,1.0934120430938762e-06,2.988820417251239e-06,4.165019681007436e-06,3.097982862019541e-05,1.4394285639629573e-06,1.6151180656169894e-06
128,1.989819674432956e-06,1.360409733597286e-06,1.417577276637642e-06,1.7142253702606305e-06,2.046412755496839e-06,2.1646670362295706e-06,2.536939690838592e-06,1.7245475524342442e-06,3.282225635332164e-06,2.7160655469418825e-05,1.1262299312038024e-06,3.087430564412216e-06,4.019459156370582e-06,3.0999704003533074e-05,1.492292356707155e-06,1.632900988316406e-06
129,1.9256584333257358e-06,1.3466546585909353e-06,1.3884453435483352e-06,1.7122465825323694e-06,2.0456126895697484e-06,2.165582844706088e-06,2.5941196804533067e-06,1.7351278178273967e-06,3.0940432292882986e-06,2.651599862047484e-05,1.1613210880360726e-06,3.18326588130352e-06,3.86980010605392e-06,3.086350824818415e-05,1.5519503953242799e-06,1.6521854566214228e-06
130,1.8609502905321073e-06,1.333190876214169e-06,1.3620264578113515e-06,1.7094068489240373e-06,2.046248739664747e-06,2.1691848546281014e-06,2.6469279562534117e-06,1.747157224354431e-06,2.910172485424579e-06,2.573783373828748e-05,1.1983259169498534e-06,3.2756529236174843e-06,3.7161826459113724e-06,3.056740924395226e-05,1.61785308922601e-06,1.673392327948304e-06
131,1.7967916156365851e-06,1.319494073208684e-06,1.3388132658596113e-06,1.7063862886806906e-06,2.0474740401128957e-06,2.1758798893967405e-06,2.6932088734374796e-06,1.7601304504757534e-06,2.73257402614717e-06,2.4834747431665174e-05,1.2367507380887565e-06,3.3641901870351413e-06,3.559276643454896e-06,3.0109472347621248e-05,1.6892717766009237e-06,1.696928675764419e-06
132,1.7344048242407117e-06,1.3049620609761136e-06,1.3192346785152548e-06,1.703818652434934e-06,2.0485523604705054e-06,2.185945891241278e-06,2.731129149510924e-06,1.7734944079140847e-06,2.562930510392627e-06,2.3822656374825575e-05,1.2760004633319065e-06,3.448764490493029e-06,3.4004676829780535e-06,2.949477031222007e-05,1.765263241863193e-06,1.7230812616067714e-06
133,1.6751407819066472e-06,1.2890884355790348e-06,1.3036596891732804e-06,1.7023340178910876e-06,2.0488866383499974e-06,2.1995294979689515e-06,2.7595488279517497e-06,1.7866778868092405e-06,2.402805402909443e-06,2.272448264107183e-05,1.315446709002248e-06,3.5296426160345645e-06,3.2417817504432647e-06,2.873888821468602e-05,1.8446311214957328e-06,1.7519379991304412e-06
134,1.6204244543605715e-06,1.271681263981299e-06,1.29237351969265e-06,1.7025718192405861e-06,2.0481879552422647e-06,2.216553137866455e-06,2.7780878615950136e-06,1.7991911293490508e-06,2.2536502461611013e-06,2.1567164497872584e-05,1.354471724915698e-06,3.6074658157377093e-06,3.085488849315089e-06,2.786721227973362e-05,1.9259185831648354e-06,1.7833337374947757e-06
135,1.5716321253949487e-06,1.252958597554195e-06,1.285520913681529e-06,1.7050981569079832e-06,2.0465832154814597e-06,2.236649057052603e-06,2.7869206067103616e-06,1.8106377630047715e-06,2.1167881853497467e-06,2.037757034001523e-05,1.3924931422022644e-06,3.6831696178809257e-06,2.9337453374137747e-06,2.691096261270338e-05,2.0074142529164376e-06,1.8169000389208185e-06
136,1.5299444567235945e-06,1.2334203085151613e-06,1.2830555961032121e-06,1.7103370390387498e-06,2.0445532735102074e-06,2.259148185310035e-06,2.786493483077814e-06,1.8206077928754537e-06,1.9934935259459734e-06,1.9179471625486264e-05,1.428997783464961e-06,3.757886266964429e-06,2.7884840520984153e-06,2.5902209729930895e-05,2.087130093930244e-06,1.8521899669782145e-06
137,1.4962742608971235e-06,1.2136003622826163e-06,1.284737341760447e-06,1.7185100914517062e-06,2.0428041504007014e-06,2.283100142177079e-06,2.777267784175929e-06,1.8285840130780218e-06,1.884980319122377e-06,1.799241820521664e-05,1.4635798605388534e-06,3.83279791545296e-06,2.6513466956213656e-06,2.4870017246610313e-05,2.162755601052794e-06,1.8887050824290284e-06
138,1.471294031233923e-06,1.1938907693884002e-06,1.2901495593434543e-06,1.729555891157332e-06,2.0421193039124414e-06,2.30734885641299e-06,2.759521539060715e-06,1.8339951881809178e-06,1.7922268184399193e-06,1.6832074959715383e-05,1.495925694607112e-06,3.909008523581854e-06,2.523557816614871e-06,2.383886129663838e-05,2.231668844464573e-06,1.925796652840134e-06
139,1.4554746210457383e-06,1.1745229605065522e-06,1.2987097267812446e-06,1.7430834645592866e-06,2.043175035209327e-06,2.3306056905293506e-06,2.733350949011166e-06,1.8364201174538489e-06,1.7158419774734906e-06,1.5711126286601838e-05,1.5257218544677976e-06,3.987536941059854e-06,2.4058362913527854e-06,2.2828823284882825e-05,2.291103292388185e-06,1.962579426718354e-06
140,1.449064327143619e-06,1.1556181361509312e-06,1.3096775074199119e-06,1.7583786751406314e-06,2.0463699525953213e-06,2.3514126549969997e-06,2.698937663534947e-06,1.835795834273184e-06,1.6560584660459342e-06,1.4640082093367913e-05,1.5525877001197396e-06,4.069346875518101e-06,2.2983808579707555e-06,2.1856282992739047e-05,2.338466219277369e-06,1.997925174170054e-06
141,1.4520440832757414e-06,1.1371859901169423e-06,1.322182358620154e-06,1.7744837768862852e-06,2.0517992614718598e-06,2.3680779392360583e-06,2.6568540642091648e-06,1.8324277435607089e-06,1.6127848898023138e-06,1.362779912743029e-05,1.5761037984350218e-06,4.1552788779086395e-06,2.200945284655929e-06,2.0934343682039933e-05,2.3716628791803047e-06,2.0305274974877334e-06
142,1.4641189581899046e-06,1.1190826751879583e-06,1.335337853162443e-06,1.7903829658702401e-06,2.0594503425643493e-06,2.378805207650092e-06,2.608183469248905e-06,1.8267644547058737e-06,1.5857105489478596e-06,1.2681747874880336e-05,1.5958595723253188e-06,4.245861862817506e-06,2.112951307793674e-06,2.0072900272098603e-05,2.389225228894701e-06,2.059043586681119e-06
143,1.4847651995356232e-06,1.1010133658393798e-06,1.3484315515053884e-06,1.8052229053539624e-06,2.0695107356676986e-06,2.3820894258532884e-06,2.5544933481245578e-06,1.8191752050937458e-06,1.5744645531109401e-06,1.1808073957453737e-05,1.6114838577292337e-06,4.341079570546587e-06,2.033550718982936e-06,1.9278677239120748e-05,2.390166768584892e-06,2.082313431301346e-06
144,1.5133027766223273e-06,1.0826304907976629e-06,1.3610025069438386e-06,1.8183968234683068e-06,2.082586429025551e-06,2.377186959469526e-06,2.497772212268638e-06,1.8098959150687057e-06,1.5787145972617445e-06,1.101155501601767e-05,1.622723635213452e-06,4.440271811694345e-06,1.9617116870664395e-06,1.8555647844004663e-05,2.373831842329249e-06,2.099571935594329e-06
145,1.548918483606296e-06,1.0637081416125684e-06,1.3727013974554461e-06,1.8294111929262358e-06,2.0997180464098767e-06,2.3643617359266972e-06,2.44032468863293e-06,1.7990034117501576e-06,1.598087200576819e-06,1.0295551386507791e-05,1.6295484637584479e-06,4.542227052255703e-06,1.8964386391935297e-06,1.7905692174835893e-05,2.3401338191278065e-06,2.1105299160681972e-06
146,1.5906382041877124e-06,1.0442919187793432e-06,1.3831057144521355e-06,1.837700987398124e-06,2.1221974672277494e-06,2.3447717629944385e-06,2.3845646504355218e-06,1.7863612392815788e-06,1.631985657872572e-06,9.661942677703407e-06,1.632156257831177e-06,4.645236879432004e-06,1.837039579484819e-06,1.7328866420702003e-05,2.2900337725680688e-06,2.1152966612992054e-06
147,1.6373090695439785e-06,1.024750363305751e-06,1.3916714000085817e-06,1.842568322581915e-06,2.151287648188326e-06,2.3201385929684516e-06,2.3327368643413107e-06,1.7717173066148064e-06,1.6794701681370478e-06,9.110972862506421e-06,1.6308330249152183e-06,4.746987454931026e-06,1.7832186054237367e-06,1.6823432857000638e-05,2.2256552134350757e-06,2.1141902939693774e-06
148,1.687601224532781e-06,1.0057420118767693e-06,1.3977860251304655e-06,1.8432309409986518e-06,2.188045654617335e-06,2.2924034834983403e-06,2.2866870991250152e-06,1.7549792592844152e-06,1.7392258980010102e-06,8.641031283226737e-06,1.6257613644734569e-06,4.844515588085317e-06,1.7349365335211292e-06,1.6386586152076304e-05,2.1498368836608985e-06,2.107535784973716e-06
149,1.74009649771656e-06,9.881218880832522e-07,1.4008401117741558e-06,1.8389937247209347e-06,2.2333600126338287e-06,2.2634488160614546e-06,2.2477580146198793e-06,1.7364430813762886e-06,1.8095625112393159e-06,8.248530456310836e-06,1.6169298777927282e-06,4.9344809777969435e-06,1.6922890750672442e-06,1.6015578348208732e-05,2.0655139944363487e-06,2.0956088109497207e-06
150,1.793539797845998e-06,9.72807349967969e-07,1.4003142846028756e-06,1.8295266631407386e-06,2.288086759463052e-06,2.23497384819308e-06,2.216798719961507e-06,1.7168113554873286e-06,1.8884286569727017e-06,7.928015542796277e-06,1.60424115357348e-06,5.013714842238937e-06,1.655555250431141e-06,1.570769200811773e-05,1.975329957046838e-06,2.0787292297022697e-06
151,1.8470954422300063e-06,9.60643514844669e-07,1.3958859197582286e-06,1.8150149398813332e-06,2.3531031908828395e-06,2.208569625259869e-06,2.1942223768830945e-06,1.6970392722820545e-06,1.973453743972564e-06,7.672586937466386e-06,1.5877408843148565e-06,5.079779960233563e-06,1.6252359931127263e-06,1.545883450430722e-05,1.8815476553113173e-06,2.0573156671839048e-06
152,1.9003384012332073e-06,9.523164364276425e-07,1.3875203307593537e-06,1.7960090873765854e-06,2.429206451866022e-06,2.1858024280626646e-06,2.1800596569129286e-06,1.6781225502955833e-06,2.0621072976279053e-06,7.4746362919804584e-06,1.5677282035289822e-06,5.131322493315992e-06,1.6019417612750945e-06,1.5262255022262162e-05,1.7860945827555252e-06,2.031833209754382e-06
153,1.9529611099665493e-06,9.483400318108732e-07,1.3754755201016816e-06,1.7731193977548577e-06,2.5169388480156285e-06,2.168134054912062e-06,2.1740705595687196e-06,1.6609160182470773e-06,2.1520911785078404e-06,7.326710183128286e-06,1.5446321974252135e-06,5.168199919583802e-06,1.5862014298669765e-06,1.5108370899612657e-05,1.6905831287768655e-06,2.002745569232324e-06
154,2.0044560496221806e-06,9.490866292785336e-07,1.3601853526216565e-06,1.74683876858222e-06,2.6164978737646214e-06,2.1567546629387708e-06,2.1759887214644337e-06,1.6460211285870861e-06,2.2418235767702365e-06,7.222237128623778e-06,1.5188518051855182e-06,5.191475736042054e-06,1.578319974511667e-06,1.498529468791842e-05,1.5962992093670997e-06,1.9705337420988447e-06
155,2.0539491393997174e-06,9.548152790942832e-07,1.3421468163517495e-06,1.7175880333452932e-06,2.72774578264987e-06,2.15246568375069e-06,2.1857803082852045e-06,1.6337423478146495e-06,2.3306455048309957e-06,7.155938378524752e-06,1.490756648763919e-06,5.203292455896015e-06,1.5783579456958287e-06,1.4879402651303028e-05,1.5042213973277125e-06,1.935740631388101e-06
156,2.100145314405868e-06,9.657048712914218e-07,1.321953691292095e-06,1.6858327209394384e-06,2.850186229217128e-06,2.1556826905444707e-06,2.203699484365307e-06,1.6241412235718105e-06,2.4185923473987767e-06,7.123869636794195e-06,1.4607675933680095e-06,5.206553089760889e-06,1.5861739459356656e-06,1.4775918551387006e-05,1.4150607928362535e-06,1.8989912914319864e-06
157,2.141379001691774e-06,9.818967015476052e-07,1.3003625552366772e-06,1.6521363210199177e-06,2.982885996237537e-06,2.166576879468808e-06,2.2300872864762492e-06,1.6172102761955523e-06,2.5059576986522894e-06,7.123156147278835e-06,1.4293838007543977e-06,5.204465482383597e-06,1.6014200011417777e-06,1.4660006582760203e-05,1.329290943592367e-06,1.8609613226893816e-06
158,2.1758368750253547e-06,1.0034957444270668e-06,1.2782186266825348e-06,1.617150078482413e-06,3.124426274046045e-06,2.1852860372687683e-06,2.2650925633287516e-06,1.6130485252673365e-06,2.592954626935851e-06,7.151535904023725e-06,1.3971307226364868e-06,5.2001732434363865e-06,1.623514519977874e-06,1.4518553189589857e-05,1.2471822952686682e-06,1.8223021862596709e-06
159,2.2019317521877046e-06,1.030520386056696e-06,1.2563263600872351e-06,1.5815572864956484e-06,3.272927904204176e-06,2.21206051526552e-06,2.3085116796187636e-06,1.6118685581498239e-06,2.679561355321792e-06,7.20682973725735e-06,1.364441506772316e-06,5.196545066967581e-06,1.6516774796186885e-06,1.4341815673873737e-05,1.1688446921327386e-06,1.78355682692469e-06
160,2.2186751897117738e-06,1.062864871845284e-06,1.2353869165377512e-06,1.545981050363374e-06,3.4262040901311776e-06,2.247288415004798e-06,2.3598099395070576e-06,1.6138548474541697e-06,2.7655385142065856e-06,7.286464662080295e-06,1.331549062674035e-06,5.195943937420061e-06,1.6850125093354813e-06,1.4123845492183719e-05,1.0942930928254977e-06,1.7450759795274362e-06
161,2.2258510777940104e-06,1.1003018446211816e-06,1.2159562002100185e-06,1.5109334050658413e-06,3.5820289022344763e-06,2.2914685937293003e-06,2.4182706270190647e-06,1.6190407343876347e-06,2.850656874940918e-06,7.387212823199903e-06,1.298462075942518e-06,5.199954861472771e-06,1.722605916463727e-06,1.3861347245584888e-05,1.0235586387895282e-06,1.7069759856148883e-06
162,2.2238924794324314e-06,1.142479211760674e-06,1.1984149574139958e-06,1.476852210442018e-06,3.7383187529430866e-06,2.345168897097344e-06,2.4831138845328993e-06,1.627306925152354e-06,2.9349717822741344e-06,7.5051487331919385e-06,1.2650101856452942e-06,5.209269157403223e-06,1.7635973351639315e-06,1.3551838089469138e-05,9.567795873480666e-07,1.6692087090787476e-06
163,2.2135516105957436e-06,1.1888920662052555e-06,1.1830119843841208e-06,1.4441119593838486e-06,3.893032159415128e-06,2.4088993111324726e-06,2.5534542299729313e-06,1.638493669119383e-06,3.0187882851538186e-06,7.635592915023438e-06,1.230947129858256e-06,5.22373391135314e-06,1.8071325614752688e-06,1.3193276142336256e-05,8.942005864748054e-07,1.6317091125190014e-06
164,2.1956080533447556e-06,1.2388992647486539e-06,1.1699256966127771e-06,1.4129328501159135e-06,4.043918002545982e-06,2.4828859675303714e-06,2.628149956243745e-06,1.6525179407493295e-06,3.102307415999349e-06,7.773103989031046e-06,1.1960944004984743e-06,5.242408032341785e-06,1.852272566249292e-06,1.2786138702065774e-05,8.361068954244349e-07,1.5945026105123822e-06
165,2.1708405066129395e-06,1.2918627037933402e-06,1.1592500695044847e-06,1.383299216236596e-06,4.188475014862702e-06,2.5668713874571356e-06,2.7057615205518184e-06,1.6693640539979933e-06,3.1853277693489785e-06,7.91177495827104e-06,1.1604415278701992e-06,5.263624165139301e-06,1.898047574874776e-06,1.2335629734566293e-05,7.827589364229004e-07,1.5577200513408765e-06
166,2.1402125940619342e-06,1.3473486434752803e-06,1.1509608876120865e-06,1.3550058766777272e-06,4.3242199205908185e-06,2.6600509029621055e-06,2.7847459386265378e-06,1.6889531717047612e-06,3.2671760799051343e-06,8.045601017368201e-06,1.1241601709956355e-06,5.285171918984877e-06,1.9436595618108188e-06,1.1851591121498747e-05,7.343718661261441e-07,1.5215846341743957e-06
167,2.1050180320926344e-06,1.4051961991788535e-06,1.1449638036361003e-06,1.3278214058280501e-06,4.448994148333133e-06,2.761151284775601e-06,2.8637103364669113e-06,1.710997529674954e-06,3.346715102738458e-06,8.168482358315708e-06,1.0875753231486813e-06,5.304603732981993e-06,1.9886067595347573e-06,1.1346463733214148e-05,6.911173194746199e-07,1.48643519620073e-06
168,2.0668759035624168e-06,1.465378563766835e-06,1.141169886409369e-06,1.3016500063344337e-06,4.561112057792418e-06,2.868619801030163e-06,2.941513809705752e-06,1.7349108594012745e-06,3.422324957321846e-06,8.273939271345037e-06,1.0511061205882815e-06,5.319520924391011e-06,2.032554488284613e-06,1.0832880770838225e-05,6.530995223130112e-07,1.4527214402722721e-06
169,2.0276198105170233e-06,1.5278393495158843e-06,1.1394836091955365e-06,1.276575237332293e-06,4.659407902598247e-06,2.980862499370387e-06,3.017275149916432e-06,1.7598268438150618e-06,3.4918993881465865e-06,8.355234772517274e-06,1.015154602317146e-06,5.327751180258534e-06,2.075063828227014e-06,1.032194802861183e-05,6.203366508687397e-07,1.420889046915785e-06
170,1.989109536064137e-06,1.5924647397609485e-06,1.1397286139231442e-06,1.2527737472412662e-06,4.7432625746279444e-06,3.0964031602246197e-06,3.090405762896466e-06,1.7847512806716776e-06,3.552948867180973e-06,8.406298503402779e-06,9.799955000265817e-07,5.327527489242813e-06,2.1154122317300074e-06,9.822469512487542e-06,5.927882820841805e-07,1.391218196529741e-06
171,1.953052961648988e-06,1.659094173601682e-06,1.1416295655766945e-06,1.2303806788523535e-06,4.8125910538823025e-06,3.2138541727572323e-06,3.1605997009946996e-06,1.808756306262374e-06,3.6028572297021226e-06,8.422835173295573e-06,9.457557274087037e-07,5.317785876406554e-06,2.152641746457892e-06,9.340907317101036e-06,5.704058580032132e-07,1.3637325586063804e-06
172,1.9209244287857194e-06,1.7274312746735412e-06,1.1448779744149424e-06,1.2094364149496872e-06,4.867783245314352e-06,3.33175215621639e-06,3.227689424271881e-06,1.8310813359841725e-06,3.6391959798888867e-06,8.40289346991753e-06,9.124913650572342e-07,5.2984492941922005e-06,2.1858152619198347e-06,8.881865756883412e-06,5.531623388423833e-07,1.3382077630655687e-06
173,1.8939143720677303e-06,1.7969141413250972e-06,1.1491987520750247e-06,1.1899714137409455e-06,4.909638983938955e-06,3.4484248225662965e-06,3.291486248817644e-06,1.8511534494350969e-06,3.6599539913016676e-06,8.34677882915275e-06,8.802946976756569e-07,5.270442169494246e-06,2.214276805675956e-06,8.448964464945858e-06,5.410288511595447e-07,1.314264221047115e-06
174,1.8728625748214793e-06,1.866684256538227e-06,1.154358980152641e-06,1.172095894294018e-06,4.939274269991074e-06,3.5619831584522322e-06,3.351769825972065e-06,1.8686752112248519e-06,3.66353143634037e-06,8.256501227686304e-06,8.493663548063671e-07,5.235366713065024e-06,2.2377332719622407e-06,8.045830207357478e-06,5.339214721511673e-07,1.2915060869866766e-06
175,1.8582361959361204e-06,1.935676745702742e-06,1.1601452337071088e-06,1.1559629178713389e-06,4.957924159386122e-06,3.670421778465084e-06,3.408321460406822e-06,1.8838128753348187e-06,3.648519349420996e-06,8.135098036478364e-06,8.200334579678021e-07,5.194984051053481e-06,2.256209113655279e-06,7.676811306044033e-06,5.316823524083949e-07,1.2696178454412429e-06
176,1.8501672231324187e-06,2.0027351255876183e-06,1.1663319806237639e-06,1.1417071020669594e-06,4.9666575094707345e-06,3.771798277679431e-06,3.4607852061442047e-06,1.8972761643310056e-06,3.6137746529656053e-06,7.986032905154078e-06,7.927170441161868e-07,5.15067660690147e-06,2.2699674901106334e-06,7.347087548627531e-06,5.34116357185986e-07,1.2484026527500418e-06
177,1.8485283367986958e-06,2.0666691631521556e-06,1.1726316368081306e-06,1.1294918879185825e-06,4.966117528312361e-06,3.864477593861987e-06,3.508452071985747e-06,1.9101108347074888e-06,3.5590944416098764e-06,7.812578576085519e-06,7.678514761390862e-07,5.103035804466064e-06,2.279366221889942e-06,7.062121233881678e-06,5.410542109117978e-07,1.227835173469371e-06
178,1.853021411561038e-06,2.126275780178951e-06,1.178685851133459e-06,1.1195620649665144e-06,4.956351989509595e-06,3.947370332445662e-06,3.5502196840902634e-06,1.9233577544201698e-06,3.4858172156557064e-06,7.617380274759654e-06,7.45789991260079e-07,5.051718254568368e-06,2.2847158057569548e-06,6.8268970953177195e-06,5.523883648479612e-07,1.2081155678394882e-06
179,1.8632248925103682e-06,2.1803714229517815e-06,1.1841568381408382e-06,1.1121661158700038e-06,4.9366905068677156e-06,4.0199765482629975e-06,3.584722331934458e-06,1.9378628391132755e-06,3.3965889203845295e-06,7.402596371446735e-06,7.267496925508706e-07,4.995630218131881e-06,2.2863476684374258e-06,6.645723065966283e-06,5.680555061095609e-07,1.189629956687147e-06
180,1.8786732202420803e-06,2.227792355435082e-06,1.1888263607536711e-06,1.1074354982571738e-06,4.905702436718389e-06,4.082087200207621e-06,3.6105190085327718e-06,1.9542922749223407e-06,3.2945030253727502e-06,7.17038715817994e-06,7.108138293759728e-07,4.933297778790973e-06,2.284865106328711e-06,6.522818749446654e-06,5.880098849353513e-07,1.1728166712396947e-06
181,1.8990271534792558e-06,2.2673436223074144e-06,1.1925748797146693e-06,1.1053492776126633e-06,4.8614201102288675e-06,4.133343773554067e-06,3.6263574332927903e-06,1.97320917607213e-06,3.182389688640135e-06,6.9231959887635844e-06,6.979692758208962e-07,4.863213771203109e-06,2.2812838745299934e-06,6.4629996323459386e-06,6.122171862491438e-07,1.1580731920362788e-06
182,1.9241276257260886e-06,2.2978810285413526e-06,1.1952579779325824e-06,1.1057528482195305e-06,4.80185957305603e-06,4.17304390060649e-06,3.6315044168997694e-06,1.99506394388833e-06,3.062647747961484e-06,6.663755370253579e-06,6.881526896484024e-07,4.78412347708046e-06,2.2768988430833755e-06,6.471734691456265e-06,6.406415498246897e-07,1.145785775153202e-06
183,1.953840698131695e-06,2.318586880353587e-06,1.196626551525426e-06,1.108360842857309e-06,4.72556580727889e-06,4.200267212000602e-06,3.625988390915329e-06,2.0200684080562215e-06,2.9374419380384666e-06,6.395084912062698e-06,6.813057112625138e-07,4.695349636343398e-06,2.2729951193741347e-06,6.554602403159954e-06,6.732112312229348e-07,1.1364009057793417e-06
184,1.987911703846468e-06,2.3291048731800276e-06,1.1963966650359055e-06,1.112773281859581e-06,4.63191263522093e-06,4.21413791655661e-06,3.610584792716829e-06,2.048079556077471e-06,2.8089150714510735e-06,6.120503337237887e-06,6.774324540890951e-07,4.597131534019229e-06,2.270676600472813e-06,6.716664213196671e-06,7.097907985581858e-07,1.130462355407945e-06
185,2.025917975347864e-06,2.3293341320531903e-06,1.1943999768573204e-06,1.1185692626521028e-06,4.521158281879994e-06,4.214118442967469e-06,3.5865388255381382e-06,2.0786150609353796e-06,2.679166223817013e-06,5.843431802339645e-06,6.766164907824428e-07,4.490738634697899e-06,2.270934687061318e-06,6.962155883204278e-06,7.501715013394822e-07,1.1286083343021689e-06
186,2.0672037791297038e-06,2.319183700474963e-06,1.1906588869025263e-06,1.1254373027698118e-06,4.3944579712647115e-06,4.200251132407531e-06,3.5552207523863747e-06,2.1109538949981928e-06,2.550046889737991e-06,5.567063967489024e-06,6.789766570139939e-07,4.378214808263541e-06,2.2747346016289843e-06,7.294441454835823e-06,7.940493729764077e-07,1.1315029820292702e-06
187,2.110797738360098e-06,2.29861141257467e-06,1.1853461568987945e-06,1.1332046179434227e-06,4.253951830053808e-06,4.173221193200121e-06,3.5179111988756936e-06,2.1442058265127454e-06,2.423056356331005e-06,5.294252477705418e-06,6.84608268617167e-07,4.26193825036886e-06,2.2829143790141086e-06,7.715936779848297e-06,8.40997554333367e-07,1.1397094732126267e-06
188,2.1554640385375366e-06,2.267823896134539e-06,1.1787468768211e-06,1.1417204748804564e-06,4.102764349353073e-06,4.134215829982614e-06,3.475709801565917e-06,2.177343151070593e-06,2.2994076219207036e-06,5.027541406139818e-06,6.935853882267932e-07,4.144268143347753e-06,2.296051422434741e-06,8.22795002343156e-06,8.904814218355477e-07,1.1535818846207443e-06
189,2.19998864195713e-06,2.2273075775182157e-06,1.171271267822429e-06,1.1507242198646702e-06,3.944686011440597e-06,4.084678588630825e-06,3.429461440160304e-06,2.2092624457549624e-06,2.180088357869525e-06,4.768995820589358e-06,7.060088816591822e-07,4.027340070363441e-06,2.3144912383305455e-06,8.830553152302878e-06,9.41920296409349e-07,1.1732279068793801e-06
190,2.2436095371715955e-06,2.177712015456993e-06,1.1634176101220256e-06,1.1598391669004562e-06,3.78362015393478e-06,4.026102302525432e-06,3.3797115667144344e-06,2.2388884239802576e-06,2.0658577239541695e-06,4.519971774239101e-06,7.21997598949341e-07,3.9129239888776486e-06,2.338401651638955e-06,9.522411717404892e-06,9.947505865856315e-07,1.1985293468075894e-06
191,2.28632523309325e-06,2.1198619781692064e-06,1.155699108157965e-06,1.1686791738009347e-06,3.6231432935116616e-06,3.960009572371463e-06,3.3267496707137733e-06,2.2652953645281677e-06,1.9572935404661825e-06,4.281182006330779e-06,7.416263496222523e-07,3.802289838615436e-06,2.367665793801303e-06,1.0300483803373738e-05,1.048467049916589e-06,1.2291751079100584e-06
192,2.3288545538213755e-06,2.054853816917896e-06,1.1486233837788033e-06,1.1769265699083628e-06,3.466392295129505e-06,3.888144881354063e-06,3.2706614242223594e-06,2.2878428304116395e-06,1.8549112055906785e-06,4.052921063802417e-06,7.649042768516956e-07,3.696089491207727e-06,2.4017302668325437e-06,1.1159766754888088e-05,1.1026456936603544e-06,1.2646957137128375e-06
193,2.372275575063754e-06,1.9839849395020115e-06,1.1426654222675756e-06,1.1843018899019857e-06,3.3161647576685903e-06,3.8126523996086878e-06,3.211272760658753e-06,2.3062992323783036e-06,1.75920616867612e-06,3.835127416085565e-06,7.917932249819412e-07,3.594325287529116e-06,2.4395718323556033e-06,1.2093415307163779e-05,1.1569146902370386e-06,1.3045453138721546e-06
194,2.4175819167696014e-06,1.9085542455418103e-06,1.1382120074152175e-06,1.190513874828874e-06,3.174982945362137e-06,3.735950687587696e-06,3.148105543232397e-06,2.3208881789379935e-06,1.6705644818814066e-06,3.627349452472858e-06,8.22202899706709e-07,3.4964958875446963e-06,2.4797340453068558e-06,1.3093342653814e-05,1.210864870487514e-06,1.3482208699034623e-06
195,2.4653802928660253e-06,1.8297442641028475e-06,1.1355747799902339e-06,1.1952689181479465e-06,3.045016068929942e-06,3.6603404041100185e-06,3.0806259904680766e-06,2.33221008489155e-06,1.5891661618953017e-06,3.4288892013544964e-06,8.559521676137184e-07,3.401864676493652e-06,2.52034953133182e-06,1.4151070350114798e-05,1.2639769629041322e-06,1.3953074353362202e-06
196,2.5158055233212524e-06,1.748639976713517e-06,1.1350535938216165e-06,1.198307921410761e-06,2.927948112573484e-06,3.587731139802543e-06,3.008784001119903e-06,2.3410274126472255e-06,1.5149756491294914e-06,3.2390548231736944e-06,8.927365743061054e-07,3.3096704881763344e-06,2.5591845138816656e-06,1.5258560555764145e-05,1.315598387797652e-06,1.445400181830258e-06
197,2.5686138597403134e-06,1.6663181626569256e-06,1.136933114443436e-06,1.1994572802200972e-06,2.8248973945588384e-06,3.519684653556048e-06,2.93344114749829e-06,2.3479830331973083e-06,1.4478628727927434e-06,3.057204027632285e-06,9.321215331658785e-07,3.2192258758449467e-06,2.593876012367203e-06,1.6408840673843845e-05,1.3649333858914464e-06,1.498021241545581e-06
198,2.6233814222631307e-06,1.5839398382261043e-06,1.1414191890616073e-06,1.1987142548626504e-06,2.73642728819608e-06,3.4575183488590163e-06,2.8563242131516123e-06,2.353448506805879e-06,1.3878337565231018e-06,2.8826834195675977e-06,9.73536915038038e-07,3.1299840074975355e-06,2.6224642538415684e-06,1.7596050187767335e-05,1.411054095984213e-06,1.5526244947170374e-06
199,2.67970606733086e-06,1.5027712542662296e-06,1.1486305820708512e-06,1.1963402200973835e-06,2.6626641901968825e-06,3.402225805324002e-06,2.779559869432491e-06,2.3576110347818805e-06,1.3351508549649981e-06,2.715055645410127e-06,1.0162625916470252e-06,3.0415939432487545e-06,2.643893246182265e-06,1.8814471342729048e-05,1.4530050500227246e-06,1.6085878293673458e-06
200,2.7372520281388656e-06,1.424085402858361e-06,1.158662031174947e-06,1.1928781071146497e-06,2.603490083864843e-06,3.3543103438851225e-06,2.7051596215157e-06,2.3606186534062985e-06,1.2901984569247822e-06,2.554544384761569e-06,1.0594298153843524e-06,2.95391329940086e-06,2.6579772941247936e-06,2.005681034250005e-05,1.4900248910374648e-06,1.6651091377195263e-06
201,2.7955634590088452e-06,1.3490058744311307e-06,1.1716124962998577e-06,1.1890385225036421e-06,2.5587063226833557e-06,3.313747142447128e-06,2.6347524838896746e-06,2.3625562268042784e-06,1.2532760074831754e-06,2.402281002751054e-06,1.102073352247474e-06,2.8670050555912706e-06,2.66487434741919e-06,2.1313071649068434e-05,1.521738576068546e-06,1.7211084875556616e-06
202,2.853824924517011e-06,1.27841258604927e-06,1.1875230890502613e-06,1.1855466140411205e-06,2.5280714061331974e-06,3.2801419779351827e-06,2.5695611498108205e-06,2.3632685508839817e-06,1.2245057088740222e-06,2.260155733879568e-06,1.1432346720895402e-06,2.7811469140317172e-06,2.6646459419359117e-06,2.2570908172603762e-05,1.548148570251636e-06,1.7752598095194158e-06
203,2.9108125277320863e-06,1.2129431373438536e-06,1.2062812886645582e-06,1.1830643376311135e-06,2.51121344593111e-06,3.252981990915203e-06,2.510437212827749e-06,2.3622446328332646e-06,1.2038222787711855e-06,2.130382229037735e-06,1.1820386621827585e-06,2.6968241754848373e-06,2.6572764054637673e-06,2.38165144833045e-05,1.5694319979958891e-06,1.8261190527476477e-06
204,2.9650865103717697e-06,1.1530286165970295e-06,1.227572954729334e-06,1.1821538089234337e-06,2.5075183696435737e-06,3.231833779906248e-06,2.457855621246096e-06,2.3587568243609765e-06,1.1909902344062443e-06,2.015051632533339e-06,1.2176715161163372e-06,2.614690670651573e-06,2.64300863404419e-06,2.5034672038088635e-05,1.5856988239893904e-06,1.87220013878528e-06
205,3.015303240955734e-06,1.0989156458055085e-06,1.2508881174684706e-06,1.1832457328723984e-06,2.5160550036159398e-06,3.2163979052724894e-06,2.411939820571324e-06,2.352227998163819e-06,1.1856373219429536e-06,1.915915652575565e-06,1.2493195081503366e-06,2.5355064988886957e-06,2.6227030652188796e-06,2.6207680342830655e-05,1.5969111238717516e-06,1.91198412683356e-06
206,3.0604975887252024e-06,1.0506844996569214e-06,1.2755242286969609e-06,1.1866349723373546e-06,2.5355065449992055e-06,3.206431872967651e-06,2.3725973184309536e-06,2.3425617094794144e-06,1.1872812439339996e-06,1.834385233010127e-06,1.2761589037085272e-06,2.4600281753447314e-06,2.597991102380193e-06,2.7314160258745422e-05,1.60303137416758e-06,1.9440436641985262e-06
207,3.100258729746019e-06,1.0082908966770548e-06,1.3005941573659282e-06,1.1924739892095447e-06,2.564108111131387e-06,3.201684345991376e-06,2.3396932338316167e-06,2.3301675039598363e-06,1.1953440295567185e-06,1.7715803124967887e-06,1.2973595546665953e-06,2.388889539894436e-06,2.571109780627852e-06,2.8329455016963164e-05,1.604200568469896e-06,1.9673296950030163e-06
208,3.134756863057151e-06,9.716196976120115e-07,1.325105579620238e-06,1.2007498804969319e-06,2.5996448726052243e-06,3.2019727115599e-06,2.313121355841459e-06,2.3156713161592026e-06,1.2091860783195503e-06,1.7284045578994066e-06,1.3120959531258506e-06,2.3225915838199042e-06,2.5445242496989247e-06,2.9228401536056482e-05,1.6007070970853909e-06,1.981417639872304e-06
209,3.1645862162146654e-06,9.404970616349345e-07,1.3481225862623943e-06,1.2112877419004844e-06,2.6396130929126197e-06,3.207341163841985e-06,2.2927474471145637e-06,2.2995457685632182e-06,1.2282206571967997e-06,1.7057054182410321e-06,1.3196750151247099e-06,2.261565157356527e-06,2.5205620146265394e-06,2.998886354694042e-05,1.5927952869899402e-06,1.9865454136551226e-06
210,3.190497424511297e-06,9.146419200407672e-07,1.368951880837604e-06,1.2238237429485363e-06,2.681596844213911e-06,3.2181127304086815e-06,2.2783096018705888e-06,2.281903790102202e-06,1.2520493201305987e-06,1.7043919584745398e-06,1.3197016814116012e-06,2.2061696811835416e-06,2.501226249752032e-06,3.059328380278642e-05,1.5805555825753012e-06,1.9834411413979805e-06
211,3.213146524220181e-06,8.936148322717714e-07,1.3872617881180553e-06,1.2381324950119655e-06,2.7236423810702986e-06,3.234733359218339e-06,2.269324601861555e-06,2.262537733612799e-06,1.2804248365707307e-06,1.7253494444110433e-06,1.3120779818473603e-06,2.1566259120641854e-06,2.48818145426793e-06,3.102694353760072e-05,1.563978012089182e-06,1.973026135868267e-06
212,3.2328773879212333e-06,8.76838229853925e-07,1.4030628524120748e-06,1.254085789418766e-06,2.76434056160254e-06,3.2574686870984678e-06,2.264999579977211e-06,2.241121763046676e-06,1.3130687572808844e-06,1.769322167297262e-06,1.2969279038644131e-06,2.1129345117546903e-06,2.4827723220558334e-06,3.127481756997514e-05,1.5430400928093735e-06,1.956154468685988e-06
213,3.2495078423303096e-06,8.636783615023001e-07,1.4165855718267207e-06,1.2715671573583627e-06,2.8026292730346837e-06,3.286127197489083e-06,2.2642076548481966e-06,2.217426470880669e-06,1.349563077982241e-06,1.8370687211625756e-06,1.2746200323236533e-06,2.0748369688441436e-06,2.4860540300907042e-06,3.132126819157298e-05,1.5177425821405907e-06,1.9335645329672702e-06
214,3.2621829772903403e-06,8.534941072837952e-07,1.4281759255173486e-06,1.2903687011632074e-06,2.837514472208751e-06,3.319966849742433e-06,2.26556987923222e-06,2.1914361554165533e-06,1.3893524250371347e-06,1.9296983330798465e-06,1.2457925621831003e-06,2.0418644566708087e-06,2.498852716163891e-06,3.115478388657684e-05,1.4881695636316507e-06,1.90598518206901e-06
215,3.26942409444376e-06,8.456236570007947e-07,1.4382770025928912e-06,1.3101989159611157e-06,2.8679008213537608e-06,3.3578365069696146e-06,2.2675664935374636e-06,2.1633385365311804e-06,1.4317967682537289e-06,2.048774017289949e-06,1.2112966608824894e-06,2.013423100175403e-06,2.5217497909197943e-06,3.077493488953262e-05,1.4546571433039786e-06,1.8741430527371062e-06
216,3.2694599370717124e-06,8.394003595311299e-07,1.4474400876786135e-06,1.3307659931874058e-06,2.8927464357712424e-06,3.398577778486224e-06,2.268710496149526e-06,2.1334051192033186e-06,1.4762746894353552e-06,2.1960476755145997e-06,1.1721293719621967e-06,1.988876427848367e-06,2.5549985344310797e-06,3.0196135430684042e-05,1.417953098404032e-06,1.838653206836153e-06
217,3.2607548968703967e-06,8.342245197308265e-07,1.4562751507370669e-06,1.3518762353216612e-06,2.911536375200164e-06,3.441654851644543e-06,2.2679655001363477e-06,2.101813452358548e-06,1.5223168797157646e-06,2.373104200033488e-06,1.1293811468123492e-06,1.9676090954046256e-06,2.5984838703371313e-06,2.9444807703411568e-05,1.379146846757548e-06,1.7999998191049935e-06
218,3.242462008213625e-06,8.295935787968885e-07,1.465337507399652e-06,1.373491810977665e-06,2.9246572822234036e-06,3.4876946063131894e-06,2.265263643984003e-06,2.0685238109743695e-06,1.5697448253207854e-06,2.58119613052083e-06,1.0841586522271159e-06,1.949022012042295e-06,2.6517408443401535e-06,2.855185212125139e-05,1.3393926803067697e-06,1.7586371017481056e-06
219,3.2145793187765817e-06,8.250887491268196e-07,1.4750160344765253e-06,1.395661579984357e-06,2.9332993414523486e-06,3.5384571943751933e-06,2.261602731652986e-06,2.033334145927998e-06,1.6187224523782667e-06,2.8213458936296584e-06,1.0374843138044602e-06,1.932497865696637e-06,2.7140568264478812e-06,2.7546352056258864e-05,1.2996814334725043e-06,1.7150742293728854e-06
220,3.177823937866278e-06,8.204395453118176e-07,1.4854770722999859e-06,1.4183520120147465e-06,2.938980526966616e-06,3.596202649344477e-06,2.2585532178802835e-06,1.996085682927112e-06,1.6696007527269724e-06,3.0946289784897043e-06,9.902184508067638e-07,1.9174352354823002e-06,2.7846343048507018e-06,2.6453735633498272e-05,1.2607883510580006e-06,1.669885665463496e-06
221,3.1333706482637637e-06,8.156231370053086e-07,1.4966774555296311e-06,1.4413141723182079e-06,2.94312121642098e-06,3.6630573682495707e-06,2.2576436029673914e-06,1.9568467545714233e-06,1.7226717350232776e-06,3.4023998701459353e-06,9.430377018553752e-07,1.9033112702486385e-06,2.862671581864636e-06,2.529630107380417e-05,1.2233017829016017e-06,1.623684633303106e-06
222,3.082579011583029e-06,8.10832714315045e-07,1.5084250703643497e-06,1.4640539588249505e-06,2.946990431686487e-06,3.740840662091205e-06,2.2600477300682447e-06,1.915978344491663e-06,1.778028371971216e-06,3.7462376361637424e-06,8.964596133367627e-07,1.889632274485795e-06,2.947353117012259e-06,2.4093794628808244e-05,1.187646864689726e-06,1.5771007882437314e-06
223,3.0267716189745154e-06,8.063858058260112e-07,1.5204580268007848e-06,1.4858685010429247e-06,2.9519286804108105e-06,3.831144196359132e-06,2.2665219331868018e-06,1.8741140030531916e-06,1.835547122513193e-06,4.1276800945601025e-06,8.508683596536298e-07,1.8757830361494238e-06,3.0379414319546246e-06,2.2863997358392398e-05,1.1541508875688427e-06,1.5307749585002575e-06
224,2.9670541281054962e-06,8.027118091367153e-07,1.5324894663664814e-06,1.5059262389211714e-06,2.959530356281971e-06,3.935314645306762e-06,2.2774196054204395e-06,1.8320628062823633e-06,1.8949705870423732e-06,4.547978541674785e-06,8.065233867781234e-07,1.860954106643085e-06,3.1340679063691984e-06,2.1623426521437475e-05,1.123150494540441e-06,1.4853620399624692e-06
225,2.9041510924588476e-06,8.003283921516657e-07,1.5441552964694591e-06,1.5234588538444267e-06,2.9716127752497976e-06,4.054285323526767e-06,2.2927721290307646e-06,1.7906242256862387e-06,1.9560729461487294e-06,5.007925112279387e-06,7.635719766726202e-07,1.8442270809574723e-06,3.2359898626424485e-06,2.038782778639872e-05,1.0950084771813316e-06,1.4415266027134315e-06
226,2.838344124954332e-06,7.997715709061637e-07,1.5549091796004533e-06,1.5380499479995268e-06,2.99001219508934e-06,4.188425401251889e-06,2.3124541553018484e-06,1.7504195321503654e-06,2.0187986043997768e-06,5.507662130364872e-06,7.220725566072681e-07,1.8247212202666659e-06,3.344474412415953e-06,1.9172397663026743e-05,1.070001343569933e-06,1.3999154711123835e-06
227,2.7696239801471058e-06,8.015691549946339e-07,1.5639649954739951e-06,1.549788664134913e-06,3.0163405849635377e-06,4.337612779347907e-06,2.3363699901127494e-06,1.7118375973945358e-06,2.083224901377358e-06,6.0464836663318915e-06,6.820269516216067e-07,1.8017150359234587e-06,3.460381422148108e-06,1.799188557169884e-05,1.0482106261333528e-06,1.3610900385235215e-06
228,2.6979860229091943e-06,8.062166805778969e-07,1.5703167027538736e-06,1.5591341551540073e-06,3.051851388871047e-06,4.501527774341427e-06,2.3646077988569296e-06,1.6750328801462662e-06,2.1493406234297633e-06,6.62276361333829e-06,6.434072643924623e-07,1.774728218049861e-06,3.584417785682528e-06,1.68606845997037e-05,1.029525527623117e-06,1.3254281033437806e-06
229,2.6236894254142436e-06,8.14108263167796e-07,1.5728522639212563e-06,1.5666779511186627e-06,3.097457549431064e-06,4.6799436693025294e-06,2.397505028518068e-06,1.6399477975823921e-06,2.216832968683994e-06,7.23405178018107e-06,6.061475649968508e-07,1.7435457199481175e-06,3.7172635745069308e-06,1.5792953729170604e-05,1.0137422136513248e-06,1.293042428979635e-06
230,2.547356336793709e-06,8.25478984296109e-07,1.5705667977894165e-06,1.5730697520316466e-06,3.153776293825622e-06,4.872789268324926e-06,2.435523200567253e-06,1.606427852160661e-06,2.2850328477693354e-06,7.877167980820852e-06,5.701283784255193e-07,1.7081960451834122e-06,3.859747106652346e-06,1.4802741677194114e-05,1.0006759237153346e-06,1.2637583165738511e-06
231,2.4698590442349313e-06,8.403879408780117e-07,1.5628048733773194e-06,1.5790800143934207e-06,3.221182556658504e-06,5.079892518872293e-06,2.478971075766845e-06,1.5743725768296433e-06,2.3530181463311934e-06,8.548130137301802e-06,5.352036760656187e-07,1.6689784595145597e-06,4.012754888014912e-06,1.3904044759750662e-05,9.902043646423642e-07,1.2371636486156842e-06
232,2.3920504378071534e-06,8.587432162099686e-07,1.5494349200383483e-06,1.5856015888212814e-06,3.2999695504236067e-06,5.3005486371996e-06,2.5277762390228314e-06,1.5437682646866464e-06,2.419868360486057e-06,9.24195906513162e-06,5.012475687345552e-07,1.6265934165618681e-06,4.176960774129766e-06,1.3110752367797842e-05,9.822250807911917e-07,1.2127204609445158e-06
233,2.3145446166355154e-06,8.803788111892051e-07,1.5308993898452836e-06,1.5935510892051717e-06,3.390436301453372e-06,5.533251232602667e-06,2.581428347703534e-06,1.5145798773771019e-06,2.4849654032387044e-06,9.95244620187145e-06,4.6819856416435775e-07,1.582246961932883e-06,4.352646508571538e-06,1.2436304086923862e-05,9.765813593894689e-07,1.1899009129758008e-06
234,2.2377481848932607e-06,9.05150234696023e-07,1.5081444791605137e-06,1.6037560883086516e-06,3.4926786582207333e-06,5.775756725433811e-06,2.6390706585100785e-06,1.4866529278179013e-06,2.5480635776608705e-06,1.0671828464432785e-05,4.3611164684469884e-07,1.537541176705726e-06,4.539726410323257e-06,1.189303504447123e-05,9.730329393523742e-07,1.1683001542317809e-06
235,2.1620584669967286e-06,9.329883447181107e-07,1.4824494713486379e-06,1.6168611899668708e-06,3.6062728493456527e-06,6.025335767737739e-06,2.6996784732313674e-06,1.4597332565195725e-06,2.6090393413284453e-06,1.1390367375968696e-05,4.0518734154949074e-07,1.4941735129717402e-06,4.737914761839696e-06,1.1491885886864267e-05,9.713053508958024e-07,1.1476901311123195e-06
236,2.0879429641229307e-06,9.638902966672127e-07,1.455180200119651e-06,1.6332657358274138e-06,3.730173863376654e-06,6.2791042006338014e-06,2.7622957181009127e-06,1.4335015798013247e-06,2.66764177531841e-06,1.2096067505377564e-05,3.757693260171812e-07,1.4536643789734112e-06,4.9469802914455105e-06,1.1242918483041131e-05,9.711943570935373e-07,1.1279881426179343e-06
237,2.015868638206887e-06,9.978606690469986e-07,1.4275592998516075e-06,1.6531348997626246e-06,3.862954605930206e-06,6.5344961898700954e-06,2.8262787708561574e-06,1.4075110728163962e-06,2.7235322381313406e-06,1.2774713623163681e-05,3.483560527331548e-07,1.4172428217850824e-06,5.1670002749576374e-06,1.1155880018763509e-05,9.726496329031515e-07,1.1091469186096895e-06
238,1.946295061441518e-06,1.034831191604493e-06,1.4005548859577593e-06,1.6764616921623401e-06,4.003305731980013e-06,6.789809867567448e-06,2.8914177317286444e-06,1.381150666787383e-06,2.7764301737050896e-06,1.3410219120252174e-05,3.23612503680543e-07,1.3858408712065704e-06,5.3983828134223375e-06,1.1240057800960567e-05,9.75743976393494e-07,1.0910376340624216e-06
239,1.8797260437354278e-06,1.0745965240201142e-06,1.37488571282486e-06,1.7030893404796616e-06,4.150496055468243e-06,7.0445520489500796e-06,2.9578571126323376e-06,1.3538172647492962e-06,2.8261141316082845e-06,1.3985458281365833e-05,3.0232817091731843e-07,1.3601104387878229e-06,5.641497953332128e-06,1.1503587768569774e-05,9.805494432113996e-07,1.0733962704602629e-06
240,1.816647258007187e-06,1.1167766879169929e-06,1.3510618892927937e-06,1.7327045791539173e-06,4.3045369174496026e-06,7.2994260159342765e-06,3.0259127027327142e-06,1.325211524701561e-06,2.8724168851157347e-06,1.4483836502868914e-05,2.853429382084307e-07,1.3404467612393798e-06,5.896120781994508e-06,1.1952711449506052e-05,9.870547118033038e-07,1.0558479152281267e-06
241,1.7573889740312192e-06,1.1607928815938119e-06,1.3294095993337464e-06,1.7649139194731664e-06,4.466129448649603e-06,7.556076406691293e-06,3.095898385776731e-06,1.2954533519265818e-06,2.9153304014304057e-06,1.4891289738015515e-05,2.735192218546252e-07,1.3270937840644802e-06,6.161021156675648e-06,1.2591386865812814e-05,9.951911885998162e-07,1.0380221040214594e-06
242,1.7021017499869137e-06,1.2058516285540513e-06,1.310143536722391e-06,1.7993932748847183e-06,4.636585825812134e-06,7.816721688596857e-06,3.1679628650234546e-06,1.2649188500733166e-06,2.9549926516895134e-06,1.5197815601429398e-05,2.678136407200196e-07,1.3203393456090114e-06,6.433770540122223e-06,1.3421331796019581e-05,1.0049058816396915e-06,1.0197146052645118e-06
243,1.6508951931005388e-06,1.2509370197027353e-06,1.293520310204078e-06,1.8359544637952805e-06,4.817700928524824e-06,8.083662496579214e-06,3.2420072109440806e-06,1.2340498896540278e-06,2.9914382420628802e-06,1.5397843325384764e-05,2.694208521628311e-07,1.3206144537525785e-06,6.71066737861731e-06,1.4442116033694992e-05,1.0161816281181848e-06,1.0009427028965091e-06
244,1.6040078200459543e-06,1.2948052550856875e-06,1.2799107915823647e-06,1.874451969205019e-06,5.011411960058442e-06,8.35869848670655e-06,3.3177987130130326e-06,1.2032933186749617e-06,3.0243392321400218e-06,1.5489313609973253e-05,2.7986297543213764e-07,1.3283917481595596e-06,6.986766347315619e-06,1.5650974134606304e-05,1.0289787242015514e-06,9.818580823006652e-07
245,1.5618673500397775e-06,1.336002539177117e-06,1.2696788613530319e-06,1.914654197876556e-06,5.219292182597961e-06,8.642615524902775e-06,3.3951483631574186e-06,1.1730439942583901e-06,3.052939213204196e-06,1.5471884716854842e-05,3.009394811604908e-07,1.3440365620286075e-06,7.2561051042054755e-06,1.7042597455954722e-05,1.0431798624774875e-06,9.626555564273847e-07
246,1.525012060990614e-06,1.37299174816475e-06,1.2630135914761366e-06,1.9562372695247704e-06,5.442185490506792e-06,8.934820100964422e-06,3.4739503651511013e-06,1.143573535707439e-06,3.0762593195251333e-06,1.5345820213059604e-05,3.346277267110661e-07,1.3677653425440083e-06,7.512170649666294e-06,1.8609325532447296e-05,1.0586595243507776e-06,9.435523870634826e-07
247,1.4939268695353705e-06,1.404441673969315e-06,1.259893990842199e-06,1.9988398383044496e-06,5.680130066740448e-06,9.233073257477178e-06,3.5541404096999875e-06,1.1150481629176172e-06,3.093542914776339e-06,1.5113154038358775e-05,3.8304215674646717e-07,1.3997626065127033e-06,7.748458698075592e-06,2.03414689638411e-05,1.0754522393668218e-06,9.248641281809438e-07
248,1.4688822014263618e-06,1.4295563800818374e-06,1.2601813234242332e-06,2.0420153944570846e-06,5.932452738761482e-06,9.53344971754937e-06,3.6357043177358485e-06,1.0875891555415792e-06,3.104561348189864e-06,1.4780058863746531e-05,4.484312598204383e-07,1.4404356399991645e-06,7.958980480223593e-06,2.2227186610100835e-05,1.0938128168675702e-06,9.071688432944604e-07
249,1.4498414974752576e-06,1.4482282881416776e-06,1.2637077058762087e-06,2.0851573214409828e-06,6.1979974889286005e-06,9.830804836535236e-06,3.7187015342616857e-06,1.0613554466339464e-06,3.1095412314248326e-06,1.435772514383007e-05,5.331595511322296e-07,1.49065678529048e-06,8.138794666306441e-06,2.425210513916736e-05,1.1140881053393091e-06,8.913682680897345e-07
250,1.4364348107777158e-06,1.4609405721061888e-06,1.2702647937965462e-06,2.127586003479259e-06,6.475490973318909e-06,1.0119759303035126e-05,3.8032173738007893e-06,1.0366933929231127e-06,3.1091060453315992e-06,1.3861073604322244e-05,6.396874858624093e-07,1.5518513992712391e-06,8.284609630088617e-06,2.639941336577543e-05,1.1365577403207454e-06,8.785235575804599e-07
251,1.4279864299761146e-06,1.4685122583535153e-06,1.2795498917088135e-06,2.168760232321836e-06,6.763830555322515e-06,1.0395840756267662e-05,3.889295540354025e-06,1.0142135789278669e-06,3.1044424962027944e-06,1.330679451890815e-05,7.706126787216144e-07,1.6259007881387392e-06,8.395146248958375e-06,2.8650775476167613e-05,1.1613921749373216e-06,8.696615947261899e-07
252,1.4236378242997576e-06,1.4718226722670762e-06,1.291190053155895e-06,2.2084389140027734e-06,7.06205182131894e-06,1.0656319787871452e-05,3.976985777605065e-06,9.946788983165441e-07,3.09727809123563e-06,1.271191969455277e-05,9.287617424722528e-07,1.7148856522536683e-06,8.470829940083138e-06,3.098786104135197e-05,1.1887243166224522e-06,8.657761471896176e-07
253,1.4225902109833714e-06,1.4716797055869864e-06,1.3048350925092095e-06,2.2467024065186976e-06,7.368981372993899e-06,1.0900374991672863e-05,4.066491387951413e-06,9.788478886486887e-07,3.089495619442344e-06,1.2092877172900371e-05,1.117211968402438e-06,1.8207854757193583e-06,8.512781125273739e-06,3.3393970788419416e-05,1.2187084597684011e-06,8.679789359885781e-07
254,1.4243359679777305e-06,1.4689023040532675e-06,1.3201950207803583e-06,2.2838301668854963e-06,7.682743806851796e-06,1.112849401267053e-05,4.158186413178178e-06,9.67393515917876e-07,3.0827720751772056e-06,1.1464615018904498e-05,1.3391978859280162e-06,1.945279250714565e-06,8.521707239918573e-06,3.58549128896962e-05,1.2514646511385195e-06,8.77586818711929e-07
255,1.4286675202441273e-06,1.4644421677986888e-06,1.3369635305337446e-06,2.320084408890026e-06,8.000299364235508e-06,1.1341471738347557e-05,4.252333409872167e-06,9.60860053757309e-07,3.0785459704582465e-06,1.0839848327048034e-05,1.5979937279396973e-06,2.089667223773096e-06,8.497525735088447e-06,3.835814990016108e-05,1.286973895222245e-06,8.960747056813811e-07
256,1.4354857161019945e-06,1.4593511619141444e-06,1.3547456903796898e-06,2.3555109850350664e-06,8.317250733629624e-06,1.1539708212231334e-05,4.348678368921163e-06,9.596620447113347e-07,3.078145602062638e-06,1.0228724700358704e-05,1.8968397972190205e-06,2.2548425214574875e-06,8.43989419397335e-06,4.0889940438132514e-05,1.3250396195330565e-06,9.250498836322769e-07
257,1.4446682486762823e-06,1.4546511577429432e-06,1.3731392688082257e-06,2.3898767296571595e-06,8.628161507514149e-06,1.1723317692061093e-05,4.446308328722484e-06,9.64141392738753e-07,3.082770968588008e-06,9.638934220577212e-06,2.2388963016571306e-06,2.4412820534496032e-06,8.3489535081406e-06,4.3431894411730597e-05,1.3653527357662813e-06,9.663126968621907e-07
258,1.4561128005683745e-06,1.4512560264306846e-06,1.3919360530292504e-06,2.4227059722622268e-06,8.927343499506689e-06,1.1892881064638198e-05,4.543937918636566e-06,9.745927922583659e-07,3.093386797354579e-06,9.076017013262383e-06,2.627211085866029e-06,2.6490874141087184e-06,8.225576810578308e-06,4.5959421726802736e-05,1.40763483362722e-06,1.0218597500730568e-06
259,1.4698140535612772e-06,1.449943266173056e-06,1.4112791171170459e-06,2.4532573848789774e-06,9.209739174117584e-06,1.2050132564957926e-05,4.640382064116519e-06,9.91205357928093e-07,3.110764392676912e-06,8.543612706091205e-06,3.064719718087983e-06,2.8780886154303405e-06,8.071094931980072e-06,4.8442988071955616e-05,1.451723063611675e-06,1.0937862801628154e-06
260,1.4858373342508178e-06,1.4513199512311024e-06,1.4316426129545972e-06,2.480439261057159e-06,9.4715068168807e-06,1.219795595734974e-05,4.734810531200759e-06,1.01399104021904e-06,3.1356217895912407e-06,8.043629639637648e-06,3.554238879586481e-06,3.1279755988077803e-06,7.887000241536896e-06,5.085061272279168e-05,1.4974726222501712e-06,1.1841883671750947e-06
261,1.5041984594955051e-06,1.4557951815236138e-06,1.4536346920543433e-06,2.5027853358587523e-06,9.710160159679556e-06,1.233958564685892e-05,4.82661536903418e-06,1.0427572911692992e-06,3.1686755712415592e-06,7.57656246822185e-06,4.09833941725896e-06,3.3984389048038614e-06,7.675108999433936e-06,5.314964977206285e-05,1.5445925523427382e-06,1.2950782214851224e-06
262,1.5247455601483804e-06,1.4635562162839083e-06,1.4777792748086715e-06,2.518560864079765e-06,9.924377588385987e-06,1.2477386929250387e-05,4.915100666931598e-06,1.0771106882565858e-06,3.2105530513117008e-06,7.142012962199973e-06,4.699070706609891e-06,3.6892782406584324e-06,7.438145439779553e-06,5.530675831407684e-05,1.5926168303742946e-06,1.428280709784912e-06
263,1.5471368597664307e-06,1.4745565675807268e-06,1.5044101342026118e-06,2.5260664334245773e-06,1.0113691925903536e-05,1.261180832469815e-05,4.999277329572595e-06,1.1164731176994106e-06,3.2616281092128293e-06,6.739032835009267e-06,5.357684339341626e-06,4.000366208635853e-06,7.180181956993047e-06,5.728576334283061e-05,1.641026331815402e-06,1.5853488947004594e-06
264,1.57091512698648e-06,1.4885370453502621e-06,1.5336644035657013e-06,2.524070551335798e-06,1.0278137587365787e-05,1.2740970129750147e-05,5.077733889287945e-06,1.1601011621895322e-06,3.3218941452708127e-06,6.366093375007547e-06,6.074512662026955e-06,4.331428822799279e-06,6.906388795336131e-06,5.904473708617753e-05,1.6893560911030392e-06,1.7675520628564045e-06
265,1.5956022127804625e-06,1.505045078348216e-06,1.5655073096841936e-06,2.5120800031477294e-06,1.041774396761629e-05,1.2860915068542706e-05,5.1484225183245325e-06,1.207103158518135e-06,3.3909714703620277e-06,6.021167590781361e-06,6.848993825378735e-06,4.681748309230809e-06,6.622144221700385e-06,6.053567246332988e-05,1.7371526633676398e-06,1.975975428192102e-06
266,1.6207972647887832e-06,1.5234690938950478e-06,1.599744895018406e-06,2.4903007186767653e-06,1.0531788232951965e-05,1.2966233156918005e-05,5.208479993297173e-06,1.2564924520132149e-06,3.468313963329767e-06,5.7022273303332355e-06,7.679751536944041e-06,5.049908676584728e-06,6.332156942617866e-06,6.170962110690202e-05,1.7838779481277817e-06,2.2117067885121835e-06
267,1.6462905012625042e-06,1.5431150613498102e-06,1.6360738735181856e-06,2.4594487003298695e-06,1.0618040301892404e-05,1.3050812122750068e-05,5.254275551902965e-06,1.3073017509630474e-06,3.5534738491336887e-06,5.4075757791681615e-06,8.564629800211204e-06,5.433623603574493e-06,6.040171124653939e-06,6.25257247905705e-05,1.8289579443997478e-06,2.4759466431084005e-06
268,1.672121322749185e-06,1.563241056098684e-06,1.6742143448184116e-06,2.420586366364555e-06,1.0672585661662036e-05,1.3108604842037636e-05,5.281690978623845e-06,1.3586626652475267e-06,3.646059815838673e-06,5.135585096762539e-06,9.500518367868304e-06,5.829627926614874e-06,5.74911562821309e-06,6.295810849318978e-05,1.8720132748548901e-06,2.7699161268576854e-06
269,1.6984977753885395e-06,1.583040628888192e-06,1.7139771743536731e-06,2.3749907464975868e-06,1.0690677756060975e-05,1.3134443450606783e-05,5.286734259765942e-06,1.4097807610784128e-06,3.7453952055169417e-06,4.884387319003433e-06,1.0482898860422418e-05,6.23365582915053e-06,5.461287842073037e-06,6.299524603229942e-05,1.9131401669637864e-06,3.0946678592337525e-06
270,1.7256220766093242e-06,1.6017001859963462e-06,1.755159950680562e-06,2.3239836291171615e-06,1.0668352253207369e-05,1.3124957109623473e-05,5.2665639436414986e-06,1.4599336556849166e-06,3.850378584468098e-06,4.652009123773875e-06,1.150532129162858e-05,6.64048779965495e-06,5.178667985317389e-06,6.263237935072085e-05,1.953010545658028e-06,3.4509631825997037e-06
271,1.7536228805950057e-06,1.6185639927812808e-06,1.797429932639168e-06,2.2687362540192632e-06,1.0603892148474779e-05,1.3079416879266684e-05,5.2204824533734865e-06,1.508550292512164e-06,3.959788773243289e-06,4.436644812917747e-06,1.255919105199399e-05,7.043969018326645e-06,4.903496351238521e-06,6.186466467434698e-05,1.9926706941154898e-06,3.839248793285817e-06
272,1.7826962645432824e-06,1.6333146767421688e-06,1.8403141953208738e-06,2.2101987248215017e-06,1.0498395502377659e-05,1.3000176578761262e-05,5.150254190884648e-06,1.555200976422063e-06,4.072685779188885e-06,4.236873857256405e-06,1.3634249135377313e-05,7.437200653778871e-06,4.638623013299387e-06,6.0689379880707275e-05,2.0332862213729596e-06,4.259657481284575e-06
273,1.813253952702928e-06,1.6460784535385303e-06,1.8831997575010804e-06,2.149235678436428e-06,1.0355498412032801e-05,1.2892553388562252e-05,5.059647778181391e-06,1.5994711840992858e-06,4.18842803219486e-06,4.052050967312947e-06,1.4719677085323351e-05,7.813107208273708e-06,4.387224567743313e-06,5.9116305072576184e-05,2.0760652358846388e-06,4.711941475118487e-06
274,1.8458749853248481e-06,1.6573753263851568e-06,1.9252778265179986e-06,2.086779603728561e-06,1.0180756236501547e-05,1.276418082856902e-05,4.953631451444063e-06,1.6409148012829563e-06,4.306265507656559e-06,3.882707465599671e-06,1.5804878702696126e-05,8.1648107379294e-06,4.15224088683725e-06,5.7176600964219885e-05,2.1221891736525286e-06,5.19535477994672e-06
275,1.881121511977894e-06,1.6679105556788779e-06,1.965523306573198e-06,2.0237837705433384e-06,9.980986666322945e-06,1.2623919359825737e-05,4.837619775357912e-06,1.6791288600393491e-06,4.4249870016554025e-06,3.7304572935096022e-06,1.6879040764538462e-05,8.485332021415985e-06,3.936025886758728e-06,5.492280695468968e-05,2.172631744718245e-06,5.708571994252822e-06
276,1.919374938906017e-06,1.67841695374798e-06,2.0027457358355344e-06,1.961026672260493e-06,9.763651568836707e-06,1.248048762229817e-05,4.716886999175401e-06,1.7137751824668017e-06,4.5430017310442964e-06,3.597361705174868e-06,1.7930067949107268e-05,8.76744616457986e-06,3.740245663097951e-06,5.242118451601115e-05,2.2280293083355704e-06,6.249657794292394e-06
277,1.960751391704607e-06,1.6897302756905132e-06,2.0356209678653568e-06,1.8989529778585714e-06,9.536283133768331e-06,1.2341213595119686e-05,4.596161086603471e-06,1.7444743684488836e-06,4.65873129607298e-06,3.4852533922567664e-06,1.8944249696439388e-05,9.004547779224806e-06,3.565933983756101e-06,4.974240526420977e-05,2.2886628535288167e-06,6.816028076934736e-06
278,2.005062973555554e-06,1.7029438233075042e-06,2.0627536673574095e-06,1.837634225806277e-06,9.305870391822962e-06,1.2211532917939043e-05,4.479482608483672e-06,1.7707636382782472e-06,4.771047388659286e-06,3.395403743037056e-06,1.9906643703574454e-05,9.191841212698351e-06,3.4137361719682214e-06,4.695486690721244e-05,2.3544503982671507e-06,7.404360216554963e-06
279,2.0518157858052513e-06,1.7193960159827925e-06,2.0829458004083416e-06,1.7768492878724973e-06,9.078190147712307e-06,1.2095421695639552e-05,4.370304722424173e-06,1.7922810251033917e-06,4.87960843908374e-06,3.328484613577125e-06,2.0800894541154594e-05,9.326686369152627e-06,3.284224508455793e-06,4.41208820830917e-05,2.4249240111263488e-06,8.010485040441767e-06
280,2.1003146520163785e-06,1.7404668134307053e-06,2.0955555494545957e-06,1.716246398848774e-06,8.857304590217384e-06,1.1996092139645367e-05,4.271595205321717e-06,1.809017647469046e-06,4.9849988397872284e-06,3.2846706410324327e-06,2.1608195047939026e-05,9.407814850308747e-06,3.178018731883583e-06,4.129445302700675e-05,2.4992483017215293e-06,8.629316584581726e-06
281,2.14988898209682e-06,1.7673409495139597e-06,2.1005804230497124e-06,1.6555140900515372e-06,8.64544396457824e-06,1.1916230499152023e-05,4.185768607469015e-06,1.82139052551536e-06,5.0886757564216935e-06,3.2637601931278396e-06,2.230700960842405e-05,9.434103519285452e-06,3.0956188138094675e-06,3.8520484552792934e-05,2.5762667318582052e-06,9.254773050411734e-06
282,2.2000896001158736e-06,1.8009103203475261e-06,2.098372950561465e-06,1.5945544753490867e-06,8.443258487786889e-06,1.185777370208894e-05,4.114504025161364e-06,1.8301030993150255e-06,5.192838633553845e-06,3.2651786340154197e-06,2.287525625638535e-05,9.40422227499335e-06,3.0371448607859854e-06,3.5835647075462506e-05,2.6544821818306554e-06,9.879534073383901e-06
283,2.250685730633725e-06,1.8418322763632324e-06,2.08926218336652e-06,1.533664678553355e-06,8.250387901447005e-06,1.1821743062573268e-05,4.058649261950109e-06,1.835917015077463e-06,5.300319631127476e-06,3.2879258244960877e-06,2.329446714648446e-05,9.317757508601888e-06,3.002214484547065e-06,3.326992540777181e-05,2.731973197360119e-06,1.0494641004031528e-05
284,2.301461423412298e-06,1.8906101222521586e-06,2.073363792569547e-06,1.4735941271762497e-06,8.0663051125084e-06,1.180855646717291e-05,4.018426328651736e-06,1.8394491576330583e-06,5.414453224856797e-06,3.330620841266519e-06,2.3553378926613482e-05,9.176683792789321e-06,2.9900114020902097e-06,3.0847667142113313e-05,2.806413545868956e-06,1.1089321969234766e-05
285,2.3519747360491024e-06,1.9475931369914337e-06,2.0506932302877455e-06,1.4153651908080097e-06,7.891123019497353e-06,1.1818623816762699e-05,3.993913437259458e-06,1.8410625068314041e-06,5.538748290152285e-06,3.3915677183428055e-06,2.364820349370645e-05,8.985617969415363e-06,2.9994214457057718e-06,2.858804754288682e-05,2.875315543818214e-06,1.1651383144574126e-05
286,2.401458376752574e-06,2.012909326587403e-06,2.0214718889006604e-06,1.359985526775133e-06,7.725865117361562e-06,1.1852517893279334e-05,3.985445380325327e-06,1.840896913491591e-06,5.676362119994866e-06,3.46871085050558e-06,2.3579365789745897e-05,8.750639915266932e-06,3.029048417615035e-06,2.6505536931639718e-05,2.936358131313651e-06,1.2168021858873414e-05
287,2.4488881797244067e-06,2.086426980266587e-06,1.9863480809466646e-06,1.3082933463643405e-06,7.571971356513937e-06,1.1910350858202896e-05,3.993579893949749e-06,1.839046181393121e-06,5.829767574869987e-06,3.5595620196732715e-06,2.334860552093702e-05,8.478011624595454e-06,3.077141465921554e-06,2.461055586215372e-05,2.987572883929679e-06,1.2626818063120385e-05
288,2.4930826615194116e-06,2.1677985358018506e-06,1.946415843285293e-06,1.261014323685106e-06,7.430406244912333e-06,1.1990995797939777e-05,4.018705982773524e-06,1.835820155706086e-06,6.000940085192489e-06,3.661207809844816e-06,2.2960051697237844e-05,8.174032206936462e-06,3.1415838028772043e-06,2.2909786666209852e-05,3.0273900228140758e-06,1.3016951249044968e-05
289,2.532724528248393e-06,2.2564864649222172e-06,1.903142759660139e-06,1.2188814075934324e-06,7.3011340058995455e-06,1.209210958936928e-05,4.060773177070859e-06,1.8319346061084488e-06,6.191891658615864e-06,3.7702991449200544e-06,2.242355914894227e-05,7.845649862482173e-06,3.219917337727978e-06,2.140583765272516e-05,3.0547228773134242e-06,1.3330537546532005e-05
290,2.5663563813752023e-06,2.351688314678307e-06,1.8582365794230407e-06,1.1826421878085873e-06,7.183333126624066e-06,1.2210970467415627e-05,4.119447737592722e-06,1.8284651907731296e-06,6.405121294643755e-06,3.882945991860048e-06,2.175648668178864e-05,7.500748987457353e-06,3.3093971821504235e-06,2.0097044037550117e-05,3.0690939392515456e-06,1.3563378760870917e-05
291,2.592503092326551e-06,2.4522629716914426e-06,1.81340901489919e-06,1.1529832248547225e-06,7.075941647233966e-06,1.2345286121548373e-05,4.194425956676628e-06,1.8266184660038367e-06,6.643603858672807e-06,3.994691892478293e-06,2.0982839540448435e-05,7.147818319905427e-06,3.407121671957521e-06,1.8978166030554763e-05,3.070553192778614e-06,1.3714289207171355e-05
292,2.6099982412879203e-06,2.556759828945936e-06,1.7701454541252395e-06,1.130518231224199e-06,6.977961626215452e-06,1.2493261202751542e-05,4.2854446506874855e-06,1.8275379031760946e-06,6.910262719782942e-06,4.100811878305384e-06,2.0130827392274467e-05,6.795326176633215e-06,3.510182589439296e-06,1.804153735070345e-05,3.0593426184392123e-06,1.3783166389158509e-05
293,2.618346199357885e-06,2.6635122502584642e-06,1.7296105939744165e-06,1.115833968510245e-06,6.8883366236562694e-06,1.2652808345450175e-05,4.391961251521446e-06,1.8322306527703443e-06,7.2074056527995275e-06,4.196963087319117e-06,1.9229992491590982e-05,6.451087012310763e-06,3.6158013854191937e-06,1.727788816040325e-05,3.0356794751502723e-06,1.3769358270708803e-05
294,2.617784083845068e-06,2.770741268266242e-06,1.692690923455538e-06,1.1094808528293146e-06,6.8055390570243336e-06,1.2820366731206493e-05,4.5129422966271895e-06,1.841560294987831e-06,7.536555308087728e-06,4.279900941252798e-06,1.8308653816881144e-05,6.121781616854222e-06,3.7214866477275456e-06,1.6676560275029063e-05,2.99985507108296e-06,1.3671727371539342e-05
295,2.6089542838292853e-06,2.876667821286475e-06,1.6601054901889316e-06,1.111912034662893e-06,6.727149264911456e-06,1.2990140686415416e-05,4.647047234094132e-06,1.8562550669932554e-06,7.898469712049425e-06,4.347831297975916e-06,1.7392134724058206e-05,5.8127501974747824e-06,3.825275705854217e-06,1.6225178481957114e-05,2.952362299540489e-06,1.3490026297623396e-05
296,2.5925537940364727e-06,2.9796326495056964e-06,1.6324618423976042e-06,1.1234490338765036e-06,6.649771440054446e-06,1.3154405204899184e-05,4.79298043686057e-06,1.8768817179275261e-06,8.293010231471247e-06,4.400126460569927e-06,1.6502043054155644e-05,5.52800997742426e-06,3.926017972757901e-06,1.5909180489190806e-05,2.893849785758285e-06,1.3226245136732626e-05
297,2.5693065946886544e-06,3.078177262915785e-06,1.6102018863493476e-06,1.1443090891801834e-06,6.569502980519691e-06,1.3304925506053253e-05,4.949698547838857e-06,1.903788504380007e-06,8.718872828982945e-06,4.436557994156116e-06,1.5656491256573415e-05,5.270319661397874e-06,4.023421395405268e-06,1.57115847185549e-05,2.8250857745416633e-06,1.2885233021379571e-05
298,2.540081453652522e-06,3.170980203194022e-06,1.5935541769820232e-06,1.1746671364619493e-06,6.482758344259148e-06,1.3434918050456665e-05,5.1164187539412e-06,1.937067381956945e-06,9.17331358734048e-06,4.4566481255200585e-06,1.4870721878380983e-05,5.041224421085274e-06,4.117658537415226e-06,1.5613245890653014e-05,2.747139229057618e-06,1.2474648500309221e-05
299,2.5058136927804955e-06,3.2566219511437305e-06,1.582587392512867e-06,1.2146598629223065e-06,6.387026787098772e-06,1.3540680878759096e-05,5.2924982466765425e-06,1.976526415863827e-06,9.651931058541648e-06,4.459656110707802e-06,1.4157637950023008e-05,4.841131654278042e-06,4.208780624003926e-06,1.5594365525933333e-05,2.6616717802998535e-06,1.2004486396791251e-05
300,2.4673348665571267e-06,3.333412081563145e-06,1.5772982651049655e-06,1.2643102666310678e-06,6.281340015693684e-06,1.362217500385e-05,5.47726526628539e-06,2.021692281075682e-06,1.014866591601142e-05,4.44504501076572e-06,1.3528144701300806e-05,4.6695295734194375e-06,4.29643318891712e-06,1.563745605439834e-05,2.5709967487433994e-06,1.1486306297011134e-05
301,2.4253689017045263e-06,3.3995699525582365e-06,1.5776150825967036e-06,1.3234717154894566e-06,6.166313415814856e-06,1.3682296966655331e-05,5.6698009235496875e-06,2.0719105333434634e-06,1.0656152876940095e-05,4.412891506113766e-06,1.2991411094413852e-05,4.525488222441418e-06,4.380024752335566e-06,1.5729943705705145e-05,2.4777522012907406e-06,1.0932188321865651e-05
302,2.380576003145788e-06,3.453722250010871e-06,1.5832904392108107e-06,1.3918267700689994e-06,6.043588774248564e-06,1.37251098246014e-05,5.868686844339974e-06,2.1265021604270445e-06,1.1166183935593312e-05,4.36406027555583e-06,1.2555088935615697e-05,4.408359111905813e-06,4.459038200848341e-06,1.5864615879417563e-05,2.3844286352869737e-06,1.0353585323950482e-05
303,2.333466833446695e-06,3.4954175299189723e-06,1.5937736246022389e-06,1.4688988019702532e-06,5.91490404055415e-06,1.3753835077129632e-05,6.072074127012157e-06,2.1848410532625196e-06,1.166998236975864e-05,4.300300991661095e-06,1.2225492406543817e-05,4.3183020550616786e-06,4.533280081078771e-06,1.603836201265846e-05,2.2930597705169545e-06,9.760487020046719e-06
304,2.2843318577298876e-06,3.5254087903265482e-06,1.608151697699755e-06,1.5540720818530589e-06,5.781561088115762e-06,1.376967567424717e-05,6.278315207056453e-06,2.246285235622102e-06,1.2158428437205753e-05,4.224251304995724e-06,1.2007762969451778e-05,4.256383614341746e-06,4.6031908702425305e-06,1.6250581651801568e-05,2.2051399288247304e-06,9.161262283270331e-06
305,2.2333459288416166e-06,3.545576996404892e-06,1.625175483024763e-06,1.6466159196495335e-06,5.644679699187561e-06,1.3771962184121582e-05,6.486596373174966e-06,2.310079722568158e-06,1.26225759960487e-05,4.139151984728113e-06,1.190602285718544e-05,4.224345835306292e-06,4.670198412097e-06,1.6501689792267905e-05,2.1216611273202637e-06,8.563025852265726e-06
306,2.180749162742729e-06,3.5584723322577876e-06,1.6433870852787762e-06,1.745687810341938e-06,5.505679765621633e-06,1.3759108874446395e-05,6.696857592178103e-06,2.3754223133531455e-06,1.3054534362770914e-05,4.04830297938666e-06,1.192349012268434e-05,4.224246634937382e-06,4.7367575826630944e-06,1.679148823756701e-05,2.0432091697944194e-06,7.972007614726296e-06
307,2.1269412960928426e-06,3.5666654824702003e-06,1.661344894753398e-06,1.8503012661280864e-06,5.3664288508755435e-06,1.3729605012749511e-05,6.909040114167073e-06,2.4416679325641163e-06,1.3448370462618145e-05,3.954633652374311e-06,1.2062498318121493e-05,4.258094156483357e-06,4.805849860328267e-06,1.7117585046761612e-05,1.9700879302352084e-06,7.393685125997607e-06
308,2.0724540005493276e-06,3.572252853869569e-06,1.6778006293618731e-06,1.9592480612965945e-06,5.229130242247521e-06,1.3682659015651825e-05,7.1222457020366335e-06,2.5084705506738603e-06,1.3800360291704447e-05,3.860631468270495e-06,1.2324344240540942e-05,4.327553218302825e-06,4.880250069546816e-06,1.747450535332137e-05,1.9023819833685836e-06,6.832810341603905e-06
309,2.0178391917504525e-06,3.5766571770688777e-06,1.691680990222057e-06,2.071007360185366e-06,5.09615170796822e-06,1.3618430477452913e-05,7.334300592220022e-06,2.5758028742146983e-06,1.4108050026633988e-05,3.768426874960858e-06,1.2708974256451627e-05,4.4337179283181695e-06,4.962041210016438e-06,1.78538795811853e-05,1.839980643174949e-06,6.293449330484077e-06
310,1.9635363443653436e-06,3.580620651769957e-06,1.7020183411775916e-06,2.1836907733178612e-06,4.969772243324724e-06,1.3537949752151483e-05,7.541789982671072e-06,2.6439264083943013e-06,1.4368538251490303e-05,3.6797922916641852e-06,1.3214646996100764e-05,4.5769190007552e-06,5.052448383326726e-06,1.824551367031799e-05,1.7826681577433374e-06,5.778992140953683e-06
311,1.909811041912832e-06,3.5842803059454283e-06,1.70809188416711e-06,2.2950274880488224e-06,4.851810654995978e-06,1.3442828766548054e-05,7.740322733201343e-06,2.7132955508312642e-06,1.4577354858011647e-05,3.5960527921695265e-06,1.383767665913964e-05,4.756641696218549e-06,5.15177206595035e-06,1.8638816903215107e-05,1.7302147446690746e-06,5.292045543585356e-06
312,1.856834472832536e-06,3.5872086720405126e-06,1.7096931185764067e-06,2.402425050792631e-06,4.743267919840408e-06,1.3334725174583907e-05,7.92484148591112e-06,2.784328373626132e-06,1.4728709526603478e-05,3.51801874433976e-06,1.4572234716330992e-05,4.971581609844958e-06,5.2593628428839285e-06,1.9023985942810634e-05,1.6823596524280559e-06,4.8342696288945125e-06
313,1.8049016950157374e-06,3.5883714632692707e-06,1.707164434333683e-06,2.5031711682458022e-06,4.644139773391917e-06,1.321450077832321e-05,8.089983470380292e-06,2.85710489168503e-06,1.4816552476015218e-05,3.4460760373567806e-06,1.5410182397858868e-05,5.2196644411119086e-06,5.373710020464789e-06,1.939231164611747e-05,1.6387211289984317e-06,4.406368561746326e-06
314,1.7546761377143887e-06,3.5861510460856424e-06,1.701122795318084e-06,2.5947499948775327e-06,4.553399622031498e-06,1.3081268197201256e-05,8.230556904953994e-06,2.931166568845792e-06,1.4835788645450044e-05,3.380453451181142e-06,1.6340968202853353e-05,5.497912126314371e-06,5.4925790549971155e-06,1.973517806638806e-05,1.5987651862305933e-06,4.008314199878433e-06
315,1.7072554106368934e-06,3.578562748006401e-06,1.6921840451855177e-06,2.675147803821064e-06,4.46908187737298e-06,1.2931862919728181e-05,8.342086863709518e-06,3.005532146627562e-06,1.4783381724234655e-05,3.3214749179684355e-06,1.7351585463005594e-05,5.802312096400217e-06,5.613094921498939e-06,2.004219460396957e-05,1.5619019681786523e-06,3.639628788394246e-06
316,1.6639663801916508e-06,3.5635919934519735e-06,1.6809047873102224e-06,2.7429826250493636e-06,4.388526027540128e-06,1.2761219864691217e-05,8.421209075257156e-06,3.0789115896477065e-06,1.4659027223564684e-05,3.269568554584642e-06,1.842649234988931e-05,6.127847476184824e-06,5.731828257131671e-06,2.029982442496374e-05,1.527570746925632e-06,3.299555736611772e-06
317,1.6260667618424107e-06,3.539513023050989e-06,1.6677751148684219e-06,2.7973268023160215e-06,4.308919574292654e-06,1.2563612774000436e-05,8.465687961409463e-06,3.1500175270502135e-06,1.4465257162742606e-05,3.225056619012617e-06,1.9547396874449545e-05,6.468567724963754e-06,5.844898985494769e-06,2.0491358185967652e-05,1.4951776034900052e-06,2.9871566401984334e-06
318,1.5945942715172132e-06,3.5050917048683664e-06,1.653146573024009e-06,2.8373280323453226e-06,4.22800394454416e-06,1.2334324923098424e-05,8.474083896060501e-06,3.217844321475964e-06,1.4207246057066037e-05,3.1880192856005e-06,2.069288849535778e-05,6.817508043609156e-06,5.947938555477859e-06,2.059772157939644e-05,1.4640071271332258e-06,2.701459026808534e-06
319,1.5703829630798193e-06,3.459625922037538e-06,1.6372305043423058e-06,2.862044968253253e-06,4.144536699641065e-06,1.2071193700592719e-05,8.445263628735642e-06,3.2818078303180853e-06,1.3892470078697346e-05,3.1583387561696127e-06,2.183791219760622e-05,7.166512406631702e-06,6.036001613528077e-06,2.0598502661296225e-05,1.4332803247690275e-06,2.441661947113655e-06
320,1.5540918567280477e-06,3.4028779747638403e-06,1.620216440408472e-06,2.8707588791861572e-06,4.058292325783076e-06,1.1775361968125102e-05,8.377839344072925e-06,3.3417101878644216e-06,1.3529854713456542e-05,3.1356950413073154e-06,2.2953225096305824e-05,7.506236541646457e-06,6.103928413591663e-06,2.047394806557273e-05,1.4023280390276271e-06,2.2072729374157937e-06
321,1.5461626516360814e-06,3.3350381463374634e-06,1.6023802030135902e-06,2.863472276119991e-06,3.9696669853084465e-06,1.1450702679617904e-05,8.269718532102166e-06,3.397567521916796e-06,1.3128274294204646e-05,3.1194788514407875e-06,2.4005546847932762e-05,7.826559818102376e-06,6.147364903825087e-06,2.0209439445523108e-05,1.3707541342910603e-06,1.9980612072974136e-06
322,1.5467603809667674e-06,3.2567644651583325e-06,1.5840692607276744e-06,2.841155907844354e-06,3.879129075065768e-06,1.110220142135115e-05,8.118365424123504e-06,3.449393237702489e-06,1.2695320451781043e-05,3.108825681191967e-06,2.4959358375842805e-05,8.11744873860864e-06,6.16384789580839e-06,1.980129568669041e-05,1.3385355489792672e-06,1.8138539692123824e-06
323,1.5557466812160017e-06,3.1691341996312652e-06,1.5656146977448913e-06,2.8056222010007753e-06,3.7870194465745576e-06,1.0734659712222838e-05,7.922124667503927e-06,3.4970527123946648e-06,1.223719781880055e-05,3.102722296236188e-06,2.5780427746130187e-05,8.370124713829119e-06,6.153019684109717e-06,1.9258663665534432e-05,1.3060600964556647e-06,1.654323457221313e-06
324,1.5726749603741414e-06,3.0733646719209903e-06,1.5473404407737652e-06,2.759133193028654e-06,3.6939476532824307e-06,1.0352638951061164e-05,7.681889294906655e-06,3.540254721913473e-06,1.1759300686343475e-05,3.1000545830241395e-06,2.6439964910199192e-05,8.578122822943066e-06,6.115775318526256e-06,1.8598901048045022e-05,1.2740737070151088e-06,1.518881337963083e-06
325,1.5967951495785195e-06,2.9704956682460327e-06,1.5296898213949176e-06,2.703928444740533e-06,3.6011943660367884e-06,9.960705924324878e-06,7.401879606479577e-06,3.5786302929237548e-06,1.1266728792403498e-05,3.09972995562822e-06,2.6917811839126947e-05,8.737685015805428e-06,6.053495862087398e-06,1.784167040754411e-05,1.2434983894694833e-06,1.4066726378992495e-06
326,1.6270647217323573e-06,2.861357063571931e-06,1.5132623893283055e-06,2.6419212504337883e-06,3.5105102372773273e-06,9.562838419653834e-06,7.089048640780976e-06,3.611796200940118e-06,1.0764724325854247e-05,3.100922439756019e-06,2.7203168711201026e-05,8.847155415421103e-06,5.968346535006829e-06,1.700687927798642e-05,1.2151962809437528e-06,1.3166042109317318e-06
327,1.6621622714093733e-06,2.746815392686892e-06,1.4986647280709927e-06,2.5747088394384256e-06,3.4236135731622637e-06,9.161505909225983e-06,6.751767643223815e-06,3.6393909485198767e-06,1.0259222564014352e-05,3.103250777519608e-06,2.7292070585496126e-05,8.905690796380907e-06,5.863899201588572e-06,1.6114903291222547e-05,1.1898279186772724e-06,1.2473600310814431e-06
328,1.7005092403642095e-06,2.628003555666939e-06,1.4863307069499852e-06,2.503767087135342e-06,3.3419784943100412e-06,8.757502925083993e-06,6.398688292020438e-06,3.661142284993406e-06,9.757397780667798e-06,3.1068046648434644e-06,2.7183265402402855e-05,8.912415730771557e-06,5.745066461843833e-06,1.51864327535399e-05,1.1678271974743882e-06,1.1973855112164254e-06
