,EMG1,EMG2,EMG3,EMG4,EMG5,EMG6,EMG7,EMG8,EMG9,EMG10,EMG11,EMG12,EMG13,EMG14,EMG15,EMG16
0,2.26884546912491e-06,-5.261999753620137e-07,2.361789482438636e-06,3.352856283523304e-07,2.0508900058378293e-07,1.0995880001144855e-06,9.129493669472688e-07,4.1379779640462617e-07,-3.8517523651848437e-07,1.2510352803874664e-06,1.2542413802144277e-07,-2.1281093912083175e-08,1.6036257764887072e-06,8.843885177528949e-07,1.2788705492562476e-07,-1.2443819190693586e-07
1,2.4626634682769194e-06,5.246406758864354e-08,2.7508208561843095e-06,6.594071675721572e-07,1.0242720908541254e-06,2.544260854769463e-06,1.6934990054025842e-06,9.047986342663439e-07,2.9363717702772885e-07,1.764927468499208e-06,1.5649087107441892e-07,1.328999180464037e-07,1.7379896713454641e-06,1.284754414487935e-06,2.627515389378263e-07,3.3524749738283355e-09
2,2.6683276391989235e-06,6.131772271422028e-07,3.127262290060438e-06,9.81507237758918e-07,1.8276631744086836e-06,3.961951375268726e-06,2.4514565517763627e-06,1.3791141977455654e-06,9.55280547164596e-07,2.266811827421965e-06,1.9648007128915798e-07,2.8292779780201707e-07,1.8704375538830787e-06,1.6808487860068241e-06,4.0973727729279736e-07,1.3329090221749677e-07
3,2.8832840965678732e-06,1.151506567513762e-06,3.4894061976151563e-06,1.2983174422075553e-06,2.604809456330043e-06,5.338109767026446e-06,3.177498498545144e-06,1.8330295262848835e-06,1.5885518194314764e-06,2.7455732771996617e-06,2.4617469521396213e-07,4.289235105806384e-07,2.0004265388758603e-06,2.0665381680562633e-06,5.68910647413349e-07,2.6431165215658037e-07
4,3.1046806890164285e-06,1.6633886053800155e-06,3.835198885250785e-06,1.6066859051840656e-06,3.3470194664447893e-06,6.659334404047249e-06,3.863286530768262e-06,2.2629401633824554e-06,2.1840890821918813e-06,3.1919766589923676e-06,3.0639116830106985e-07,5.710027333963063e-07,2.1272404246678226e-06,2.4364852251242127e-06,7.406649502337088e-07,3.956557386211939e-07
5,3.3296270709131693e-06,2.145269743937053e-06,4.16204711993956e-06,1.9035413916575622e-06,4.0475504801509344e-06,7.913457301956475e-06,4.501608690455004e-06,2.6653694695336566e-06,2.7351767812192986e-06,3.599345175784136e-06,3.779747428439651e-07,7.09323057142516e-07,2.2499683840845747e-06,2.786428104853488e-06,9.258578771768409e-07,5.269743996863173e-07
6,3.5554875035914685e-06,2.5940421919876623e-06,4.4666803011727815e-06,2.1859368234485535e-06,4.701340097763604e-06,9.089339412244955e-06,5.0865067922490484e-06,3.037097535899525e-06,3.238169290800218e-06,3.9638988661170085e-06,4.6183646488508087e-07,8.441151601891798e-07,2.3674773055308257e-06,3.1134890362209913e-06,1.125778619327411e-06,6.583184619767302e-07
7,3.7800130605317653e-06,3.0068619217326287e-06,4.745069279751214e-06,2.451233839380198e-06,5.304645812900349e-06,1.0176678798194297e-05,5.613524691903685e-06,3.375322425974249e-06,3.692368050297149e-06,4.284540253064447e-06,5.589874490620067e-07,9.756187521065987e-07,2.4784073534914758e-06,3.416216050542401e-06,1.341962117447878e-06,7.90098040724066e-07
8,4.001262794045683e-06,3.38116302915039e-06,4.992415177617187e-06,2.6973087189617124e-06,5.854775805848206e-06,1.1165922837219443e-05,6.0799488124769215e-06,3.6777573701881907e-06,4.099552941916526e-06,4.562084651010766e-06,6.704916137412047e-07,1.1039886595015839e-06,2.581210851043813e-06,3.694083128374207e-06,1.5759857951080717e-06,9.230237252621016e-07
9,4.217311681563094e-06,3.7150216819869918e-06,5.20331901350474e-06,2.922616358151716e-06,6.349912020644263e-06,1.2048330373303801e-05,6.484871258167017e-06,3.942745179744629e-06,4.463455668002865e-06,4.798374136740809e-06,7.97365792859854e-07,1.2293380304623107e-06,2.674297404227355e-06,3.946793350784457e-06,1.8293258068615132e-06,1.057982432180464e-06
10,4.4258280462649955e-06,4.007618200058919e-06,5.372330152336596e-06,3.1260426188189094e-06,6.78905521401567e-06,1.2816337699514883e-05,6.829021215395541e-06,4.169515085640194e-06,4.789214696358579e-06,4.99562391877958e-06,9.405125614282119e-07,1.351993635748478e-06,2.7561743603212094e-06,4.1739598334628015e-06,2.1032991422937776e-06,1.1959225235501523e-06
11,4.623727722521394e-06,4.2594317173100556e-06,5.494798052457194e-06,3.306611908636982e-06,7.1721250389651406e-06,1.346436807287251e-05,7.114388459372816e-06,4.358485138066619e-06,5.082704655101528e-06,5.155993549770313e-06,1.1007098133480725e-06,1.4727815520858952e-06,2.8254288119015443e-06,4.375248263859593e-06,2.399110383003702e-06,1.337803492817204e-06
12,4.807110293948151e-06,4.4721310411559415e-06,5.567634811105829e-06,3.4632553050128824e-06,7.5001655553372905e-06,1.3990050368900572e-05,7.343760506290017e-06,4.511356313514543e-06,5.349792921916712e-06,5.281475131345485e-06,1.2786166302443812e-06,1.593038540317419e-06,2.8808476006178554e-06,4.55063761105108e-06,2.7179197578753686e-06,1.4845353388239818e-06
13,4.971634437633239e-06,4.648419741525293e-06,5.589763600454949e-06,3.5948657379984915e-06,7.775529763999354e-06,1.4395411247373393e-05,7.520345141763457e-06,4.630880273772056e-06,5.5957417156526705e-06,5.374079361927829e-06,1.474733272034814e-06,1.7143390583123634e-06,2.921993396564753e-06,4.700449142261228e-06,3.0607810496185223e-06,1.63689660244716e-06
14,5.113321352121183e-06,4.791995322015993e-06,5.562300147072122e-06,3.700657503328891e-06,8.001867742502685e-06,1.4687181994784118e-05,7.64749196996044e-06,4.720376753224334e-06,5.824861124030994e-06,5.4358486853909455e-06,1.689314890919075e-06,1.8382151934207193e-06,2.9498387466490355e-06,4.8251693326917796e-06,3.428447741189367e-06,1.7954987788257652e-06
15,5.2294372763167806e-06,4.907523281314573e-06,5.4885473913206e-06,3.7805528067657004e-06,8.183743820205144e-06,1.4875532838529937e-05,7.728315732270138e-06,4.783144780969117e-06,6.040314559800564e-06,5.468503096406334e-06,1.9223161539194994e-06,1.965987567209125e-06,2.9668203683825327e-06,4.925464832730442e-06,3.821183775728606e-06,1.9607655435522125e-06
16,5.319000604807482e-06,5.000464121389945e-06,5.373861019302344e-06,3.83523552713315e-06,8.325852880204036e-06,1.4971613155185953e-05,7.765222162245788e-06,4.821990411206835e-06,6.243994666056454e-06,5.473103991217059e-06,2.1734167676394097e-06,2.098645343764139e-06,2.9762548360304494e-06,5.002360229422507e-06,4.238626294710091e-06,2.1328569047639368e-06
17,5.38273214762344e-06,5.076716786554834e-06,5.225357817136055e-06,3.865774588572784e-06,8.432161192368306e-06,1.4985394886681334e-05,7.759829282410858e-06,4.839088314731891e-06,6.4365018029099e-06,5.450047176604082e-06,2.4420908005776485e-06,2.2367652099870757e-06,2.981592126723165e-06,5.057172787504663e-06,4.679689710892396e-06,2.311570388148021e-06
18,5.422540725669524e-06,5.1421397283999516e-06,5.051307525533012e-06,3.873147770424596e-06,8.505505387578062e-06,1.4924936680605537e-05,7.71359250301002e-06,4.836144389264934e-06,6.617295486381385e-06,5.39940534376417e-06,2.727619787962404e-06,2.380485734621287e-06,2.9859464160951543e-06,5.0913660497932515e-06,5.142510101875994e-06,2.4962871372470274e-06
19,5.440749934029257e-06,5.20206429618505e-06,4.860225711381259e-06,3.858111056113723e-06,8.547783581744691e-06,1.479667175277207e-05,7.628656523624829e-06,4.81467600520126e-06,6.785137019796246e-06,5.321531871892306e-06,3.0289998182664347e-06,2.5295448142764125e-06,2.9919459679949576e-06,5.106538397956997e-06,5.624358518984656e-06,2.685974542363949e-06
20,5.439420464291543e-06,5.261008779176562e-06,4.660051325336172e-06,3.821463476940335e-06,8.560388695928332e-06,1.460586297010944e-05,7.508318602327551e-06,4.776325365556369e-06,6.9388242885575395e-06,5.217657309743181e-06,3.344819418963477e-06,2.68337590886301e-06,3.0017071456231333e-06,5.104338535951661e-06,6.121517586021867e-06,2.879201890006929e-06
21,5.42016198003854e-06,5.32275214719225e-06,4.4577520881253115e-06,3.7644169257631375e-06,8.544652147633147e-06,1.4357071223641229e-05,7.357005129465317e-06,4.723083527890161e-06,7.07777432762883e-06,5.090003059361531e-06,3.673160004060154e-06,2.841210914964377e-06,3.016801329225713e-06,5.086391664962097e-06,6.62917947889423e-06,3.0741021947780913e-06
22,5.384439425856314e-06,5.3906608722364826e-06,4.259319915793107e-06,3.6888734522316383e-06,8.50231706846845e-06,1.4054766029613707e-05,7.179982512082069e-06,4.657183150438225e-06,7.201935642390307e-06,4.9413067963919265e-06,4.011475709461503e-06,3.0021282340962155e-06,3.0382127808017406e-06,5.054338577235844e-06,7.1413114324453484e-06,3.2682581489409993e-06
23,5.334004080010626e-06,5.468025016475708e-06,4.069904340153666e-06,3.5975567329467366e-06,8.435967233911564e-06,1.3703962225554298e-05,6.9830078754379895e-06,4.580665622981866e-06,7.311371382052516e-06,4.774458159282818e-06,4.3564652746251516e-06,3.165000655539324e-06,3.06633295121929e-06,5.0097440621670345e-06,7.650474072108126e-06,3.4585803477142467e-06
24,5.2711890529742074e-06,5.558268651586249e-06,3.893874436611301e-06,3.4939056978677767e-06,8.349206528365301e-06,1.3310713052859989e-05,6.771990541599017e-06,4.494995154261898e-06,7.406353868376314e-06,4.592640850974287e-06,4.704006397435056e-06,3.328330011038286e-06,3.101030382227712e-06,4.953894702955001e-06,8.147714846292742e-06,3.641250895295676e-06
25,5.198956199865281e-06,5.665013763249559e-06,3.734772200315242e-06,3.3816828423715162e-06,8.246441132519135e-06,1.2882411593431424e-05,6.55262077886268e-06,4.4010497700156386e-06,7.487928834830061e-06,4.399382672134398e-06,5.049163140861248e-06,3.49004468390747e-06,3.1417485244476956e-06,4.887753170852888e-06,8.622670614725892e-06,3.8117350998376777e-06
26,5.120581572348091e-06,5.792016897122132e-06,3.5952617099869594e-06,3.264497216139556e-06,8.132252731787242e-06,1.2427861416020213e-05,6.329930122615094e-06,4.299524582629904e-06,7.558188014877821e-06,4.198310737986927e-06,5.386193339165828e-06,3.6473592429060357e-06,3.1875165730648982e-06,4.812112447825751e-06,9.063921185275046e-06,3.964930302155137e-06
27,5.0391558722317524e-06,5.943022373338408e-06,3.4771682547738148e-06,3.1455377200324424e-06,8.010579620922618e-06,1.1957059772580925e-05,6.1078619551013515e-06,4.191485255979898e-06,7.619944791031488e-06,3.9930259946259165e-06,5.708479649407435e-06,3.796728297406214e-06,3.2369652460449317e-06,4.727741059112672e-06,9.459569451488739e-06,4.095607151471254e-06
28,4.957345754669238e-06,6.121566653132823e-06,3.381609415758815e-06,3.027554729579167e-06,7.884228529641436e-06,1.148069713868868e-05,5.889016204442128e-06,4.078635059613658e-06,7.676050696040396e-06,3.7870042545446704e-06,6.008388249151036e-06,3.933893971436511e-06,3.2885149414963374e-06,4.635269707692938e-06,9.798168400266755e-06,4.199142006841787e-06
29,4.877479253951772e-06,6.330724748886412e-06,3.3091298194303724e-06,2.91293006012285e-06,7.755111611240731e-06,1.100936959771524e-05,5.674721501325524e-06,3.96307729455583e-06,7.728665714614193e-06,3.583366857639606e-06,6.277187538315476e-06,4.05400456497895e-06,3.340566036081178e-06,4.534844700825991e-06,1.0070071982677682e-05,4.272289293933268e-06
30,4.801559491091614e-06,6.572806091526167e-06,3.2597327698905913e-06,2.8037441941983475e-06,7.624971884383847e-06,1.0552652382682867e-05,5.465514541981847e-06,3.846774220327176e-06,7.778784632678094e-06,3.3847123667770216e-06,6.505398866863689e-06,4.151907469384327e-06,3.3915028232153567e-06,4.425932648192887e-06,1.0268671454477996e-05,4.313549061825178e-06
31,4.7310198228888935e-06,6.849095403797632e-06,3.2328078500488413e-06,2.70178681316937e-06,7.496016509624108e-06,1.0118555920524477e-05,5.261895277232998e-06,3.7310701029932794e-06,7.82628420466752e-06,3.1930612397303216e-06,6.683918545037432e-06,4.2229235073732346e-06,3.439708083816355e-06,4.307619797809465e-06,1.0390495568972732e-05,4.32281191899558e-06
32,4.666428265144882e-06,7.159732336086945e-06,3.2270707447248685e-06,2.6084640739575785e-06,7.371076799119961e-06,9.713521931854949e-06,5.06493140188306e-06,3.6165072310470803e-06,7.870539957507286e-06,3.0100083507898417e-06,6.805578016208748e-06,4.26406618023246e-06,3.4837577147037604e-06,4.179341319657693e-06,1.0433918617408938e-05,4.3006950431569375e-06
33,4.607340181675833e-06,7.503670770323223e-06,3.2405846398795787e-06,2.524677521927955e-06,7.253270188845793e-06,9.342416040958865e-06,4.876324054117421e-06,3.5029512818166274e-06,7.911344841889372e-06,2.8371523261718407e-06,6.86616216029715e-06,4.274935207185899e-06,3.5225789279551134e-06,4.041635781071715e-06,1.0397922598055862e-05,4.248375249402695e-06
34,4.552289703987083e-06,7.878577570721492e-06,3.2707947900254555e-06,2.4507887344219485e-06,7.145377685660785e-06,9.008384035055619e-06,4.698031508250489e-06,3.3899249911741856e-06,7.949597510766223e-06,2.676384733426219e-06,6.864116046758695e-06,4.257478192202351e-06,3.555330618210146e-06,3.8964550835272345e-06,1.0282469985207169e-05,4.167943009931942e-06
35,4.498898825522824e-06,8.28073896118172e-06,3.3145307137764972e-06,2.3866837228606757e-06,7.049225363971078e-06,8.71287724045388e-06,4.5318931836373e-06,3.2770044915880243e-06,7.987184413197161e-06,2.529686442054505e-06,6.799434872382503e-06,4.214835956347185e-06,3.581184196290622e-06,3.746808311572565e-06,1.0089951134078862e-05,4.0626313952022185e-06
36,4.444223228597147e-06,8.705315508938793e-06,3.368055157199424e-06,2.3318663026775044e-06,6.9653893139858065e-06,8.455704699149784e-06,4.379475322384261e-06,3.1641331733254744e-06,8.026074170022931e-06,2.3987220496570115e-06,6.673282200707101e-06,4.150391905577726e-06,3.599424138541804e-06,3.5960164311874623e-06,9.826104283555694e-06,3.936654828566095e-06
37,4.385368505299411e-06,9.147159676118785e-06,3.4272014292024845e-06,2.2855297388154493e-06,6.893414666113881e-06,8.234996849584337e-06,4.241969725449511e-06,3.0517489276315e-06,8.067539732065984e-06,2.2846345385517245e-06,6.4888136332856375e-06,4.067588055748183e-06,3.60984213479862e-06,3.4471198120972524e-06,9.499827629152897e-06,3.7948108022850635e-06
38,4.320104457127081e-06,9.601931499565762e-06,3.487521078148917e-06,2.246679685733727e-06,6.832371067380992e-06,8.047500027949062e-06,4.120011944244213e-06,2.9406704673449184e-06,8.112156872550421e-06,2.1880624942276235e-06,6.251918180824816e-06,3.9699841847652785e-06,3.61285924626128e-06,3.3026929915843674e-06,9.122234589398739e-06,3.641979727073553e-06
39,4.247099529077612e-06,1.0066909988499963e-05,3.5443944003947096e-06,2.2143626534922967e-06,6.781356545042111e-06,7.889569673232462e-06,4.013593408074821e-06,2.831787549988071e-06,8.160103212419017e-06,2.109226903672344e-06,5.970892733562464e-06,3.861136368371209e-06,3.6091204033781145e-06,3.1648856276311992e-06,8.705426886496418e-06,3.4826679526905672e-06
40,4.165622503621639e-06,1.054098050923163e-05,3.5931820218703493e-06,2.187884494470052e-06,6.7397295845997465e-06,7.758589464797255e-06,3.92224648385502e-06,2.7257543720488178e-06,8.211202562116182e-06,2.0479934330200043e-06,5.655419259924259e-06,3.7444642053610897e-06,3.599009273659611e-06,3.0354092429140303e-06,8.261367245781087e-06,3.3207333398379944e-06
41,4.074958974740768e-06,1.1023750197704364e-05,3.6295344874507155e-06,2.166917116949421e-06,6.707128065158434e-06,7.653909090349165e-06,3.845433924400467e-06,2.6229163941754598e-06,8.264833339251642e-06,2.003934018128545e-06,5.315545804668832e-06,3.6231884928718257e-06,3.582577589391581e-06,2.915437452483684e-06,7.80106042168709e-06,3.159290658819802e-06
42,3.974113766750702e-06,1.151424759346715e-05,3.6498748952822886e-06,2.151511390365009e-06,6.683435935706816e-06,7.576509153656348e-06,3.7829556859601137e-06,2.5234790458965075e-06,8.319961276091197e-06,1.9764119653602087e-06,4.960950389424682e-06,3.5001909876584724e-06,3.5598622614385227e-06,2.8055340107258467e-06,7.334059030362811e-06,3.000752341438319e-06
43,3.862109108095073e-06,1.2009822602500407e-05,3.651913305951968e-06,2.142035544044405e-06,6.6687363424675996e-06,7.527707202345038e-06,3.735152273879989e-06,2.4276983040745777e-06,8.375329330230145e-06,1.964588159660697e-06,4.6005034925627905e-06,3.3778339281098745e-06,3.5312111526025945e-06,2.7056466304092037e-06,6.868237009696469e-06,2.8470264924738023e-06
44,3.738547998870604e-06,1.2505713990159545e-05,3.634983558059646e-06,2.1390393073887497e-06,6.663120590703839e-06,7.508029406174146e-06,3.702715741458969e-06,2.3359276300777932e-06,8.42962185831799e-06,1.967340425638601e-06,4.2421012601241855e-06,3.2578947536461943e-06,3.4973093565731508e-06,2.6152391667063195e-06,6.409765850459428e-06,2.6998126107651945e-06
45,3.6040111751638294e-06,1.2995345133831892e-05,3.600064083802826e-06,2.143082921762302e-06,6.666254914486462e-06,7.516749881652319e-06,3.686185230535833e-06,2.248571733603971e-06,8.481314243895732e-06,1.983271000201255e-06,3.892668779481965e-06,3.1415795475041393e-06,3.4589172402099425e-06,2.533636299871561e-06,5.9632193867402845e-06,2.560759495356684e-06
46,3.46016942643685e-06,1.3470977224119631e-05,3.5494562001228664e-06,2.154585303487182e-06,6.676875130858438e-06,7.5517558359880074e-06,3.6854942546740568e-06,2.1660982578448373e-06,8.528274540178558e-06,2.010819350382808e-06,3.5582249776497407e-06,3.029565586328796e-06,3.416561744493926e-06,2.460423028219761e-06,5.531769773811873e-06,2.4313528729280528e-06
47,3.3095963652081934e-06,1.392441062772196e-05,3.4861876268905594e-06,2.1737017752599695e-06,6.692519487564178e-06,7.609505394136453e-06,3.6998254003547526e-06,2.089154376035114e-06,8.567659268806152e-06,2.048336099704745e-06,3.2439827630650572e-06,2.9221865959886597e-06,3.370342249583308e-06,2.395591249808186e-06,5.117448722653657e-06,2.3127368203275007e-06
48,3.155317166168566e-06,1.4347729756741196e-05,3.413380664305573e-06,2.2002177838439162e-06,6.709575140411952e-06,7.685085534429181e-06,3.727678089955933e-06,2.018661212312025e-06,8.596330731499249e-06,2.0940960511161292e-06,2.9544735487422097e-06,2.819767028306913e-06,3.319877762210893e-06,2.3393329379365475e-06,4.721407563957673e-06,2.2057166488877928e-06
49,3.000348468747645e-06,1.4734017197826549e-05,3.3339080194744426e-06,2.2334893201839244e-06,6.723491846460211e-06,7.772355024270474e-06,3.7670573687309685e-06,1.955738170306418e-06,8.611445621723266e-06,2.146250242468812e-06,2.6936859933862577e-06,2.7229078865496653e-06,3.2644423538233125e-06,2.291744387884857e-06,4.34415670857149e-06,2.1109026376165465e-06
50,2.8475539201585927e-06,1.507777259308602e-05,3.250356136831378e-06,2.272493516598526e-06,6.72910376495751e-06,7.864237756139263e-06,3.815848925940951e-06,1.9014790198969411e-06,8.610991206363199e-06,2.202741052924024e-06,2.4652487662122023e-06,2.6326043058155545e-06,3.2033241881904037e-06,2.2527205107204364e-06,3.985825699421897e-06,2.0287877060090675e-06
51,2.699786388966543e-06,1.5374964402272334e-05,3.1650962774427703e-06,2.3159952188091987e-06,6.7211126387466665e-06,7.953214435287427e-06,3.872242769836367e-06,1.856752928635959e-06,8.594342293030159e-06,2.2613800961759146e-06,2.2726728000872146e-06,2.5502565652397457e-06,3.1363249572336847e-06,2.2220053830745192e-06,3.646405577953212e-06,1.959656596654472e-06
52,2.5599653362427284e-06,1.5622934268269075e-05,3.080454304808991e-06,2.3627210702276272e-06,6.694752248468205e-06,8.031914054702331e-06,3.9349009417339694e-06,1.8221382678530643e-06,8.562814568470862e-06,2.320090493905115e-06,2.119593304073813e-06,2.4776353318899074e-06,3.0641502315138142e-06,2.199282137448197e-06,3.3258672807462577e-06,1.9034444503382469e-06
53,2.430934112707982e-06,1.5820289593853764e-05,2.9989278547503736e-06,2.41137790911466e-06,6.6465550641599694e-06,8.093695748092496e-06,4.002790539223176e-06,1.7979284636921803e-06,8.519961997859188e-06,2.3770554534036224e-06,2.0099414552167885e-06,2.4167456367208513e-06,2.988370219939958e-06,2.1842633949665103e-06,3.024159705856841e-06,1.8597345273339588e-06
54,2.3153036551406764e-06,1.596668842964491e-05,2.923205640768667e-06,2.460470174104143e-06,6.574976022985709e-06,8.133130356789846e-06,4.074852308864879e-06,1.7841496564527136e-06,8.471242072144992e-06,2.4309357027936546e-06,1.9480165098952434e-06,2.3695847167545257e-06,2.9109350010135493e-06,2.1766880714142888e-06,2.741221692333578e-06,1.8278787990576969e-06
55,2.2154728047666002e-06,1.6062378148825725e-05,2.85596459028187e-06,2.5081064633057836e-06,6.480460844484782e-06,8.146101808781538e-06,4.149684239087146e-06,1.7806335859859473e-06,8.42293483338045e-06,2.4814189582488596e-06,1.9384057630613614e-06,2.3380288666106127e-06,2.83368057363339e-06,2.1762359721563005e-06,2.4770950432831134e-06,1.8070549508066908e-06
56,2.1337116096346404e-06,1.6107339569180747e-05,2.799630884246153e-06,2.5521082636083053e-06,6.364762519196912e-06,8.129311289210481e-06,4.225394150016636e-06,1.7871410016691317e-06,8.380865580764207e-06,2.529583289818745e-06,1.9857439023392847e-06,2.323988454820605e-06,2.758151974989893e-06,2.1824939715650897e-06,2.2320284468629847e-06,1.796229483322265e-06
57,2.0721135758941892e-06,1.6100113515430906e-05,2.7562028718191553e-06,2.5905545654808903e-06,6.230051252264823e-06,8.079819271641617e-06,4.299867057728307e-06,1.8034128378088771e-06,8.349603815337263e-06,2.5775304888132524e-06,2.094475134800203e-06,2.329550840450267e-06,2.6856028390591263e-06,2.1949209870885005e-06,2.006381979192097e-06,1.7941956965149954e-06
58,2.0324490762333046e-06,1.603712428405049e-05,2.727180105723348e-06,2.622462217055914e-06,6.078548586634502e-06,7.995536878564923e-06,4.3714905596358945e-06,1.8290919685755967e-06,8.33213080323307e-06,2.627634396245158e-06,2.2687505090219557e-06,2.356854504812128e-06,2.6170419818510587e-06,2.2127446285427504e-06,1.8003734201149325e-06,1.799741113317756e-06
59,2.0160691422161693e-06,1.591340044577608e-05,2.7136354574503563e-06,2.6480317916631282e-06,5.91254923789486e-06,7.876316925835699e-06,4.4398443000670575e-06,1.8636156575393264e-06,8.329696761339195e-06,2.6820014793237096e-06,2.512379731387958e-06,2.407818260724074e-06,2.5533329484249567e-06,2.234922534634985e-06,1.6139107053895205e-06,1.8118074317083592e-06
60,2.023925323703148e-06,1.5724381338868767e-05,2.7164041711676206e-06,2.6682475144537834e-06,5.734344729564662e-06,7.724543126155327e-06,4.505813621989755e-06,1.9061715924411266e-06,8.342008509522328e-06,2.742296561959629e-06,2.8287710114652908e-06,2.4839561883298687e-06,2.4952309627362814e-06,2.2602275739949532e-06,1.446621211880018e-06,1.8295449666140223e-06
61,2.0566730557750003e-06,1.5467657703031505e-05,2.7362969423702454e-06,2.68429514061654e-06,5.5461423183423145e-06,7.544883677508642e-06,4.571140322145898e-06,1.9556944416399235e-06,8.368001154166759e-06,2.809778923170055e-06,3.2209224200256164e-06,2.586385946675891e-06,2.443385750735578e-06,2.287388588041363e-06,1.2979731479171148e-06,1.8522783126349413e-06
62,2.114756555589489e-06,1.514397737682168e-05,2.7741791256190507e-06,2.6973164900368767e-06,5.350199254497518e-06,7.343644721114853e-06,4.637761035469666e-06,2.0108448252341912e-06,8.40695204561653e-06,2.8853988483659767e-06,3.691466768671506e-06,2.71596629673591e-06,2.398434846517074e-06,2.315283639427828e-06,1.1673435829010099e-06,1.87941957842181e-06
63,2.1983870993791822e-06,1.475759494805781e-05,2.8308274423621386e-06,2.7084149495610667e-06,5.14902074355377e-06,7.128241243825916e-06,4.707217885043165e-06,2.069969608762829e-06,8.459268242495446e-06,2.9698873417258635e-06,4.24263817582359e-06,2.8733471904274386e-06,2.3610717603543657e-06,2.343123008230354e-06,1.0540068416719048e-06,1.9103456160420137e-06
64,2.3074318852143257e-06,1.4316182169210294e-05,2.90673066973782e-06,2.718572311733076e-06,4.945403365596974e-06,6.906990802810439e-06,4.780340703849126e-06,2.1310895187036833e-06,8.52640619475891e-06,3.0638077230478395e-06,4.876060756784518e-06,3.0588179192141856e-06,2.3319663817121508e-06,2.3704211689943586e-06,9.57111603523672e-07,1.9442562849653656e-06
65,2.4413046266369445e-06,1.383025354622523e-05,3.0020712213460775e-06,2.7284947868005894e-06,4.7423013054241774e-06,6.6889944263845976e-06,4.8572313714985045e-06,2.19199021869429e-06,8.609957687508254e-06,3.16754505351006e-06,5.59244411780558e-06,3.2721053038517033e-06,2.311610617931607e-06,2.3967680427171455e-06,8.756784405248129e-07,1.980045500645322e-06
66,2.5989239064621673e-06,1.3311991104741251e-05,3.1168417960478374e-06,2.7386001248278078e-06,4.542637840489068e-06,6.483745030535951e-06,4.9373335380053436e-06,2.250453496762829e-06,8.710531471349944e-06,3.2812207811903837e-06,6.391335443532673e-06,3.5123294130438366e-06,2.3002343441135406e-06,2.421645692122347e-06,8.086303873983203e-07,2.0162406526462857e-06
67,2.7787279877482013e-06,1.2773640037402597e-05,3.2508616368153597e-06,2.7491324624467225e-06,4.34918268700551e-06,6.3004407515655994e-06,5.019460986645514e-06,2.3045032160083957e-06,8.827073001539625e-06,3.404567810251612e-06,7.270974943825511e-06,3.7781337726156345e-06,2.2978494754100332e-06,2.444355479846337e-06,7.54851569964795e-07,2.051071251479704e-06
68,2.9786735967611793e-06,1.2226066668297398e-05,3.4036772684315737e-06,2.760252256249937e-06,4.1644857138040755e-06,6.1473287074586654e-06,5.101890804230604e-06,2.3525412192945596e-06,8.956774141656453e-06,3.536893410954343e-06,8.228248337307656e-06,4.0677999805125496e-06,2.3043885019065336e-06,2.4639992688191265e-06,7.132038396063778e-07,2.0826487231938376e-06
69,3.196170004072688e-06,1.1678154778320927e-05,3.574590709073091e-06,2.772049391978656e-06,3.990756521313658e-06,6.031352213233205e-06,5.182578111086735e-06,2.393433182021364e-06,9.095381189693932e-06,3.6772214041703e-06,9.258706478663843e-06,4.379153380974612e-06,2.3199538447223104e-06,2.479542829736797e-06,6.824898917362118e-07,2.1091420035770982e-06
70,3.428017561266836e-06,1.1137039237549313e-05,3.762898147602715e-06,2.784497461625647e-06,3.82965942036351e-06,5.958080965452117e-06,5.259438770192214e-06,2.4265954804362113e-06,9.237670596919094e-06,3.824440499527033e-06,1.0356541459941083e-05,4.709304349488196e-06,2.3450441240921584e-06,2.4900030982716912e-06,6.614354611753711e-07,2.1288954564444366e-06
71,3.6704675050125298e-06,1.060848337859462e-05,3.968119931289286e-06,2.797361077752728e-06,3.6821662699563036e-06,5.931810657333483e-06,5.330664485867971e-06,2.4519703498489255e-06,9.378000309811148e-06,3.977279217759459e-06,1.151439691902266e-05,5.054460228605133e-06,2.380461918873585e-06,2.494811021082344e-06,6.487171793157916e-07,2.140576595664864e-06
72,3.919433746535948e-06,1.0096986273795587e-05,4.190059857412552e-06,2.810083267763256e-06,3.548623715869585e-06,5.955804912556857e-06,5.3950353617534145e-06,2.4697856985749334e-06,9.510893298712469e-06,4.134268804163524e-06,1.2723032718510415e-05,5.409935328642602e-06,2.42698186762268e-06,2.4941895922219016e-06,6.430107305181328e-07,2.1433814989418e-06
73,4.170815909138715e-06,9.605801616735161e-06,4.4287775479066715e-06,2.821748692334059e-06,3.429013252783361e-06,6.032554351138763e-06,5.452167821334362e-06,2.4802210921986693e-06,9.631351949100555e-06,4.293762875810729e-06,1.3970989868496426e-05,5.7702326471720135e-06,2.4851172995406627e-06,2.4891485983959497e-06,6.430499914472953e-07,2.137167017491933e-06
74,4.420869684876083e-06,9.137083977393166e-06,4.6845554512521485e-06,2.831282534693267e-06,3.3232481247859715e-06,6.163820450872802e-06,5.502617544397698e-06,2.4832344866387744e-06,9.73454007585258e-06,4.45379515006664e-06,1.5244321542044765e-05,6.1290092498329266e-06,2.555057482280914e-06,2.481029702486944e-06,6.477182496221474e-07,2.1224227457748658e-06
75,4.666556195404445e-06,8.692141575020784e-06,4.957746041817826e-06,2.8378971143466278e-06,3.231355584193942e-06,6.350523523851507e-06,5.547696448330689e-06,2.478609028599304e-06,9.815161218360539e-06,4.611856244892698e-06,1.6526340325786823e-05,6.478954197471911e-06,2.636660890861618e-06,2.470978392246827e-06,6.561252502115794e-07,2.1001204725371978e-06
76,4.905832361144171e-06,8.271688988977376e-06,5.248492642367424e-06,2.8415235713867682e-06,3.1534388386881823e-06,6.592818088355578e-06,5.588944157800414e-06,2.4660630768151645e-06,9.867452991845658e-06,4.7648959226358e-06,1.779743465202296e-05,6.811840090157908e-06,2.729428847395281e-06,2.459660081709617e-06,6.675769131246509e-07,2.0714968192909257e-06
77,5.137827522924993e-06,7.876074493561947e-06,5.556682624542835e-06,2.8429592530936226e-06,3.089450231833511e-06,6.890387528788047e-06,5.627572131313279e-06,2.445366320060547e-06,9.886000341553688e-06,4.909537151302082e-06,1.9035200882170507e-05,7.118988716660182e-06,2.832483038174035e-06,2.4472537339409177e-06,6.815164454964312e-07,2.0378471009509655e-06
78,5.362748485709682e-06,7.505548197830726e-06,5.882278709506256e-06,2.843696674114325e-06,3.0390365430063415e-06,7.242540644673868e-06,5.664339773948717e-06,2.4165412093114218e-06,9.866596748335601e-06,5.042391741939189e-06,2.0215063243972185e-05,7.3920946561973324e-06,2.9446075598764662e-06,2.4336021023646473e-06,6.97551781991389e-07,2.0004334457821308e-06
79,5.581359625664572e-06,7.160554548578275e-06,6.225558738226408e-06,2.84557670089706e-06,3.0016439703699643e-06,7.647870156196927e-06,5.699879350386996e-06,2.380106286264529e-06,9.806710335390237e-06,5.16053904077435e-06,2.1311000683061893e-05,7.623957637837274e-06,3.0643291399747515e-06,2.418384492236944e-06,7.154661456261956e-07,1.9604966422230767e-06
80,5.7941914910514895e-06,6.8418548752754945e-06,6.586872048178234e-06,2.8504395604468118e-06,2.9767092278286086e-06,8.103769953239095e-06,5.73513297341886e-06,2.3371550065534237e-06,9.705762397917738e-06,5.261959693199851e-06,2.229562732842272e-05,7.808515828484468e-06,3.1900207410780017e-06,2.401235814021649e-06,7.351356667749177e-07,1.919234227970474e-06
81,6.0009385993048696e-06,6.55032932697208e-06,6.966078870866002e-06,2.859864424978335e-06,2.963738813460976e-06,8.6061609143769e-06,5.771658014213449e-06,2.2891525226230228e-06,9.565049505367303e-06,5.345436963991776e-06,2.3140125916718118e-05,7.94025447864201e-06,3.3200850049981877e-06,2.381793905812426e-06,7.564418804343708e-07,1.877702414074187e-06
82,6.200295852978565e-06,6.286582656571558e-06,7.362012623218515e-06,2.875029114940491e-06,2.9623114753822814e-06,9.149456582716381e-06,5.811662921796047e-06,2.2376064721399275e-06,9.386921352193356e-06,5.410053368245081e-06,2.3816295286331977e-05,8.014225790719709e-06,3.4531727702496976e-06,2.3596877272856882e-06,7.792133964353308e-07,1.836735640595308e-06
83,6.390080743334133e-06,6.050614561879302e-06,7.772171667978404e-06,2.896763186226089e-06,2.9720089130306572e-06,9.726851466405165e-06,5.8576721442075455e-06,2.1838714715410075e-06,9.173992672277022e-06,5.455034513739516e-06,2.4301474963863622e-05,8.0274001604311e-06,3.5882270577116966e-06,2.3344987273057556e-06,8.0319745762642e-07,1.7969361042607347e-06
84,6.567504793534948e-06,5.841637803739994e-06,8.192737209892513e-06,2.9257982788578643e-06,2.992236133258033e-06,1.0331136120406948e-05,5.911932963753855e-06,2.1291347388494983e-06,8.929632210661886e-06,5.480180451828403e-06,2.4583224339847743e-05,7.98006749550235e-06,3.7242292853347878e-06,2.3058069400414193e-06,8.281182783219845e-07,1.7587539897389624e-06
85,6.72962675755064e-06,5.657973547300301e-06,8.618905974064018e-06,2.9629949808943794e-06,3.0221124645611425e-06,1.095586812467302e-05,5.97596429200515e-06,2.074482999285087e-06,8.659330323763083e-06,5.48636853982778e-06,2.465965316239707e-05,7.875713082120658e-06,3.859910802070703e-06,2.2734870203754065e-06,8.538044695211526e-07,1.7226286692567384e-06
86,6.874022828790465e-06,5.49715742952817e-06,9.045477283377455e-06,3.009313479558654e-06,3.0606179912446868e-06,1.1596377115143912e-05,6.0506161381096374e-06,2.0210409052603405e-06,8.371375565083568e-06,5.475520500278058e-06,2.453511424638724e-05,7.719514377267871e-06,3.993786828568663e-06,2.2381427667892947e-06,8.802647403387018e-07,1.6890422386672963e-06
87,6.999622759034487e-06,5.356498969631291e-06,9.467651279140064e-06,3.065574025918093e-06,3.106886260747848e-06,1.2250168098569254e-05,6.136569727561044e-06,1.9700886002212786e-06,8.076075296988273e-06,5.449925053704394e-06,2.4215975720616487e-05,7.516923464263918e-06,4.124448112635548e-06,2.2012302593492918e-06,9.076560837287332e-07,1.6584511025898758e-06
88,7.1074857295381585e-06,5.233905733571283e-06,9.881862267096465e-06,3.132205481978508e-06,3.160472141572589e-06,1.2916408173991952e-05,6.234838394700151e-06,1.9229698481871176e-06,7.784117193036986e-06,5.411498489319501e-06,2.371068034805829e-05,7.273386958178871e-06,4.250840907748577e-06,2.1646921132057963e-06,9.361929116248895e-07,1.6312566021704678e-06
89,7.201178779400259e-06,5.128434068631143e-06,1.0286315655322816e-05,3.20909087126015e-06,3.221501760164943e-06,1.3594567321732206e-05,6.346910287954778e-06,1.8808843952412721e-06,7.505213663875679e-06,5.3615284403938086e-06,2.303246129750786e-05,6.994814951536571e-06,4.3724609845971125e-06,2.130512372008298e-06,9.660432495058337e-07,1.6078839389846513e-06
90,7.286559525562404e-06,5.040274909722266e-06,1.0681016587353746e-05,3.2955860443633734e-06,3.2905590942247555e-06,1.428325114465746e-05,6.474510087227724e-06,1.8447670818239064e-06,7.247529137886604e-06,5.300861935542205e-06,2.2200766948068114e-05,6.6878718974688225e-06,4.489492241582911e-06,2.1006139579419616e-06,9.972477976829534e-07,1.588850510746945e-06
91,7.371023230767113e-06,4.970310555558457e-06,1.1067310226447966e-05,3.3907744997026885e-06,3.3683157724322155e-06,1.4980237998736291e-05,6.619186309009643e-06,1.8152293159868458e-06,7.017645748667244e-06,5.230189311398623e-06,2.1240275173179297e-05,6.35979809381665e-06,4.602892640496057e-06,2.0770315340082815e-06,1.0297137108406686e-06,1.5747083564337475e-06
92,7.462466709821504e-06,4.9195586097973515e-06,1.1447046121902012e-05,3.4938141773045558e-06,3.455247000542624e-06,1.5683240488309956e-05,6.781912318313619e-06,1.7925431469878975e-06,6.82096183354424e-06,5.150134306775188e-06,2.017855729572847e-05,6.017913906443019e-06,4.714387140328867e-06,2.0620116698609224e-06,1.0632908449700629e-06,1.5658972142720113e-06
93,7.5682863239609585e-06,4.888730508009895e-06,1.182151740030361e-05,3.604081658019574e-06,3.5516187216279378e-06,1.639036142965266e-05,6.962733149045321e-06,1.7767355488529764e-06,6.6625087699454075e-06,5.061351958120774e-06,1.9043524398521616e-05,5.669007457851494e-06,4.826261638203664e-06,2.057845167771202e-06,1.0978626360276703e-06,1.562646708226847e-06
94,7.694644638587086e-06,4.877926920056836e-06,1.219042928944015e-05,3.721007115652215e-06,3.6574775002846482e-06,1.7100101602727393e-05,7.160445786108702e-06,1.7677352269563232e-06,6.547698354157226e-06,4.964864992389307e-06,1.786130048216596e-05,5.31891656468647e-06,4.940898278134497e-06,2.066577419834899e-06,1.1333881725782005e-06,1.5649812548431836e-06
95,7.846061867515708e-06,4.886415523299269e-06,1.255124761794037e-05,3.843789517311311e-06,3.7724984998971206e-06,1.781126459313597e-05,7.372427447278088e-06,1.7654384346895964e-06,6.482451842758006e-06,4.862226619153618e-06,1.665479712833912e-05,4.972495719552013e-06,5.060198146757985e-06,2.089838622747911e-06,1.1698918325437153e-06,1.5727589264732279e-06
96,8.025240497146983e-06,4.912546145995541e-06,1.2899198221937099e-05,3.97123368168613e-06,3.895938129111119e-06,1.852287045982205e-05,7.59476111427711e-06,1.7696689985304853e-06,6.472704822436071e-06,4.755226184983043e-06,1.544310941364437e-05,4.6337860248129345e-06,5.185148936551015e-06,2.128845756264888e-06,1.2074048141870731e-06,1.5856874732048849e-06
97,8.232991734617844e-06,4.953841758102146e-06,1.3227868670835849e-05,4.101773176645479e-06,4.026864326398047e-06,1.9233988534915902e-05,7.822624875961793e-06,1.7801170072717818e-06,6.523719003385937e-06,4.6455029386300766e-06,1.4241665599710444e-05,4.306129677450794e-06,5.315641198607994e-06,2.1845300682506678e-06,1.2458781738396292e-06,1.6033155261116086e-06
98,8.468190163991158e-06,5.007146176707528e-06,1.3530079221146659e-05,4.233613310356182e-06,4.164519817892515e-06,1.994335603438327e-05,8.050768681889175e-06,1.7963099158382716e-06,6.639680830148726e-06,4.534348874572951e-06,1.3062817293752217e-05,3.992175295896284e-06,5.450454606578412e-06,2.25772411339467e-06,1.285125367651586e-06,1.6250551277204323e-06
99,8.727772826624428e-06,5.068754547359414e-06,1.3798739532241405e-05,4.364964919979064e-06,4.308565515399438e-06,2.0648576123518686e-05,8.273962267438812e-06,1.817583566653564e-06,6.82368094533535e-06,4.422589249106666e-06,1.1916515307488297e-05,3.693870703361288e-06,5.587399042408505e-06,2.349270700384926e-06,1.324805680760393e-06,1.6502438269431757e-06
100,9.006809444469109e-06,5.134561843479596e-06,1.4027613241779354e-05,4.494372867446613e-06,4.459067496562595e-06,2.134490470898064e-05,8.487411250795218e-06,1.8430188427388418e-06,7.077751379272041e-06,4.310577299316053e-06,1.0810837213666158e-05,3.4125517886921235e-06,5.723761310514074e-06,2.4599512499952025e-06,1.364449607072859e-06,1.6781365472806315e-06
101,9.29863527895928e-06,5.200216945607929e-06,1.4211969974952878e-05,4.62102111254945e-06,4.616233248965018e-06,2.202436078059145e-05,8.687157551549786e-06,1.8713905356780455e-06,7.40286435082029e-06,4.198425416908279e-06,9.752269098781677e-06,3.1490940667293126e-06,5.8570310146252815e-06,2.5903091458267313e-06,1.4035755744761688e-06,1.7078721938873907e-06
102,9.595124658388359e-06,5.2612730296024355e-06,1.4349047061069933e-05,4.7447524649369356e-06,4.7800027924668345e-06,2.267600983079804e-05,8.87041376708879e-06,1.9012522119539688e-06,7.799099401575662e-06,4.0862695799114735e-06,8.745819607518754e-06,2.903977293429398e-06,5.985482070657157e-06,2.7405408457480196e-06,1.4418333498008132e-06,1.7385967043709683e-06
103,9.887286350559318e-06,5.313409920768985e-06,1.4438250525400299e-05,4.86566564953968e-06,4.949704684922173e-06,2.328722896712651e-05,9.035722095228693e-06,1.9312241655738772e-06,8.265849851998099e-06,3.974442925282128e-06,7.795146922761376e-06,2.677245979319757e-06,6.108309309859984e-06,2.9105259450302055e-06,1.4790247282265359e-06,1.7696768326586594e-06
104,1.0166222415624679e-05,5.3527759666734014e-06,1.4481128896347156e-05,4.983550884134637e-06,5.12394185948584e-06,2.384513972342576e-05,9.182867086508674e-06,1.9603521706340243e-06,8.801716419251639e-06,3.863633436866015e-06,6.902770930296054e-06,2.4685488292268953e-06,6.225478874281583e-06,3.0998820145330357e-06,1.5150355067530516e-06,1.8007680195753619e-06
105,1.0424174875479817e-05,5.376367811211059e-06,1.4481194156024309e-05,5.0976053861901606e-06,5.300609013889855e-06,2.4337851411607155e-05,9.312569051260377e-06,1.98828460159103e-06,9.404088922977951e-06,3.754882401151592e-06,6.070287103539421e-06,2.2773424658909774e-06,6.337497811766427e-06,3.3078784186983727e-06,1.5498091835613691e-06,1.8316859377100634e-06
106,1.0655216708038093e-05,5.3822729929349045e-06,1.4443513384158389e-05,5.20655105677487e-06,5.476905256253689e-06,2.4755553447053106e-05,9.42600349832421e-06,2.015130477880395e-06,1.0068672065268377e-05,3.649434591508936e-06,5.298512827206578e-06,2.1030689391708867e-06,6.4451238690551355e-06,3.533242168765017e-06,1.5833248445953725e-06,1.8622412237555084e-06
107,1.085533758227391e-05,5.369630798008019e-06,1.437384736641269e-05,5.308968825639936e-06,5.649523153099788e-06,2.5091440031408193e-05,9.524174126171546e-06,2.041128484743836e-06,1.0789145943471558e-05,3.5488878575704503e-06,4.587592251384572e-06,1.945181732574896e-06,6.549008163146253e-06,3.7740242685165047e-06,1.6155166425779836e-06,1.8921702836903225e-06
108,1.1022091226343529e-05,5.338320464324791e-06,1.4277326318271704e-05,5.403717639956444e-06,5.815251248654909e-06,2.5342379357153444e-05,9.607255971745895e-06,2.0663894112203167e-06,1.1557200267197282e-05,3.4556321366605516e-06,3.937092745036206e-06,1.8031645028762693e-06,6.649311747929966e-06,4.0276072808373636e-06,1.6462240402565123e-06,1.921132952114502e-06
109,1.1154214679231479e-05,5.288481566487347e-06,1.4157227647014619e-05,5.490358933981164e-06,5.971847160350006e-06,2.550909418335906e-05,9.674073901844114e-06,2.0908387170462727e-06,1.236322676351116e-05,3.372941277522208e-06,3.34608353937337e-06,1.6765883350472406e-06,6.745396940327455e-06,4.29092428619145e-06,1.675209285857005e-06,1.9486881686027956e-06
110,1.1251451143263034e-05,5.220011633871218e-06,1.4014711148013695e-05,5.569403213433578e-06,6.118750393802817e-06,2.5595204673060165e-05,9.721890780388414e-06,2.114297125188707e-06,1.3197470055400456e-05,3.304638515132947e-06,2.8131871374138034e-06,1.5650579504637272e-06,6.8357021544032805e-06,4.5609377758830905e-06,1.7021924988713295e-06,1.974282554371554e-06
111,1.1314378340717998e-05,5.132384363424875e-06,1.3849712436498368e-05,5.642193689792668e-06,6.257223488920658e-06,2.560487914181776e-05,9.74685106496361e-06,2.1365635837074903e-06,1.4050717699821454e-05,3.2548174725701095e-06,2.336625084390779e-06,1.4680622124639885e-06,6.917754672365146e-06,4.835175445899293e-06,1.7269134027671544e-06,1.997365035239501e-06
112,1.1343816388088662e-05,5.02506704780694e-06,1.3662232890673601e-05,5.710426567215349e-06,6.389743825415166e-06,2.5540750021590725e-05,9.745210586286311e-06,2.157495476648884e-06,1.4913827617780246e-05,3.227668390366308e-06,1.9142695650146355e-06,1.3849132281006781e-06,6.988200160856616e-06,5.111956591804848e-06,1.749185115542707e-06,2.017545497828872e-06
113,1.1339807421077322e-05,4.8982642023308135e-06,1.345324476759749e-05,5.775516375159592e-06,6.518910539800807e-06,2.540422774095874e-05,9.714742189124863e-06,2.1771715321482995e-06,1.577679450658984e-05,3.2272312753314887e-06,1.5436874501215231e-06,1.314801002922858e-06,7.04305253451634e-06,5.390128068284355e-06,1.7688686376113392e-06,2.0345648156949523e-06
114,1.1300943694613993e-05,4.753473841236975e-06,1.3225070151325407e-05,5.838125138141267e-06,6.646470577771692e-06,2.519768780458124e-05,9.655545620953707e-06,2.19598501224915e-06,1.6628712621741087e-05,3.2572133504081024e-06,1.2221929892897113e-06,1.2568456257052593e-06,7.078498236671555e-06,5.668457155491826e-06,1.7857726006048421e-06,2.0481044109151594e-06
115,1.1224760040234392e-05,4.593594139051009e-06,1.2981315834440146e-05,5.89811449997021e-06,6.772893166984322e-06,2.4926155259303527e-05,9.570063640131239e-06,2.214468853798465e-06,1.745872113266943e-05,3.3210113728496285e-06,9.469157429047839e-07,1.2101470182951744e-06,7.091943636647912e-06,5.945053398347909e-06,1.7995201378578036e-06,2.05774370757564e-06
116,1.110889467401228e-05,4.422548113711622e-06,1.2726394770577198e-05,5.954839250514696e-06,6.897462812652274e-06,2.4597288524212475e-05,9.462524815381171e-06,2.232996430398115e-06,1.825692516873741e-05,3.4217910831354007e-06,7.148471143028013e-07,1.1738493028179522e-06,7.0825821059837715e-06,6.217113469090781e-06,1.8094454328168346e-06,2.063175554183003e-06
117,1.0952208300518847e-05,4.24459153371203e-06,1.24649266318093e-05,6.007393242097009e-06,7.018624222034512e-06,2.4220182379361852e-05,9.338116127653474e-06,2.2516086261888044e-06,1.901483224992323e-05,3.5624155875396645e-06,5.228616978886465e-07,1.1471194214544705e-06,7.0512899714599515e-06,6.48088754143791e-06,1.8146084627319802e-06,2.064444999252329e-06
118,1.0755409982662031e-05,4.0636296873576946e-06,1.2201509643322728e-05,6.054631624219481e-06,7.1343595886869405e-06,2.380406305122096e-05,9.202184816989945e-06,2.2700134644280913e-06,1.9725525788907955e-05,3.745225936939914e-06,3.6774215963368354e-07,1.1290718980437226e-06,7.000181597972408e-06,6.731653563141613e-06,1.813981663465132e-06,2.0620088275385074e-06
119,1.0521183465327032e-05,3.88280755991061e-06,1.1940993846069661e-05,6.095170089802155e-06,7.24248619053163e-06,2.3357581840886618e-05,9.05970142340627e-06,2.287648241222476e-06,2.0383642064438862e-05,3.971850604156763e-06,2.462151451533045e-07,1.1187560809663567e-06,6.932089102353579e-06,6.9638714315237075e-06,1.8067190298356148e-06,2.056617615838534e-06
120,1.0254017025658498e-05,3.7044819393546113e-06,1.1688900790561184e-05,6.127530219079577e-06,7.340835118483916e-06,2.288870927888405e-05,8.91503435096611e-06,2.303678997124952e-06,2.0984951722026587e-05,4.243177599736768e-06,1.5498867599634265e-07,1.1151523896475149e-06,6.8500183279344355e-06,7.1717444561877014e-06,1.7923212524468306e-06,2.0490899605610556e-06
121,9.959907443201172e-06,3.5305524400659944e-06,1.1451582418666742e-05,6.1503637561266905e-06,7.427343544553175e-06,2.2404813751046677e-05,8.771871991775591e-06,2.316935589024565e-06,2.152552230442428e-05,4.559439629312071e-06,9.08000729053497e-08,1.117133878524453e-06,6.756585392703877e-06,7.3500217248096605e-06,1.7706632127879846e-06,2.0401063992966976e-06
122,9.645892003174624e-06,3.3628921850202733e-06,1.1235913283890186e-05,6.162623481761219e-06,7.500153789582113e-06,2.1912656344844993e-05,8.633063405154438e-06,2.3259431986388727e-06,2.2000822453783327e-05,4.920236992248857e-06,5.0483513158772095e-08,1.1234729016972377e-06,6.653617645942524e-06,7.494677047574651e-06,1.742010367956747e-06,2.030152795663938e-06
123,9.319240169221985e-06,3.2034725311567184e-06,1.1048489188442124e-05,6.163607283406454e-06,7.557803019825887e-06,2.1418330136507342e-05,8.500301141669293e-06,2.3292003610349715e-06,2.2405169407284563e-05,5.324471862339487e-06,3.10180902880295e-08,1.1329183181211388e-06,6.542257966223216e-06,7.602997142231405e-06,1.707024834622088e-06,2.0195641360533563e-06
124,8.98645437688754e-06,3.0541071816648855e-06,1.0894645657697658e-05,6.152825025797052e-06,7.5994854261436865e-06,2.0927084588792108e-05,8.373844446653942e-06,2.3256567226965287e-06,2.2731263346916922e-05,5.770372868929132e-06,2.9541903921139347e-08,1.1442832158289668e-06,6.423578436392343e-06,7.672920469186486e-06,1.6666296972529174e-06,2.008536796048434e-06
125,8.652740741531452e-06,2.9161661917942602e-06,1.0777942180835514e-05,6.129660258301923e-06,7.625218390109584e-06,2.044273040432152e-05,8.252599020838845e-06,2.315142179120657e-06,2.2969494360764672e-05,6.2556173020344736e-06,4.3387359465150706e-08,1.1564867416600887e-06,6.299125571575982e-06,7.702543759196273e-06,1.6217771155236967e-06,1.9971229105585477e-06
126,8.322348736864203e-06,2.7905102793431978e-06,1.0700382193647953e-05,6.092912976777929e-06,7.63567507326977e-06,1.9966557404124944e-05,8.134578462879856e-06,2.2984538909431847e-06,2.3108469014738095e-05,6.777278501256395e-06,7.013601082239017e-08,1.1685654017690285e-06,6.17083426880092e-06,7.69073225186534e-06,1.5733444172028046e-06,1.9852964239903028e-06
127,7.999264242120551e-06,2.677577269748761e-06,1.0662912924004014e-05,6.040491707025008e-06,7.631580588343022e-06,1.9496370339777817e-05,8.017444089287224e-06,2.2770120785152653e-06,2.3138343779818683e-05,7.331515037107274e-06,1.0761668623530159e-07,1.1797073264324487e-06,6.04051530217783e-06,7.63817571465122e-06,1.522219831493219e-06,1.9730929275388104e-06
128,7.68751386687574e-06,2.5774913926129596e-06,1.0665714707042655e-05,5.96959586846648e-06,7.612916142545056e-06,1.90264911298488e-05,7.89896043254616e-06,2.2523271239974773e-06,2.305525773147066e-05,7.91325017767784e-06,1.538509348336882e-07,1.189290369929934e-06,5.909508353050158e-06,7.547702297155649e-06,1.469393755408351e-06,1.9607533457199517e-06
129,7.390883941557255e-06,2.490112355309668e-06,1.07082266853404e-05,5.877488382728904e-06,7.578500352299273e-06,1.854898435245881e-05,7.777486365727047e-06,2.225626942463414e-06,2.286355552084188e-05,8.515988817708482e-06,2.070161390911715e-07,1.1968838097016617e-06,5.778553829906262e-06,7.4238021813075485e-06,1.4158953581871153e-06,1.948768503842785e-06
130,7.112372614819204e-06,2.414983704707156e-06,1.0789070210802212e-05,5.762566283041201e-06,7.526345623954278e-06,1.805568822492437e-05,7.652544620191377e-06,2.1977408856706003e-06,2.2574683032331735e-05,9.131803275554633e-06,2.6542092040038057e-07,1.2022312193491745e-06,5.647692619575925e-06,7.272020714802168e-06,1.3626327439599145e-06,1.937748762931652e-06
131,6.8539671011898895e-06,2.351267419931373e-06,1.0906017341981672e-05,5.625257254838512e-06,7.454611136437733e-06,1.7540466927711134e-05,7.525252262701157e-06,2.1690917545577124e-06,2.220399569410163e-05,9.75161690049796e-06,3.2746292454572434e-07,1.2052172444619925e-06,5.516290933634785e-06,7.098516204348104e-06,1.3103043258684312e-06,1.9282011070943975e-06
132,6.617023308223861e-06,2.2978333473177193e-06,1.1056077787649815e-05,5.468332604542283e-06,7.362650411763806e-06,1.7001126234806976e-05,7.398363854416984e-06,2.139708492313497e-06,2.1767252762577904e-05,1.0365693828860127e-05,3.915843573417811e-07,1.2058088058260357e-06,5.383210561689131e-06,6.909582735654436e-06,1.2594388065998748e-06,1.920393562966517e-06
133,6.402732383359812e-06,2.2535210613856483e-06,1.1235748481262467e-05,5.296446333986758e-06,7.251686552185002e-06,1.6440409057301027e-05,7.2758994093919145e-06,2.1093097054971086e-06,2.1278142373079968e-05,1.0963848576868482e-05,4.5623102316816395e-07,1.2039973250789597e-06,5.247096448876344e-06,6.711067120555867e-06,1.2104688576766545e-06,1.9143423596156808e-06
134,6.2120732446738275e-06,2.217327866794654e-06,1.1441480129721658e-05,5.115105754789302e-06,7.124822525585154e-06,1.5865575230691447e-05,7.1624958300320915e-06,2.077483078093381e-06,2.074752765687599e-05,1.1535020160265642e-05,5.198259272083346e-07,1.199743247102609e-06,5.106900981863601e-06,6.507998792544819e-06,1.1637418978931232e-06,1.9098204899986286e-06
135,6.045457216054974e-06,2.188335905133255e-06,1.1670302641172836e-05,4.929651890061918e-06,6.986386163445874e-06,1.5286476392510793e-05,7.062631406199422e-06,2.0438789129481862e-06,2.0183996889406957e-05,1.2066627652764516e-05,5.808019327683994e-07,1.1929326748161618e-06,4.962422521492487e-06,6.304538886345277e-06,1.1194813949865332e-06,1.9063805539736796e-06
136,5.902655129364151e-06,2.1656119639669008e-06,1.1920311950388682e-05,4.74474885521463e-06,6.840907203318292e-06,1.4713037806540562e-05,6.979945388497434e-06,2.008299047599345e-06,1.959470165461178e-05,1.2544770985052506e-05,6.377191431093275e-07,1.1834674019204254e-06,4.814332256646798e-06,6.104044781404343e-06,1.0777557938012385e-06,1.9034487107010904e-06
137,5.783087994639459e-06,2.1483352686904643e-06,1.219059295573649e-05,4.564348565127957e-06,6.692167725062799e-06,1.4153889365930056e-05,6.916910808447344e-06,1.97063974619832e-06,1.8986135630385846e-05,1.2955959398935227e-05,6.894138502354486e-07,1.1715479645996992e-06,4.6637690284514355e-06,5.909299028688937e-06,1.0384993226029845e-06,1.900447871772461e-06
138,5.686137176432401e-06,2.135924601207942e-06,1.248035393446986e-05,4.391755199603651e-06,6.542680678776264e-06,1.36166055106316e-05,6.874815929429531e-06,1.9307497618097237e-06,1.8364814182611293e-05,1.3289725999952234e-05,7.350746451140219e-07,1.1579251967630146e-06,4.512179868197285e-06,5.7229547570764e-06,1.001598520741646e-06,1.8968452881411832e-06
139,5.6112880014797696e-06,2.1278861602523055e-06,1.2787608527433953e-05,4.22957533502548e-06,6.3936987013805115e-06,1.3107992177809622e-05,6.853817876990864e-06,1.8883127996905675e-06,1.7737249459172492e-05,1.3540455264409912e-05,7.741942061979955e-07,1.1438534694821395e-06,4.36156460708177e-06,5.547853810095259e-06,9.669594073681508e-07,1.8920713159385202e-06
140,5.558176667028196e-06,2.1235549881579548e-06,1.3108217611678042e-05,4.0796039826423865e-06,6.24557892350028e-06,1.2633549981957907e-05,6.8530717962924934e-06,1.842864280243981e-06,1.71089398449695e-05,1.3707199546042028e-05,8.064518776027666e-07,1.1308056185572595e-06,4.214635315788315e-06,5.386908282379182e-06,9.344769257555307e-07,1.8854297691783918e-06
141,5.526645323073395e-06,2.1220507277476905e-06,1.343577767912774e-05,3.942767650844923e-06,6.098083380072594e-06,1.2196841618595441e-05,6.870888799741893e-06,1.7939979318082229e-06,1.648351030279583e-05,1.3791701430455418e-05,8.316355236597824e-07,1.1202095379810226e-06,4.074610018765225e-06,5.242658488655148e-06,9.040010263050822e-07,1.8761714846909722e-06
142,5.516781355186853e-06,2.122475698844609e-06,1.3762102232460947e-05,3.819181590297302e-06,5.950359320892512e-06,1.179919106567131e-05,6.904689164516986e-06,1.7416972051286786e-06,1.5863205090036666e-05,1.3795860347421793e-05,8.496641525379555e-07,1.1133290542536662e-06,3.944770269021674e-06,5.116839995355254e-06,8.754407799813525e-07,1.8636910326441903e-06
143,5.528790147621019e-06,2.124140500229215e-06,1.4077944810156702e-05,3.708290117100911e-06,5.801007904162128e-06,1.1439764212247251e-05,6.950980635999374e-06,1.6865959693650604e-06,1.5250066357477548e-05,1.3720085014346888e-05,8.606824640737016e-07,1.111254198830185e-06,3.828071355534661e-06,5.010175594015367e-06,8.489367580277274e-07,1.847702171738712e-06
144,5.5626253367369825e-06,2.126630330753253e-06,1.4373940795129849e-05,3.609013748455124e-06,5.648687776213052e-06,1.111632681045382e-05,7.00580996237838e-06,1.62994890148563e-06,1.464621205359852e-05,1.3563469188133555e-05,8.651179800525838e-07,1.1149537892298088e-06,3.727025901769344e-06,4.92244648824417e-06,8.248864340929646e-07,1.828318838060478e-06
145,5.617575855687516e-06,2.1296763183962488e-06,1.4641745083169015e-05,3.5198505906044763e-06,5.492927609973336e-06,1.0826550958396034e-05,7.065514350544879e-06,1.5733135112136347e-06,1.4052959583222525e-05,1.3325603412837878e-05,8.63609331689166e-07,1.1253694579416308e-06,3.6437341200729855e-06,4.852829244278021e-06,8.038113473868829e-07,1.806015657705993e-06
146,5.6921644188512315e-06,2.132999100259595e-06,1.4875058111758362e-05,3.4389683761213985e-06,5.334621315173214e-06,1.0569306042724347e-05,7.127322236660568e-06,1.5182443102660346e-06,1.3470234324104907e-05,1.3008810347412536e-05,8.568611673052663e-07,1.1435244812853132e-06,3.579798419214612e-06,4.800395814593686e-06,7.862363264525541e-07,1.781487546713551e-06
147,5.784473197130074e-06,2.136348133626415e-06,1.5070023328573441e-05,3.36438350454919e-06,5.176129248197486e-06,1.0345546411491088e-05,7.189710421756621e-06,1.4662030824594034e-06,1.2897517653047918e-05,1.2619428456499647e-05,8.455477458277988e-07,1.1705869777062888e-06,3.536185111515643e-06,4.764576300517761e-06,7.72627073432516e-07,1.7554664160697238e-06
148,5.892651594099437e-06,2.1396548974794395e-06,1.5224517325418486e-05,3.2942462699929566e-06,5.0210900647662875e-06,1.0158525012348815e-05,7.252593428883404e-06,1.4185576790724338e-06,1.2335721828717483e-05,1.2167481846958084e-05,8.303006817049148e-07,1.207824365752788e-06,3.5132255587781127e-06,4.745422701358431e-06,7.633447775275054e-07,1.7285602461181658e-06
149,6.015270830918111e-06,2.143032109761394e-06,1.5336536250474788e-05,3.2271295953208687e-06,4.874006268303731e-06,1.0013052505123032e-05,7.317300141966996e-06,1.3765325611159632e-06,1.178843994020002e-05,1.166508716683914e-05,8.117486484334791e-07,1.2564851528501916e-06,3.5107205201670794e-06,4.743619996663896e-06,7.58622007207649e-07,1.7011961489980635e-06
150,6.151308925207949e-06,2.14667375917933e-06,1.5403099134113697e-05,3.1622055692129942e-06,4.739716476602231e-06,9.914087896830143e-06,7.386269795861397e-06,1.3411381575673594e-06,1.1261845775080352e-05,1.1124516284698706e-05,7.905672258699387e-07,1.317756994635338e-06,3.5280399831350194e-06,4.7602419228806085e-06,7.5855746676754e-07,1.6737280575059467e-06
151,6.299733384011561e-06,2.1508656309725553e-06,1.5420852539023692e-05,3.0992488615612644e-06,4.622891371113211e-06,9.865752378487021e-06,7.462560597389142e-06,1.3131380131752347e-06,1.0763482289816252e-05,1.0556807243639718e-05,7.674887711757646e-07,1.3929021509966816e-06,3.5641906631319358e-06,4.796371831140558e-06,7.631050172058185e-07,1.6466398334408356e-06
152,6.458885860217664e-06,2.1560009650407654e-06,1.5387588535106446e-05,3.038428991120421e-06,4.5276869892579546e-06,9.87132257278516e-06,7.549396168290198e-06,1.2930717946887345e-06,1.0300625315503003e-05,9.971474488522505e-06,7.432616546162428e-07,1.4835272322111947e-06,3.6178081821708035e-06,4.852873488609155e-06,7.720624375312582e-07,1.620666381615583e-06
153,6.6260253337686494e-06,2.1624813931211094e-06,1.530321318729494e-05,2.979957351646551e-06,4.457691325750799e-06,9.933445241058748e-06,7.649870943196803e-06,1.2812850328837938e-06,9.8791014947847e-06,9.37712311813613e-06,7.186172715784834e-07,1.5918743290498844e-06,3.6870954361337056e-06,4.930512687608418e-06,7.850965869806665e-07,1.596728184639153e-06
154,6.797248943116247e-06,2.170680578150032e-06,1.5169841427492574e-05,2.923892593570656e-06,4.416050177572656e-06,1.0053860093775281e-05,7.766666772133886e-06,1.2779073671785804e-06,9.502938447430666e-06,8.782014657113373e-06,6.942718630599613e-07,1.7210146183619592e-06,3.769943721829407e-06,5.030352319860942e-06,8.018043309729538e-07,1.5757346471510514e-06
155,6.967726967483429e-06,2.1810379738925275e-06,1.499141071080544e-05,2.87035492763576e-06,4.405450785839848e-06,1.02328116119972e-05,7.90160636607503e-06,1.2828061018091448e-06,9.17438749295677e-06,8.19390742717939e-06,6.709177075032064e-07,1.8748718491541472e-06,3.864349089344322e-06,5.154127636423029e-06,8.217731519871896e-07,1.5583984753169689e-06
156,7.132111966843325e-06,2.194071654642613e-06,1.4773076984753991e-05,2.8199320166310887e-06,4.427981509975393e-06,1.0468645887981894e-05,8.05520471938236e-06,1.2955832038231353e-06,8.893958121392749e-06,7.619552237470554e-06,6.491962826694465e-07,2.0581139881179038e-06,3.968717288074756e-06,5.3042343748648405e-06,8.446428271523977e-07,1.5451593969011864e-06
157,7.285047605797887e-06,2.2102587445238807e-06,1.4520492924340446e-05,2.773829660866557e-06,4.485117479667006e-06,1.075793165509879e-05,8.226452016411458e-06,1.3156355847999697e-06,8.660663497845743e-06,7.06450464355584e-06,6.296858954971793e-07,2.2759890580583223e-06,4.081726897952647e-06,5.483299949321649e-06,8.701522324845776e-07,1.5361906118323275e-06
158,7.421703975286268e-06,2.2299755774836512e-06,1.4239088592691992e-05,2.733607862965938e-06,4.577784139391722e-06,1.1096074640654846e-05,8.41274902942192e-06,1.3422215400432699e-06,8.472461624401837e-06,6.53319884414966e-06,6.128951308703193e-07,2.5340807014563955e-06,4.202149540721644e-06,5.693817391226635e-06,8.981041252558779e-07,1.5314265361051526e-06
159,7.538241297939196e-06,2.2535392486574354e-06,1.3933450476753007e-05,2.7007215666888753e-06,4.706340355397683e-06,1.1477994314110752e-05,8.609931984187843e-06,1.3744751320369528e-06,8.326454744555606e-06,6.02891227980869e-06,5.992749944677727e-07,2.8379669271034487e-06,4.328948061987389e-06,5.938025487932604e-06,9.282664428556712e-07,1.5306512211945832e-06
160,7.632046740977466e-06,2.2812128829592964e-06,1.3606722773475273e-05,2.676189267818074e-06,4.870487632676035e-06,1.1898396858398639e-05,8.812568073921475e-06,1.411440753520863e-06,8.218772462167443e-06,5.553672369331654e-06,5.892989511048088e-07,3.1929680325972165e-06,4.461277728067434e-06,6.217646072957113e-06,9.603115575419328e-07,1.5337015377836063e-06
161,7.701555595858391e-06,2.3131201446262578e-06,1.3260071210221352e-05,2.660503158059198e-06,5.069137834387222e-06,1.2351563915748665e-05,9.014553482120823e-06,1.4522071541226474e-06,8.144450126115318e-06,5.108412831629084e-06,5.835925764993679e-07,3.604143520446482e-06,4.598272642154647e-06,6.5334015822746886e-06,9.938300198068961e-07,1.540663869015699e-06
162,7.745638705788973e-06,2.349115272736788e-06,1.289273005352273e-05,2.6536517434476803e-06,5.3003044830655385e-06,1.2830982540947521e-05,9.209726586595124e-06,1.4960273721494572e-06,8.097370083112622e-06,4.693444765801123e-06,5.83039228363871e-07,4.076376296201471e-06,4.7390638997269445e-06,6.884649291145232e-06,1.0284113891252797e-06,1.5518653695751821e-06
163,7.76283993583699e-06,2.3886966050932257e-06,1.2503014565125751e-05,2.655153198502134e-06,5.561142686194375e-06,1.3329116846378778e-05,9.39225255111137e-06,1.5422826160298766e-06,8.070478991837654e-06,4.308946453959773e-06,5.887938509132149e-07,4.614277670731826e-06,4.883114384409452e-06,7.269237550680545e-06,1.0637709435934961e-06,1.5676730025082614e-06
164,7.751018104934494e-06,2.431103546025425e-06,1.2089902413556001e-05,2.6641695632900136e-06,5.848126481354865e-06,1.3837197275950299e-05,9.556860550980814e-06,1.5903282157582182e-06,8.056758203681573e-06,3.955133359884902e-06,6.021807709719607e-07,5.221872641608098e-06,5.03046158897349e-06,7.683489938903029e-06,1.0998133682275406e-06,1.5883000922381382e-06
165,7.707917534097085e-06,2.4755914853038807e-06,1.1654470950418648e-05,2.6797763460362845e-06,6.1571770510323244e-06,1.4344760685801587e-05,9.699131074905175e-06,1.6393818040499298e-06,8.050748429314123e-06,3.632076235891929e-06,6.245612850378813e-07,5.902252150357269e-06,5.181613271066224e-06,8.1223334246795e-06,1.1365406042672124e-06,1.613746534008401e-06
166,7.632490860696982e-06,2.5215867349866406e-06,1.120061444912902e-05,2.701325664049989e-06,6.483595037663141e-06,1.483923219597169e-05,9.815837942699257e-06,1.688567258572563e-06,8.049776779955576e-06,3.3394069684133686e-06,6.573081379016919e-07,6.657338580752025e-06,5.3371760942255685e-06,8.579531908665537e-06,1.173890147863445e-06,1.6438442241980905e-06
167,7.5260658700968064e-06,2.568545398163961e-06,1.0734808810260055e-05,2.7287522864925682e-06,6.821885077664952e-06,1.5306166110965364e-05,9.905220521033992e-06,1.7370700881778568e-06,8.05420058044628e-06,3.076137678420685e-06,7.019194896423994e-07,7.487710817086844e-06,5.497390242054349e-06,9.047757724232632e-06,1.2116572349905642e-06,1.6782895451161032e-06
168,7.392657058735285e-06,2.615731496873507e-06,1.0265296101264358e-05,2.7626579044626003e-06,7.165765851548134e-06,1.5730137044450732e-05,9.967080989620702e-06,1.784278182110359e-06,8.066562692023e-06,2.840699110694338e-06,7.601576940671594e-07,8.392445561254591e-06,5.661736766502183e-06,9.518406614476851e-06,1.2495242244532014e-06,1.716596781631906e-06
169,7.2383815248410736e-06,2.662113604842015e-06,9.801259979497882e-06,2.80408403353175e-06,7.508568510254926e-06,1.6095813713962152e-05,1.0002573830448146e-05,1.829839377757609e-06,8.090192005547374e-06,2.6312447685737328e-06,8.340553463829632e-07,9.369025222243122e-06,5.828728605513462e-06,9.98160166367004e-06,1.2871145253572363e-06,1.758033595430399e-06
170,7.070286937698325e-06,2.7064181219671363e-06,9.352164879977638e-06,2.8541197436552046e-06,7.843923687814024e-06,1.638920829708934e-05,1.001360207441447e-05,1.8736476173870227e-06,8.127955337538431e-06,2.4461208631730024e-06,9.257720282546401e-07,1.0413227713888014e-05,5.995831767556269e-06,1.042682566413028e-05,1.3240172894059874e-06,1.801597154970841e-06
171,6.895116864813336e-06,2.7473736639482814e-06,8.927141431229403e-06,2.9136818418478324e-06,8.16650135416103e-06,1.6599478941786463e-05,1.000197737540716e-05,1.9158072253992437e-06,8.181512606318209e-06,2.284224543189245e-06,1.037446498061542e-06,1.1518858372520412e-05,6.159442430437952e-06,1.0844007668370503e-05,1.3597743261826122e-06,1.84605081951456e-06
172,6.718541499006909e-06,2.783958880761785e-06,8.53436606692544e-06,2.9835537130666007e-06,8.472617847872834e-06,1.672112717701041e-05,9.968633339525923e-06,1.9566167334209848e-06,8.251184023981286e-06,2.145006139899061e-06,1.171155408001836e-06,1.2677422651976337e-05,6.315050369248128e-06,1.1224640919387493e-05,1.3938316365331375e-06,1.8900064693661139e-06
173,6.544964824787671e-06,2.8153619523138797e-06,8.180550475942057e-06,3.06440811162962e-06,8.760471273019332e-06,1.6755429938136628e-05,9.913043128957608e-06,1.996579856782219e-06,8.336363096432181e-06,2.0281764636941365e-06,1.3289600460088068e-06,1.3877942585664326e-05,6.457908789591332e-06,1.1562599170669894e-05,1.4255270898204563e-06,1.931970034198263e-06
174,6.377771008127974e-06,2.8408104673364948e-06,7.870721859691692e-06,3.156730636611965e-06,9.029710943263142e-06,1.670968361740763e-05,9.832946890341123e-06,2.036404974076057e-06,8.436074594864248e-06,1.9334695211190755e-06,1.5129596962251414e-06,1.5106944729369832e-05,6.584180872946073e-06,1.1854275027883956e-05,1.4541816772781664e-06,1.970361499381665e-06
175,6.219806615308328e-06,2.8596207499948892e-06,7.608294991560192e-06,3.260830972696168e-06,9.280346939637908e-06,1.659426648278168e-05,9.724654020493972e-06,2.0769138926950744e-06,8.54929898573784e-06,1.8605986729936102e-06,1.7253330805978172e-06,1.6348473687289148e-05,6.6917313906119275e-06,1.2097782318527545e-05,1.4792007006053668e-06,2.0036044487834574e-06
176,6.073638246790535e-06,2.8713757491847347e-06,7.395194477265398e-06,3.376895714627448e-06,9.51154229508848e-06,1.6419662717801358e-05,9.58405987674618e-06,2.118830946677937e-06,8.67508644984892e-06,1.809193447086549e-06,1.9684375642441055e-06,1.7583961984510853e-05,6.779781440240346e-06,1.2291509914844395e-05,1.5000865240664077e-06,2.030298629942948e-06
177,5.941384749994659e-06,2.8759745142758915e-06,7.231879493570553e-06,3.5048852395476314e-06,9.721000706223178e-06,1.6195470015012625e-05,9.408061127609695e-06,2.1625526757849173e-06,8.812663031983408e-06,1.77864641594389e-06,2.244923510630001e-06,1.8792238587216914e-05,6.847777533638155e-06,1.243306947259249e-05,1.5164351768922271e-06,2.049478142619472e-06
178,5.824569263502312e-06,2.8735754038474126e-06,7.117343798803431e-06,3.6443321217208847e-06,9.905202643253974e-06,1.5930891082718394e-05,9.195802951430849e-06,2.2080182177934003e-06,8.961547955935362e-06,1.768009488708741e-06,2.557680438524356e-06,1.9950566343231586e-05,6.894656827924867e-06,1.2519659594168655e-05,1.5279987405980223e-06,2.0609008736127887e-06
179,5.724304709749337e-06,2.8645406391979728e-06,7.049097119505385e-06,3.7942264609792064e-06,1.0060223126209768e-05,1.5635055891913302e-05,8.949287189181148e-06,2.2546890534259587e-06,9.121452221089092e-06,1.7759863466253962e-06,2.909597588244232e-06,2.1037108766382526e-05,6.919232379679206e-06,1.2549599217444057e-05,1.5347235280063541e-06,2.0651383396189483e-06
180,5.641597371132373e-06,2.8493833802615943e-06,7.023096066492912e-06,3.952992050633158e-06,1.0182765706762507e-05,1.5316744990576018e-05,8.673160556468372e-06,2.3016203165853566e-06,9.29176728565072e-06,1.8009494182584004e-06,3.303354729443161e-06,2.203393388403797e-05,6.921241724950987e-06,1.2523735136705762e-05,1.5366638514544426e-06,2.0633188116674086e-06
181,5.577498258838395e-06,2.8287294817668696e-06,7.033800602778043e-06,4.11844735509147e-06,1.0271076246616741e-05,1.4984144186972238e-05,8.373868133136981e-06,2.3476687225472077e-06,9.470841303631743e-06,1.840944086372794e-06,3.7413861831477546e-06,2.292911940568696e-05,6.902056087854956e-06,1.2445726062694503e-05,1.5339228467502157e-06,2.0567385117917265e-06
182,5.532994003907589e-06,2.8033716450715994e-06,7.0745606969424255e-06,4.287822183124976e-06,1.0325391441124457e-05,1.4645106595711678e-05,8.058574382171484e-06,2.391831736669258e-06,9.655565512671411e-06,1.8937691387168629e-06,4.225917463663888e-06,2.3716881314812315e-05,6.864400318100023e-06,1.232117137270863e-05,1.526746100585746e-06,2.046661226332251e-06
183,5.508675934967181e-06,2.7744213430774697e-06,7.138261656920867e-06,4.458045677715094e-06,1.0347693718296587e-05,1.4307777689332852e-05,7.734207007874286e-06,2.4335624698125528e-06,9.841603260372877e-06,1.9571863501421502e-06,4.758875743003006e-06,2.4395330151141268e-05,6.811271699601874e-06,1.2156293582519222e-05,1.5155503689229835e-06,2.0343139684497817e-06
184,5.504398105408101e-06,2.7433932754306715e-06,7.217946978661398e-06,4.626286965679909e-06,1.034077914370142e-05,1.3981055561495104e-05,7.4067778879206375e-06,2.472824198563322e-06,1.0024063407435268e-05,2.0291205201139133e-06,5.3416163382267274e-06,2.4963022587024693e-05,6.745015911064542e-06,1.1956946497916917e-05,1.5007626404754107e-06,2.020880747460541e-06
185,5.519170352275069e-06,2.712039615546094e-06,7.307238749831067e-06,4.790432868247806e-06,1.030714883701734e-05,1.3674453243642599e-05,7.080995434592369e-06,2.509818302760405e-06,1.0198154752264774e-05,2.107726846303988e-06,5.974621386585921e-06,2.5417322057897936e-05,6.667169350519163e-06,1.1728189956671912e-05,1.4827154489715287e-06,2.007419417442857e-06
186,5.55140679111993e-06,2.6820023718869648e-06,7.4006294076421945e-06,4.949265970318389e-06,1.024866755975549e-05,1.3397316785429903e-05,6.760253567986264e-06,2.5446832649072187e-06,1.0359547437256854e-05,2.1913918012988744e-06,6.657347764771201e-06,2.5756170957947006e-05,6.578615695159352e-06,1.1474191378090732e-05,1.4617569547206106e-06,1.9947509211389385e-06
187,5.5994281948261524e-06,2.6545896142936136e-06,7.493797783151764e-06,5.102357050840276e-06,1.0167212029993028e-05,1.3157749807125734e-05,6.447067736359564e-06,2.5774734683177625e-06,1.0504497489105666e-05,2.278734539150105e-06,7.3882175210368326e-06,2.5981078515309293e-05,6.479490063376044e-06,1.1198118341190498e-05,1.4384083596530597e-06,1.9834023321217033e-06
188,5.661928231885881e-06,2.6308398353478185e-06,7.5839280091009365e-06,5.249766915391122e-06,1.006533119295655e-05,1.2961817172006748e-05,6.14367679201943e-06,2.6083260624789467e-06,1.0629870836246338e-05,2.3685450476833814e-06,8.164634217119175e-06,2.6098582555040543e-05,6.369057356976851e-06,1.0902062601749014e-05,1.4133773264691491e-06,1.97369438953543e-06
189,5.738205751079027e-06,2.611704661859439e-06,7.669824960946666e-06,5.391637804604251e-06,9.946065885547471e-06,1.2813476893910823e-05,5.85231754710995e-06,2.637579727109973e-06,1.0732897746289556e-05,2.4596649270054548e-06,8.982964952181793e-06,2.611970598224132e-05,6.246194848105569e-06,1.0587551849232171e-05,1.3874391080299433e-06,1.9659519218743746e-06
190,5.828183332447397e-06,2.598128877195078e-06,7.751661830155271e-06,5.527802129852399e-06,9.81210578912312e-06,1.2715196091421181e-05,5.575014210201004e-06,2.6657692071204415e-06,1.0810471016407646e-05,2.5509299217726575e-06,9.838438545048818e-06,2.6058093983174423e-05,6.110504743468145e-06,1.0256639282474535e-05,1.3613142808558128e-06,1.9606564180669764e-06
191,5.9321788148074555e-06,2.591024737134547e-06,7.83039011933012e-06,5.657579978110584e-06,9.66507288543413e-06,1.2668705548540522e-05,5.313269747965216e-06,2.6934962592664734e-06,1.0858600589829492e-05,2.6412255777344095e-06,1.0724883589449396e-05,2.592753966387581e-05,5.963160183922807e-06,9.912416706431589e-06,1.3356422614959213e-06,1.9584216307798273e-06
192,6.050386697311789e-06,2.591276068571525e-06,7.906955576753332e-06,5.779848114368603e-06,9.505552069235324e-06,1.2675330953862575e-05,5.06811650828978e-06,2.7212028236777776e-06,1.087294107693131e-05,2.7297704886875936e-06,1.163435885919543e-05,2.5739568558208315e-05,5.806708299964395e-06,9.558319786989524e-06,1.3110544634054655e-06,1.9598911047535883e-06
193,6.182413165322119e-06,2.599787977853279e-06,7.981514282386337e-06,5.8932656217075974e-06,9.3337279685904e-06,1.2735848478435961e-05,4.840476666973956e-06,2.7489620077299334e-06,1.0850259874607047e-05,2.816698811486709e-06,1.2556834022535425e-05,2.5501940434469213e-05,5.64410307587319e-06,9.197209023700265e-06,1.2882393600167215e-06,1.9656755390935903e-06
194,6.327189194124675e-06,2.6174533113510093e-06,8.052941170647514e-06,5.996416479504622e-06,9.150080086614241e-06,1.2850322546910402e-05,4.631507702799563e-06,2.776465004320055e-06,1.0789943800325303e-05,2.903494431145722e-06,1.3479947735459956e-05,2.5218772063665283e-05,5.477790980593391e-06,8.831144496459994e-06,1.26789210906776e-06,1.976280010720155e-06
195,6.483010331831672e-06,2.6450723070791445e-06,8.118820817411293e-06,6.08771498144447e-06,8.95591580625785e-06,1.301829161249665e-05,4.442797709704858e-06,2.803249512405913e-06,1.0695002338809685e-05,2.9927449443483217e-06,1.4388731173715154e-05,2.4891785724984875e-05,5.309313678270466e-06,8.461490068692784e-06,1.2505881897307364e-06,1.991964279141758e-06
196,6.647463298084597e-06,2.683377320606478e-06,8.175759586655062e-06,6.165097794973565e-06,8.753650118190872e-06,1.3239009838919748e-05,4.276302456587589e-06,2.828980375320892e-06,1.0572367572328018e-05,3.087406382648687e-06,1.526534612283492e-05,2.452118006100025e-05,5.139316588662303e-06,8.089169755769647e-06,1.2366919284276003e-06,2.0126276237047606e-06
197,6.817477363345455e-06,2.733053340875278e-06,8.219791460953128e-06,6.225668186457527e-06,8.546540640836642e-06,1.351112363001315e-05,4.133990327224272e-06,2.8535752732353588e-06,1.0432217427209208e-05,3.1901650928208956e-06,1.6089308426992213e-05,2.410523912654527e-05,4.967704805889677e-06,7.715464427393241e-06,1.226340983670832e-06,2.0378215029531777e-06
198,6.989748099919017e-06,2.794584576675807e-06,8.246906737606838e-06,6.265623012045778e-06,8.337847046165015e-06,1.3831862176008735e-05,4.0175821498675276e-06,2.877111185106349e-06,1.028631238015061e-05,3.3031787544435206e-06,1.6838772829259474e-05,2.3639517389788007e-05,4.793923652083097e-06,7.342823765932847e-06,1.219479014867312e-06,2.0668470937048008e-06
199,7.16145226681548e-06,2.8680675729360716e-06,8.253738986878494e-06,6.28076845204877e-06,8.129970679043676e-06,1.4196671378893544e-05,3.92868262079392e-06,2.899588536213027e-06,1.0146040894326708e-05,3.428221839541331e-06,1.7492833461658428e-05,2.311746238745869e-05,4.617407025526494e-06,6.974814746712757e-06,1.2158976515005333e-06,2.098804479157209e-06
200,7.3309602860030924e-06,2.953203703286573e-06,8.238193689970766e-06,6.267520688719648e-06,7.924127528357482e-06,1.4599848929364336e-05,3.869009811797593e-06,2.92083316956791e-06,1.0021092066707978e-05,3.56712928768481e-06,1.803401504958045e-05,2.2533043546773235e-05,4.438078069172887e-06,6.61535290619781e-06,1.2152832586227487e-06,2.1325512449483185e-06
201,7.498240438831817e-06,3.0494019173921433e-06,8.19974362399012e-06,6.223932554534318e-06,7.720483938974667e-06,1.5035756901848766e-05,3.840434754699433e-06,2.9407269447799e-06,9.919013527630104e-06,3.722131518923257e-06,1.8449921173804817e-05,2.188366295506198e-05,4.256714797016481e-06,6.267936051635619e-06,1.2172749666301597e-06,2.1666944198671615e-06
202,7.66476795296875e-06,3.1557905752862206e-06,8.139296653045244e-06,6.150305932420463e-06,7.518430576222999e-06,1.5499955908508167e-05,3.844930796680007e-06,2.959498780964574e-06,9.845278815904438e-06,3.895714507045868e-06,1.873344179912237e-05,2.1171213249162413e-05,4.075030809211273e-06,5.93530615129893e-06,1.2214963665575777e-06,2.199747390192281e-06
203,7.832907187546935e-06,3.2711824621710984e-06,8.058686325125743e-06,6.049150850269665e-06,7.316976177730144e-06,1.5989890426688856e-05,3.884522152190593e-06,2.977733535698863e-06,9.8035667821194e-06,4.090185993527951e-06,1.8881557334450012e-05,2.040056615995404e-05,3.89542531728926e-06,5.619557591592551e-06,1.2275268310431876e-06,2.2303962192610757e-06
204,8.004945195131971e-06,3.3941506239288434e-06,7.959885346890313e-06,5.924525502430757e-06,7.115353421852334e-06,1.6505001149571292e-05,3.9611404305119005e-06,2.9961401536099436e-06,9.796250038416156e-06,4.307355290818223e-06,1.889317004564823e-05,1.957676356155252e-05,3.7205139621455646e-06,5.322461013257231e-06,1.2348708085518909e-06,2.257697465008468e-06
205,8.182206787234067e-06,3.5230913019029315e-06,7.844246998573634e-06,5.7810910070780885e-06,6.913698604849382e-06,1.7046329637430737e-05,4.0763595380680346e-06,3.0153007171802157e-06,9.825075321620445e-06,4.5484116934737035e-06,1.8767117713104453e-05,1.8703595415829675e-05,3.5527063695832567e-06,5.045619025555623e-06,1.2430061960836515e-06,2.2811315087631915e-06
206,8.36462829202084e-06,3.6561035916956585e-06,7.712303996957876e-06,5.623316469040876e-06,6.7134541315993215e-06,1.7615648697843702e-05,4.231151214908251e-06,3.035504039040975e-06,9.8917994855437e-06,4.81387972932752e-06,1.850235618617353e-05,1.7784791539461103e-05,3.394106986958031e-06,4.790274673255933e-06,1.251466504916861e-06,2.3005651963656925e-06
207,8.550720530129806e-06,3.7908884963239814e-06,7.564274613845917e-06,5.455026971249529e-06,6.517140737154649e-06,1.8214072648054197e-05,4.42578797825772e-06,3.056713335940328e-06,9.998401763648098e-06,5.1035712704678086e-06,1.8100787307124168e-05,1.682607826874116e-05,3.2467074867882823e-06,4.557115791568669e-06,1.2598442354225924e-06,2.316132415832796e-06
208,8.73762400456342e-06,3.9250008597290476e-06,7.400795733972121e-06,5.279204904255068e-06,6.327540628430598e-06,1.884053194763582e-05,4.659847907257026e-06,3.0786953583680317e-06,1.0146656999836615e-05,5.416492241694938e-06,1.757028074841192e-05,1.583608064184936e-05,3.112501257915518e-06,4.346428198432833e-06,1.2677260637079016e-06,2.3280385658965577e-06
209,8.921215701533864e-06,4.056445940747332e-06,7.2234511124104e-06,5.0980400264270514e-06,6.14690394632715e-06,1.9490997783994955e-05,4.932194385443851e-06,3.1011231442167082e-06,1.03373273766275e-05,5.750756025796352e-06,1.692539663236631e-05,1.4825821890518547e-05,2.993296730667872e-06,4.158468372613131e-06,1.2746885646571155e-06,2.336479135705184e-06
210,9.096462258481416e-06,4.1842532419902705e-06,7.035045578499477e-06,4.913336361557495e-06,5.976734360690432e-06,2.0158817385879873e-05,5.240874568598804e-06,3.1234298430392303e-06,1.0569599866048856e-05,6.103563368983216e-06,1.6185726342183544e-05,1.3807522335339939e-05,2.890439557638082e-06,3.993793285703716e-06,1.2803928739299095e-06,2.3417680336478855e-06
211,9.258117769666511e-06,4.3086569546169604e-06,6.839634899251676e-06,4.727076250111202e-06,5.818062414063163e-06,2.0835598796954278e-05,5.583016009004461e-06,3.144557121225912e-06,1.084120760721639e-05,6.471299305091451e-06,1.537319287118779e-05,1.2793405617876736e-05,2.80475982840679e-06,3.853457801820945e-06,1.2846512265468767e-06,2.3444444236485755e-06
212,9.401635941001635e-06,4.430809720726422e-06,6.642256974492258e-06,4.541724385812084e-06,5.67183001435709e-06,2.151211634729783e-05,5.9548667587207686e-06,3.1629145739237157e-06,1.1149043448062317e-05,6.849917829630424e-06,1.45095286058847e-05,1.1794902692654555e-05,2.7367585401705456e-06,3.739113084394214e-06,1.2873678525546844e-06,2.3452136023551097e-06
213,9.524055906500585e-06,4.5522382987617545e-06,6.448361062129406e-06,4.360158096346193e-06,5.539142301691668e-06,2.217915307366322e-05,6.3519227268409874e-06,3.1766276251793892e-06,1.1489628685249465e-05,7.235476367770812e-06,1.3614518658441467e-05,1.0822301459864976e-05,2.6867647460410282e-06,3.6531103141643703e-06,1.2884249958712892e-06,2.344847626475736e-06
214,9.624646628713658e-06,4.674286415213557e-06,6.263085130575228e-06,4.185443994537125e-06,5.421219318939441e-06,2.2828189848677268e-05,6.768898154931349e-06,3.183917708738792e-06,1.1858949029277618e-05,7.624290756380339e-06,1.2705095410073049e-05,9.884670754082472e-06,2.6548958723809463e-06,3.5986020403191183e-06,1.287629206813471e-06,2.3441545775859624e-06
215,9.705130284573248e-06,4.797709013347277e-06,6.090706067832768e-06,4.020628293091738e-06,5.31903566919944e-06,2.3451741496003835e-05,7.199606667806313e-06,3.183429476758356e-06,1.2251902349426033e-05,8.01282111490604e-06,1.1795136359779968e-05,8.989786844637443e-06,2.641011973460408e-06,3.579421105674529e-06,1.2847620502714708e-06,2.343972389493813e-06
216,9.769344492231202e-06,4.922558395682865e-06,5.934511020197086e-06,3.868501916727702e-06,5.2329002450644485e-06,2.4043242470569593e-05,7.63708382315435e-06,3.1744379852277634e-06,1.2662270518048199e-05,8.397997360872277e-06,1.089573324611764e-05,8.143965765699595e-06,2.644884663897954e-06,3.5996690912761097e-06,1.27969975883765e-06,2.3450884654062867e-06
217,9.82230563627416e-06,5.048423508629727e-06,5.7970466116887635e-06,3.7313083596511893e-06,5.162231466975869e-06,2.45964521880777e-05,8.073938251437603e-06,3.1569467413130907e-06,1.3083513361621155e-05,8.777639938070833e-06,1.0015703323020937e-05,7.351980240284406e-06,2.6663965357618102e-06,3.6633338815749284e-06,1.2724703848438354e-06,2.3481126609954367e-06
218,9.868974025645617e-06,5.1749380191690485e-06,5.680618299130656e-06,3.6105339045627307e-06,5.105510494768248e-06,2.5104176291212357e-05,8.502662544451577e-06,3.1316151747680187e-06,1.3509310641704363e-05,9.149977977815425e-06,9.162143194568048e-06,6.6171869887682646e-06,2.7054750047251294e-06,3.7742057757432304e-06,1.263179114549194e-06,2.353406796417712e-06
219,9.913540369412024e-06,5.302336771347369e-06,5.5878709623569e-06,3.5069476384075296e-06,5.060242954085383e-06,2.5556472646782976e-05,8.915865227308438e-06,3.099437226625563e-06,1.3932980399661069e-05,9.512692535434011e-06,8.340846303052745e-06,5.941747756572187e-06,2.7618432927667786e-06,3.935997904250271e-06,1.2519267641544725e-06,2.3610842026383005e-06
220,9.959723038810343e-06,5.43170199055844e-06,5.52204020979513e-06,3.4208999737947934e-06,5.022913349311521e-06,2.593976749544689e-05,9.306571381378084e-06,3.0612949559843745e-06,1.434664822082987e-05,9.862446606867104e-06,7.5564931008022185e-06,5.326755422125724e-06,2.8348565082014756e-06,4.152386204458754e-06,1.2388378664578984e-06,2.3710734541102702e-06
221,1.0011391419990842e-05,5.564681637274428e-06,5.4865935168018165e-06,3.3526966348829624e-06,4.989128181257949e-06,2.6238148745445365e-05,9.668627122312474e-06,3.017710785657382e-06,1.4741468653787193e-05,1.0194781052714273e-05,6.812686145671813e-06,4.7722427909201465e-06,2.923534952261602e-06,4.426785284134554e-06,1.2241785289941783e-06,2.3831862911256864e-06
222,1.0072627386769985e-05,5.702916917429099e-06,5.484568893451452e-06,3.302783058020508e-06,4.95410790788113e-06,2.6436139484469584e-05,9.997032099941868e-06,2.9689487956312557e-06,1.510852530786346e-05,1.0504186327417654e-05,6.112001667584413e-06,4.277274803535337e-06,3.0267265638896337e-06,4.762012924936052e-06,1.208488314427198e-06,2.3970417698347343e-06
223,1.0147205174371299e-05,5.847595221350035e-06,5.518106475742661e-06,3.2716403886845904e-06,4.9134492332595415e-06,2.6521611120899503e-05,1.0287964748431692e-05,2.915245985945521e-06,1.5438918063588476e-05,1.0784401993727174e-05,5.45613499486002e-06,3.840206666410677e-06,3.1431932712096805e-06,5.160049244447626e-06,1.1926337062143117e-06,2.4118874081636813e-06
224,1.0237947663314048e-05,5.999277074302101e-06,5.5882695509221345e-06,3.2595395530813275e-06,4.86390748629746e-06,2.648827794421862e-05,1.0538442850053803e-05,2.8569421141538498e-06,1.5722775359295333e-05,1.1028666263831927e-05,4.846050744949136e-06,3.458874514411165e-06,3.27150225275487e-06,5.621851857108845e-06,1.1777243740673206e-06,2.42656358618276e-06
225,1.034625066279065e-05,6.157843197301581e-06,5.694978491570692e-06,3.2663264364637033e-06,4.803893158949106e-06,2.6337246744106127e-05,1.0745695788877197e-05,2.794523023476864e-06,1.5948942883538252e-05,1.123000729507754e-05,4.282059287868994e-06,3.130563846102103e-06,3.409835652487771e-06,6.147213596632922e-06,1.1649280314815723e-06,2.4397439896809996e-06
226,1.0471766788731101e-05,6.322370887589908e-06,5.837016945768818e-06,3.2913439473668208e-06,4.733380360345182e-06,2.607657308355975e-05,1.0906411446078515e-05,2.7286431113320973e-06,1.6106822657771817e-05,1.1382052932999308e-05,3.7638704837610848e-06,2.8519008884007766e-06,3.555842488089025e-06,6.734782601505849e-06,1.1552907710593002e-06,2.450321674694708e-06
227,1.0612200620459475e-05,6.49102321745127e-06,6.012177683297008e-06,3.333599367209023e-06,4.653219480852821e-06,2.5718339603933957e-05,1.1016481875113436e-05,2.6600905455409894e-06,1.618924106860472e-05,1.1480128475486509e-05,3.2907030062892078e-06,2.618854399012572e-06,3.7065782608191644e-06,7.382309850769685e-06,1.149641216709029e-06,2.4576412808680345e-06
228,1.0763382393557469e-05,6.661217910897371e-06,6.217480190025046e-06,3.392141895735835e-06,4.564428133230497e-06,2.5275030283587935e-05,1.107193546007577e-05,2.5896478507369173e-06,1.6193768134702745e-05,1.1521545742680466e-05,2.861441119674521e-06,2.4268931040445205e-06,3.85861478196438e-06,8.087030676490684e-06,1.1485686928594316e-06,2.4613874611748246e-06
229,1.0919799832671699e-05,6.830081473563043e-06,6.4493767543854125e-06,3.4663295159933018e-06,4.468055155388678e-06,2.4758054713402756e-05,1.1070555946709435e-05,2.5179363654301133e-06,1.6121421382247262e-05,1.1504624849940163e-05,2.474753628410716e-06,2.271218255569154e-06,4.008303970953988e-06,8.845988685182834e-06,1.1524294743348228e-06,2.46123980944995e-06
230,1.1075490505605098e-05,6.994929971596213e-06,6.704061100655165e-06,3.5557055329556876e-06,4.3654391654055215e-06,2.4178455808884985e-05,1.101284233894619e-05,2.445441294162673e-06,1.5974704834239767e-05,1.1427937412355572e-05,2.1291349687914293e-06,2.146970587420487e-06,4.152009311916861e-06,9.656150598968658e-06,1.1613565181849728e-06,2.45656802829349e-06
231,1.1225012120859766e-05,7.153557880792906e-06,6.9779564313120325e-06,3.659648404637476e-06,4.258309523772537e-06,2.3547119058417486e-05,1.0901782880054297e-05,2.3727055772354095e-06,1.5757542727980065e-05,1.1291182034403699e-05,1.822944304146711e-06,2.0494158450222312e-06,4.2863084510034764e-06,1.0514175953450438e-05,1.1752771110509218e-06,2.4463899596881737e-06
232,1.1364203630030764e-05,7.304114268308651e-06,7.268104315026257e-06,3.7771490901059717e-06,4.148581632875155e-06,2.287335315753534e-05,1.0742017514558509e-05,2.300418128636166e-06,1.547646638297353e-05,1.109657913611509e-05,1.5544805960939125e-06,1.9741774908033324e-06,4.408376288112387e-06,1.1415755430254325e-05,1.1939462432341962e-06,2.4296474510432633e-06
233,1.149046942591129e-05,7.444575303320014e-06,7.572050186509154e-06,3.906757408930998e-06,4.038013223030383e-06,2.2163254279117928e-05,1.0539038307793614e-05,2.229357356243694e-06,1.5140397144044195e-05,1.0849069532585402e-05,1.3219981703704657e-06,1.9174731078890536e-06,4.51641461107553e-06,1.2354732764786729e-05,1.2169840038936992e-06,2.405644543847651e-06
234,1.1602394847009279e-05,7.572548589290782e-06,7.887180735379027e-06,4.046529686520597e-06,3.927889835285033e-06,2.1419353871330516e-05,1.0298620975752485e-05,2.1604464617880388e-06,1.4758625213391108e-05,1.0555430707762529e-05,1.1236306120095041e-06,1.87619424438555e-06,4.609660267072551e-06,1.3322444990846026e-05,1.2439132769684832e-06,2.3743826002413625e-06
235,1.1698726189919979e-05,7.685968954466057e-06,8.209910979915088e-06,4.193920433504821e-06,3.818868725110776e-06,2.0641921239552305e-05,1.0026478695546867e-05,2.094876473461297e-06,1.4339265108126235e-05,1.0223380800868293e-05,9.573200968317512e-07,1.8477690698457281e-06,4.687831758482605e-06,1.4307444001792162e-05,1.2742001133996531e-06,2.336610919450339e-06
236,1.1777206183670165e-05,7.783931139820093e-06,8.535234621280954e-06,4.34567772926466e-06,3.711067143827342e-06,1.9831410661670736e-05,9.728118986881861e-06,2.0339925022442344e-06,1.3889519049033126e-05,9.861093267333253e-06,8.207994370720527e-07,1.8299500098643792e-06,4.750442234896263e-06,1.529535542784357e-05,1.3072832829116847e-06,2.2935973739930843e-06
237,1.1834173024130031e-05,7.866583171097056e-06,8.856807696941696e-06,4.497897729861271e-06,3.6044048294626585e-06,1.8990911765882087e-05,9.408710241736233e-06,1.978992406915911e-06,1.3416314419485297e-05,9.476718213023936e-06,7.116049194810563e-07,1.8207119144226648e-06,4.796582545323209e-06,1.6268657774076354e-05,1.3426120799205547e-06,2.24679129120747e-06
238,1.1865377173079663e-05,7.934164623868959e-06,9.167274226771994e-06,4.64636789107522e-06,3.4990174205165486e-06,1.8127201719365896e-05,9.072709690295921e-06,1.9307352412872245e-06,1.292593158553494e-05,9.077698928335966e-06,6.271104682096933e-07,1.818318282087607e-06,4.82536705660827e-06,1.720663305326011e-05,1.3797232378853201e-06,2.1976116205962004e-06
239,1.1867412389449165e-05,7.986295308723162e-06,9.458563630459338e-06,4.78708328909587e-06,3.395432558246048e-06,1.724962821449484e-05,8.723455463563474e-06,1.8897124796368482e-06,1.2423613896721287e-05,8.670375469695444e-06,5.645754257551192e-07,1.8214674496623254e-06,4.8366107405947535e-06,1.808619153507984e-05,1.4183095515112401e-06,2.1474392147134445e-06
240,1.1838825167452914e-05,8.022139390760538e-06,9.722278326783476e-06,4.916684545988856e-06,3.2944204950709315e-06,1.6367580181919347e-05,8.363191886984227e-06,1.8560549550690714e-06,1.191439329796188e-05,8.260107412487422e-06,5.211835725332971e-07,1.8293550835996216e-06,4.831169234344564e-06,1.8884062825866933e-05,1.4581990839680238e-06,2.09764455543081e-06
241,1.17803809042639e-05,8.040781138690724e-06,9.950457400467335e-06,5.032677679028749e-06,3.196690511594473e-06,1.5488458633991944e-05,7.993517090538768e-06,1.8295251474547238e-06,1.1404261078506451e-05,7.851499809328863e-06,4.940645939077062e-07,1.8415368708716003e-06,4.810743059405022e-06,1.9579848118222462e-05,1.4992354711476578e-06,2.049525620934634e-06
242,1.1694388326502351e-05,8.041040470776812e-06,1.0136755368999266e-05,5.1334373457128605e-06,3.1026173817224683e-06,1.4617336723935021e-05,7.615889191475199e-06,1.8095072530172299e-06,1.0900173631589159e-05,7.448623285604685e-06,4.80362029446951e-07,1.8576411851893475e-06,4.777319475167712e-06,2.015860380218945e-05,1.5411400116137803e-06,2.004275249449753e-06
243,1.158339251261847e-05,8.020933579078357e-06,1.027763931374022e-05,5.218034778436116e-06,3.012159429734702e-06,1.375780642925134e-05,7.232051118720807e-06,1.7950015624047705e-06,1.0408974065886243e-05,7.055490342664314e-06,4.773924615238598e-07,1.8771048201810356e-06,4.732632341917902e-06,2.0611874356474948e-05,1.5834392736337556e-06,1.9630183817530277e-06
244,1.1449104216480357e-05,7.977618069229913e-06,1.0372946465362474e-05,5.285878229955015e-06,2.9250781355155463e-06,1.2913037109203842e-05,6.844348656819969e-06,1.7846471203741112e-06,9.936519802927194e-06,6.676522643653704e-06,4.827770013855885e-07,1.8990305203709986e-06,4.678051141481693e-06,2.093700820882306e-05,1.625466729400521e-06,1.9267724175006127e-06
245,1.1292618520676452e-05,7.908318947987709e-06,1.0425275039279408e-05,5.336213767190351e-06,2.8413331737129012e-06,1.2086574774274565e-05,6.455794385127944e-06,1.7768361378303263e-06,9.4877233635209e-06,6.316427401562282e-06,4.944695796781189e-07,1.9221411789938207e-06,4.614936248514337e-06,2.1135224795053225e-05,1.6664267649506485e-06,1.8963297874456097e-06
246,1.1115901399261178e-05,7.811641995020612e-06,1.0438335179461325e-05,5.367822607092255e-06,2.761339203898223e-06,1.1282577900082675e-05,6.069792707084195e-06,1.7699637182431674e-06,9.066952039004183e-06,5.97959182921884e-06,5.107650527442873e-07,1.9448228102641844e-06,4.544960015257234e-06,2.120898342726169e-05,1.7054886701423195e-06,1.8721703727610955e-06
247,1.0923070600930667e-05,7.688033352492485e-06,1.0415288223759192e-05,5.379241052067889e-06,2.685881370684546e-06,1.050525400153309e-05,5.689672349583727e-06,1.7627263403519192e-06,8.678072784634352e-06,5.669608742944188e-06,5.302864210987904e-07,1.9652959188518202e-06,4.469963270149496e-06,2.1159569604104974e-05,1.7418140989122002e-06,1.854421068941142e-06
248,1.0720250917602072e-05,7.538932456962562e-06,1.0358134557391676e-05,5.36933905257408e-06,2.6157829007681833e-06,9.757841324831098e-06,5.3182441118296414e-06,1.7542826607695553e-06,8.324141295555729e-06,5.3891484474562965e-06,5.519111656822404e-07,1.9819295463917598e-06,4.3914941229831984e-06,2.098666889561363e-05,1.774482833476909e-06,1.8428589952924735e-06
249,1.0514290431682033e-05,7.365635245223484e-06,1.0268126414838606e-05,5.337855478274184e-06,2.551585753623915e-06,9.042035814287963e-06,4.9575328069871815e-06,1.7441716309012824e-06,8.007011049469817e-06,5.140043576579266e-06,5.747027624386625e-07,1.9936246886180364e-06,4.310533983919784e-06,2.0690950548255796e-05,1.8024352765321499e-06,1.8369551006554215e-06
250,1.0311352886112802e-05,7.169047118948143e-06,1.0146409854826382e-05,5.285666171445203e-06,2.4934013174376904e-06,8.358342894182363e-06,4.608870183422738e-06,1.7321138069230086e-06,7.727063396346201e-06,4.923436124304583e-06,5.97912462300483e-07,2.000095531233454e-06,4.22776138448993e-06,2.0278045050455673e-05,1.8245752354036151e-06,1.8359432505180668e-06
251,1.0116176014730253e-05,6.9502344060775895e-06,9.994363387471704e-06,5.214753413519331e-06,2.4409690953262778e-06,7.706899301263178e-06,4.2733859071904505e-06,1.7179914248863153e-06,7.48327257320569e-06,4.739898821106166e-06,6.210237835854935e-07,2.001898999810654e-06,4.144176684106413e-06,1.976092353284756e-05,1.8400053297442558e-06,1.8388978375915733e-06
252,9.932166104915583e-06,6.711022194685964e-06,9.813703490177459e-06,5.128009722550046e-06,2.3939265011142173e-06,7.088034123901399e-06,3.952514108759431e-06,1.702058684484331e-06,7.273677597042982e-06,4.589600926378773e-06,6.437425347672379e-07,2.000188824834264e-06,4.061521043506217e-06,1.9158971834141717e-05,1.848253919467013e-06,1.8448054617246809e-06
253,9.761768979548275e-06,6.454322895939251e-06,9.606689351850558e-06,5.029059739869812e-06,2.352162246150424e-06,6.502194848563136e-06,3.6480994167920968e-06,1.6850252461949966e-06,7.09600968530652e-06,4.472471121289625e-06,6.659438813934654e-07,1.9963002096600433e-06,3.982090605018196e-06,1.8494549768690146e-05,1.8494529677255148e-06,1.8526614455177094e-06
254,9.606518517406093e-06,6.184252137802863e-06,9.376560398275256e-06,4.922110834911088e-06,2.3160423883729367e-06,5.949454391569834e-06,3.36210332944976e-06,1.6678201198128278e-06,6.9481125861430776e-06,4.388154564468805e-06,6.876547217169978e-07,1.9913831775807385e-06,3.908140804943084e-06,1.778940126968596e-05,1.8444461610872094e-06,1.8615638889336242e-06
255,9.466825747308246e-06,5.9060398025827706e-06,9.128001216934996e-06,4.811656139890342e-06,2.2864192173077105e-06,5.4293206582721864e-06,3.096240479686863e-06,1.651315972988141e-06,6.828037767060376e-06,4.335778028338734e-06,7.090006881339099e-07,1.986279393351012e-06,3.841459639551635e-06,1.7062670747872894e-05,1.8347073189383711e-06,1.870679768209297e-06
256,9.34198562747328e-06,5.6256866819801845e-06,8.867266194138174e-06,4.701987930366633e-06,2.264473786202133e-06,4.941210247254873e-06,2.8518106370441896e-06,1.636250740176346e-06,6.733981476107994e-06,4.31371509826037e-06,7.300939401950583e-07,1.981641384025161e-06,3.7833625198639958e-06,1.6330596849940027e-05,1.8220315749536084e-06,1.8791185452003269e-06
257,9.230676426040676e-06,5.349461219299396e-06,8.601662361277745e-06,4.59685217927143e-06,2.2514941168583546e-06,4.485045717731152e-06,2.629665913150116e-06,1.6232431834058893e-06,6.664217685386888e-06,4.31946984268405e-06,7.509797886921166e-07,1.9781327192374123e-06,3.7348390242971425e-06,1.5607050715568912e-05,1.808159359179741e-06,1.8859332308813457e-06
258,9.131741079168486e-06,5.083443883518185e-06,8.338464700311001e-06,4.499485085975153e-06,2.2486944614557087e-06,4.061324968423808e-06,2.430156870249117e-06,1.6127675721326284e-06,6.616949702266109e-06,4.349711678500867e-06,7.716458905889445e-07,1.9765356921183e-06,3.696578467015421e-06,1.4904175116634684e-05,1.7945203941545414e-06,1.8902450798430378e-06
259,9.044806872203116e-06,4.833203426946994e-06,8.083849817171053e-06,4.41274750893756e-06,2.257133717209101e-06,3.6706862743970084e-06,2.2530852867100625e-06,1.6050984270783423e-06,6.58995853091579e-06,4.400565332874933e-06,7.920056755429159e-07,1.9776774138407618e-06,3.6688873671393612e-06,1.4232699307456865e-05,1.7821407948674966e-06,1.8912775064901216e-06
260,8.97049957977302e-06,4.603547534187725e-06,7.842442892059351e-06,4.339032044283592e-06,2.277710131800766e-06,3.3134971321837954e-06,2.097757392052722e-06,1.600309636471937e-06,6.58018901794017e-06,4.468122772370301e-06,8.118846290562818e-07,1.982229650480904e-06,3.651655682454846e-06,1.3601815273347512e-05,1.7716608792912203e-06,1.88837576765693e-06
261,8.910271518691419e-06,4.398343933350043e-06,7.617532639695147e-06,4.280011638325042e-06,2.3111601183960433e-06,2.989829299982337e-06,1.9631049692851892e-06,1.5984012366347314e-06,6.583565110817724e-06,4.548731717147691e-06,8.311112913578657e-07,1.990536037850994e-06,3.6445007576930086e-06,1.3018830192480768e-05,1.763402520202324e-06,1.8812038204891551e-06
262,8.865930396965253e-06,4.220463663759864e-06,7.411531572798881e-06,4.236461069936445e-06,2.3579968452409144e-06,2.6996273078541646e-06,1.8477753617366891e-06,1.5994964144717108e-06,6.595045103749531e-06,4.638863353272543e-06,8.496670987156633e-07,2.0025760072729297e-06,3.647022538285377e-06,1.2488851410179985e-05,1.757412389819874e-06,1.8699372979543742e-06
263,8.839019205342467e-06,4.0718047109817875e-06,7.226170185890966e-06,4.208302009988956e-06,2.418398773422396e-06,2.4427313431714393e-06,1.7502227629517698e-06,1.6039406958660109e-06,6.608664966035305e-06,4.734988319687113e-06,8.677126165702559e-07,2.0180857484961345e-06,3.6588795642156705e-06,1.201456077411638e-05,1.7534469455462064e-06,1.855202267728233e-06
264,8.830377089679683e-06,3.953318087709894e-06,7.062269311804555e-06,4.194874510115915e-06,2.4921513976823725e-06,2.2187600984934095e-06,1.668861186511175e-06,1.6122085832591018e-06,6.617645848652988e-06,4.833732020432376e-06,8.854475143173002e-07,2.036791128681878e-06,3.6795485340997104e-06,1.1596164580383593e-05,1.750977752305717e-06,1.8377983964304798e-06
265,8.840196540507178e-06,3.865052057783363e-06,6.919379690838593e-06,4.195247501493507e-06,2.5786833036335392e-06,2.0270350333610475e-06,1.6022006285565966e-06,1.6246958938660797e-06,6.615063864819723e-06,4.932233348451045e-06,9.029551831340161e-07,2.0586193674247753e-06,3.708070756858342e-06,1.1231705884229745e-05,1.7493381666870272e-06,1.81838644658004e-06
266,8.868465274747492e-06,3.8062336450685415e-06,6.79559685284319e-06,4.208314171760405e-06,2.677085656346784e-06,1.8665792267904815e-06,1.5489557300024232e-06,1.6415731368085392e-06,6.59523548807322e-06,5.028658132748575e-06,9.201524278321415e-07,2.0837277304591296e-06,3.7430843174975243e-06,1.091770052038034e-05,1.7479938417357125e-06,1.7973066440852533e-06
267,8.915228602353712e-06,3.775334934754714e-06,6.687681674425562e-06,4.23260241050233e-06,2.786060163038027e-06,1.7361437060765431e-06,1.5082090828150894e-06,1.6627937348644093e-06,6.555179321026195e-06,5.12255897934089e-06,9.368658606201284e-07,2.112321607148512e-06,3.7830580863518575e-06,1.0649826928477271e-05,1.7467551744084033e-06,1.774603843556624e-06
268,8.980263234646282e-06,3.7701597233234014e-06,6.5916151480144995e-06,4.265983645818131e-06,2.9038693921118725e-06,1.6343018108997757e-06,1.4795574173747094e-06,1.68820821371733e-06,6.495275660659363e-06,5.214568202062028e-06,9.530166375254951e-07,2.1444345442063835e-06,3.826614399542261e-06,1.0423426964596076e-05,1.7457741924377026e-06,1.750197695301696e-06
269,9.062529753216724e-06,3.7880872069910156e-06,6.503567544940414e-06,4.305554922639347e-06,3.0282985618850076e-06,1.559598385006781e-06,1.4631037500046676e-06,1.717692953695374e-06,6.418850892467948e-06,5.305525073288605e-06,9.687828785261966e-07,2.1798950869103985e-06,3.8729174808420224e-06,1.0233704853574075e-05,1.7453311632532096e-06,1.7240348134958924e-06
270,9.16017360625478e-06,3.826453673857851e-06,6.420875535115764e-06,4.347807260426182e-06,3.1566065656525906e-06,1.5105944978421164e-06,1.459324482811495e-06,1.751196582205911e-06,6.331091409451122e-06,5.3958777802735465e-06,9.845686492885322e-07,2.21851520065188e-06,3.9218645854528275e-06,1.0075779293820812e-05,1.7455830286676328e-06,1.696104360560854e-06
271,9.271230017822074e-06,3.8828844252863465e-06,6.342540374964523e-06,4.388874301390784e-06,3.2855760488599823e-06,1.4857644647362246e-06,1.4689305455616809e-06,1.7886574817457646e-06,6.237780089070521e-06,5.4859072390879525e-06,1.0008361106088733e-06,2.2603247977176803e-06,3.973818281130816e-06,9.944944858371516e-06,1.746453296865018e-06,1.6664075772721573e-06
272,9.394451159395094e-06,3.955471048824363e-06,6.269084510086813e-06,4.4246032069525994e-06,3.4118092861370763e-06,1.4834220526368246e-06,1.4927400213131721e-06,1.8299216209205612e-06,6.144264431798789e-06,5.576237098311568e-06,1.0179867885651863e-06,2.305678557250463e-06,4.0291850885861125e-06,9.837268167640825e-06,1.747673194846826e-06,1.635011027111807e-06
273,9.529624370870867e-06,4.042815522012139e-06,6.201988646034442e-06,4.450633092038059e-06,3.5322388516886025e-06,1.5018315082797673e-06,1.5315137524897928e-06,1.8747798566906952e-06,6.0549715770537215e-06,5.6677844276728335e-06,1.0363211910389189e-06,2.355188021233051e-06,4.088349635227556e-06,9.750264380390091e-06,1.7488834607196524e-06,1.6021156821762722e-06
274,9.677144651645827e-06,4.143987461768488e-06,6.143198155167635e-06,4.462921179880763e-06,3.6445751710970565e-06,1.5394543447775682e-06,1.5857859393389875e-06,1.9230090768020732e-06,5.973363162914056e-06,5.761267687281595e-06,1.0560302908386872e-06,2.409559405041641e-06,4.151901561906039e-06,9.683212127682394e-06,1.7497343707580203e-06,1.5680796704773429e-06
275,9.837213778476738e-06,4.258486088020788e-06,6.095104371851926e-06,4.458642808537491e-06,3.7474043406018724e-06,1.5951652080851569e-06,1.6557713351752303e-06,1.9743482560823045e-06,5.90195797469741e-06,5.856987596204308e-06,1.0772239839940085e-06,2.469498946451404e-06,4.220773443200029e-06,9.636719983299045e-06,1.7499545314467223e-06,1.5334465595254141e-06
276,1.0009419527904497e-05,4.386306481085882e-06,6.060905809339814e-06,4.436843205968229e-06,3.839978983426733e-06,1.668370966839475e-06,1.7413512693013772e-06,2.0285070201706634e-06,5.842318445940515e-06,5.954974692174908e-06,1.0999891448466152e-06,2.5357601766698335e-06,4.296218947935846e-06,9.611600185770085e-06,1.7493489657016622e-06,1.498923766141815e-06
277,1.0193032405181173e-05,4.5280452918273155e-06,6.044845512382882e-06,4.398358267464342e-06,3.922005540586863e-06,1.7590815009112612e-06,1.842079940877617e-06,2.0851720698658356e-06,5.795057046690596e-06,6.055022245471497e-06,1.124438480774721e-06,2.6091783351350944e-06,4.379756651973697e-06,9.607623179485044e-06,1.7477109083686537e-06,1.465231315685955e-06
278,1.0387668501568957e-05,4.684832959356278e-06,6.051935624676236e-06,4.3450729475485355e-06,3.993600512284847e-06,1.8679373555978041e-06,1.957198530536176e-06,2.1439607376358243e-06,5.759803371756072e-06,6.156441900187744e-06,1.1507112703776556e-06,2.6905125847151713e-06,4.4731093407354e-06,9.622716091181227e-06,1.744735851552034e-06,1.4329524905395142e-06
279,1.0593803914354321e-05,4.857974202292769e-06,6.08723835462055e-06,4.279123857612136e-06,4.0552506753244685e-06,1.9961116305512836e-06,2.0856549315462633e-06,2.2044343422764714e-06,5.735293448146717e-06,6.258050475944698e-06,1.178918970995614e-06,2.780195686378751e-06,4.578098579445575e-06,9.652812433052084e-06,1.7400208567424885e-06,1.4025529906482774e-06
280,1.0812854353919002e-05,5.04842088206536e-06,6.155141335615429e-06,4.202665633426815e-06,4.107568611001894e-06,2.1450663177922927e-06,2.2260884059667944e-06,2.266136395947474e-06,5.719840338363698e-06,6.358837577219742e-06,1.2090947295352592e-06,2.8782311523799834e-06,4.696420755272554e-06,9.69233182090612e-06,1.7330874509072667e-06,1.374498075546164e-06
281,1.1046822725635358e-05,5.25633930840127e-06,6.258958816589134e-06,4.118114801286499e-06,4.151076185941368e-06,2.316408560804661e-06,2.3768155642299944e-06,2.328477867579684e-06,5.711861612545283e-06,6.45879609542293e-06,1.2412133039316782e-06,2.9842754495616914e-06,4.82928265083945e-06,9.73507421583854e-06,1.7233953290881122e-06,1.3492975187015367e-06
282,1.1297789674255553e-05,5.4809180383600186e-06,6.4007701016807465e-06,4.028296675699395e-06,4.186388461849287e-06,2.5121180829427373e-06,2.5359146271483925e-06,2.3905495441782936e-06,5.7099174543053894e-06,6.558998255446544e-06,1.275246492224242e-06,3.0977267461179123e-06,4.977075511521934e-06,9.775103269092896e-06,1.7104930030735592e-06,1.3274742815884543e-06
283,1.1567591929547522e-05,5.720409456833072e-06,6.581310629418784e-06,3.93626551262916e-06,4.214629168069895e-06,2.734973840233941e-06,2.701400308153879e-06,2.451128254241107e-06,5.712456262084048e-06,6.66096645317179e-06,1.311155817800909e-06,3.2176740326395475e-06,5.139275572119667e-06,9.807305672927985e-06,1.6943223871290588e-06,1.309546707160823e-06
284,1.185782595362367e-05,5.972419406558716e-06,6.7999105477696964e-06,3.84500834114037e-06,4.237668911802526e-06,2.9887517042433752e-06,2.871446499348692e-06,2.5089570641845813e-06,5.718003122501896e-06,6.766291863302082e-06,1.3488129815740254e-06,3.3427846728172626e-06,5.314554172604665e-06,9.827708164383572e-06,1.6753644459268086e-06,1.2960100645532612e-06
285,1.217001394774036e-05,6.2343690684227304e-06,7.054553894266307e-06,3.757238069442112e-06,4.258124768564189e-06,3.278027342496523e-06,3.0446986589014966e-06,2.5631092546794902e-06,5.725907489103876e-06,6.876810574273161e-06,1.3879314471010482e-06,3.471316815003776e-06,5.501056670274767e-06,9.833732298349288e-06,1.6544174887283608e-06,1.2872617353996813e-06
286,1.2505562085985706e-05,6.503836857743448e-06,7.342172803003924e-06,3.6753115961264056e-06,4.27923558224391e-06,3.607713340628337e-06,3.2206428859481633e-06,2.6131610220944083e-06,5.736866411829496e-06,6.994614590216883e-06,1.4280338342294716e-06,3.601282661038066e-06,5.696820307469357e-06,9.824254964594733e-06,1.632239370548793e-06,1.2835046508385906e-06
287,1.2865188628059656e-05,6.778524437846241e-06,7.659184621963141e-06,3.601187327907019e-06,4.304619225025533e-06,3.982551797198017e-06,3.3998036575485623e-06,2.659066586418457e-06,5.752559919871556e-06,7.12155098717295e-06,1.4684244862537695e-06,3.7306526955225106e-06,5.900105792844233e-06,9.799171729697659e-06,1.609402191301469e-06,1.2846987398587753e-06
288,1.3247959751658981e-05,7.055834809616114e-06,8.002030162809742e-06,3.536351158850195e-06,4.337894023168329e-06,4.40680719809237e-06,3.583573105209129e-06,2.700874435131289e-06,5.774679366996127e-06,7.258692392366765e-06,1.508202678539286e-06,3.857502570819161e-06,6.1093537940062835e-06,9.75846553514481e-06,1.5864163526475402e-06,1.2905672722191525e-06
289,1.3650609899369664e-05,7.332325917477736e-06,8.367487494173264e-06,3.481797696957027e-06,4.382250800135334e-06,4.884222488715392e-06,3.7737659069536528e-06,2.7385002685293196e-06,5.80418886291412e-06,7.406181904093447e-06,1.5463443176884856e-06,3.9800276202818195e-06,6.322922771046676e-06,9.701373686106377e-06,1.5639100317550564e-06,1.300616898076691e-06
290,1.4067623781128466e-05,7.6034670963857636e-06,8.752777423924114e-06,3.4381442673400485e-06,4.4401568059288455e-06,5.4179847836978256e-06,3.972193893250525e-06,2.771638178481659e-06,5.8412041538624475e-06,7.563382179953936e-06,1.5817695498029152e-06,4.096456265936381e-06,6.5391677090309e-06,9.626379526733292e-06,1.5426762441943025e-06,1.3141627222801142e-06
291,1.4491861231208784e-05,7.863886285358603e-06,9.155582080533414e-06,3.4057811416004085e-06,4.513357808402038e-06,6.010491494798072e-06,4.180433189784856e-06,2.7997276307602973e-06,5.885134962694541e-06,7.728996749448344e-06,1.6133401890450044e-06,4.205021121372664e-06,6.756884900772059e-06,9.532005746583091e-06,1.5235793790666693e-06,1.3303747192504372e-06
292,1.4915362213927096e-05,8.107899881412708e-06,9.574061429511902e-06,3.3849449924293815e-06,4.603153731381546e-06,6.663010360335997e-06,4.399697648593069e-06,2.821964428363894e-06,5.934709110828165e-06,7.90094825393796e-06,1.6399015850422118e-06,4.3040441491707455e-06,6.97547573049277e-06,9.417713974829321e-06,1.5074043309716901e-06,1.3483434840240136e-06
293,1.53301997405247e-05,8.330081058670262e-06,1.0006930852502569e-05,3.375664319829372e-06,4.7106703119957804e-06,7.3754017039470875e-06,4.6306630043137965e-06,2.8374811682959023e-06,5.988018761378652e-06,8.076340717390272e-06,1.6604668447231627e-06,4.391961206323289e-06,7.1945443398208456e-06,9.284397926117109e-06,1.4947338661058777e-06,1.3671662239935072e-06
294,1.5729274304732314e-05,8.525780447797531e-06,1.045362733415327e-05,3.37762799910389e-06,4.836825984731096e-06,8.145937245469146e-06,4.873233559396745e-06,2.8456401948837195e-06,6.04291221794767e-06,8.251925023819628e-06,1.6743724207357005e-06,4.467108331700345e-06,7.413246142697495e-06,9.134423583229796e-06,1.4858829162175614e-06,1.3859979932475201e-06
295,1.6106980480564046e-05,8.691555993222313e-06,1.0914457376810583e-05,3.3902088489912997e-06,4.98200165550837e-06,8.971164930868141e-06,5.126354921466939e-06,2.8461860153081224e-06,6.0974498468700045e-06,8.42466504765733e-06,1.6811901168780255e-06,4.527434236109976e-06,7.629720933908057e-06,8.971348402392766e-06,1.4808686793114789e-06,1.404011782585022e-06
296,1.645979174668948e-05,8.825491026775032e-06,1.1390459772703761e-05,3.412771389445172e-06,5.145706831933139e-06,9.845808874107037e-06,5.38798002941204e-06,2.839214974696046e-06,6.149819355733958e-06,8.591690924513257e-06,1.6805097636265138e-06,4.57060526955969e-06,7.840813699477743e-06,8.799340606019028e-06,1.4794436695970495e-06,1.420419882900118e-06
297,1.6786742255584184e-05,8.927421181510058e-06,1.1882713274924473e-05,3.4450491030865536e-06,5.326417250367832e-06,1.07627271814796e-05,5.65528669203505e-06,2.8251617208415557e-06,6.198008903465596e-06,8.749807318276467e-06,1.6718890542686244e-06,4.594680074291516e-06,8.042203329372177e-06,8.622288828742239e-06,1.481202032297418e-06,1.4347055789198616e-06
298,1.708958537863788e-05,8.99900649464052e-06,1.239127725254779e-05,3.487310770567982e-06,5.521507622507479e-06,1.1712843562645042e-05,5.925140506745985e-06,2.804878423890933e-06,6.240070412161187e-06,8.89531104690526e-06,1.6550597322037655e-06,4.598902242595694e-06,8.228866153965311e-06,8.44292447629644e-06,1.4856738781494284e-06,1.446864568640345e-06
299,1.73723573443524e-05,9.043424437069903e-06,1.2914643276979622e-05,3.540230556525208e-06,5.727246933489948e-06,1.2684950392788883e-05,6.194616902072774e-06,2.7796449974328047e-06,6.275012423359263e-06,9.024295181083004e-06,1.6302125952022316e-06,4.584036950535552e-06,8.395675578578904e-06,8.262419679639727e-06,1.4923602412985393e-06,1.4573942950459623e-06
300,1.764028269770658e-05,9.064559049381463e-06,1.3450194344852667e-05,3.604529163547781e-06,5.939025059049519e-06,1.366556608682796e-05,6.461378069693593e-06,2.7509621670491187e-06,6.30375155705983e-06,9.132858086499017e-06,1.598136830707824e-06,4.552131043699232e-06,8.537924781707861e-06,8.080549484416686e-06,1.5007375665670595e-06,1.46708852738182e-06
301,1.7898270819531514e-05,9.065937221562931e-06,1.3994949052096949e-05,3.6805517685960697e-06,6.151895972048051e-06,1.4638959798565828e-05,6.723826052204577e-06,2.7202172311531064e-06,6.3296165039168214e-06,9.216776362637123e-06,1.5601257810804157e-06,4.5059569398085085e-06,8.651599617320623e-06,7.89628434551304e-06,1.5102481956512055e-06,1.4768128821960849e-06
302,1.814940430191737e-05,9.04985661863366e-06,1.4545957286464302e-05,3.7679774708962964e-06,6.361068295837143e-06,1.5587142639270744e-05,6.9810220799919365e-06,2.6884678145350793e-06,6.358036098606171e-06,9.271137390160995e-06,1.5177160661515424e-06,4.448407735387632e-06,8.733521525343404e-06,7.708668392120688e-06,1.5202874891478622e-06,1.48732625430408e-06
303,1.8393879762776628e-05,9.017043489829244e-06,1.5100753391050745e-05,3.86571731606459e-06,6.561879864582674e-06,1.6490291591413605e-05,7.232342381306247e-06,2.6564924834560716e-06,6.395454369371619e-06,9.290917069943735e-06,1.4724079544468013e-06,4.3819955823330525e-06,8.781567606237288e-06,7.5174583298318985e-06,1.5301843280577754e-06,1.4991957505865659e-06
304,1.8628922076983657e-05,8.96696049319945e-06,1.5658168843843395e-05,3.971928184160249e-06,6.749497425480382e-06,1.7328376451465738e-05,7.476869454553902e-06,2.6250192419538625e-06,6.448132659918728e-06,9.272611241305518e-06,1.425488451722615e-06,4.308602144591325e-06,8.794588770045156e-06,7.3229709426460344e-06,1.5391901269420804e-06,1.512840592277263e-06
305,1.884981335643755e-05,8.898591141745634e-06,1.6218927987372943e-05,4.084157044529953e-06,6.918957802688865e-06,1.808316269670335e-05,7.712691836973415e-06,2.594860524745331e-06,6.521431407837479e-06,9.215753322744466e-06,1.3779788422120923e-06,4.2295538393422005e-06,8.771721969633775e-06,7.125648659147006e-06,1.5465809573034906e-06,1.528630919366392e-06
306,1.9051552869839727e-05,8.811372374901685e-06,1.6785279809550976e-05,4.199683212494979e-06,7.065377652710981e-06,1.873859609264895e-05,7.936446605706393e-06,2.5667896226267103e-06,6.619491444609203e-06,9.123002489577979e-06,1.3306697542841624e-06,4.145840146321801e-06,8.711996818777378e-06,6.926188353623836e-06,1.5518728108893596e-06,1.546926103021893e-06
307,1.923054182994928e-05,8.706015114549844e-06,1.73595787993812e-05,4.315965219319532e-06,7.183793072739674e-06,1.9279412055214324e-05,8.143451252461709e-06,2.5413363970108834e-06,6.745067572493671e-06,8.998715548380087e-06,1.2841979652058896e-06,4.058216138698e-06,8.61505058245748e-06,6.72584157338081e-06,1.5549219153427344e-06,1.5680411734449128e-06
308,1.9385807319506834e-05,8.58495808623206e-06,1.794268131741607e-05,4.430983199252541e-06,7.269208895052561e-06,1.9691086482563368e-05,8.328582951655209e-06,2.5187031717442704e-06,6.899510213906705e-06,8.84739715017458e-06,1.2391095829917379e-06,3.9671671053985175e-06,8.482197117477519e-06,6.526075267898649e-06,1.5558128314078557e-06,1.592227142175507e-06
309,1.9519357723726042e-05,8.45222693137331e-06,1.853330459086954e-05,4.543292028301745e-06,7.31776638103124e-06,1.9963458624795413e-05,8.48756846502355e-06,2.4987103217318703e-06,7.082824569445078e-06,8.673280613938102e-06,1.1958667050934806e-06,3.872897107963459e-06,8.316688374259348e-06,6.327800628652391e-06,1.5547518870154941e-06,1.6196835656786923e-06
310,1.9635594914983762e-05,8.312776889009639e-06,1.912838298574866e-05,4.651702088082527e-06,7.328397809874821e-06,2.0095247243156656e-05,8.617876298977846e-06,2.480715636217899e-06,7.2936948623335365e-06,8.480624125347988e-06,1.1548129633400457e-06,3.775421589326397e-06,8.122970066220654e-06,6.130966902991196e-06,1.5520784293559867e-06,1.6505188583242539e-06
311,1.9740015474690804e-05,8.171674585688357e-06,1.9723446911309593e-05,4.7547696594527086e-06,7.303459698259781e-06,2.009482545948539e-05,8.718516733762699e-06,2.4636762574610036e-06,7.5294984091239354e-06,8.273669817376644e-06,1.116184358295392e-06,3.6746887667704695e-06,7.905764259253456e-06,5.934868002177727e-06,1.5482394673066924e-06,1.684638288414734e-06
312,1.983742186231446e-05,8.033364323643105e-06,2.0312631117008848e-05,4.850510326622057e-06,7.247807003767121e-06,1.9976474354647724e-05,8.788905899095453e-06,2.4464318208444137e-06,7.786268316932284e-06,8.056281018162715e-06,1.080222150570446e-06,3.570636432153381e-06,7.669907618361153e-06,5.738796294417271e-06,1.5436687184875333e-06,1.7216568403589352e-06
313,1.9930082264746526e-05,7.901109205666084e-06,2.0888857721401063e-05,4.936535568519176e-06,7.1670669676454295e-06,1.9755651975739052e-05,8.827912922131014e-06,2.4280324873122787e-06,8.058568726555914e-06,7.831956131326472e-06,1.0472903027159172e-06,3.463200020235667e-06,7.420694496046763e-06,5.542504166255669e-06,1.5386628767350262e-06,1.7609317510183108e-06
314,2.001678151079912e-05,7.776816556790057e-06,2.1444728779500872e-05,5.010439821703464e-06,7.066273801099819e-06,1.9446802426471467e-05,8.833991320585078e-06,2.407883267508354e-06,8.339410717104103e-06,7.604149832500583e-06,1.017856562846669e-06,3.3523771230151513e-06,7.1638162454969435e-06,5.346319723478719e-06,1.5333182486628578e-06,1.8017102724044612e-06
315,2.0093354939968027e-05,7.661375028084301e-06,2.1974053185076406e-05,5.070256663991017e-06,6.949510092430999e-06,1.9063669568640865e-05,8.806058745226003e-06,2.385674210017929e-06,8.620273744134867e-06,7.376331731627036e-06,9.923618126126799e-07,3.238407949146667e-06,6.904750133222143e-06,5.151075978373218e-06,1.5275885065348111e-06,1.8432603799844547e-06
316,2.015414532456073e-05,7.555233840993587e-06,2.2473321773367977e-05,5.1149014945491565e-06,6.820376166893495e-06,1.8620144691480915e-05,8.744284010155827e-06,2.3612736190888854e-06,8.891401844707844e-06,7.151973631084085e-06,9.711123045166535e-07,3.1219911809847115e-06,6.6481187319242445e-06,4.957989859089237e-06,1.5214574043176268e-06,1.884846335279533e-06
317,2.0193439921127556e-05,7.45885364230384e-06,2.2942246890896394e-05,5.144464434104087e-06,6.682620494071703e-06,1.8130719533708607e-05,8.650398583771433e-06,2.3347397159330314e-06,9.142851559142125e-06,6.934659953620774e-06,9.542685814774127e-07,3.004372237381255e-06,6.397491977300948e-06,4.768510555614424e-06,1.5150432454214996e-06,1.92561514637231e-06
318,2.0206479501773647e-05,7.372856295775862e-06,2.3382917211571567e-05,5.160237991028536e-06,6.540362816464614e-06,1.761058839186052e-05,8.527549862349204e-06,2.3064138330539058e-06,9.36621619698382e-06,6.727820527006643e-06,9.419177477151589e-07,2.887227450941003e-06,6.15570047866965e-06,4.5840869767897575e-06,1.5085043092661482e-06,1.9645917271464664e-06
319,2.0190065333463897e-05,7.297861199627225e-06,2.379781560056989e-05,5.164478852953211e-06,6.397791992713578e-06,1.7075271734254637e-05,8.37981738864741e-06,2.2769702705810073e-06,9.555967100115345e-06,6.534208116840587e-06,9.341443298489906e-07,2.772441146441065e-06,5.9252101679119705e-06,4.405819144718136e-06,1.5018867442829788e-06,2.0008202744853584e-06
320,2.0142822299205278e-05,7.234137680638708e-06,2.4187427509077723e-05,5.1599796089183085e-06,6.258620560672345e-06,1.6539590065081823e-05,8.211556394458257e-06,2.2473750636603724e-06,9.709656116467358e-06,6.3557485008486425e-06,9.310102530865238e-07,2.661898886774901e-06,5.70814194885331e-06,4.234145219109256e-06,1.4950788968728446e-06,2.033501013450135e-06
321,2.006500428837018e-05,7.181267265341993e-06,2.4548404283035627e-05,5.14956653851214e-06,6.125709417238513e-06,1.6016624288608585e-05,8.026837397076349e-06,2.2187549898509055e-06,9.827329358303733e-06,6.193695855168494e-06,9.324909444778286e-07,2.5573597805382006e-06,5.50609907419854e-06,4.068832851079273e-06,1.4878139261204475e-06,2.0620058691872548e-06
322,1.9957616710153155e-05,7.1378980274995e-06,2.4873050983445036e-05,5.135642622252657e-06,6.001110979989048e-06,1.5517555320428057e-05,7.829270598562477e-06,2.192186964884477e-06,9.910634019585144e-06,6.048691248113974e-06,9.384812838703268e-07,2.460492683961124e-06,5.320116758960474e-06,3.909299572638272e-06,1.4796495268198303e-06,2.0857905308717648e-06
323,1.982082401764673e-05,7.101548616825799e-06,2.51500763023293e-05,5.119912178492037e-06,5.886450366559615e-06,1.50520187291229e-05,7.622228241458185e-06,2.16851329662148e-06,9.9617100639642e-06,5.920643110444137e-06,9.488561274674595e-07,2.372999184056481e-06,5.150722665139933e-06,3.755008254721384e-06,1.4700198776034927e-06,2.104279457889776e-06
324,1.9652205166170085e-05,7.0685188230754464e-06,2.5365881762442252e-05,5.103415938123974e-06,5.783309593916925e-06,1.462791790526795e-05,7.4091284306980135e-06,2.148333601868607e-06,9.982421638311688e-06,5.808784208454353e-06,9.635103296501222e-07,2.2965792847321333e-06,4.997976294072373e-06,3.605773143794565e-06,1.4584178443395245e-06,2.1167747046314787e-06
325,1.9445968752128742e-05,7.0341470393840365e-06,2.550594170809841e-05,5.086798579881368e-06,5.693255836460463e-06,1.4250657500767267e-05,7.193437188148195e-06,2.1321340930116566e-06,9.974779835558196e-06,5.712204789884755e-06,9.823912978052069e-07,2.232798525041085e-06,4.861461758830179e-06,3.461976105707327e-06,1.4445635818659163e-06,2.122459981306805e-06
326,1.9193863021513727e-05,6.9935236608350295e-06,2.5556462413247535e-05,5.070550909869264e-06,5.617481509317358e-06,1.3922576323133681e-05,6.978367613957755e-06,2.1203287562853395e-06,9.942177419874664e-06,5.630386038924983e-06,1.005538480873609e-06,2.183068352809223e-06,4.740330087354965e-06,3.3245870630594466e-06,1.4284107083442158e-06,2.1206484604645515e-06
327,1.8887463939776693e-05,6.94241875988544e-06,2.550655642088997e-05,5.055114052242024e-06,5.556476088044635e-06,1.3642996510499577e-05,6.7665203893013765e-06,2.113123298005727e-06,9.890010184466755e-06,5.563082503509651e-06,1.0330636481823789e-06,2.1486293300827004e-06,4.633559167294118e-06,3.194855193985218e-06,1.4100345387580627e-06,2.1112072391563495e-06
328,1.8520904653613965e-05,6.878051691432366e-06,2.5350544371915082e-05,5.040931187855786e-06,5.509996573402322e-06,1.3408817031274053e-05,6.559655444428145e-06,2.1103469585289346e-06,9.825127431912924e-06,5.509789288189826e-06,1.0650487537359294e-06,2.1304340039058917e-06,4.540428719461254e-06,3.0738866921074715e-06,1.3895548144907853e-06,2.094716066479345e-06
329,1.8093079249608043e-05,6.799480609868726e-06,2.5089531035379596e-05,5.028525308267544e-06,5.477169949825417e-06,1.3215458250906703e-05,6.358554564072095e-06,2.11137875907038e-06,9.75483429158327e-06,5.469426496796657e-06,1.1014383674679168e-06,2.1291150438187265e-06,4.4609109738802415e-06,2.9625803133566753e-06,1.3671420598035353e-06,2.072159784480278e-06
330,1.7608587552372215e-05,6.707554011441518e-06,2.473156977065889e-05,5.018598674168891e-06,5.456682819844842e-06,1.3057844833656135e-05,6.162925680839517e-06,2.1151458625981984e-06,9.686156377982193e-06,5.4403179557501504e-06,1.1419857852826568e-06,2.145107835673408e-06,4.395653891081658e-06,2.862006536317844e-06,1.343004473471477e-06,2.0445506165218683e-06
331,1.7077118358405968e-05,6.604382362756861e-06,2.429014230551216e-05,5.0120815000156405e-06,5.447084903300624e-06,1.2931076392810613e-05,5.971473402080323e-06,2.1201544777341065e-06,9.625382902575088e-06,5.4202862493485845e-06,1.1862362350305845e-06,2.178733940899326e-06,4.345526813162518e-06,2.7737301840961124e-06,1.3173257355459866e-06,2.0128251060509874e-06
