,EMG1,EMG2,EMG3,EMG4,EMG5,EMG6,EMG7,EMG8,EMG9,EMG10,EMG11,EMG12,EMG13,EMG14,EMG15,EMG16
0,5.539671122630534e-07,5.50980829944296e-07,2.4224880513146766e-07,-2.730824104534159e-07,1.5624676664840558e-07,1.504325488823076e-07,5.006825832038789e-07,5.168432984038236e-07,-1.2390626602370693e-08,2.2407160072571233e-06,1.3701945962301144e-07,2.1260141825972534e-07,3.0426520809571884e-07,1.5749604697883964e-07,7.247977294113003e-09,9.182263755069542e-08
1,6.136583726707578e-07,6.567559928778217e-07,3.172151033400576e-07,-9.562146990000595e-08,2.5333051170553007e-07,2.6718700066953563e-07,5.422189303359431e-07,6.235349279672195e-07,2.425986062124377e-07,2.683156358895278e-06,1.8886114903253334e-07,3.756785816219021e-07,4.034157822747647e-07,2.4167136933219887e-07,1.7714754392088287e-07,1.3618352492278879e-07
2,6.744988628024871e-07,7.649511317216646e-07,3.904717791502141e-07,7.302491948306295e-08,3.516470362924608e-07,3.7859231877437234e-07,5.870292270494769e-07,7.342271571588081e-07,5.072177156767241e-07,3.1840627206466343e-06,2.4052950044460324e-07,5.389282460659833e-07,5.021773164886247e-07,3.130070045739498e-07,3.411191358509742e-07,1.8056512267661428e-07
3,7.355211484471244e-07,8.742218503763606e-07,4.610523190314848e-07,2.3054952898413573e-07,4.5016364718890073e-07,4.827250491230286e-07,6.344835308951417e-07,8.473086176837241e-07,7.809649615198173e-07,3.7454042451197876e-06,2.915486162745864e-07,7.009519828042898e-07,5.986150478334547e-07,3.69502095939288e-07,4.969836113649876e-07,2.2458472436823622e-07
4,7.95861018233861e-07,9.831959600903796e-07,5.282660946063781e-07,3.75529294884444e-07,5.478843003260964e-07,5.781828458008528e-07,6.839854095240311e-07,9.614899045469559e-07,1.0634440303324468e-06,4.368634928018461e-06,3.414716171442551e-07,8.609090562676496e-07,6.910661826544551e-07,4.092401959565718e-07,6.429539405582589e-07,2.6799229099319944e-07
5,8.546962102578189e-07,1.0904915717688959e-06,5.916791649840385e-07,5.073058889694502e-07,6.439031345765315e-07,6.6408408239445e-07,7.350643778172761e-07,1.0756949041250632e-06,1.354386211877477e-06,5.05460087191678e-06,3.8986630346284704e-07,1.0184041448550527e-06,7.781574298165168e-07,4.3049349414671517e-07,7.777907387996494e-07,3.1065416408452283e-07
6,9.11154617113331e-07,1.1948064447470844e-06,6.509741585296165e-07,6.256933980433047e-07,7.374258241036337e-07,7.398894467858434e-07,7.873860436871663e-07,1.1889184180323637e-06,1.6536652861708178e-06,5.803463164266756e-06,4.362832181223483e-07,1.1732036870842787e-06,8.588064415901623e-07,4.3195287190900223e-07,9.007677212706368e-07,3.5249822515392016e-07
7,9.643038344016388e-07,1.2951572489691461e-06,7.05821240705474e-07,7.308364840755992e-07,8.27798547982062e-07,8.052841114452391e-07,8.406579653666091e-07,1.300238536994936e-06,1.9612451997647853e-06,6.614548257419274e-06,4.802853995520937e-07,1.325006594891432e-06,9.322107263226506e-07,4.1295023662329746e-07,1.0115037669520137e-06,3.9348270784097695e-07
8,1.0132627600417428e-06,1.3910741653946975e-06,7.558505211235208e-07,8.231874569207232e-07,9.145856202906412e-07,8.602854453541466e-07,8.945352652884278e-07,1.4088670361020895e-06,2.277065852524737e-06,7.4861027572032125e-06,5.215677320453957e-07,1.473390305794585e-06,9.979141638322681e-07,3.734861075867393e-07,1.1097702873621511e-06,4.335689729168676e-07
9,1.0573201396761952e-06,1.482521403657739e-06,8.007089925444186e-07,9.034764844991039e-07,9.975570831084931e-07,9.054168964548504e-07,9.485725065522217e-07,1.514046763946316e-06,2.600946870166253e-06,8.415058248777966e-06,5.600653183886934e-07,1.6178774928651759e-06,1.0558916981531174e-06,3.1411770890292363e-07,1.195382198510985e-06,4.7269290506074887e-07
10,1.095910551542441e-06,1.5696176352857632e-06,8.401189126164921e-07,9.727478160055274e-07,1.0765537357328575e-06,9.416902775466046e-07,1.002177794326293e-06,1.6148875125873411e-06,2.9325905911962897e-06,9.396808342558069e-06,5.959292392074908e-07,1.7580324368853568e-06,1.1064442419788812e-06,2.3590819330552008e-07,1.2682579308558053e-06,5.10764986410096e-07
11,1.1285078314267168e-06,1.6524099047327699e-06,8.738866498181858e-07,1.0324187672358236e-06,1.1513977361857985e-06,9.703856033488868e-07,1.0545626279342292e-06,1.71037527028876e-06,3.271659411301717e-06,1.042504030660585e-05,6.293999176958958e-07,1.8935710096645354e-06,1.1499687063042184e-06,1.4050416024672868e-07,1.328578750909423e-06,5.476978230290262e-07
12,1.1546141289291135e-06,1.7308954921349357e-06,9.019077674405572e-07,1.0841659158544517e-06,1.221880367616498e-06,9.928428361139173e-07,1.1047245008567704e-06,1.7995282353342787e-06,3.6178095933645247e-06,1.1491859031020177e-05,6.607307767457954e-07,2.0244615133806108e-06,1.1868515378811486e-06,3.027774932861144e-08,1.3768544124556863e-06,5.834589887720064e-07
13,1.1738694579077802e-06,1.8052695366469919e-06,9.24232848889881e-07,1.129682137475063e-06,1.2877349184458536e-06,1.010412108308508e-06,1.1515042825927166e-06,1.8814539513006662e-06,3.970634629403476e-06,1.2588309937782725e-05,6.902139149642214e-07,2.1509517227378396e-06,1.2175072743305753e-06,-9.157356100983607e-08,1.4138322089534492e-06,6.181305216330776e-07
14,1.1861853883931149e-06,1.876117791192385e-06,9.411705557916284e-07,1.1705474985969784e-06,1.34862787341664e-06,1.0244843113244128e-06,1.1937813898529675e-06,1.955331035279082e-06,4.329554205051062e-06,1.3705117445310594e-05,7.182005434040316e-07,2.2735043332006785e-06,1.2424048928727331e-06,-2.2104916371159587e-07,1.440379972696885e-06,6.519074495257291e-07
15,1.1918064659640645e-06,1.94431035249261e-06,9.533358458051716e-07,1.2082806253801141e-06,1.404269733957057e-06,1.0364653527149846e-06,1.2307973795172477e-06,2.020553440874837e-06,4.693654469674553e-06,1.4833211569911664e-05,7.450518736792317e-07,2.392711479622606e-06,1.2620053198508436e-06,-3.5340315498584506e-07,1.4574570472724168e-06,6.850542635612244e-07
16,1.191249705513269e-06,2.0106965762565264e-06,9.615774876421255e-07,1.244406417495906e-06,1.4545733096249713e-06,1.0476785976471676e-06,1.2624103751837748e-06,2.076975052631874e-06,5.061539297216323e-06,1.5963439916086455e-05,7.710790311335723e-07,2.5092714521925548e-06,1.2766527297747249e-06,-4.830871562145679e-07,1.4661387377289545e-06,7.178993495599504e-07
17,1.1851715624551894e-06,2.0758656232634334e-06,9.66811962342453e-07,1.2804082987549955e-06,1.4996662168638502e-06,1.0592715809387863e-06,1.2890590678080626e-06,2.124982848726205e-06,5.4313719648447914e-06,1.7085448454814445e-05,7.965141279337596e-07,2.623973643716996e-06,1.2864896121793915e-06,-6.036410182259679e-07,1.4675841628846426e-06,7.508182228738491e-07
18,1.1742522018025996e-06,2.140082560203446e-06,9.698693874860398e-07,1.317625295805826e-06,1.5397847537346487e-06,1.0721919540895584e-06,1.3114739575830119e-06,2.1653252847515716e-06,5.801126388524881e-06,1.8187033802783683e-05,8.215070474638342e-07,2.737569124210002e-06,1.2914442545367074e-06,-7.077357481822455e-07,1.4629171553179928e-06,7.841530922324658e-07
19,1.1591367165751187e-06,2.2033543774473786e-06,9.71423122183595e-07,1.3572111482238307e-06,1.5752479079772662e-06,1.087215050012629e-06,1.3303804974916174e-06,2.198830511336582e-06,6.168765017965536e-06,1.9255191387458278e-05,8.461608273995641e-07,2.850625575042406e-06,1.2913320968705754e-06,-7.873938884571506e-07,1.4531322583540164e-06,8.181441988386894e-07
20,1.1404221278291534e-06,2.2655154392474708e-06,9.719832989105942e-07,1.4001521672526477e-06,1.606509573843602e-06,1.1049508390792824e-06,1.3463450437896475e-06,2.226154914229876e-06,6.532121414340093e-06,2.027836240423072e-05,8.705945816255788e-07,2.9635714513287002e-06,1.286019596967615e-06,-8.341953371674813e-07,1.4391076273230098e-06,8.529122230870445e-07
21,1.1186518066885373e-06,2.3262318926095617e-06,9.719427009160575e-07,1.4472637248025241e-06,1.6341504846299137e-06,1.1258086625796996e-06,1.3597265173696209e-06,2.2476109491605687e-06,6.888565598104384e-06,2.124856118695459e-05,8.949749898884057e-07,3.076864507243057e-06,1.275481874284747e-06,-8.393396710989345e-07,1.4216484866219064e-06,8.884585619041801e-07
22,1.0943203515442535e-06,2.3849632953033165e-06,9.716867541740451e-07,1.4991344388143995e-06,1.6587835047988181e-06,1.1499726937272019e-06,1.3706545907275207e-06,2.263073492069923e-06,7.2346258788048e-06,2.2162329401961398e-05,9.194827373633888e-07,3.1910906279368513e-06,1.2597389120219554e-06,-7.936399875823542e-07,1.4014925780728245e-06,9.247127163174992e-07
23,1.0679714977450741e-06,2.4410036306818457e-06,9.716969495978509e-07,1.556057913938426e-06,1.6809085271356201e-06,1.177446613689529e-06,1.3790111325967984e-06,2.271971293080485e-06,7.565761316198679e-06,2.3019825628187773e-05,9.442496587392422e-07,3.3070017484602424e-06,1.2388247374947375e-06,-6.875357121383058e-07,1.3793093749418297e-06,9.616632631097728e-07
24,1.0403796912498094e-06,2.493600502276574e-06,9.725532396176445e-07,1.6180130795641514e-06,1.7007761894848372e-06,1.2081659746698779e-06,1.3844400807012801e-06,2.273420202315479e-06,7.87653333019044e-06,2.3822313008419903e-05,9.69320303626275e-07,3.4255973346428672e-06,1.2128405352267495e-06,-5.111030081094733e-07,1.3557132840035757e-06,9.994688722089491e-07
25,1.012624006327889e-06,2.5420220189683954e-06,9.748454038905088e-07,1.6847150874828312e-06,1.7183797435541654e-06,1.2420964909927306e-06,1.3864276580773442e-06,2.266571376528597e-06,8.161153997373671e-06,2.4569278632062892e-05,9.9464453450114e-07,3.548189359455175e-06,1.1820800553256476e-06,-2.5404048825124097e-07,1.3312621560392454e-06,1.0384346312025688e-06
26,9.859512667344565e-07,2.585481721251101e-06,9.790676582688551e-07,1.7556739217620083e-06,1.7336373732538788e-06,1.2792311571218828e-06,1.384445178375068e-06,2.251068966140525e-06,8.414014088489941e-06,2.5256433041846366e-05,1.0200890511975873e-06,3.6762983192434553e-06,1.1471521431917851e-06,9.43658083049475e-08,1.306410298876661e-06,1.0789232110522177e-06
27,9.615741592627818e-07,2.622990645779256e-06,9.855442853223756e-07,1.8301820121302606e-06,1.7466470011801254e-06,1.319521582432495e-06,1.3780886752836886e-06,2.2273031141243524e-06,8.62999391191012e-06,2.5875399597833225e-05,1.0454439683709693e-06,3.8114203873017856e-06,1.108939275079946e-06,5.452529045170731e-07,1.2814327252973697e-06,1.121294853276765e-06
28,9.405590164324481e-07,2.653325954783087e-06,9.94396271193171e-07,1.9072621599196705e-06,1.7577930734936124e-06,1.362869161797003e-06,1.3672059361534872e-06,2.1962602508428415e-06,8.804816250659988e-06,2.641462989517535e-05,1.0703858852847893e-06,3.954834926509427e-06,1.0684604735697862e-06,1.1100986544572995e-06,1.2563957090816423e-06,1.1658336427641952e-06
29,9.237930219008099e-07,2.675171303586474e-06,1.0055366042875638e-06,1.9856751950263688e-06,1.767649857874336e-06,1.4091749781167816e-06,1.3520590562123572e-06,2.159168800888584e-06,8.935536898067439e-06,2.686021423664144e-05,1.0944271169082842e-06,4.107449209355496e-06,1.0268306250509434e-06,1.800599460356564e-06,1.2312192034023288e-06,1.21265538679149e-06
30,9.119741934716725e-07,2.6872621568873128e-06,1.0186854791068041e-06,2.0640570497731456e-06,1.7768863043080536e-06,1.4583230502938472e-06,1.3334437606594267e-06,2.1173272390755734e-06,9.020742113746048e-06,2.7197291141856145e-05,1.116922257169296e-06,4.269604966425142e-06,9.85266088579383e-07,2.6285591057770484e-06,1.205794980114815e-06,1.261686985883762e-06
31,9.05611685436311e-07,2.6884694466680922e-06,1.0334389415443259e-06,2.1411464106446917e-06,1.7862576446474367e-06,1.5101046517086684e-06,1.3125816122008831e-06,2.072180720866114e-06,9.060077396161946e-06,2.7412500652963522e-05,1.137125474814172e-06,4.440936645278148e-06,9.450284694941153e-07,3.6057296691380905e-06,1.1801113000286524e-06,1.3127274682624689e-06
32,9.050328208050939e-07,2.6779710594582526e-06,1.0494112942134258e-06,2.2159219095253857e-06,1.7965241743087908e-06,1.5641724738559672e-06,1.290809554899236e-06,2.0253935204808694e-06,9.053288004516311e-06,2.749538844511876e-05,1.1542377858802475e-06,4.620463612955753e-06,9.073407712903096e-07,4.743641210149795e-06,1.1543223154819258e-06,1.3655094761508366e-06
33,9.103927611287063e-07,2.6555714969621655e-06,1.066360510807678e-06,2.287555333957396e-06,1.8083039829194366e-06,1.6200015878060834e-06,1.269318589828343e-06,1.9787963945075932e-06,8.999335064502653e-06,2.74399061752635e-05,1.1674871902783386e-06,4.806968524819577e-06,8.733503673951186e-07,6.053490469866065e-06,1.1286990755294077e-06,1.419730538100265e-06
34,9.216823723248874e-07,2.6219441603750767e-06,1.0841735032000546e-06,2.355307818738088e-06,1.8219945788822857e-06,1.676865665409936e-06,1.2490775315487672e-06,1.9342498143179623e-06,8.896290139455226e-06,2.7247748512668885e-05,1.1763382147414033e-06,4.999402485921256e-06,8.441619937312005e-07,7.545993771565175e-06,1.10352014214413e-06,1.4750857116764024e-06
35,9.387236337167076e-07,2.57850152309683e-06,1.1027181839714138e-06,2.4184883903351525e-06,1.8377324771862498e-06,1.733928506091504e-06,1.2308828338979377e-06,1.8934546089835675e-06,8.742427238512621e-06,2.6928986970022596e-05,1.1806924335457134e-06,5.19700179322098e-06,8.20908679097573e-07,9.231114869908802e-06,1.0790222566078906e-06,1.5312731580046012e-06
36,9.611563582579947e-07,2.5269617626284532e-06,1.1217011476173608e-06,2.4764318027000254e-06,1.8553581672151517e-06,1.7904454312246465e-06,1.2154225944993004e-06,1.8577841003842567e-06,8.53798674976038e-06,2.64974358448834e-05,1.1808425823402018e-06,5.399198303623066e-06,8.04829554566994e-07,1.1117721979314748e-05,1.0554426616648624e-06,1.5879494200192677e-06
37,9.88427455639274e-07,2.4689994326078673e-06,1.1406532703624374e-06,2.5284098268382616e-06,1.8744269131103552e-06,1.845916845086485e-06,1.2032609325300052e-06,1.8282024624279322e-06,8.286409301657395e-06,2.5965956288383332e-05,1.1772603289388069e-06,5.605564321167939e-06,7.972876298060458e-07,1.3213178214788e-05,1.0330718452234114e-06,1.6447510258207095e-06
38,1.0197977516601992e-06,2.406109619808839e-06,1.1590166698102417e-06,2.57355529152694e-06,1.894269669725395e-06,1.9000431429470375e-06,1.1947828810151335e-06,1.8052496973800758e-06,7.994196677172536e-06,2.5345316478184688e-05,1.1704408347401846e-06,5.815722005300989e-06,7.996733845182623e-07,1.5522747268432064e-05,1.0122233328216867e-06,1.70141095117522e-06
39,1.0544002609530185e-06,2.339499105274366e-06,1.1762049639325667e-06,2.610970492276769e-06,1.9141745609052125e-06,1.952542530297445e-06,1.1902346081728233e-06,1.7890745336290598e-06,7.66953864999802e-06,2.4644064647765483e-05,1.1608115396098182e-06,6.029028763248156e-06,8.132949280507134e-07,1.804881916569705e-05,9.93168510898261e-07,1.7577758499576873e-06
40,1.0913402707625224e-06,2.26997688076486e-06,1.191594612978427e-06,2.6399404118985936e-06,1.933702557303495e-06,2.003081033171104e-06,1.189841133513531e-06,1.7794924550141318e-06,7.320790458454018e-06,2.3867587249011626e-05,1.1486648031641116e-06,6.244113202115665e-06,8.393603466643455e-07,2.0790197851665202e-05,9.761202612139563e-07,1.8136505971960207e-06
41,1.1297514733754673e-06,2.198012638787022e-06,1.2045401487796051e-06,2.659988920533747e-06,1.9528541835092213e-06,2.0514047522386785e-06,1.1938435233292893e-06,1.7760261634771813e-06,6.955721565042918e-06,2.3018353423593033e-05,1.1342024854492776e-06,6.458494956042498e-06,8.790051231426566e-07,2.3741765275204794e-05,9.612283127134182e-07,1.86864546793603e-06
42,1.1687929935566432e-06,2.1240209628791744e-06,1.2144786245238818e-06,2.6707963218772953e-06,1.9718907908806165e-06,2.097492636509481e-06,1.2024208573837287e-06,1.7779766743516411e-06,6.581303265969209e-06,2.2098624871321398e-05,1.1177076012369984e-06,6.668413371871562e-06,9.333092835918882e-07,2.6894738740358495e-05,9.485508272885444e-07,1.922173114549859e-06
43,1.207695405935096e-06,2.0487050147815253e-06,1.2210510991865203e-06,2.6722654732067246e-06,1.991084626358708e-06,2.141584946394383e-06,1.2156074478467626e-06,1.7845653184513102e-06,6.203552126155198e-06,2.111357795622378e-05,1.0996653358397522e-06,6.868970333030325e-06,1.0033267211805483e-06,3.02374196358091e-05,9.380437319353525e-07,1.973600093802876e-06
44,1.245871094069829e-06,1.973213533997501e-06,1.2241091080990616e-06,2.6647964509692568e-06,2.0106504787307237e-06,2.184100107629662e-06,1.233267195190166e-06,1.7950133053811054e-06,5.827547483636846e-06,2.0071996408540256e-05,1.0806973230499214e-06,7.054719971966978e-06,1.0901126301691536e-06,3.3755844573817964e-05,9.295937484861797e-07,2.022475338676564e-06
45,1.282942067500475e-06,1.8990092413741246e-06,1.2235837469310965e-06,2.6494616208779847e-06,2.0307016740667176e-06,2.225473326194173e-06,1.255116633411784e-06,1.8084943571887199e-06,5.457678170953036e-06,1.8984210857850877e-05,1.061417501619755e-06,7.220559797000468e-06,1.1946988637835497e-06,3.743358652898603e-05,9.230539559906611e-07,2.0686977924916046e-06
46,1.3186231947631172e-06,1.8275654364329211e-06,1.21937431171498e-06,2.627837367923039e-06,2.0511179366265384e-06,2.265995027728858e-06,1.2807669882118181e-06,1.8241290519337423e-06,5.097785109629186e-06,1.785977802152016e-05,1.0423571637932403e-06,7.3625074438824874e-06,1.3180366049944295e-06,4.125032938696363e-05,9.182323824298453e-07,2.1125331395234936e-06
47,1.352615752862584e-06,1.7601028863053047e-06,1.2113701143152148e-06,2.601630942335116e-06,2.071483425340087e-06,2.3057726944548227e-06,1.3097318096415246e-06,1.8410589646998773e-06,4.7510873316223905e-06,1.6707250511597815e-05,1.0239357509798061e-06,7.478074950957907e-06,1.460945319874321e-06,4.5179659211584065e-05,9.14845179938058e-07,2.1545174640475737e-06
48,1.384644469225462e-06,1.6974866942059358e-06,1.1995075729346778e-06,2.57238386263534e-06,2.0911784918569623e-06,2.3448070227526246e-06,1.3413917344203188e-06,1.8584340273425428e-06,4.420108198983268e-06,1.5535549692099252e-05,1.0064278370798969e-06,7.566252440497135e-06,1.6240638414634954e-06,4.918764178610501e-05,9.124982091038284e-07,2.195314352059433e-06
49,1.4145226491979724e-06,1.6402609848132528e-06,1.1837969139985368e-06,2.5413283836185795e-06,2.1094922156672084e-06,2.3830856209529185e-06,1.3749446634310731e-06,1.8753886225877865e-06,4.106660358352138e-06,1.4354847831781516e-05,9.899495090444372e-07,7.627300863898197e-06,1.8078138825211705e-06,5.323383365408693e-05,9.107629398477951e-07,2.235586131783218e-06
50,1.4420791548023036e-06,1.5887325389182335e-06,1.1644013307783201e-06,2.5093067107519123e-06,2.1256072284569116e-06,2.4206715837344673e-06,1.4093714790463594e-06,1.891183485241171e-06,3.8118323424148605e-06,1.3176178515365551e-05,9.74465920027199e-07,7.662544602146239e-06,2.012390447593084e-06,5.7274564034155394e-05,9.093129768030505e-07,2.2759317088434084e-06
51,1.466998431502891e-06,1.5430081862577629e-06,1.141740777193763e-06,2.47673758645393e-06,2.138509879570906e-06,2.4577205981461443e-06,1.4434940289026914e-06,1.9053333803014484e-06,3.5360365765593253e-06,1.2010580269682697e-05,9.598152891285076e-07,7.674237688854735e-06,2.237790810218837e-06,6.126652618382025e-05,9.079653823920481e-07,2.3168440892741775e-06
52,1.488749226102092e-06,1.5029806723962628e-06,1.1164583592126506e-06,2.4436972217312287e-06,2.1470218296478708e-06,2.494315478824486e-06,1.4761230283186883e-06,1.917494113865605e-06,3.2791857302297166e-06,1.0868545268858257e-05,9.457908369942355e-07,7.665487085911209e-06,2.4839214917112707e-06,6.516845189200443e-05,9.065633163545371e-07,2.358646834688968e-06
53,1.5066951026886076e-06,1.468370078439299e-06,1.089246831043975e-06,2.410070095470586e-06,2.150028503537879e-06,2.5302197127558785e-06,1.5061609990041894e-06,1.927243988531625e-06,3.041025133959758e-06,9.759792734370907e-06,9.322540789815678e-07,7.640126183976252e-06,2.750721017696287e-06,6.893923530018545e-05,9.048300802801603e-07,2.4014887337404287e-06
54,1.5203286858567864e-06,1.438868385138195e-06,1.0607232053161068e-06,2.375616575207157e-06,2.1468000084968924e-06,2.56479251159206e-06,1.5326937268455403e-06,1.9340414958882677e-06,2.821463372883525e-06,8.693155501054476e-06,9.191680611251055e-07,7.60240114824176e-06,3.038144376907957e-06,7.253322203483074e-05,9.023212694094742e-07,2.4454165034277853e-06
55,1.5294541607662242e-06,1.4142692512735661e-06,1.0314515149065869e-06,2.3399272344763583e-06,2.1372402928767055e-06,2.597158851240754e-06,1.5552325553149472e-06,1.9374208424125337e-06,2.6205955720185153e-06,7.676586344048543e-06,9.065583895264533e-07,7.55646312635635e-06,3.3459826546340196e-06,7.589794836693817e-05,8.985019461932637e-07,2.4904611696570737e-06
56,1.5341567316455286e-06,1.3944965506213204e-06,1.0020216361980192e-06,2.3024449167704176e-06,2.1218834819952053e-06,2.6264925408781375e-06,1.573940466107106e-06,1.937212890960078e-06,2.4384645075010366e-06,6.71732023541389e-06,8.944989298538503e-07,7.5057734825434635e-06,3.6736331010979297e-06,7.897939025846823e-05,8.929049303281577e-07,2.5367315601865585e-06
57,1.534584367714009e-06,1.3796396606783982e-06,9.730642768861174e-07,2.26270309702536e-06,2.1016004947141163e-06,2.6521465241457297e-06,1.5895242299771142e-06,1.9335764148731434e-06,2.2748970204689833e-06,5.82211192834639e-06,8.830993113026938e-07,7.452565887556822e-06,4.019990680595208e-06,8.173188007146905e-05,8.852519807922343e-07,2.584466371374265e-06
58,1.5307705063466776e-06,1.3700074887609438e-06,9.451987904643757e-07,2.2206392554784184e-06,2.077312944667418e-06,2.6735974995862205e-06,1.6028897181566008e-06,1.9268408508293173e-06,2.1295337801479557e-06,4.997444188281289e-06,8.724377251442935e-07,7.3976028884924095e-06,4.383540836503992e-06,8.412467577196505e-05,8.754568854674315e-07,2.633932128657274e-06
59,1.52267992659093e-06,1.3660288167971025e-06,9.189837974305068e-07,2.1766946206198746e-06,2.049979744074708e-06,2.6904821077469584e-06,1.6149065400779268e-06,1.917321884526312e-06,2.0019773192270633e-06,4.249587459708584e-06,8.624777983181946e-07,7.340393182628661e-06,4.76247203032885e-06,8.613991998872353e-05,8.635441206794701e-07,2.685191462850532e-06
60,1.5104136967488954e-06,1.3680607147274803e-06,8.949036451393601e-07,2.131605413269021e-06,2.0206966478060944e-06,2.7027743044136326e-06,1.6263538030297137e-06,1.905273319431654e-06,1.8919279876452303e-06,3.5844692353381373e-06,8.530317236938121e-07,7.279692450140004e-06,5.154579678270108e-06,8.776355057071248e-05,8.495628420206242e-07,2.737888814998996e-06
61,1.494383737279329e-06,1.3763159990397794e-06,8.733868034073217e-07,2.086058967270642e-06,1.990664595903614e-06,2.710816560769594e-06,1.6378773771932586e-06,1.8910081156859759e-06,1.7991565029350456e-06,3.0074854255016468e-06,8.438089786928511e-07,7.213963701225223e-06,5.5569738219736425e-06,8.89780814194796e-05,8.33580710152816e-07,2.791142659242192e-06
62,1.475322665117639e-06,1.3908692356196626e-06,8.548399844809949e-07,2.0404672483105367e-06,1.9610341083820513e-06,2.71509284842163e-06,1.6498936760196823e-06,1.8750393202076467e-06,1.7234106058593485e-06,2.523408092443675e-06,8.345209716824332e-07,7.141682070439392e-06,5.96579729940439e-06,8.976515659783921e-05,8.157729055932824e-07,2.8435588252912665e-06
63,1.454117967279934e-06,1.4116096326458194e-06,8.396637511265794e-07,1.994975066850316e-06,1.9327673598367646e-06,2.7159100974653457e-06,1.6625311639698163e-06,1.8580429534574972e-06,1.6644570327104727e-06,2.136421760219346e-06,8.249240824984369e-07,7.061515731406315e-06,6.376232869146276e-06,9.011446224773389e-05,7.964956398951063e-07,2.8933699665698683e-06
64,1.431593980290662e-06,1.4381822845342541e-06,8.282305013032414e-07,1.9496343733444883e-06,1.9066258032538962e-06,2.7131848629979764e-06,1.6756726963715647e-06,1.8406268727136861e-06,1.6221456126473716e-06,1.850225242244829e-06,8.147544546703811e-07,6.9723566792939565e-06,6.782965817578915e-06,9.002941747885612e-05,7.762474717430145e-07,2.938695240640682e-06
65,1.4084166510986587e-06,1.4700505018724713e-06,8.208356168791431e-07,1.904615717736081e-06,1.883244745863468e-06,2.706465447603251e-06,1.6890291874933092e-06,1.8230921657599872e-06,1.5963215669730653e-06,1.6681240155225104e-06,8.03663828229578e-07,6.8732037890133355e-06,7.180929764804106e-06,8.952476743830971e-05,7.555622281819526e-07,2.977873406436352e-06
66,1.3851647408053192e-06,1.506705734125112e-06,8.176518895214194e-07,1.860340291127521e-06,1.8631740603583533e-06,2.695205196357765e-06,1.7021678237955963e-06,1.8053391398593817e-06,1.5867159697341518e-06,1.5931026858541067e-06,7.912658807257504e-07,6.76307459059227e-06,7.565905483491119e-06,8.861786797595199e-05,7.349357239355844e-07,3.0097640922049084e-06
67,1.3624067532861302e-06,1.5478819728239035e-06,8.187322081868278e-07,1.8174303137268605e-06,1.8468601099716898e-06,2.679149683232279e-06,1.7145397540656707e-06,1.7869178335904916e-06,1.5929698942735394e-06,1.6279461928097838e-06,7.772574885906901e-07,6.641130235268078e-06,7.934609175228243e-06,8.732098833978517e-05,7.148380401381071e-07,3.033880409045021e-06
68,1.3406533740614952e-06,1.5936178616436144e-06,8.240606041066844e-07,1.7764977080523771e-06,1.8346296832010824e-06,2.6585817533024713e-06,1.7255339138999798e-06,1.7671997279799656e-06,1.614680914525997e-06,1.7754818335650195e-06,7.614850408307057e-07,6.5069445119153755e-06,8.284165137321617e-06,8.56420926475066e-05,6.957702162638681e-07,3.050281215334627e-06
69,1.3202764445350514e-06,1.6441450538227321e-06,8.335809472092818e-07,1.7379674854695117e-06,1.8267161551872928e-06,2.6342096452594194e-06,1.7345461320934135e-06,1.7456480351673755e-06,1.6513459201986638e-06,2.0388675535148592e-06,7.439072224350693e-07,6.360675713173355e-06,8.611258470910473e-06,8.359243623223764e-05,6.782803891974733e-07,3.0593016852818245e-06
70,1.3014989001499614e-06,1.699686747972385e-06,8.471818129725094e-07,1.7020815306957322e-06,1.8233277648677254e-06,2.606790040741523e-06,1.7411436620341273e-06,1.7220700287101036e-06,1.7023091970827378e-06,2.4217189498789602e-06,7.245400029278629e-07,6.20303589705691e-06,8.911678498318278e-06,8.119267041533638e-05,6.629316779093739e-07,3.0612724094327428e-06
71,1.2844006923870025e-06,1.7602773473473496e-06,8.646995860792541e-07,1.6690122353510145e-06,1.8247040870969071e-06,2.5768572215746983e-06,1.7452809900218805e-06,1.696707098337589e-06,1.7668030928096197e-06,2.928013244546007e-06,7.034384684860559e-07,6.035152279779277e-06,9.180575798695994e-06,7.847313932818455e-05,6.502732852581172e-07,3.0563100848118506e-06
72,1.2688991716547485e-06,1.8256698440922025e-06,8.859438571975669e-07,1.6389476384666638e-06,1.8310883930869158e-06,2.544755388186655e-06,1.7473265532870688e-06,1.670129314989241e-06,1.8439704493542771e-06,3.561900702959182e-06,6.806707062882262e-07,5.858439899588661e-06,9.412809762287598e-06,7.546908490784439e-05,6.408409722020806e-07,3.0442666973196046e-06
73,1.254757581322872e-06,1.895331311269016e-06,9.107066764781112e-07,1.6120839505996453e-06,1.8426717123818256e-06,2.5108216731103717e-06,1.7478306770931876e-06,1.6430544907854639e-06,1.932850258138426e-06,4.327488697325974e-06,6.562744167924174e-07,5.674528403307639e-06,9.6028099209636e-06,7.221353599572642e-05,6.351675286748528e-07,3.024929843478645e-06
74,1.241623377545701e-06,1.9685344548458362e-06,9.38806083203931e-07,1.5885846442000665e-06,1.859596626012794e-06,2.4755673275850006e-06,1.747234584035285e-06,1.6162597206923038e-06,2.0324099881041533e-06,5.228589620174132e-06,6.30241834342111e-07,5.485225429486586e-06,9.74416548808477e-06,6.873443608624582e-05,6.337648751272936e-07,2.9983246561138038e-06
75,1.2290687788982088e-06,2.0445246419645283e-06,9.701887244122029e-07,1.568589885237332e-06,1.8819324610304064e-06,2.439854176689164e-06,1.7457335356752545e-06,1.5906019771020462e-06,2.141558530741665e-06,6.2685398166415205e-06,6.02537999230501e-07,5.292486206294987e-06,9.829529351986964e-06,6.506060883500283e-05,6.370850001758987e-07,2.96484958141081e-06
76,1.2166902289635572e-06,2.122622635188631e-06,1.0049713363235294e-06,1.5522173358728175e-06,1.9095657927671555e-06,2.405014463108289e-06,1.7433120847474772e-06,1.5669997946359308e-06,2.2591254404778376e-06,7.4502589893196455e-06,5.731179261870937e-07,5.098360589744659e-06,9.851430124533705e-06,6.12305840846869e-05,6.454910003223184e-07,2.9252251186103463e-06
77,1.20427318433046e-06,2.202142317220999e-06,1.0433501434626207e-06,1.539517547750718e-06,1.9421304395127806e-06,2.372788989020441e-06,1.7398081789382729e-06,1.5463058746143848e-06,2.3840064838848838e-06,8.776546721827927e-06,5.419295246050408e-07,4.904855879610296e-06,9.804100500549563e-06,5.729514657051121e-05,6.592425295126498e-07,2.8803444210193927e-06
78,1.1918862633595405e-06,2.2821893945497606e-06,1.0854921974932442e-06,1.5304559175659864e-06,1.9790614556362317e-06,2.3450671303632537e-06,1.7349702734778244e-06,1.5291741001546095e-06,2.5155489859302883e-06,1.0250432929417906e-05,5.08949605439451e-07,4.713664320108254e-06,9.685258939883718e-06,5.331245495646813e-05,6.784887387747913e-07,2.831031250712284e-06
79,1.1798049947282862e-06,2.3615010602093004e-06,1.131522700951466e-06,1.5248844400786732e-06,2.0197245964901993e-06,2.3235717913450075e-06,1.7285729350616352e-06,1.5160006148290128e-06,2.6538318017364816e-06,1.187550216826942e-05,4.742926950000624e-07,4.525866389749568e-06,9.496276249687946e-06,4.9340502964688444e-05,7.032694497314793e-07,2.777823913623269e-06
80,1.1683295157542135e-06,2.438399734634655e-06,1.1815551109241393e-06,1.5224408834025638e-06,2.063518856337721e-06,2.309650770946488e-06,1.7204913979220239e-06,1.5069156230302297e-06,2.799508331153727e-06,1.3656221188938531e-05,4.3833263109411473e-07,4.34188389002015e-06,9.240841267547505e-06,4.543108853213097e-05,7.335279105109097e-07,2.7209759677019557e-06
81,1.1576616143844488e-06,2.5108642027781263e-06,1.2356610525472723e-06,1.522448850107633e-06,2.109897848079662e-06,2.304203003349997e-06,1.7106518883544834e-06,1.5017939742391866e-06,2.953515824203057e-06,1.559791465684524e-05,4.017647129794867e-07,4.161823627170995e-06,8.92415112429918e-06,4.1626902993947077e-05,7.691173493915148e-07,2.6606260426529275e-06
82,1.1479306948933746e-06,2.576724309900036e-06,1.2937988631870918e-06,1.5238956026740073e-06,2.158339231156351e-06,2.3076544858250396e-06,1.6990151926966e-06,1.500270579218809e-06,3.116991224540346e-06,1.7705878824829584e-05,3.6562161281452624e-07,3.986020035852789e-06,8.55338790838868e-06,3.796137069207006e-05,8.097993913317294e-07,2.5969367382575706e-06
83,1.1392822781535755e-06,2.633918355273067e-06,1.3557787101905507e-06,1.5255124415842873e-06,2.2083238681224753e-06,2.319948797093634e-06,1.6856789227398708e-06,1.501784396916294e-06,3.2911666747605136e-06,1.998412997377225e-05,3.3125915725759805e-07,3.81541996104125e-06,8.13797200561613e-06,3.445965868026535e-05,8.552729905138706e-07,2.5301480884001457e-06
84,1.1318982453737681e-06,2.6807169267232694e-06,1.421262259719938e-06,1.5259572956328745e-06,2.259384079434678e-06,2.3405946226913418e-06,1.6709641509400788e-06,1.5056429316568866e-06,3.477164147430149e-06,2.243476180192025e-05,3.002750825819768e-07,3.6515829046805907e-06,7.688725388927016e-06,3.113962052921522e-05,9.052112000646152e-07,2.4606027718025847e-06
85,1.1259170092794163e-06,2.7159066156342562e-06,1.4897640837174187e-06,1.5240136819736232e-06,2.311206086893865e-06,2.3687605106854595e-06,1.6553851565559086e-06,1.511021436474309e-06,3.675879510034217e-06,2.505757901777976e-05,2.743758392962572e-07,3.4963837292537214e-06,7.216692430235041e-06,2.8012705166729888e-05,9.592474933856508e-07,2.3887578432834515e-06
86,1.121335139172073e-06,2.7389456332658828e-06,1.5606679614775333e-06,1.5186755651552634e-06,2.3636666137006117e-06,2.403342037374877e-06,1.6395188356503116e-06,1.5169044458531536e-06,3.88790813951827e-06,2.7849045923899473e-05,2.5529227027888415e-07,3.351681668626026e-06,6.7322993522650045e-06,2.5085114023853782e-05,1.0169647331215815e-06,2.3151807357121162e-06
87,1.1180176109388954e-06,2.75002896959833e-06,1.6332470170726785e-06,1.5090932116014016e-06,2.4167373608546805e-06,2.4429941982674224e-06,1.6238469214534623e-06,1.5220874548632274e-06,4.113414260449919e-06,3.0800777071924795e-05,2.4479006201526917e-07,3.2191293148607914e-06,6.244873943850741e-06,2.235903069579882e-05,1.0779531803655698e-06,2.240522060372145e-06
88,1.1158462904407097e-06,2.75000781618846e-06,1.706657379612584e-06,1.49454790479016e-06,2.470372035039119e-06,2.4862320669711505e-06,1.6086505870724928e-06,1.5253350671988453e-06,4.3519680283807765e-06,3.389857141470194e-05,2.4472493783538937e-07,3.1001794398560916e-06,5.762424529877461e-06,1.9833678208022516e-05,1.1418635755326418e-06,2.1654224998952724e-06
89,1.1148758331166394e-06,2.7401795053619144e-06,1.7799374285667605e-06,1.4746327487254943e-06,2.524506469666918e-06,2.5316387771500404e-06,1.5939842444610522e-06,1.5256833164401523e-06,4.602453621655652e-06,3.7122357067732086e-05,2.5709171465881614e-07,2.996263339370394e-06,5.291635242514399e-06,1.750604197203485e-05,1.208358162102795e-06,2.090393033265774e-06
90,1.1153392835777523e-06,2.7220000372186747e-06,1.852048192792189e-06,1.4494870421247994e-06,2.579103206736522e-06,2.5780296258166265e-06,1.5797700049901361e-06,1.5226635084433606e-06,4.863173385966865e-06,4.044662250330814e-05,2.8403208999337e-07,2.908985353465161e-06,4.837958443779804e-06,1.537121526462182e-05,1.2769928565770238e-06,2.0158076854495133e-06
91,1.1175024745712388e-06,2.6967810339506597e-06,1.921937897024131e-06,1.4197599744465357e-06,2.6340677618682496e-06,2.6243992030867078e-06,1.566044566539245e-06,1.5162360551315034e-06,5.132108197757778e-06,4.3840706080194686e-05,3.277989777908715e-07,2.8401242951606075e-06,4.405705264102855e-06,1.342260086134609e-05,1.3471583124019885e-06,1.942020168464483e-06
92,1.1215212693209013e-06,2.6654498185115224e-06,1.98862093616766e-06,1.3863342656314045e-06,2.6890304994751395e-06,2.669669635084262e-06,1.5531855350316726e-06,1.5065947605437057e-06,5.407133005961832e-06,4.7268333462872585e-05,3.907384233218616e-07,2.791430989527623e-06,3.998150637978164e-06,1.1652232818758589e-05,1.4181672456839068e-06,1.8694656850182023e-06
93,1.1273918456239424e-06,2.6284802438428697e-06,2.0512915554634415e-06,1.3501497966316064e-06,2.7432035237581923e-06,2.7124360436023095e-06,1.5418742797326062e-06,1.4941175703358242e-06,5.686000379756066e-06,5.068613555824906e-05,4.7533265247169655e-07,2.764437286956403e-06,3.6176605804358716e-06,1.0051216837968036e-05,1.4894340736754742e-06,1.798661346573141e-06
94,1.1349455194337846e-06,2.5860877549867234e-06,2.1094544236420245e-06,1.3122504459904412e-06,2.795468532562932e-06,2.7509218171767686e-06,1.5328252990380573e-06,1.4793810300664893e-06,5.966103540032071e-06,5.4041609341619296e-05,5.842503150168608e-07,2.7603636255981797e-06,3.2657992132570628e-06,8.610133426648554e-06,1.5606170595259754e-06,1.7301198795293308e-06
95,1.1438797620044493e-06,2.538631642989212e-06,2.1629590786534367e-06,1.273853976089011e-06,2.8445946841296147e-06,2.783215651001627e-06,1.5265422639936861e-06,1.4630185917197838e-06,6.244199457727833e-06,5.7271559218361316e-05,7.20321025629644e-07,2.7800523408505653e-06,2.9434321464711176e-06,7.319322369100406e-06,1.6316693039862779e-06,1.6642726145278363e-06
96,1.1538457993690007e-06,2.48697117899124e-06,2.2118287948623865e-06,1.2362761965716638e-06,2.8893928873951955e-06,2.8076660824655804e-06,1.5232683841859942e-06,1.4455010564472942e-06,6.516166901359209e-06,6.030301063053117e-05,8.864720647149828e-07,2.8239404103126966e-06,2.6508818406738017e-06,6.169107258877105e-06,1.7027887780096127e-06,1.6015105406725248e-06
97,1.1645009471235397e-06,2.432524652892169e-06,2.255959559192002e-06,1.2007606046623504e-06,2.9287863672681363e-06,2.8231923760850872e-06,1.5230669704645342e-06,1.4270546221208443e-06,6.776802119087037e-06,6.305934068839004e-05,1.0857246440724366e-06,2.8920822495340747e-06,2.38808064784122e-06,5.150044584375082e-06,1.7742482443525857e-06,1.5422868606013443e-06
98,1.1754608624355316e-06,2.377008690190828e-06,2.2948889358904133e-06,1.168345523510517e-06,2.9619479419119162e-06,2.829326914587899e-06,1.525881947867644e-06,1.4077464507196303e-06,7.019782707651294e-06,6.547161756306206e-05,1.32124461744745e-06,2.984195350856702e-06,2.154618764052722e-06,4.253168252392117e-06,1.8461831740364374e-06,1.4871087829829953e-06
99,1.1862634336889033e-06,2.32205245619297e-06,2.327739797148555e-06,1.139812947315667e-06,2.9885788958335997e-06,2.8260176418278795e-06,1.5315220362776944e-06,1.3875983995396532e-06,7.237988171635394e-06,6.748988752551073e-05,1.596408784788939e-06,3.099786439098798e-06,1.949707181037441e-06,3.470094771334555e-06,1.9184709509386144e-06,1.4364114483506544e-06
100,1.1964914182226705e-06,2.268911292341778e-06,2.353355650370453e-06,1.115687805287713e-06,3.0091706757050736e-06,2.813409737536742e-06,1.5396146510058582e-06,1.3666089163957847e-06,7.424297306354513e-06,6.90879946934835e-05,1.914863131761789e-06,3.2383657128403764e-06,1.7721879219517322e-06,2.7928822388570996e-06,1.9907742852127326e-06,1.3904558465627128e-06
101,1.2060059363095794e-06,2.2183879679724987e-06,2.3706054800170755e-06,1.096275126148123e-06,3.02499875720207e-06,2.7918208053438014e-06,1.5496249649026755e-06,1.344722998316636e-06,7.572698903900992e-06,7.025985603491519e-05,2.2804827274130134e-06,3.3996019833971607e-06,1.6206903002881303e-06,2.2137195083927884e-06,2.0627394826149743e-06,1.3492872330070097e-06
102,1.21505074835527e-06,2.1709106490593192e-06,2.37868852541771e-06,1.081740623901353e-06,3.037766554908945e-06,2.7619211152413042e-06,1.5610310155524486e-06,1.3218366437186948e-06,7.679091418022146e-06,7.100981630566434e-05,2.697161186809653e-06,3.5833275368042065e-06,1.4938556821866068e-06,1.7247166763439383e-06,2.134201698034657e-06,1.3127269682010195e-06
103,1.2241089939778101e-06,2.1266225968740032e-06,2.377217538754571e-06,1.0721988677102527e-06,3.0490963345060266e-06,2.7248606563981e-06,1.5735737099950313e-06,1.2978250575889228e-06,7.741066624606913e-06,7.134387519375071e-05,3.1685127108298754e-06,3.7895215620164608e-06,1.3904249432846607e-06,1.3179744687448076e-06,2.205216567752893e-06,1.280460179630547e-06
104,1.2336729526942776e-06,2.0854280875716726e-06,2.366096689193889e-06,1.0677379182931874e-06,3.0601802464769758e-06,2.6820985143528977e-06,1.5873216224463448e-06,1.272598607573149e-06,7.756838668418514e-06,7.127101807796323e-05,3.697625933309216e-06,4.018424521286744e-06,1.3091346303266446e-06,9.8578195817795e-07,2.2758966879815867e-06,1.2522325724597473e-06
105,1.2441180782849146e-06,2.047055190266857e-06,2.345432183884637e-06,1.0683579435898873e-06,3.0716753506783674e-06,2.635113203959724e-06,1.6024661501972938e-06,1.2461771881884831e-06,7.724723650571723e-06,7.081587467609997e-05,4.286905714368458e-06,4.2707235129474565e-06,1.2485952112677699e-06,7.207104270261072e-07,2.346190535964462e-06,1.227980568157199e-06
106,1.2556891798706164e-06,2.011134944385134e-06,2.315612494357223e-06,1.0738844493201653e-06,3.0836778178816526e-06,2.585324266623613e-06,1.6190734861327083e-06,1.218725026787262e-06,7.644164425476947e-06,7.00303897045807e-05,4.937962937790264e-06,4.547633920454997e-06,1.2072795502792325e-06,5.15595757403183e-07,2.4157723525799036e-06,1.2077492947573796e-06
107,1.268496560406856e-06,1.9772665804783724e-06,2.277436781814163e-06,1.0839253069521303e-06,3.0957180620174996e-06,2.534152153847968e-06,1.6369970908720693e-06,1.1905973001413368e-06,7.517276870494519e-06,6.899252475220591e-05,5.6515681979797325e-06,4.850802433048437e-06,1.1836129891243544e-06,3.6353096530361455e-07,2.484081519268732e-06,1.1915482648406972e-06
108,1.2824768202556106e-06,1.9451154780364045e-06,2.2320976180102777e-06,1.0979001560924804e-06,3.106816111250171e-06,2.4829614671854607e-06,1.6559485876472857e-06,1.1623921167545993e-06,7.3492056677948305e-06,6.779338461197795e-05,6.427745718039111e-06,5.18208544263701e-06,1.17607999686857e-06,2.579020580226343e-07,2.5504192830652604e-06,1.17936947169049e-06
109,1.2973748059622996e-06,1.914544884428769e-06,2.180988181605885e-06,1.1151314157392146e-06,3.1155589536569257e-06,2.432898159139807e-06,1.675641249541183e-06,1.13487836731679e-06,7.1469956866109676e-06,6.65224206939001e-05,7.265951672142807e-06,5.543263884220899e-06,1.1832363441650646e-06,1.9242011431543106e-07,2.6140072111329718e-06,1.1712848359894148e-06
110,1.3128045154464549e-06,1.8856734668243872e-06,2.1254625122854228e-06,1.1349308135051694e-06,3.1203296069623857e-06,2.3847915027682135e-06,1.695921636631331e-06,1.1088466183055337e-06,6.918185946962965e-06,6.525772269870718e-05,8.165140212901469e-06,5.935687928239142e-06,1.2036905058125068e-06,1.6113270029436697e-07,2.673970927925791e-06,1.167404691741302e-06
111,1.3283782143780251e-06,1.8587715914677166e-06,2.066653014753481e-06,1.1566251486732142e-06,3.1198960377258855e-06,2.3391737390208884e-06,1.7168314752862122e-06,1.0850252334337056e-06,6.670188483672282e-06,6.406220325857308e-05,9.123622740390473e-06,6.359879737298986e-06,1.2361737937384734e-06,1.5840004099151856e-07,2.7293204448629943e-06,1.1677339419358707e-06
112,1.3438496253620652e-06,1.8340484755395286e-06,2.005371407509366e-06,1.1795650810200535e-06,3.114096181925226e-06,2.2963055618849738e-06,1.7385668800376615e-06,1.0640773195845388e-06,6.410196465124354e-06,6.29833397779757e-05,1.0138763233045614e-05,6.815231876411397e-06,1.2796209133001816e-06,1.788452014808793e-07,2.779005323267347e-06,1.172117108898512e-06
113,1.3591871234523072e-06,1.8114950841571599e-06,1.942157773018522e-06,1.2031760917177232e-06,3.1040669211748355e-06,2.256132156894931e-06,1.7613479612172667e-06,1.0466206278188594e-06,6.1449801702616556e-06,6.205455829936453e-05,1.1206590194020703e-05,7.299884599353071e-06,1.3331860293524672e-06,2.1740138428081751e-07,2.821977104011916e-06,1.1802958700641263e-06
114,1.3745107101741678e-06,1.7908592690116258e-06,1.8775093569100281e-06,1.2270218275315944e-06,3.0918622284621744e-06,2.2183066254944705e-06,1.7853066987314157e-06,1.0332210141922035e-06,5.880562275889265e-06,6.129706594461192e-05,1.2321431980006707e-05,7.810693589011765e-06,1.3962155597987754e-06,2.695844387541494e-07,2.857196521405088e-06,1.1919503924153731e-06
115,1.3899408219540663e-06,1.771662456294891e-06,1.812117439230545e-06,1.2508272670249204e-06,3.0797751772006128e-06,2.182418873790051e-06,1.8104809165926311e-06,1.02436034613743e-06,5.6219705169884094e-06,6.0720782840735434e-05,1.3475658011580483e-05,8.34315701571917e-06,1.468183970919995e-06,3.318780225125119e-07,2.8836545936773087e-06,1.2066906927291005e-06
116,1.4055013393542732e-06,1.7532293261703556e-06,1.7469229404416709e-06,1.2744437615789903e-06,3.0697610046943945e-06,2.148275231796402e-06,1.8368489923052622e-06,1.0203929094751097e-06,5.3731209897487535e-06,6.032373060617571e-05,1.4659540936336763e-05,8.891238926194195e-06,1.5486977905971056e-06,4.0184654947765675e-07,2.9004727552012457e-06,1.2240483299318221e-06
117,1.421167809529088e-06,1.734817175302427e-06,1.683040687670171e-06,1.2977581537883512e-06,3.063162479974908e-06,2.115947198810648e-06,1.8643604198695725e-06,1.0214966623355346e-06,5.136833486184875e-06,6.0090661101604425e-05,1.586121103207431e-05,9.447118480936214e-06,1.6376712730489927e-06,4.777877130748089e-07,2.907068751781977e-06,1.2434477794535925e-06
118,1.4369791239048274e-06,1.7158241638734003e-06,1.6217065808401155e-06,1.3206091015865629e-06,3.0607306457292364e-06,2.0855465744290827e-06,1.893057245293764e-06,1.02764143542794e-06,4.91493229232176e-06,5.999228748304094e-05,1.7066610669239835e-05,1.00010029501666e-05,1.7355155234462742e-06,5.582672972864903e-07,2.9032923699036516e-06,1.2641632408279562e-06
119,1.453051358486975e-06,1.6959511492903676e-06,1.564252373029296e-06,1.342785256077533e-06,3.0628457224782464e-06,2.05695676725155e-06,1.923224046911466e-06,1.0385822359601228e-06,4.708420630108598e-06,5.998666459599821e-05,1.8259266427999514e-05,1.0541142033636574e-05,1.8431156308367423e-06,6.41944120605181e-07,2.8893808111264753e-06,1.2853126490719767e-06
120,1.4694967916974118e-06,1.6752261893544031e-06,1.51201125231969e-06,1.364068466148628e-06,3.0697615643037872e-06,2.0297599977020832e-06,1.955320880305853e-06,1.0538946902510106e-06,4.5176989826301e-06,6.002400784304796e-05,1.9419755925210707e-05,1.1054096606908403e-05,1.961587466570913e-06,7.276327741280648e-07,2.8656930420087586e-06,1.3058969950919993e-06
121,1.4863600814117137e-06,1.6538592023054833e-06,1.4661724016627433e-06,1.3842644845292518e-06,3.081668590133049e-06,2.003430210370605e-06,1.9897114527292532e-06,1.0730872500584157e-06,4.342719092681843e-06,6.005396644253917e-05,2.0525159499311044e-05,1.1525314665547613e-05,2.091977135546021e-06,8.143001811207785e-07,2.8324184996914623e-06,1.324939273679653e-06
122,1.503575243294409e-06,1.632000092090377e-06,1.4276842782598702e-06,1.4032425064492517e-06,3.0985410453071127e-06,1.9777096590027784e-06,2.026442474180339e-06,1.0957478301748844e-06,4.1830827913360076e-06,6.0031554996383806e-05,2.154928871697113e-05,1.1940078797484389e-05,2.2350464735833335e-06,9.009492182406e-07,2.7895562024412344e-06,1.3417358227339828e-06
123,1.5209127997275349e-06,1.6095728817523105e-06,1.397217141560446e-06,1.4209788087230079e-06,3.119955125139512e-06,1.9529706662664832e-06,2.065168858002135e-06,1.121594962502969e-06,4.03809956692566e-06,5.991810104436795e-05,2.2464316953933514e-05,1.2284811212771425e-05,2.391158836775935e-06,9.866198356386811e-07,2.737214286450947e-06,1.356018772493247e-06
124,1.5379392132792373e-06,1.586300587063981e-06,1.3751468601252026e-06,1.4375519028218441e-06,3.145075680771522e-06,1.9303245602422676e-06,2.1051328396578394e-06,1.1504031214785916e-06,3.9067175592859025e-06,5.967694775952116e-05,2.324358125345651e-05,1.2548570423395295e-05,2.560218841158084e-06,1.0705809500697016e-06,2.675946208339998e-06,1.3678431187496362e-06
125,1.5539980320506165e-06,1.5618931899209167e-06,1.3615620219242925e-06,1.4530847576955817e-06,3.1727981900938834e-06,1.9113861475358253e-06,2.1451759708222306e-06,1.181957767004261e-06,3.7875115594934075e-06,5.9268306516611716e-05,2.3864691845885306e-05,1.27243510758627e-05,2.7416255175758044e-06,1.1524768389882166e-06,2.6068614171541935e-06,1.3773182409082542e-06
126,1.5682213532415595e-06,1.5362564582160936e-06,1.3563115590470312e-06,1.467675672259387e-06,3.201875024414287e-06,1.897860456722608e-06,2.1839040097128388e-06,1.2161198235221796e-06,3.678966152578589e-06,5.864996659157113e-05,2.431199990441857e-05,1.2809644387072597e-05,2.934213456348312e-06,1.2322628104849702e-06,2.531494586117322e-06,1.384461953006374e-06
127,1.5796424764342672e-06,1.509546862826194e-06,1.3590758416504476e-06,1.481351106486254e-06,3.2308905940128468e-06,1.8912387459573235e-06,2.2200316665643986e-06,1.2528491708943126e-06,3.57980284316909e-06,5.7785733074633694e-05,2.4577521868138505e-05,1.280582514735196e-05,3.136210034374655e-06,1.310069194009724e-06,2.451547373915998e-06,1.389259580716876e-06
128,1.5874458242438704e-06,1.4820807887526757e-06,1.3694086023623396e-06,1.4940494292437823e-06,3.2581241917059104e-06,1.8927028096709755e-06,2.252706741362501e-06,1.2920783166454186e-06,3.4890021217954062e-06,5.665542862898641e-05,2.4659431630607425e-05,1.2716405397351818e-05,3.3452777944962246e-06,1.3861591739476945e-06,2.3686399033612596e-06,1.391760394832683e-06
129,1.5911805862311587e-06,1.4542692331372192e-06,1.3867452397057247e-06,1.5056339992472883e-06,3.2815852419144523e-06,1.9030996970300916e-06,2.2816132111396923e-06,1.333545567937668e-06,3.4055840356516867e-06,5.52592397164694e-05,2.4558530790753748e-05,1.2545112608783945e-05,3.558668076400626e-06,1.4609351487919138e-06,2.2841642474181955e-06,1.3920694794726058e-06
130,1.590729633411792e-06,1.4265955068600542e-06,1.410421858482218e-06,1.5159539562305764e-06,3.299427955391925e-06,1.9229031790718767e-06,2.3068213546041105e-06,1.3767131353381798e-06,3.3284164013497783e-06,5.3614959034825816e-05,2.427590199403135e-05,1.229526704179507e-05,3.773374656222257e-06,1.5348702521890256e-06,2.1992187148961087e-06,1.3902966651569412e-06
131,1.5861308804746535e-06,1.3995712106953904e-06,1.439690528049351e-06,1.5249525477420353e-06,3.310485210177435e-06,1.952217720566742e-06,2.328473710812203e-06,1.4207677118834824e-06,3.2561689566932476e-06,5.1751482542285934e-05,2.3814401496890136e-05,1.1970769440017569e-05,3.986133864083613e-06,1.608370263204297e-06,2.114579768161755e-06,1.3865859124409373e-06
132,1.5774967057007975e-06,1.3737007681319194e-06,1.4736824996672442e-06,1.5327211553275435e-06,3.314499502225012e-06,1.9908285810739086e-06,2.3465018815432584e-06,1.4646859422073354e-06,3.187343050802651e-06,4.9702246643945156e-05,2.3181987921183747e-05,1.1577418061012111e-05,4.193375483614775e-06,1.6816912126015433e-06,2.0307407173715236e-06,1.3812180996805242e-06
133,1.565040297011837e-06,1.3494307920880866e-06,1.511357291313613e-06,1.5393996858184806e-06,3.3119194342432518e-06,2.0382131194684673e-06,2.3605772242744855e-06,1.507375216998207e-06,3.1203280188821664e-06,4.749981310172803e-05,2.2393391916927118e-05,1.112343315103395e-05,4.391441700867765e-06,1.7549882725877722e-06,1.948018608945355e-06,1.3746596598319846e-06
134,1.549087759530073e-06,1.3270729853830579e-06,1.5515396395945856e-06,1.5450177455204714e-06,3.303427483399466e-06,2.093495703485648e-06,2.370306808042582e-06,1.5478357416506227e-06,3.0534866304377234e-06,4.5171848359726746e-05,2.1469439272142553e-05,1.0619164251052127e-05,4.577144081491975e-06,1.8284327045698183e-06,1.866664003064112e-06,1.3674697377378767e-06
135,1.5300790119708003e-06,1.306787869587188e-06,1.5930550161998694e-06,1.5494520485810386e-06,3.289543953871425e-06,2.1554319126670315e-06,2.37549733713486e-06,1.5852540783625904e-06,2.9851735460759837e-06,4.274018082954867e-05,2.0435182968299108e-05,1.0076358549258936e-05,4.748294126138957e-06,1.9022859723420833e-06,1.7869374397032654e-06,1.3601365212640536e-06
136,1.5085520281118434e-06,1.2886231089250659e-06,1.6348606702103169e-06,1.5525125795613736e-06,3.2705823048588417e-06,2.222458225734707e-06,2.3763211374455083e-06,1.6190011009169609e-06,2.9136574227287296e-06,4.022353470720864e-05,1.931780628327791e-05,9.507275655121503e-06,4.903748286887852e-06,1.976932166018833e-06,1.7091149532266874e-06,1.352984655245804e-06
137,1.48504187218105e-06,1.2725267664325708e-06,1.6760945695577257e-06,1.5540270913214022e-06,3.2468418131424993e-06,2.292800570626472e-06,2.37337583594281e-06,1.64855274290383e-06,2.8372278018010396e-06,3.764115844046772e-05,1.8144664017725842e-05,8.923913753119516e-06,5.042972581754984e-06,2.0529362293449536e-06,1.6334038255400918e-06,1.3462148971828925e-06
138,1.459955464853938e-06,1.2583465113860926e-06,1.716022961172149e-06,1.5538298790850302e-06,3.2186883064630694e-06,2.3647068831152237e-06,2.367705205677617e-06,1.6734044336499786e-06,2.754662632777239e-06,3.5014742058958064e-05,1.69415486232128e-05,8.337540062046204e-06,5.165620029052507e-06,2.1310520656468866e-06,1.5599272226211885e-06,1.3400384017944186e-06
139,1.4335219507305927e-06,1.2458823496263898e-06,1.753915133733638e-06,1.5517121199405764e-06,3.186430256083551e-06,2.4367307606297725e-06,2.3607496785903596e-06,1.6931503245125265e-06,2.6656943061634588e-06,3.2368700722037184e-05,1.5731363253042303e-05,7.758460039601957e-06,5.2714075305796645e-06,2.2120696892309626e-06,1.4888923230650653e-06,1.3347949253235554e-06
140,1.405809216490099e-06,1.2349853747317765e-06,1.7889887422332434e-06,1.5474203185416448e-06,3.1502507829510576e-06,2.507782680186241e-06,2.354141480058252e-06,1.7077400738781239e-06,2.5710613724517492e-06,2.9729721460914193e-05,1.4533505314902902e-05,7.195838361049541e-06,5.3601419286646585e-06,2.296613014786137e-06,1.4207196230371716e-06,1.3309431998892194e-06
141,1.376808625459601e-06,1.2255922007192115e-06,1.8205530777829885e-06,1.5406773669855345e-06,3.110376872038099e-06,2.576896284161053e-06,2.3494064060260666e-06,1.7175842181391e-06,2.4721638081261226e-06,2.712590746316456e-05,1.336398366446807e-05,6.657552001817874e-06,5.4317247457459035e-06,2.3850598871833484e-06,1.3559223897272303e-06,1.3289531853713138e-06
142,1.3465955936445728e-06,1.217630032188873e-06,1.8482246849075949e-06,1.5312257935614013e-06,3.0672726230422853e-06,2.6429764279391093e-06,2.3477681755845887e-06,1.7233297628894914e-06,2.3705892858208086e-06,2.4585516400453824e-05,1.2235836154846246e-05,6.150139053203116e-06,5.486041206906113e-06,2.477616915539038e-06,1.2948892559412696e-06,1.3292454090867078e-06
143,1.3154759106438242e-06,1.2108878460601513e-06,1.8719706462610406e-06,1.5188890400497069e-06,3.021548047008114e-06,2.7046758686409306e-06,2.350111554176917e-06,1.7255943216976448e-06,2.2677921614574274e-06,2.213532530685845e-05,1.115944518365873e-05,5.678799571545173e-06,5.522643940185359e-06,2.5745642550313664e-06,1.2378176822388654e-06,1.3322129423017933e-06
144,1.2839950682060001e-06,1.2049979759328597e-06,1.891930986667151e-06,1.5035652936048064e-06,2.973625064800207e-06,2.760385665841374e-06,2.3569919474494337e-06,1.724888620929653e-06,2.1650395120976085e-06,1.979898243080895e-05,1.0142758311839122e-05,5.2474100488452304e-06,5.54035780707019e-06,2.6765336440816825e-06,1.1847867477348796e-06,1.3382059383429885e-06
145,1.2527876621656985e-06,1.1995706997976448e-06,1.908174913661701e-06,1.485193100626192e-06,2.9234846131160376e-06,2.8084333830293376e-06,2.368678762840283e-06,1.7216190678022077e-06,2.063459365667459e-06,1.7595989609397284e-05,9.191616494308896e-06,4.858582369440168e-06,5.5371917497615535e-06,2.7845143079541298e-06,1.1358036386934962e-06,1.3474467053669121e-06
146,1.222383759668247e-06,1.1943652231585649e-06,1.92057729256124e-06,1.4637458314143732e-06,2.870722633670525e-06,2.847512076528555e-06,2.385262901753649e-06,1.7160898149190944e-06,1.964023025767632e-06,1.554158164576278e-05,8.310242854642033e-06,4.513803396963438e-06,5.5108203398062585e-06,2.899730369763666e-06,1.0908150239227392e-06,1.3599684468431872e-06
147,1.1931149666109832e-06,1.1893131540293379e-06,1.9289057259502276e-06,1.4391761300435516e-06,2.8148629733309487e-06,2.8770463190698736e-06,2.4067039196556434e-06,1.7085027021503336e-06,1.867562366219486e-06,1.364714227257709e-05,7.501702725295977e-06,4.213693075404197e-06,5.4594696032315466e-06,3.023823801377827e-06,1.0497460537467732e-06,1.3755966384185064e-06
148,1.1651636320494403e-06,1.1844176994499242e-06,1.9330184716045475e-06,1.411368752609055e-06,2.7556742278925092e-06,2.8971926948033357e-06,2.4327218588176865e-06,1.6988991837308904e-06,1.7749046881589565e-06,1.1920881379419575e-05,6.76814087365016e-06,3.958303289507429e-06,5.382714835374543e-06,3.159177231194695e-06,1.0125290894212928e-06,1.3939507843468057e-06
149,1.1386608043874415e-06,1.1797471948220298e-06,1.932971599612214e-06,1.3802884638223738e-06,2.693243210813348e-06,2.9085105250795467e-06,2.462648356737245e-06,1.6871084362138593e-06,1.6869322083816115e-06,1.0368713161766854e-05,6.1108672646249935e-06,3.7472641821123072e-06,5.281755360253792e-06,3.3088657857770473e-06,9.791549058346435e-07,1.4144651213105229e-06
150,1.1136966450120287e-06,1.1755730320004725e-06,1.928954781476663e-06,1.3462726133330292e-06,2.6277902645060174e-06,2.911595072582508e-06,2.495376702882306e-06,1.6728535350611761e-06,1.6044420937403652e-06,8.994990602692875e-06,5.530528683784535e-06,3.579726855633779e-06,5.159133776087527e-06,3.4762284013626875e-06,9.497777426471563e-07,1.4363967591063682e-06
151,1.0902520238819172e-06,1.1724729966883903e-06,1.921140230624788e-06,1.3101679526195885e-06,2.559473073427501e-06,2.906943817816104e-06,2.5294143265114588e-06,1.6559779565580407e-06,1.527964434888889e-06,7.802756747336873e-06,5.0274750443036285e-06,3.4542971751191662e-06,5.018206504275206e-06,3.664481910968884e-06,9.24728424788101e-07,1.4588538175190863e-06
152,1.0681799659787077e-06,1.1712643465272396e-06,1.9095772675576354e-06,1.273142136710852e-06,2.4884114281444015e-06,2.895070394020199e-06,2.5629965036782087e-06,1.636569848091886e-06,1.457707599109267e-06,6.793645682927508e-06,4.602217795345891e-06,3.3691806266761653e-06,4.8626601271138894e-06,3.876590636397626e-06,9.043868835728741e-07,1.4809511941245855e-06
153,1.0473030961291242e-06,1.172814507422944e-06,1.8942152095694454e-06,1.2363638523646683e-06,2.414883920015071e-06,2.876592842149603e-06,2.5942290416366336e-06,1.614849311939432e-06,1.3936453322101535e-06,5.96779078740795e-06,4.255778264533982e-06,3.322504075086367e-06,4.696178661696818e-06,4.115190660413497e-06,8.890612011468883e-07,1.5020635239070352e-06
154,1.0275513476187636e-06,1.1778735728696661e-06,1.875019846056034e-06,1.2008534047110704e-06,2.3394398425070486e-06,2.852103992772561e-06,2.621220926402293e-06,1.5909259628621949e-06,1.335636109719228e-06,5.323888276937468e-06,3.989765469540617e-06,3.3125669328554475e-06,4.522237703666907e-06,4.382377571187645e-06,8.789422666238668e-07,1.5219611838572745e-06
155,1.0089826468279425e-06,1.1870131777119095e-06,1.8520514819597935e-06,1.1675221112612992e-06,2.2627698541789902e-06,2.8220846924238858e-06,2.6422084293623813e-06,1.5646496352558494e-06,1.2834664766240033e-06,4.859312555552811e-06,3.80619560967654e-06,3.3378299576540324e-06,4.3439296239619715e-06,4.679449680243873e-06,8.740925029522787e-07,1.5406995902681813e-06
156,9.91662259498226e-07,1.2006305000516411e-06,1.8254353264224858e-06,1.1372035659661554e-06,2.185466301685834e-06,2.787124715423839e-06,2.6556937880007155e-06,1.5357076882710833e-06,1.2368824782877258e-06,4.5701946289629124e-06,3.707224364494021e-06,3.3966493676345533e-06,4.16378196377042e-06,5.006730618987709e-06,8.744470174852314e-07,1.5583828326301222e-06
157,9.755720354966374e-07,1.2189477148357644e-06,1.795321491079624e-06,1.1106141701461248e-06,2.107922589606343e-06,2.74819120282603e-06,2.6605738774565317e-06,1.5039612052327783e-06,1.195721896241502e-06,4.451499466113464e-06,3.694939378387909e-06,3.4869493266122155e-06,3.983729948906256e-06,5.363466239044669e-06,8.798301659968547e-07,1.575013370716958e-06
158,9.606547717409833e-07,1.2420168291759695e-06,1.7619582809999708e-06,1.0883141537382299e-06,2.0304236115271174e-06,2.7066482471337358e-06,2.6562161012678186e-06,1.4698022398762285e-06,1.160069046623241e-06,4.497136611283281e-06,3.7712598952935334e-06,3.6060578459465165e-06,3.8053392483353635e-06,5.747806035769363e-06,8.899948664848102e-07,1.5905339916573679e-06
159,9.46887686305968e-07,1.269742373338631e-06,1.725821469673196e-06,1.0706827105830407e-06,1.9532922496728645e-06,2.6641479758656318e-06,2.6424810740439744e-06,1.4342237881210315e-06,1.1302701026438003e-06,4.700091290037423e-06,3.937962041411134e-06,3.7507188945917305e-06,3.6300589174887746e-06,6.156870861285704e-06,9.046693426546001e-07,1.6049703294720141e-06
160,9.342768772354467e-07,1.3018743544955157e-06,1.6876081897250256e-06,1.0579158819826548e-06,1.8770092979714256e-06,2.6225689770819984e-06,2.619698229725657e-06,1.3985506751265005e-06,1.106786487117655e-06,5.052554557432136e-06,4.196792941250963e-06,3.917116055912208e-06,3.4592710880379405e-06,6.58677345524095e-06,9.235573815141304e-07,1.618456434272689e-06
161,9.228482036511948e-07,1.337980425829045e-06,1.6480600416169277e-06,1.0500888749972312e-06,1.8022973290871947e-06,2.5839309630028068e-06,2.588548580598812e-06,1.3641278275144125e-06,1.0900084405776202e-06,5.546003934795172e-06,4.549496914357173e-06,4.100933727417238e-06,3.2942049467550343e-06,7.032477344827792e-06,9.462873743845802e-07,1.6310741972244398e-06
162,9.127039952427513e-07,1.3774663464860259e-06,1.6078261534908052e-06,1.0472374142193873e-06,1.730127458190434e-06,2.550178472070999e-06,2.5498155440300855e-06,1.3321881353529948e-06,1.0801563229625045e-06,6.171155532008564e-06,4.997573238229328e-06,4.2976558034529435e-06,3.1359705610930368e-06,7.487583945223418e-06,9.723882922233006e-07,1.6426680446774534e-06
163,9.040381317145027e-07,1.419636242834528e-06,1.5674872826115822e-06,1.049361053217994e-06,1.6616090812749286e-06,2.522938161024603e-06,2.504072857378553e-06,1.3038370798374276e-06,1.0772857145055045e-06,6.9177422718274466e-06,5.541855035728703e-06,4.5030357112888725e-06,2.9857911561067418e-06,7.944255706680314e-06,1.0013112282068824e-06,1.652796378451819e-06
164,8.970354824244915e-07,1.4637190062792473e-06,1.5276053161800769e-06,1.0563627382715248e-06,1.5978085250213038e-06,2.503396340281968e-06,2.4514674820565006e-06,1.280052682662381e-06,1.0813310265266186e-06,7.774198178647579e-06,6.182197288154604e-06,4.713459878243757e-06,2.8451612998414694e-06,8.393463724621688e-06,1.03241946030766e-06,1.6608298217057552e-06
165,8.917607641732293e-07,1.5088699926397585e-06,1.4887253050792298e-06,1.0680116139693372e-06,1.5396119883428486e-06,2.4922699622733332e-06,2.3917434825776645e-06,1.2616671241114008e-06,1.0921462574223248e-06,8.727410652531846e-06,6.917371708070319e-06,4.926115530197569e-06,2.715683506061848e-06,8.825671596453356e-06,1.0649470933089343e-06,1.666119877884327e-06
166,8.881726481441733e-07,1.5542626420888318e-06,1.451425099675578e-06,1.0839421872110014e-06,1.4876862903922315e-06,2.4898213013566055e-06,2.3245602997547646e-06,1.2493309600863513e-06,1.1095214600116273e-06,9.762599207143938e-06,7.74501401512029e-06,5.13901023564309e-06,2.5987342799591193e-06,9.231866577283336e-06,1.0980280445480593e-06,1.6681824905598492e-06
167,8.862718918525451e-07,1.5992552003729924e-06,1.4163885763316576e-06,1.1036689787752963e-06,1.4424712900841082e-06,2.4959459054555776e-06,2.2499849506648047e-06,1.2434885117132108e-06,1.1331620206612326e-06,1.0863237315630459e-05,8.661508148815463e-06,5.3508303098656755e-06,2.495251910108733e-06,9.604497727346912e-06,1.1308058367078727e-06,1.666865135424619e-06
168,8.862313046241158e-07,1.6434124142276288e-06,1.3843574836828833e-06,1.126613461447486e-06,1.4041680619008902e-06,2.5103242290745178e-06,2.168855514907043e-06,1.2443700833821007e-06,1.1626791946092613e-06,1.201087096097283e-05,9.661838935486936e-06,5.560667480227015e-06,2.405697299222379e-06,9.93756703537171e-06,1.162496694964529e-06,1.6624122917909953e-06
169,8.883669912875378e-07,1.6863191396248316e-06,1.3559859486590525e-06,1.1521242625855093e-06,1.3728014100793763e-06,2.5325365286269342e-06,2.0827568271298908e-06,1.2519852576151118e-06,1.1976469945325035e-06,1.3184751262290998e-05,1.0739462132403602e-05,5.767732886053658e-06,2.330078800595183e-06,1.0225741057342443e-05,1.1923704607421588e-06,1.6553503003329085e-06
170,8.930325340418598e-07,1.7274207359291533e-06,1.331765289687973e-06,1.1795302173543246e-06,1.3484010146735697e-06,2.562042907339168e-06,1.9936708156849877e-06,1.2661291412357847e-06,1.2376763991579954e-06,1.4361414122914478e-05,1.1886173069606978e-05,5.971135968333525e-06,2.2680190341662623e-06,1.0463940014000229e-05,1.2198080618119983e-06,1.6463201270933613e-06
171,9.005740843930281e-07,1.7660561698728948e-06,1.312060295182912e-06,1.208267143246098e-06,1.3311761375767697e-06,2.5980961945547474e-06,1.9035978653256014e-06,1.2864103056495206e-06,1.2824036495594333e-06,1.5514456460616423e-05,1.3091931432880835e-05,6.169723006339001e-06,2.2188939085443804e-06,1.0648483692157943e-05,1.2444792240070716e-06,1.636060168244021e-06
172,9.113265281137737e-07,1.8015785444361052e-06,1.2971499273040126e-06,1.2379481802943189e-06,1.3215131010208886e-06,2.639745136546932e-06,1.8143307164398926e-06,1.312275333892491e-06,1.331417074496279e-06,1.6614976411796875e-05,1.4344594389524477e-05,6.361941225756524e-06,2.181990414544342e-06,1.0778387334281754e-05,1.2664054022461706e-06,1.6254576900759475e-06
173,9.255995823999228e-07,1.8333850792007384e-06,1.2871957641113182e-06,1.2682886406788061e-06,1.3198420254918563e-06,2.6859231641759327e-06,1.7273606209926968e-06,1.34302067141964e-06,1.384275613447129e-06,1.763358759307075e-05,1.5629512669732956e-05,6.5457262105539814e-06,2.156616955231457e-06,1.0855302201513817e-05,1.2857767204020318e-06,1.6154564683209383e-06
174,9.436420199432074e-07,1.8608490466340906e-06,1.2821805205463172e-06,1.2990414796748114e-06,1.3265533705048242e-06,2.735552725661018e-06,1.6438594465359772e-06,1.3778158320995662e-06,1.440669375963266e-06,1.8544314348720154e-05,1.6929113231893466e-05,6.718441517736168e-06,2.142136504605219e-06,1.0882724892357408e-05,1.3027402715992848e-06,1.606859632206391e-06
175,9.65588127531118e-07,1.8833300440230422e-06,1.2819061818083494e-06,1.330034855817992e-06,1.3419774250264662e-06,2.787713465725966e-06,1.5647232006992392e-06,1.415782242146356e-06,1.500572264319166e-06,1.9328753947721223e-05,1.8222708720824563e-05,6.876804524571438e-06,2.137876636825808e-06,1.0865465637906522e-05,1.31736781370938e-06,1.6002329087686916e-06
176,9.914409272057139e-07,1.9002932356526069e-06,1.286078758722282e-06,1.361177457394357e-06,1.3663703758983875e-06,2.841874535005765e-06,1.4906769444341467e-06,1.4560922511974066e-06,1.5642199155787557e-06,1.997784774151205e-05,1.948652146269653e-05,7.016680754160509e-06,2.142938646345394e-06,1.0809196400064607e-05,1.32971687231615e-06,1.5959831012557341e-06
177,1.0211196215373988e-06,1.911326325252813e-06,1.2944193829265755e-06,1.3923829614806799e-06,1.3999611389907596e-06,2.8980091233004775e-06,1.4223722019268512e-06,1.4979622189070847e-06,1.6319322423277857e-06,2.048980890537302e-05,2.0693796161475722e-05,7.132897125628654e-06,2.1560341125417287e-06,1.0719607154563376e-05,1.339875365135362e-06,1.5944914074716286e-06
178,1.0545035923139152e-06,1.916056041963064e-06,1.3066926329829386e-06,1.4235099228185326e-06,1.4430535718889836e-06,2.95641276939422e-06,1.3603813865949614e-06,1.5405797328543065e-06,1.7039549559241008e-06,2.0865661947461513e-05,2.181533148841929e-05,7.219437037423751e-06,2.175459271874322e-06,1.0601331357110311e-05,1.3480083877547172e-06,1.5961425143920243e-06
179,1.0914048398198365e-06,1.914175440929164e-06,1.3226085954756605e-06,1.4543255049286907e-06,1.496046382707875e-06,3.0173123490730317e-06,1.3051612716942462e-06,1.5830836071610767e-06,1.7804133305542566e-06,2.1106174785924728e-05,2.2821135384175096e-05,7.270157878744924e-06,2.1992707723434343e-06,1.0457109764483168e-05,1.354346796171904e-06,1.6012475191933146e-06
180,1.1315101416907818e-06,1.9055413585188237e-06,1.3417196925148589e-06,1.4844704068076783e-06,1.5593033540609736e-06,3.0805894439067434e-06,1.2570867636947527e-06,1.6245328543137245e-06,1.861289341956007e-06,2.1212390337587803e-05,2.3683468544526843e-05,7.27990463319966e-06,2.2256297095973878e-06,1.0287460072858774e-05,1.3590699480641205e-06,1.6099720929871117e-06
181,1.174389294057674e-06,1.8901995842806846e-06,1.3634687758989231e-06,1.5134644363213683e-06,1.6329747016027934e-06,3.1458073582483795e-06,1.2164682219424473e-06,1.663861127136606e-06,1.9463532581453184e-06,2.1188358186757985e-05,2.43804146800418e-05,7.245772587806141e-06,2.253052147413854e-06,1.0090927366640606e-05,1.3622032711284229e-06,1.6223138051708143e-06
182,1.2195718161930426e-06,1.8683981817479746e-06,1.3873439502879544e-06,1.54079231309223e-06,1.7168946991083687e-06,3.2124262121822626e-06,1.1834974764962647e-06,1.69993538540297e-06,2.0350812443767996e-06,2.104356658354658e-05,2.48980712484882e-05,7.1680616295818655e-06,2.280332732720808e-06,9.864905821967502e-06,1.3636085095294725e-06,1.63814546689862e-06
183,1.2665756592506658e-06,1.840627719004402e-06,1.4129302520402528e-06,1.5660857858168442e-06,1.8105598321958711e-06,3.2800153562860817e-06,1.1582058907279685e-06,1.7316990847403366e-06,2.1266098149694156e-06,2.0793105589735735e-05,2.5229388699991934e-05,7.050331545975582e-06,2.306327803315826e-06,9.606934597582011e-06,1.3629961748663478e-06,1.6573258131554167e-06
184,1.3148342383195677e-06,1.8075618607784004e-06,1.4398011917253795e-06,1.5892588984306052e-06,1.9131309463418665e-06,3.3483334655258033e-06,1.1404840188447394e-06,1.7583354163403386e-06,2.2198122624325832e-06,2.045493709959123e-05,2.5370165150405473e-05,6.8983432635282966e-06,2.3298588631850817e-06,9.316142273823631e-06,1.3599158117434848e-06,1.6797674270807727e-06
185,1.363655641195506e-06,1.7698751174350004e-06,1.4674392982790518e-06,1.6104244863594954e-06,2.0234339913171576e-06,3.4172112995424925e-06,1.1301528338470292e-06,1.779416907737541e-06,2.313463263849499e-06,2.004619366961799e-05,2.5316618046117478e-05,6.718562728315715e-06,2.3496606318712794e-06,8.994118057527627e-06,1.353818127414141e-06,1.7053961626576333e-06
186,1.4122998009323223e-06,1.728123806693213e-06,1.4953205944113946e-06,1.629770982525149e-06,2.1399502157621617e-06,3.4863157903779553e-06,1.1270215165574481e-06,1.7949094490426128e-06,2.4062978510731875e-06,1.958103957814583e-05,2.506769489250665e-05,6.51735227633612e-06,2.3643407346689728e-06,8.644520190819577e-06,1.344271689610212e-06,1.7341145581918328e-06
187,1.4600341244461781e-06,1.6828006010436588e-06,1.5230383738325847e-06,1.6475856389040248e-06,2.26079580001864e-06,3.5549798256547165e-06,1.130856570142779e-06,1.804954050164862e-06,2.4969986130013624e-06,1.907093023905938e-05,2.462926791089177e-05,6.301080309715986e-06,2.3725005632342764e-06,8.271817873197435e-06,1.331210837369762e-06,1.7658617890062563e-06
188,1.5060919365206377e-06,1.6344633778312735e-06,1.5502861274453318e-06,1.6642556274143139e-06,2.3837059407553307e-06,3.622201014144079e-06,1.1413119906312238e-06,1.8096150230944302e-06,2.584364301205129e-06,1.85265766380096e-05,2.401597410942137e-05,6.076284959267265e-06,2.37301142673139e-06,7.880448933635813e-06,1.3149917212997616e-06,1.800678467472452e-06
189,1.5497090552624856e-06,1.5838128374834384e-06,1.5767595106631361e-06,1.6802213035358994e-06,2.5060550720004393e-06,3.6867478378738115e-06,1.1579087619771993e-06,1.8088162210221307e-06,2.6675578447359717e-06,1.7959700000228774e-05,2.3249973754762374e-05,5.849305673842715e-06,2.3652620708158967e-06,7.474768477274045e-06,1.296218096469549e-06,1.838656878956258e-06
190,1.5903244208736977e-06,1.5316767786591578e-06,1.602142823547718e-06,1.6960132402962901e-06,2.6249292887860754e-06,3.7472430420437886e-06,1.1800426036963307e-06,1.8024418139734105e-06,2.746046122081554e-06,1.7382824525313582e-05,2.2358018249356197e-05,5.6257142058053e-06,2.3491535132133834e-06,7.05925058951498e-06,1.2755626082235328e-06,1.8798167462813676e-06
191,1.627706793450293e-06,1.4789191558209768e-06,1.6261362494787105e-06,1.712240494793326e-06,2.7372523902856347e-06,3.8021703006775476e-06,1.2069940322679078e-06,1.7904784847996547e-06,2.8192810173566516e-06,1.680756057713582e-05,2.1368239912990312e-05,5.410000784755676e-06,2.3248532256656582e-06,6.638782102751904e-06,1.2537533371696368e-06,1.9240115658650346e-06
192,1.6618046442716363e-06,1.4263155344102225e-06,1.6484118448301858e-06,1.7294563823093552e-06,2.840058635937005e-06,3.84989396848771e-06,1.2379813239412967e-06,1.7731356905320842e-06,2.886517647547266e-06,1.6243372299599068e-05,2.0307506309204693e-05,5.205506558646613e-06,2.292680963927546e-06,6.218758402918224e-06,1.2315794828300735e-06,1.9708701668680995e-06
193,1.6924731071345148e-06,1.3744415270211562e-06,1.668571030731027e-06,1.7480485180400986e-06,2.930976558728434e-06,3.8888289180685385e-06,1.272246165134093e-06,1.7508917714910806e-06,2.946815166328333e-06,1.569795236007195e-05,1.9199616658770485e-05,5.0144175559557505e-06,2.253297892526097e-06,5.804558787316852e-06,1.2097724305660077e-06,2.019748048478197e-06
194,1.7193468146288313e-06,1.3236386899575476e-06,1.6862186010123996e-06,1.7681884566922202e-06,3.008692472424781e-06,3.917721971523496e-06,1.3090887882929752e-06,1.7244263403427993e-06,2.999015126574859e-06,1.5178515759080254e-05,1.8064440807922596e-05,4.837793393039521e-06,2.207893710959318e-06,5.4008721442216575e-06,1.1888814055809786e-06,2.0697334650771486e-06
195,1.74192270309983e-06,1.274069267251327e-06,1.701110497620146e-06,1.789793912027136e-06,3.073052950329031e-06,3.935779192437039e-06,1.347823114901867e-06,1.6944715971051854e-06,3.041798636890794e-06,1.4692747451970022e-05,1.6918010977063442e-05,4.6757093931911724e-06,2.1581188917967016e-06,5.0114867566720995e-06,1.1692804549675744e-06,2.11970839628869e-06
196,1.7597470633628386e-06,1.2257779179746853e-06,1.7132317750067474e-06,1.8125258038612573e-06,3.124773815532135e-06,3.9424272298898735e-06,1.3877200094237637e-06,1.6617070484786846e-06,3.0740573071585025e-06,1.4248863500326506e-05,1.5773205535636047e-05,4.527527311726331e-06,2.1058366382735107e-06,4.639355449438241e-06,1.1512799793197429e-06,2.168377163676817e-06
197,1.7725936096013963e-06,1.1787544511727599e-06,1.7227208916643448e-06,1.8358664429101345e-06,3.1649819491667167e-06,3.936847951525541e-06,1.427988932672171e-06,1.6267718981500713e-06,3.095355030980512e-06,1.3855000579708347e-05,1.4640463831444817e-05,4.392194573873808e-06,2.0528607758408322e-06,4.286579513985665e-06,1.135211569413343e-06,2.2142375517811434e-06
198,1.7805670563148147e-06,1.1330756738390846e-06,1.729726202631342e-06,1.8592788864453672e-06,3.1947737986246554e-06,3.917705764645595e-06,1.4677587001256525e-06,1.5902786275669453e-06,3.1059821788010364e-06,1.3518404894544464e-05,1.3528279731309115e-05,4.268482989990201e-06,2.000770851980437e-06,3.954353619517456e-06,1.1213890602673739e-06,2.2555881385663428e-06
199,1.784091613596114e-06,1.0890579642646604e-06,1.7343894155913047e-06,1.8823737445366509e-06,3.214935936907814e-06,3.883354683063071e-06,1.5060499870944508e-06,1.5527394199597105e-06,3.1065913917691574e-06,1.3244714895304368e-05,1.2443551947123076e-05,4.15518184530907e-06,1.9508312606081132e-06,3.643032021907903e-06,1.1099970087062647e-06,2.290681849204451e-06
200,1.7837725706129774e-06,1.0472596860259177e-06,1.7369720285515474e-06,1.904981473772414e-06,3.2259577051331454e-06,3.83240467552959e-06,1.5418465702004736e-06,1.514533852061553e-06,3.097909295964654e-06,1.3037494221316631e-05,1.1391909913727163e-05,4.051286134089041e-06,1.9039873621040902e-06,3.3523905528898715e-06,1.1010240906604812e-06,2.318000802687696e-06
201,1.7802398756937655e-06,1.0083333076413765e-06,1.737902663098239e-06,1.927068545181844e-06,3.2282564673863006e-06,3.7642990759504144e-06,1.5743113003699135e-06,1.476024073067303e-06,3.0807306944454484e-06,1.2898314363649997e-05,1.03780389988531e-05,3.956155277333392e-06,1.860870586466568e-06,3.0820921043069256e-06,1.0943015837721304e-06,2.3364881425169637e-06
202,1.7741635643812494e-06,9.72887512728659e-07,1.7376553017310145e-06,1.948535717027641e-06,3.2223625599875943e-06,3.6796494939853498e-06,1.6030006181708047e-06,1.437699894254953e-06,3.0559081975365893e-06,1.2827411385094416e-05,9.40593015453433e-06,3.869542125870062e-06,1.821780824057176e-06,2.8321758416515323e-06,1.0896220124851726e-06,2.345637635540178e-06
203,1.7663981740986233e-06,9.414773826692628e-07,1.736625189228694e-06,1.96904668717666e-06,3.2089232030821917e-06,3.580284344797438e-06,1.627889587592189e-06,1.400183586127563e-06,3.0241873733735187e-06,1.2824349083238157e-05,8.478992201268246e-06,3.791438225146213e-06,1.7866781106455575e-06,2.6032814762677597e-06,1.0868212928908377e-06,2.3455013140177175e-06
204,1.757967733913765e-06,9.146788123529357e-07,1.735106028031606e-06,1.9880202690428683e-06,3.1886110460420284e-06,3.4690749863571435e-06,1.6491860307948989e-06,1.3641265260600113e-06,2.9861397814280065e-06,1.2888222386128363e-05,7.600099698138259e-06,3.721875505215427e-06,1.7552348151132067e-06,2.3964923461374944e-06,1.0857453975168964e-06,2.336696150078706e-06
205,1.74983468408159e-06,8.931290106046433e-07,1.733272948020695e-06,2.0047599811103606e-06,3.1621019597653e-06,3.349575550815407e-06,1.6671372939577043e-06,1.330166297741006e-06,2.9424239545254195e-06,1.3017401994892253e-05,6.7716950659811234e-06,3.660872917311214e-06,1.7269546804793348e-06,2.2129378784585565e-06,1.086204234140325e-06,2.3203831742790935e-06
206,1.7427193214881853e-06,8.774898909905002e-07,1.7310946436411993e-06,2.0185711692883223e-06,3.1301191874673984e-06,3.225531078435706e-06,1.6820357224248537e-06,1.2989660684400352e-06,2.89413142448908e-06,1.3208931157254922e-05,5.995936048849457e-06,3.6084858584050478e-06,1.701308509711975e-06,2.0534426521012135e-06,1.0880202108839818e-06,2.2981099977824033e-06
207,1.737128812565515e-06,8.683945459479004e-07,1.728250528251741e-06,2.028766213053681e-06,3.0933564913419656e-06,3.1004138289928613e-06,1.6943516676385984e-06,1.2712067576866319e-06,2.842777697366779e-06,1.3457862927960186e-05,5.2747574736469655e-06,3.5647700061170354e-06,1.6778715548825435e-06,1.9184264861608057e-06,1.0910870993171017e-06,2.271502208525354e-06
208,1.7334793646400803e-06,8.664528530305946e-07,1.7241860505225538e-06,2.0346146881316623e-06,3.0522419570449718e-06,2.9771434361903303e-06,1.7047776316150866e-06,1.2474901391198622e-06,2.7900296616627833e-06,1.3757141268189248e-05,4.609746969740803e-06,3.5296259869222237e-06,1.6564610969262981e-06,1.8080188369773685e-06,1.0953265916200632e-06,2.2419787135185985e-06
209,1.7321391158578104e-06,8.722984571043609e-07,1.7183470937456166e-06,2.0353810812048934e-06,3.006807832249451e-06,2.8580286702655194e-06,1.714113757327461e-06,1.2282458512950027e-06,2.737595582432084e-06,1.409824894312572e-05,4.001887954217318e-06,3.5026662221916497e-06,1.6371664507215167e-06,1.7221899558446186e-06,1.1005750786709142e-06,2.2106358615139826e-06
210,1.733370510382217e-06,8.865805157256927e-07,1.7104519124662368e-06,2.030509885216466e-06,2.956881948727271e-06,2.74486518380479e-06,1.723076057715108e-06,1.2137162123513313e-06,2.68727058128071e-06,1.4471921438197755e-05,3.451347439023797e-06,3.483183664604597e-06,1.6201840881264367e-06,1.6607759633647504e-06,1.1064923452000025e-06,2.1782713942338283e-06
211,1.7372672058347582e-06,9.098824052166721e-07,1.7005640998663628e-06,2.0198434373108887e-06,2.9024553350701424e-06,2.6390691221037364e-06,1.7321474659276587e-06,1.2040209341991147e-06,2.640850337490428e-06,1.4868050140354471e-05,2.957437779390737e-06,3.4701204680491967e-06,1.6055829222090526e-06,1.6235050809529328e-06,1.1125437350971245e-06,2.1454934722601654e-06
212,1.7437349468679202e-06,9.426553797985853e-07,1.6888968905435137e-06,2.0036511428313277e-06,2.8439069909477614e-06,2.541764798175587e-06,1.7415641600895659e-06,1.1992527637229447e-06,2.5998901420515537e-06,1.5275020694779154e-05,2.5187174666937125e-06,3.4619427493224877e-06,1.593205440937375e-06,1.6101135383545744e-06,1.1180967959825257e-06,2.112822913203692e-06
213,1.7524823507455725e-06,9.852006651776595e-07,1.6755686803515161e-06,1.982409410635192e-06,2.7819384047098568e-06,2.453815141234058e-06,1.7514272472284453e-06,1.1994991518622555e-06,2.5655045875135155e-06,1.568002018318575e-05,2.133115230359843e-06,3.45656235280588e-06,1.5827579555697908e-06,1.6204030540153449e-06,1.1226407274104877e-06,2.0806566957402212e-06
214,1.7629930177999789e-06,1.0376584071474032e-06,1.6605254744581837e-06,1.9566223093358227e-06,2.717302043212319e-06,2.3757884385654466e-06,1.7618021449467767e-06,1.2047502688541683e-06,2.5383608770378763e-06,1.6071152507886774e-05,1.7980349467632092e-06,3.4515130588315103e-06,1.5739308309990327e-06,1.6541999723973979e-06,1.125986128401616e-06,2.049140400279307e-06
215,1.774567522023037e-06,1.1000006172754266e-06,1.6436006280567228e-06,1.9269075752348816e-06,2.6505270624368034e-06,2.307884478890915e-06,1.7726924148169986e-06,1.214797096461618e-06,2.5188751084775547e-06,1.6439827841346383e-05,1.5104836518170406e-06,3.444369681782692e-06,1.5663556098737127e-06,1.711423069669312e-06,1.128244498305734e-06,2.0181066603040766e-06
216,1.7865534749321659e-06,1.1720492092663572e-06,1.62463110357384e-06,1.8941345767515785e-06,2.5818895656404018e-06,2.2499183867599904e-06,1.783980099635673e-06,1.2292309866105432e-06,2.5074689713106154e-06,1.6781193685662073e-05,1.2672015688596358e-06,3.4332338959630276e-06,1.559467238781058e-06,1.7922748822149335e-06,1.1296220785244165e-06,1.987161184945824e-06
217,1.7986009759341984e-06,1.2534989077944092e-06,1.603569692604867e-06,1.8593897480741757e-06,2.511698490578015e-06,2.201391843944575e-06,1.7954517116572462e-06,1.2475484652130335e-06,2.504688456170203e-06,1.70922158865958e-05,1.0647235621547924e-06,3.417082909458143e-06,1.5525402805587207e-06,1.8973119456716868e-06,1.130284174191991e-06,1.9558815464504656e-06
218,1.8106651353169152e-06,1.3439214904374203e-06,1.5804905662933064e-06,1.8238301578195114e-06,2.440620493070073e-06,2.1615467710317437e-06,1.8068776486946712e-06,1.2692711705105354e-06,2.5111607053654044e-06,1.7368923368142347e-05,8.994146380978903e-07,3.395805289049971e-06,1.545004240502054e-06,2.0273202490553592e-06,1.1303836560752813e-06,1.923935702394716e-06
219,1.8229031376007967e-06,1.4427691796471936e-06,1.555540305139934e-06,1.7885210877686083e-06,2.369716855931588e-06,2.1293953300817007e-06,1.818142889808525e-06,1.2939725532104132e-06,2.5275501173602414e-06,1.7604542081965317e-05,7.675286643879531e-07,3.369931549829488e-06,1.5368210002810119e-06,2.1831332049185285e-06,1.1300827298640824e-06,1.8910221021810068e-06
220,1.8357175434276285e-06,1.549398088988987e-06,1.5289807569099016e-06,1.754301634610993e-06,2.300193304206927e-06,2.1038215725622355e-06,1.8293699585727536e-06,1.3211858541091509e-06,2.55452911213884e-06,1.7789211695981395e-05,6.652459032610832e-07,3.340305061843365e-06,1.5285721522429242e-06,2.3654647363963386e-06,1.1294696808649764e-06,1.8568441337601378e-06
221,1.8497588446649355e-06,1.6631090414599165e-06,1.5012269881934805e-06,1.7217236231085475e-06,2.2331586655276888e-06,2.0836901959249597e-06,1.8408280760928018e-06,1.3502985172506991e-06,2.592698068719907e-06,1.791130820096972e-05,5.887222461691052e-07,3.307877436717607e-06,1.521178887720574e-06,2.5747685726576273e-06,1.1284653776685368e-06,1.821309126038352e-06
222,1.8657235453398992e-06,1.7831915211377803e-06,1.4727273153154484e-06,1.6910472751855579e-06,2.1695894329756174e-06,2.0678306896147153e-06,1.852656783339313e-06,1.3805646628806965e-06,2.6425954862570565e-06,1.795989775646448e-05,5.342475978815658e-07,3.273546861688249e-06,1.5155925045994345e-06,2.811155952867478e-06,1.1268321406921166e-06,1.7847763612395203e-06
223,1.8841216301324935e-06,1.9089205695760904e-06,1.443831023341039e-06,1.6622398619769854e-06,2.1103581930931914e-06,2.0549496700474156e-06,1.8646656448028509e-06,1.411237699646672e-06,2.704839313282294e-06,1.7926793053501125e-05,4.984676501166253e-07,3.238028634156366e-06,1.512725155818663e-06,3.0743688209389497e-06,1.1243272909314384e-06,1.7480257759520153e-06
224,1.9051631999139998e-06,2.039463914745415e-06,1.4148354553906539e-06,1.6350103148518722e-06,2.0561792682196086e-06,2.0436622719628656e-06,1.8763348707990566e-06,1.4416726165376824e-06,2.7801365075681857e-06,1.7806712892799303e-05,4.78482409439337e-07,3.2019802941991225e-06,1.5134787465966673e-06,3.363801574353449e-06,1.1208905112076128e-06,1.7119456441809892e-06
225,1.928747099333759e-06,2.1737815899815404e-06,1.3861427548202074e-06,1.6089653175199883e-06,2.007570466865133e-06,2.0327170870641855e-06,1.8869825884919604e-06,1.4712912663218838e-06,2.8690466013325256e-06,1.7595699856887476e-05,4.7173269818927803e-07,3.1663225333383193e-06,1.5186894627806028e-06,3.678609994257152e-06,1.1166695979397578e-06,1.6772432855552254e-06
226,1.9544777569020578e-06,2.310619129654759e-06,1.3583546645435307e-06,1.5838514959829346e-06,1.964883516087499e-06,2.021276565987011e-06,1.8959843987578678e-06,1.499545242402568e-06,2.971727344190051e-06,1.7289724275910802e-05,4.758154510157917e-07,3.1323025494430036e-06,1.5290448801089185e-06,4.017799076764843e-06,1.1119190039839024e-06,1.6443282079544996e-06
227,1.981718180625457e-06,2.4485282567028717e-06,1.3322284031978723e-06,1.5597153318649914e-06,1.9283022506741736e-06,2.0090823361135886e-06,1.9028597165623174e-06,1.5259706312983718e-06,3.087832374025818e-06,1.6885788514215976e-05,4.884054800125085e-07,3.1011406472769573e-06,1.5450657554861857e-06,4.380112854428905e-06,1.106946896931151e-06,1.6132952218817727e-06
228,2.00974568242186e-06,2.5858323309862136e-06,1.308554494139097e-06,1.5368701471946027e-06,1.8977981606275379e-06,1.9964311273474106e-06,1.907175745490796e-06,1.5501838852358367e-06,3.216492169539735e-06,1.6385354507400425e-05,5.073233702459295e-07,3.07364237656239e-06,1.5671670539103057e-06,4.763916305480634e-06,1.1020815815174941e-06,1.5839769997622999e-06
229,2.0379129320457973e-06,2.7206377569984604e-06,1.2880660785138692e-06,1.5157237161701173e-06,1.8731410014130682e-06,1.983979210841575e-06,1.908495837098265e-06,1.571861981039434e-06,3.3563086724111257e-06,1.5796797916993907e-05,5.306744602457824e-07,3.050132327088994e-06,1.5957571141754475e-06,5.167310744158115e-06,1.097575709227227e-06,1.5561067340375846e-06
230,2.0656501177766803e-06,2.8510587119970018e-06,1.2713758645285538e-06,1.4966230363339418e-06,1.8539968468577108e-06,1.9724749259175948e-06,1.9064767361010167e-06,1.5909052289249454e-06,3.5054113240883383e-06,1.5134481821768602e-05,5.569177958533087e-07,3.030602391003198e-06,1.6312773360015555e-06,5.588241534806948e-06,1.093527216741584e-06,1.5295721492158249e-06
231,2.0924188026274273e-06,2.9756662897616602e-06,1.258900131106477e-06,1.4798480314025273e-06,1.840045185151112e-06,1.962548582779138e-06,1.900891700077051e-06,1.6076306580931576e-06,3.6616028228353173e-06,1.4415646591143493e-05,5.847867050677995e-07,3.0147900277520812e-06,1.6741496477882287e-06,6.024304825217827e-06,1.089882794451078e-06,1.504636638356976e-06
232,2.117841864501102e-06,3.0939477824137447e-06,1.2508122665522104e-06,1.4656986564686796e-06,1.8310227373853925e-06,1.954645783713872e-06,1.8915654981590868e-06,1.6227201993430484e-06,3.822437719020871e-06,1.365766304617373e-05,6.131461424628536e-07,3.002146396466526e-06,1.724702314710039e-06,6.4723941298694914e-06,1.086469816833286e-06,1.4819890371152531e-06
233,2.141927685721944e-06,3.206478144078371e-06,1.2470479301812433e-06,1.454482569071949e-06,1.8266502453959445e-06,1.949079495842519e-06,1.878454131357004e-06,1.6369507733964464e-06,3.985099986006595e-06,1.2876671076878444e-05,6.409507733947578e-07,2.991765652993929e-06,1.7831050846470694e-06,6.928660411112029e-06,1.0829963899782466e-06,1.462615132645656e-06
234,2.1651217161751243e-06,3.314669195559228e-06,1.2473215411120328e-06,1.446375357885151e-06,1.8264872940319974e-06,1.946069979249481e-06,1.861794610376872e-06,1.6509251619932044e-06,4.1463143818879455e-06,1.2087092671681123e-05,6.673640545180083e-07,2.982319671803499e-06,1.8492872001574945e-06,7.389199700158778e-06,1.0790572670364805e-06,1.4476055574561157e-06
235,2.188113611979199e-06,3.4202371908840744e-06,1.2511414526451803e-06,1.44133340552215e-06,1.8298336714123955e-06,1.9456791021785144e-06,1.8420720111277767e-06,1.6649391405834609e-06,4.302586858311289e-06,1.1301405880370353e-05,6.918985401887789e-07,2.972052667019324e-06,1.922876262770839e-06,7.851282220269334e-06,1.0742316362287917e-06,1.437983222662772e-06
236,2.211592564967167e-06,3.524664955001821e-06,1.2578418313011046e-06,1.4391715249180075e-06,1.8357638573281007e-06,1.9477077721548417e-06,1.819795374660417e-06,1.6789770999438477e-06,4.450644055292915e-06,1.0529997998111093e-05,7.144043664130849e-07,2.9588173824008974e-06,2.0032678131263315e-06,8.31431495233752e-06,1.0682292455339898e-06,1.4345655277861363e-06
237,2.2361527774573855e-06,3.6288449924345093e-06,1.2666172438402053e-06,1.439716526071793e-06,1.843263073694896e-06,1.951719830080486e-06,1.7952592312700564e-06,1.6927624496656512e-06,4.587668517827442e-06,9.781099036246001e-06,7.349170752191191e-07,2.9402517980557363e-06,2.089828548454391e-06,8.779813055798023e-06,1.060927472705094e-06,1.4378765014421417e-06
238,2.26231524290123e-06,3.7329218124294396e-06,1.2765669019162187e-06,1.4428639958327163e-06,1.8513977039722011e-06,1.957231011120044e-06,1.7684511713875592e-06,1.705784403399958e-06,4.7111357548020855e-06,9.060966818614979e-06,7.535292394515347e-07,2.914277523215421e-06,2.1820543336991085e-06,9.250357595452958e-06,1.0522910693023717e-06,1.4481181119680959e-06
239,2.290534098697561e-06,3.8362707125897845e-06,1.2868018813684232e-06,1.4484824741791171e-06,1.8595024049375265e-06,1.963890575002683e-06,1.739172242419555e-06,1.7173310574870174e-06,4.818600933799916e-06,8.3744323009855e-06,7.703885934070752e-07,2.8796981058420007e-06,2.2795404162356645e-06,9.728326383176144e-06,1.0423109262489462e-06,1.4651835429999368e-06
240,2.3211604783477505e-06,3.9375375957648175e-06,1.296568057038781e-06,1.4562839599989674e-06,1.8673294953152924e-06,1.971484663086484e-06,1.7073040070279345e-06,1.7266282712011122e-06,4.907937664209959e-06,7.725427341943673e-06,7.85749685989151e-07,2.836440244010114e-06,2.3818219241734983e-06,1.0215452544462791e-05,1.0309788210578863e-06,1.4886933108313945e-06
241,2.354394504822963e-06,4.034669508396302e-06,1.3052582280931583e-06,1.4657837901364459e-06,1.8750205804942888e-06,1.97977256812366e-06,1.673034307818376e-06,1.7330423286645685e-06,4.977792822844587e-06,7.117090460224415e-06,7.999621876231759e-07,2.7853350348624422e-06,2.4882439688544873e-06,1.071342877567583e-05,1.0182526038024112e-06,1.518073412913916e-06
242,2.3902613564403646e-06,4.1249695485559225e-06,1.3123260885224104e-06,1.4763754840481968e-06,1.8828817297518986e-06,1.988278922646325e-06,1.6368829373650153e-06,1.7362146774462504e-06,5.02750683015344e-06,6.551608606130179e-06,8.133955793577759e-07,2.7276877028438013e-06,2.5979795185199613e-06,1.1224672861418882e-05,1.0040974719765666e-06,1.5527225059025225e-06
243,2.4286104204708004e-06,4.205292145321404e-06,1.317242743527657e-06,1.4874682527095747e-06,1.8912339212078235e-06,1.996158347647075e-06,1.5995689809759014e-06,1.7360978393693372e-06,5.056486433711097e-06,6.030099763551441e-06,8.263983254510431e-07,2.664867453695274e-06,2.710177836980243e-06,1.175233035121603e-05,9.886408625211554e-07,1.5921972898765105e-06
244,2.4690695536435737e-06,4.272363512882152e-06,1.319546126558847e-06,1.4985586096020882e-06,1.9005526047126775e-06,2.0022049790364762e-06,1.5618746797795985e-06,1.7329285630809792e-06,5.063889168104449e-06,5.552556945043091e-06,8.393184319933265e-07,2.598022065128828e-06,2.8240541811737852e-06,1.2299347857073782e-05,9.722600837053901e-07,1.6362235384022851e-06
245,2.510933454233504e-06,4.323133012547661e-06,1.3188683244385903e-06,1.5091610968504778e-06,1.911674842913133e-06,2.0050364135648936e-06,1.5245520726186127e-06,1.7271211876835637e-06,5.049024392311325e-06,5.117830842163609e-06,8.524887645128212e-07,2.527963403419709e-06,2.938741084372724e-06,1.2867162430676477e-05,9.554796088406393e-07,1.6845077364177071e-06
246,2.5531016986555457e-06,4.355180575171365e-06,1.3148555680173323e-06,1.5186995264835615e-06,1.9257476488493687e-06,2.0034001925511788e-06,1.4882528425129787e-06,1.7190791290418504e-06,5.011798331794562e-06,4.723707518718618e-06,8.661538371223145e-07,2.4551624025429693e-06,3.0529992112200494e-06,1.3454841615210744e-05,9.388287749048434e-07,1.7365365422993374e-06
247,2.594210323479488e-06,4.367170490313586e-06,1.3071168348629928e-06,1.5265087568582594e-06,1.943952734951111e-06,1.996453673493392e-06,1.4535266907147401e-06,1.7090769499572374e-06,4.952554558091018e-06,4.36712570128225e-06,8.804328188169376e-07,2.379773139019089e-06,3.165054615297283e-06,1.405939583186159e-05,9.227997204116001e-07,1.791488377838905e-06
248,2.6329472635697146e-06,4.359136359473016e-06,1.295347022799614e-06,1.5319435555168282e-06,1.9672808305766324e-06,1.9838782188667237e-06,1.4208859498757283e-06,1.6973570106426644e-06,4.871680332235792e-06,4.0445738858660245e-06,8.95340979330032e-07,2.3017621778302897e-06,3.2726070170633756e-06,1.467749964173679e-05,9.07823097534783e-07,1.8482865813491915e-06
249,2.6683701854573384e-06,4.332400322022519e-06,1.2795101208775529e-06,1.5344279601855717e-06,1.996478978716652e-06,1.965776069324576e-06,1.3908227006625746e-06,1.6843370058549802e-06,4.7697673243605736e-06,3.752597774983614e-06,9.108195063050789e-07,2.2211694725081366e-06,3.372855628586972e-06,1.5307511157528103e-05,8.941997293039397e-07,1.9057981367456715e-06
250,2.7000562066788668e-06,4.289180263134798e-06,1.2598904534142448e-06,1.533362657609574e-06,2.032084959596429e-06,1.9424345731431005e-06,1.3637343792040986e-06,1.670726356585712e-06,4.648325275443533e-06,3.4882268952330668e-06,9.267662579939196e-07,2.1383144268164487e-06,3.46259222186536e-06,1.5949749219914068e-05,8.820585314610226e-07,1.9630432780552005e-06
251,2.7280659418348676e-06,4.232063398788155e-06,1.2369858924103068e-06,1.5280740346106295e-06,2.074453224545898e-06,1.914197147434403e-06,1.3398569971811664e-06,1.6574841633217815e-06,4.510212724950173e-06,3.2491935034979783e-06,9.430571229825393e-07,2.053831451388999e-06,3.5385658604770406e-06,1.6604763792782445e-05,8.713800755667197e-07,2.019229198476294e-06
252,2.7527910042130907e-06,4.163487904424916e-06,1.2113556025885052e-06,1.5180019920175752e-06,2.1237207404577543e-06,1.8815508730942905e-06,1.319274514758081e-06,1.6456651681037919e-06,4.359281893613597e-06,3.033935162957489e-06,9.595457129146693e-07,1.9686212735618904e-06,3.598096539168106e-06,1.7271575268595568e-05,8.620620944576261e-07,2.0736269005147005e-06
253,2.7747163690117567e-06,4.085411499563974e-06,1.1835601611908206e-06,1.5030259875286303e-06,2.1797008339441627e-06,1.845241601382549e-06,1.3019886065492561e-06,1.6362459015192717e-06,4.199666314328503e-06,2.8414304860367094e-06,9.760991191329998e-07,1.8837844653577945e-06,3.639683231201052e-06,1.7946944946233454e-05,8.539945296144354e-07,2.1254735380134074e-06
254,2.7941337270791465e-06,3.999312714038687e-06,1.1542201255013124e-06,1.4836708544272788e-06,2.2417910954204136e-06,1.806233096026261e-06,1.2880177050925885e-06,1.6300215940352118e-06,4.035304563847738e-06,2.6709296861946025e-06,9.926794257418938e-07,1.8005201129471627e-06,3.6632889041363856e-06,1.8624893019605844e-05,8.471125016881367e-07,2.1740003873931424e-06
255,2.8109525426915883e-06,3.906415623304689e-06,1.1240586599286963e-06,1.4610625972314827e-06,2.3089922959652368e-06,1.765515010634371e-06,1.2774351527220476e-06,1.6275642971370805e-06,3.869732425185195e-06,2.5216399178791325e-06,1.0093668911925328e-06,1.7199910971461513e-06,3.6700424139705698e-06,1.9296063490322896e-05,8.413917372611665e-07,2.2185306593252754e-06
256,2.8247396531725923e-06,3.8079030692795717e-06,1.0938193324968166e-06,1.4366921039824576e-06,2.3799798890637963e-06,1.7238855126001068e-06,1.2702888550467798e-06,1.6291746023724414e-06,3.7059672740132635e-06,2.3924576501117028e-06,1.0263171187255516e-06,1.64317955101897e-06,3.6614894035401396e-06,1.9947340626612573e-05,8.367853522583724e-07,2.2585601672976964e-06
257,2.8348959497115477e-06,3.7050032344142315e-06,1.0641404239917622e-06,1.4121301589888308e-06,2.453123005536971e-06,1.6818869517329454e-06,1.2665065880357084e-06,1.63483533393958e-06,3.546510544334957e-06,2.281881678237891e-06,1.0437598970697699e-06,1.5707803200301426e-06,3.639014827956372e-06,2.0562022142901073e-05,8.331784386800972e-07,2.2937917583791717e-06
258,2.8407646269475882e-06,3.5989416690227587e-06,1.035511454154501e-06,1.3888091430067385e-06,2.5265650482763334e-06,1.639957289464568e-06,1.26591658231841e-06,1.6442069478219463e-06,3.393469731536185e-06,2.188184083576688e-06,1.0620090700282522e-06,1.5031816923048846e-06,3.603857554926299e-06,2.1121342285379148e-05,8.303963360179059e-07,2.3241118591142595e-06
259,2.8416268143278074e-06,3.490810247209196e-06,1.0082999502477768e-06,1.3679149491255241e-06,2.5985361564429784e-06,1.5986390325354461e-06,1.268339891166067e-06,1.6566844316260276e-06,3.2486777800853727e-06,2.1097938124373677e-06,1.081374503843495e-06,1.4404979722472877e-06,3.5574551005187026e-06,2.160807189924638e-05,8.281997150191219e-07,2.349490346848992e-06
260,2.8367306311512997e-06,3.3814202114340994e-06,9.82770986014226e-07,1.3503693344005697e-06,2.667752749368504e-06,1.5586242965905883e-06,1.2735968498048823e-06,1.6715341970101429e-06,3.113749988043842e-06,2.045758921721078e-06,1.1020235649128425e-06,1.3825769370599909e-06,3.501702178515e-06,2.2010780610200687e-05,8.26256327628329e-07,2.36980703448781e-06
261,2.8254749940366672e-06,3.27116107347046e-06,9.590939671635012e-07,1.3368742315009381e-06,2.73358043123779e-06,1.5205959663803867e-06,1.2814333980875643e-06,1.6880491523195067e-06,2.990094813834609e-06,1.9960447585757355e-06,1.1239124237660793e-06,1.328983824732026e-06,3.4389983715751482e-06,2.232599515739716e-05,8.241456467627575e-07,2.3846822746811946e-06
262,2.8076794320480007e-06,3.1599414751707917e-06,9.37375461368835e-07,1.3279829250411442e-06,2.7958567238591167e-06,1.4850405631460446e-06,1.2914957409181332e-06,1.705599159337792e-06,2.878890264659303e-06,1.9614277859134076e-06,1.1468271310964699e-06,1.2790392734594353e-06,3.372086225602364e-06,2.255697957807596e-05,8.214170737171116e-07,2.393511421620282e-06
263,2.7837229595084405e-06,3.047385836486271e-06,9.177060472970394e-07,1.3241162403032886e-06,2.8545808699112847e-06,1.452187768037537e-06,1.3033879337648157e-06,1.7235618525974805e-06,2.7810244615737253e-06,1.943061798020875e-06,1.1704744563638529e-06,1.2319686806836895e-06,3.3037119716983394e-06,2.2710155176736313e-05,8.176974477054708e-07,2.39583372405422e-06
264,2.7543907070918346e-06,2.933302450383209e-06,9.001952012288904e-07,1.3254997793201943e-06,2.909739738173962e-06,1.4220619610204007e-06,1.316791751447627e-06,1.7412559347058414e-06,2.6969982778239083e-06,1.9420623837870965e-06,1.1945062151298573e-06,1.1871421937166272e-06,3.236272311853884e-06,2.2791342102533783e-05,8.127884319746116e-07,2.39180616541969e-06
265,2.7205165631715543e-06,2.818115689023195e-06,8.849816020492075e-07,1.3320969747762546e-06,2.96128835124709e-06,1.3945662291098942e-06,1.3315478541792036e-06,1.7580005608581795e-06,2.6268129491172627e-06,1.9593088757392147e-06,1.2184531919123777e-06,1.1443052780949946e-06,3.1716636157472096e-06,2.2804049196102694e-05,8.066795394686257e-07,2.3823854469590727e-06
266,2.6826919583937335e-06,2.7029028182824286e-06,8.721932074107638e-07,1.343582221878147e-06,3.009084493356416e-06,1.369558469306358e-06,1.3475926748933247e-06,1.7732612271118254e-06,2.5699174330360952e-06,1.9954510768685186e-06,1.2416596721939652e-06,1.1036423819815829e-06,3.1113462980898827e-06,2.2750694898448778e-05,7.994894180190026e-07,2.3691282838958785e-06
267,2.6411720146676108e-06,2.58902195942101e-06,8.61894748592393e-07,1.3593516387636847e-06,3.0527286194186026e-06,1.3469479420145637e-06,1.3648408108114492e-06,1.786699225099998e-06,2.525272324337815e-06,2.051093595343274e-06,1.263268503494888e-06,1.0656109286750313e-06,3.056423255857406e-06,2.263489852515272e-05,7.91393329604786e-07,2.3538295811925817e-06
268,2.595875317592664e-06,2.4776878163364003e-06,8.54085449207179e-07,1.378559807458309e-06,3.091485804359506e-06,1.3268454397449245e-06,1.3831154150609714e-06,1.7981134955968481e-06,2.491505464434852e-06,2.127078769206593e-06,1.2822685778527617e-06,1.03072902985011e-06,3.007599789869464e-06,2.2461808423500015e-05,7.825992138093582e-07,2.338191368880568e-06
269,2.5464446923202295e-06,2.3698021674850882e-06,8.487111104143373e-07,1.4001776401221802e-06,3.124367911382494e-06,1.309673544871917e-06,1.4021028651633692e-06,1.8074702189859777e-06,2.467137020496769e-06,2.2247173194564473e-06,1.297635552805974e-06,9.99496330695664e-07,2.965118755861931e-06,2.223612274132396e-05,7.733969101845924e-07,2.3236169580949943e-06
270,2.492481792291697e-06,2.2659977816366116e-06,8.456505248779692e-07,1.423133254283413e-06,3.150293899764237e-06,1.296097114617321e-06,1.4213182068517067e-06,1.8150162197210267e-06,2.4508523390267672e-06,2.3458630200284336e-06,1.3085337796315813e-06,9.723894757714222e-07,2.9288137482542333e-06,2.196041774578171e-05,7.64235895777395e-07,2.3111708739205877e-06
271,2.433892117901305e-06,2.1667038918145693e-06,8.447104156294052e-07,1.446546464820826e-06,3.1682504306277744e-06,1.28681481246614e-06,1.4400905086562242e-06,1.8212608750916861e-06,2.44167718411816e-06,2.4928225548155106e-06,1.3144971701448288e-06,9.498538728977544e-07,2.898217869018819e-06,2.16350852116719e-05,7.5578667381592e-07,2.3016106377049665e-06
272,2.3710970132419547e-06,2.0721562498083115e-06,8.456469030567109e-07,1.4698662846189147e-06,3.177370403832201e-06,1.2824057709953327e-06,1.4576139103325844e-06,1.8267693944592005e-06,2.4389070556607843e-06,2.6681933779674066e-06,1.315515112961292e-06,9.32293595703284e-07,2.8726295949873755e-06,2.1258609227975538e-05,7.489466212322611e-07,2.295352641759103e-06
273,2.3050084780612295e-06,1.9824124445520432e-06,8.482031877764129e-07,1.492755063628177e-06,3.176928588392726e-06,1.2833087170961052e-06,1.4730883079952025e-06,1.831915153063561e-06,2.4418934196141436e-06,2.8746914699451957e-06,1.3119485520182273e-06,9.200415506880327e-07,2.8512724034205697e-06,2.0828284917195446e-05,7.447662387557935e-07,2.2923879650191833e-06
274,2.236843114263016e-06,1.8974749676275838e-06,8.521877687425727e-07,1.5148634322811374e-06,3.166451048455451e-06,1.2898311440117935e-06,1.4858292498748677e-06,1.8367483348828725e-06,2.449909074485392e-06,3.1149294620782827e-06,1.3043323733977529e-06,9.133309479118525e-07,2.8336048466099568e-06,2.0343380446949235e-05,7.443386683372458e-07,2.292259861161759e-06
275,2.1678705210301206e-06,1.8175010122518183e-06,8.576078315503517e-07,1.5357504357946857e-06,3.1460417022946373e-06,1.302132124385297e-06,1.495302858564173e-06,1.8410376863288982e-06,2.4621379258846975e-06,3.3911773783519987e-06,1.2932328579721709e-06,9.123429597185194e-07,2.8194913553156358e-06,1.9810142727851817e-05,7.487095555634855e-07,2.2941302143289667e-06
276,2.0991972823998455e-06,1.742903625263141e-06,8.647480698452463e-07,1.5550054960211485e-06,3.116667362503539e-06,1.3202113532778714e-06,1.5012272678609387e-06,1.8444409380433405e-06,2.4777849559481187e-06,3.705196250718534e-06,1.2791651959623421e-06,9.173079811541337e-07,2.8090146923325808e-06,1.924471368768333e-05,7.588377787038104e-07,2.2968646364418675e-06
277,2.031700968871671e-06,1.6742108697469055e-06,8.74070060052836e-07,1.5724268990707781e-06,3.0800947669063945e-06,1.3438902983110886e-06,1.5037342160061905e-06,1.846706550467632e-06,2.4962870431389886e-06,4.058146745293717e-06,1.2624996981354227e-06,9.285292463803818e-07,2.8021460432010014e-06,1.867124290464167e-05,7.756229630241432e-07,2.299090186648269e-06
278,1.966090449267913e-06,1.6118079459142044e-06,8.860175620551086e-07,1.5880625674565736e-06,3.038528743701457e-06,1.372785837130309e-06,1.5033696772009182e-06,1.8477657747114489e-06,2.5173680569565213e-06,4.4505036757531934e-06,1.2434364395041711e-06,9.462955868252538e-07,2.7986615148106943e-06,1.8116801513033282e-05,7.999621128718701e-07,2.2992961090931676e-06
279,1.9029306575309708e-06,1.555770577925634e-06,9.008919851593881e-07,1.6020434292720782e-06,2.9942132084957317e-06,1.4063617492811906e-06,1.5009031984150407e-06,1.847644462310343e-06,2.540829347629459e-06,4.881944825757378e-06,1.2220959208912654e-06,9.707847155967318e-07,2.798402069524059e-06,1.7607068950666455e-05,8.327936826155245e-07,2.2960781333274715e-06
280,1.8426102103934078e-06,1.505840895716615e-06,9.188150123904393e-07,1.614359345271548e-06,2.9491274181379097e-06,1.4440803002804568e-06,1.497213972913852e-06,1.846392863054929e-06,2.566370756519531e-06,5.351242684755647e-06,1.198602864483372e-06,1.002027473398377e-06,2.801626141941454e-06,1.7164686424253508e-05,8.751945707837798e-07,2.2884560629367073e-06
281,1.7853956511684224e-06,1.461507709119552e-06,9.397335654594096e-07,1.6247614239815261e-06,2.9047966211842047e-06,1.4854998947037267e-06,1.493357618734203e-06,1.8442136585840714e-06,2.5935764133416807e-06,5.856170949304999e-06,1.1730795456189234e-06,1.039919861728862e-06,2.8091789338992414e-06,1.68091290174089e-05,9.285272013764954e-07,2.2760841359474824e-06
282,1.7315961017251074e-06,1.4221773815446343e-06,9.634769436222834e-07,1.6328238468662034e-06,2.8622525329054154e-06,1.5301787529399766e-06,1.4905860642891e-06,1.8415615503095047e-06,2.621953541620373e-06,6.39347376904476e-06,1.1456384900747548e-06,1.0842536258551257e-06,2.822405688152312e-06,1.655681061215944e-05,9.944496270383432e-07,2.259317387633993e-06
283,1.6816867416039264e-06,1.3873656083010656e-06,9.898710758575915e-07,1.6380585977701343e-06,2.8221208739299573e-06,1.5775002733408433e-06,1.490196401526652e-06,1.8390039157558554e-06,2.6510606281638935e-06,6.958925637585895e-06,1.1164752944389536e-06,1.134746844986039e-06,2.8428977568602948e-06,1.6421114170621085e-05,1.074747617239783e-06,2.2391948847721906e-06
284,1.6362718598557921e-06,1.3567926318047022e-06,1.018837197984831e-06,1.6399663202874688e-06,2.7847260553897973e-06,1.6266465777398595e-06,1.4933561875820482e-06,1.837058306022788e-06,2.6807001862898454e-06,7.547330667669025e-06,1.0859978106587906e-06,1.1910563590551229e-06,2.8721771248782866e-06,1.6412305199696978e-05,1.1711710697406188e-06,2.217289692037735e-06
285,1.5959454794940571e-06,1.330362300195688e-06,1.05038444168947e-06,1.6381240146555752e-06,2.75014059847677e-06,1.676741603556593e-06,1.5010413020509035e-06,1.8361798377953499e-06,2.710934952676704e-06,8.152432279260653e-06,1.0548499192441655e-06,1.2527924098099922e-06,2.911408289994975e-06,1.6537540753833937e-05,1.2853841064222228e-06,2.195386060472192e-06
286,1.5611900237981292e-06,1.3080977278548504e-06,1.084495453893918e-06,1.6324268033979e-06,2.7182163975127414e-06,1.7269818655394047e-06,1.5140623944779781e-06,1.8367450340709488e-06,2.7418683048005103e-06,8.767107905988482e-06,1.0238000603011368e-06,1.3195630809528061e-06,2.961209823540066e-06,1.6800999372547443e-05,1.419013984397559e-06,2.1751887603006237e-06
287,1.532370837952536e-06,1.2900765692542422e-06,1.120996076814127e-06,1.6232732279057645e-06,2.688687179068746e-06,1.77661593236395e-06,1.5330894076461966e-06,1.8389884899562406e-06,2.7734144275426393e-06,9.384093522216157e-06,9.935840810783697e-07,1.3910159979374946e-06,3.0215571444767016e-06,1.720375775106228e-05,1.5737212154912457e-06,2.158276584853859e-06
288,1.5097684414875068e-06,1.2763521382554376e-06,1.159488456139163e-06,1.6114934624680773e-06,2.6613622198124434e-06,1.8248156079433493e-06,1.5586628076638727e-06,1.8430301323239596e-06,2.8052350785363512e-06,9.996839747195443e-06,9.647949047646435e-07,1.4668289357821019e-06,3.091731465999039e-06,1.7743505759536342e-05,1.7511864050138646e-06,2.1461857362724505e-06
289,1.4935388582752056e-06,1.2668622031151388e-06,1.1993495964554528e-06,1.5981318842620945e-06,2.6363011656339677e-06,1.8706239734806033e-06,1.591248650248034e-06,1.848961950113468e-06,2.8367986607548244e-06,1.0599889421523544e-05,9.378624923626889e-07,1.546626664548483e-06,3.1703027213241273e-06,1.8414433122843082e-05,1.953029296472026e-06,2.1403909033385133e-06
290,1.4836025244421484e-06,1.2613977249294816e-06,1.2397920209407892e-06,1.5842443170566887e-06,2.613812605842608e-06,1.9131277244806757e-06,1.6312879323039995e-06,1.856860168963769e-06,2.8674491805938217e-06,1.1188572500174719e-05,9.131111299356277e-07,1.6298675038992187e-06,3.2551910673646207e-06,1.920714966458868e-05,2.1807634001945556e-06,2.1421517237040948e-06
291,1.4795840983434497e-06,1.259688425446928e-06,1.2799956598023147e-06,1.5707410106896444e-06,2.594233553514643e-06,1.951743229404342e-06,1.6791242789978833e-06,1.8666983639857735e-06,2.896431540361395e-06,1.1758287946641213e-05,8.908170990972593e-07,1.715820190911836e-06,3.343953307198794e-06,2.0108628567873764e-05,2.4357635450724453e-06,2.1523726030847445e-06
292,1.4808442001905374e-06,1.261507214419912e-06,1.319251328583452e-06,1.5582721705472934e-06,2.577639862120688e-06,1.986312408405299e-06,1.7348519657040462e-06,1.878239689731191e-06,2.9228926847999965e-06,1.2303717663952236e-05,8.711976873029467e-07,1.8036809426787308e-06,3.4343152285788446e-06,2.1102255082444312e-05,2.7191782127523655e-06,2.1716139505650126e-06
293,1.486526616023619e-06,1.266651622311748e-06,1.357047027477507e-06,1.5471904777972931e-06,2.5637052781276707e-06,2.0168973343489687e-06,1.7982279109743367e-06,1.8910298021191516e-06,2.946072494133407e-06,1.2818283730188693e-05,8.543630060872806e-07,1.8927207951326073e-06,3.524574632549837e-06,2.2167763479715345e-05,3.0318396729355117e-06,2.200214001687139e-06
294,1.4955683745200115e-06,1.2748364280767224e-06,1.3931041787877745e-06,1.5376063313317452e-06,2.551785467402959e-06,2.043536769897924e-06,1.8686687535023564e-06,1.9045378690639956e-06,2.9657616780066354e-06,1.3294521870598898e-05,8.402983380697208e-07,1.9823322699877883e-06,3.6135141832924243e-06,2.32813658514187e-05,3.3742044806399287e-06,2.2383527608797748e-06
295,1.506699499237653e-06,1.2856341106241844e-06,1.4273774375629577e-06,1.5294689225887472e-06,2.541137192204985e-06,2.0662282917045705e-06,1.945263897633871e-06,1.9183487458936257e-06,2.9825389706139286e-06,1.3725612203537124e-05,8.288676923745952e-07,2.071969920323442e-06,3.7000659403732794e-06,2.4416407768864998e-05,3.7462813313948725e-06,2.286024173571547e-06
296,1.5185014694350434e-06,1.2985470693721404e-06,1.4599901345489006e-06,1.5225925986140888e-06,2.531170425332391e-06,2.0850157266598764e-06,2.0268073756748824e-06,1.932253916277029e-06,2.9974242135190185e-06,1.410685677825777e-05,8.198088606708274e-07,2.1610808662661363e-06,3.7832203392399943e-06,2.5543642901067756e-05,4.1475442716965e-06,2.343019827966263e-06
297,1.52961740664494e-06,1.3131865094536637e-06,1.4910933046142758e-06,1.5166499433261496e-06,2.5216878874255436e-06,2.0999306100725148e-06,2.1118793980786234e-06,1.9461544979044776e-06,3.0113027231252983e-06,1.4435740294372463e-05,8.127765789680937e-07,2.249092637659777e-06,3.862107118793208e-06,2.6630233439493305e-05,4.5768248469475636e-06,2.4089091625867244e-06
298,1.5390676665184587e-06,1.3294061924289118e-06,1.52070435811667e-06,1.5112218023425877e-06,2.51304045872617e-06,2.110813600930471e-06,2.1989530947938633e-06,1.9598383132842086e-06,3.0245782753086405e-06,1.4710651265436006e-05,8.074709917359054e-07,2.3354075430682235e-06,3.935894135980327e-06,2.7638620135482006e-05,5.032150325176047e-06,2.4829726135725242e-06
299,1.5463789387935813e-06,1.3473031979350698e-06,1.54862661211777e-06,1.5059251654060034e-06,2.5060674368502416e-06,2.117228505955017e-06,2.2865259300395237e-06,1.9728048808613464e-06,3.0371570258982553e-06,1.4929723302188623e-05,8.037315962555083e-07,2.4193219135450535e-06,4.003732130374113e-06,2.852801137334021e-05,5.510564517329567e-06,2.564155760740682e-06
300,1.5514015793095969e-06,1.367149361627507e-06,1.5744886550436397e-06,1.5005442271500107e-06,2.50178381993752e-06,2.1186038809657883e-06,2.373287981702522e-06,1.984283239385291e-06,3.048716251229407e-06,1.5091323442828808e-05,8.015049491943071e-07,2.499890938874051e-06,4.064974064140442e-06,2.92600775279664e-05,6.0080126794278565e-06,2.6510523539109252e-06
301,1.554071417252052e-06,1.389289402029992e-06,1.5978387551854782e-06,1.4950749211776042e-06,2.501015600767403e-06,2.114541108304087e-06,2.4582430628460654e-06,1.9934362950131996e-06,3.059085622765157e-06,1.5195817839357974e-05,8.007758708808473e-07,2.575815783922458e-06,4.119185495357035e-06,2.980679869742949e-05,6.519276344944456e-06,2.741892127644327e-06
302,1.5542898248381268e-06,1.414028416618883e-06,1.6182469123940172e-06,1.4896464729933226e-06,2.5042490884952744e-06,2.105054644047302e-06,2.540684932252279e-06,1.9995778473682057e-06,3.0684131623919613e-06,1.5246577300039036e-05,8.01540233918785e-07,2.645420982335289e-06,4.165714006776163e-06,3.0155566165965884e-05,7.037849273665372e-06,2.8345533795633806e-06
303,1.5518593900489797e-06,1.441566061075295e-06,1.6354064527576627e-06,1.4844084189926987e-06,2.511698626949924e-06,2.090572092490143e-06,2.6200632377273625e-06,2.0022240810053e-06,3.0769692327359744e-06,1.5249285494118993e-05,8.037806783342724e-07,2.7067507855113997e-06,4.203296553258364e-06,3.030781898000612e-05,7.555738899959321e-06,2.926583208855698e-06
304,1.5464827710779417e-06,1.4719713209362405e-06,1.6491539161375522e-06,1.4795267733416503e-06,2.5233590145738314e-06,2.071724449688672e-06,2.6958612770607004e-06,2.00096628440193e-06,3.084824980943373e-06,1.5210538087418113e-05,8.074147120888676e-07,2.7577334410933176e-06,4.230158619501914e-06,3.0273152718813798e-05,8.06331520290147e-06,3.015231639043704e-06
305,1.5378825921404955e-06,1.5052146223773512e-06,1.659344642902561e-06,1.4752366808594383e-06,2.538936579027173e-06,2.049062989306324e-06,2.767566702237543e-06,1.9953443789245738e-06,3.091724327749402e-06,1.5136750015560565e-05,8.122518294433134e-07,2.7963842235298933e-06,4.244637578742532e-06,3.0065200386509124e-05,8.54935633442255e-06,3.09749655392773e-06
306,1.525968645527053e-06,1.541278848794475e-06,1.6657171368702706e-06,1.4717681968383306e-06,2.5578185867127814e-06,2.0228817826970936e-06,2.8347100526313595e-06,1.9849465481181587e-06,3.097190305351614e-06,1.5033852337737334e-05,8.179892969077208e-07,2.8210725239050136e-06,4.245743410466619e-06,2.9701271903491783e-05,9.001422465485535e-06,3.170169704665549e-06
307,1.510911574788795e-06,1.5802083826707834e-06,1.6679335311091268e-06,1.4691798948455265e-06,2.5791925807311334e-06,1.9932785750272295e-06,2.8968343949329017e-06,1.9696860716373397e-06,3.1007119219306645e-06,1.4908368956277624e-05,8.242465041747422e-07,2.8308168625749707e-06,4.233034079076697e-06,2.920169082064138e-05,9.406642633781153e-06,3.2300257541971444e-06
308,1.49305646409087e-06,1.6220080906462256e-06,1.6657550442953345e-06,1.467292277962255e-06,2.6021852050368746e-06,1.9604247237536936e-06,2.9533301761296498e-06,1.949903280749704e-06,3.1019330013451114e-06,1.4769271839917711e-05,8.306543364575055e-07,2.8255142522774434e-06,4.206268127032919e-06,2.8586985604100962e-05,9.752926855065676e-06,3.274246146427128e-06
309,1.4727384223486728e-06,1.6665231205933007e-06,1.6591268637042235e-06,1.4657874466831456e-06,2.6259178022035345e-06,1.924872827052526e-06,3.003342018475523e-06,1.926115822550061e-06,3.100808236280349e-06,1.4628493136051396e-05,8.369615367382063e-07,2.8060337694359656e-06,4.165586913513367e-06,2.787490695924271e-05,1.0030416376404337e-05,3.300902251581368e-06
310,1.4501533359305526e-06,1.713421967856094e-06,1.6480665578702627e-06,1.4644141120042916e-06,2.649578588393791e-06,1.8876761701801447e-06,3.0459110024126137e-06,1.8986927952401554e-06,3.0976305654411665e-06,1.4499328053594477e-05,8.430528356924195e-07,2.774145181305164e-06,4.111974892140023e-06,2.7079040295613257e-05,1.0232565394355843e-05,3.3092515593418853e-06
311,1.4254046348110133e-06,1.7622601910684324e-06,1.6325009155392511e-06,1.463187021748999e-06,2.6725770204545523e-06,1.8502057779861443e-06,3.0801445477128645e-06,1.8678133327911665e-06,3.09289713105728e-06,1.439421437354906e-05,8.488876046768279e-07,2.732251063783328e-06,4.047453129712605e-06,2.621036847253867e-05,1.0356002186110368e-05,3.2996474107137205e-06
312,1.3986811083160103e-06,1.812510327889429e-06,1.6122599337972956e-06,1.4624685699353867e-06,2.6946408884566775e-06,1.8138192111058368e-06,3.1052020314827925e-06,1.8337155250866176e-06,3.0871487310378542e-06,1.4323248320427983e-05,8.544598804539537e-07,2.6829635905642898e-06,3.974871274683494e-06,2.528174539483731e-05,1.0399092203829637e-05,3.2730592177863907e-06
313,1.3703646116402607e-06,1.8635124845828042e-06,1.5872497273292727e-06,1.4628978511333748e-06,2.7157169887005186e-06,1.779630192900722e-06,3.120188409047258e-06,1.7969291400293918e-06,3.080944061455198e-06,1.4293521839719933e-05,8.597773358826939e-07,2.6287748384165544e-06,3.89734454700991e-06,2.4311841518193793e-05,1.0360704121791627e-05,3.2306908841353887e-06
314,1.3409465748795958e-06,1.914446806087613e-06,1.5576425022899198e-06,1.4652167085732952e-06,2.735767698013481e-06,1.7484312853975146e-06,3.124143590547008e-06,1.7582373139261379e-06,3.074943659129124e-06,1.4308912211799435e-05,8.648304565928149e-07,2.571995387944236e-06,3.817607939090521e-06,2.3324784449587972e-05,1.024071055520567e-05,3.1741377122846507e-06
315,1.3108852250039424e-06,1.9643795077083327e-06,1.5239511673906234e-06,1.4700908363771822e-06,2.754661940124813e-06,1.720700260957361e-06,3.116226212318082e-06,1.7184264512140267e-06,3.06989580348561e-06,1.4370034140414789e-05,8.696085396594269e-07,2.5147706844306303e-06,3.7376487676132014e-06,2.2346069973895428e-05,1.0041645286987551e-05,3.1057237645736624e-06
316,1.2805621334895567e-06,2.012313296333228e-06,1.4869787716215222e-06,1.4780135310833276e-06,2.7721820078087453e-06,1.6966902483801096e-06,3.0960657001920105e-06,1.6780796781431518e-06,3.066423206678647e-06,1.4474157568782562e-05,8.7415866823978e-07,2.458980443510792e-06,3.6587026931286645e-06,2.1398507604563492e-05,9.76976605292461e-06,3.0284474143874015e-06
317,1.2503373385717956e-06,2.0572135229934037e-06,1.447683802079728e-06,1.4892770459868297e-06,2.7879892419152315e-06,1.6765805979090482e-06,3.0641124454578892e-06,1.6375197488465631e-06,3.0648245323659368e-06,1.4615106127321612e-05,8.785936434200597e-07,2.406135136652779e-06,3.5814986847850316e-06,2.0500440533365565e-05,9.434780353526594e-06,2.94556728519503e-06
318,1.2206519834134167e-06,2.0980498214247293e-06,1.4070395202966524e-06,1.5039367196321517e-06,2.801501017327309e-06,1.6605686320692777e-06,3.0217459286042335e-06,1.5968250834808815e-06,3.0651458674619812e-06,1.4783243588513581e-05,8.830629935167728e-07,2.357421753165341e-06,3.5065756804130936e-06,1.966558890801888e-05,9.048691704602604e-06,2.8601939436077808e-06
319,1.1920718911320048e-06,2.1338865691103564e-06,1.3659742020070678e-06,1.5217762611741084e-06,2.811872264665901e-06,1.6488595262345666e-06,2.9710116738519583e-06,1.5559213031471759e-06,3.067447803638169e-06,1.4965606930959578e-05,8.877838416404065e-07,2.313824658402263e-06,3.4344102715789163e-06,1.8903247976459125e-05,8.624420807337161e-06,2.7750519016817538e-06
320,1.165195614667809e-06,2.1640185611206554e-06,1.3253576329451116e-06,1.5423689583082057e-06,2.8182348116602323e-06,1.641637106217274e-06,2.9141176315122024e-06,1.5147979160687149e-06,3.071978055063572e-06,1.5146471649869565e-05,8.930784866215525e-07,2.276169697149031e-06,3.365263138840361e-06,1.8218727835849757e-05,8.174559116487758e-06,2.692365195960325e-06
321,1.1405690685716009e-06,2.188095422170804e-06,1.2859527754467512e-06,1.5652721721289181e-06,2.8200210670630086e-06,1.6390489236694046e-06,2.8530260402241894e-06,1.4737327578980712e-06,3.079095716797902e-06,1.530872125440225e-05,8.99309013170585e-07,2.245079554002734e-06,3.2990161962691837e-06,1.7614380869008303e-05,7.71047768862462e-06,2.6138334895280553e-06
322,1.1187558017684648e-06,2.2061494671680034e-06,1.248370245466338e-06,1.590225556238879e-06,2.8170792947637782e-06,1.641208650695547e-06,2.789382278140196e-06,1.4333247821007033e-06,3.089020383544057e-06,1.543580803256488e-05,9.067687368100086e-07,2.2209004880080534e-06,3.2352415205982016e-06,1.709072089350623e-05,7.241911067557753e-06,2.5406834586415106e-06
323,1.1004783935898726e-06,2.2184680960232916e-06,1.213070174530512e-06,1.6171657276583306e-06,2.809566793694309e-06,1.648284956058364e-06,2.724692745935856e-06,1.394326958196046e-06,3.101567268762734e-06,1.5513562555831578e-05,9.156274160567535e-07,2.2036236491934993e-06,3.1734159948138565e-06,1.6646750247075355e-05,6.776906381192279e-06,2.473703208454529e-06
324,1.0866686604626578e-06,2.225379727555375e-06,1.1803658915872204e-06,1.6460617646714689e-06,2.7978224671185355e-06,1.6606246876596632e-06,2.6604754987392383e-06,1.3575000025953866e-06,3.1159928439580996e-06,1.5531182024071587e-05,9.259198427061634e-07,2.192835209562965e-06,3.1131344234592705e-06,1.627967148260802e-05,6.32192689290091e-06,2.4132151136813598e-06
325,1.0783802598420585e-06,2.227188776330634e-06,1.1504038581270256e-06,1.6767728165547162e-06,2.7822675296286317e-06,1.6787212181285017e-06,2.598219060210756e-06,1.323599683537552e-06,3.1309763256559166e-06,1.548081725164571e-05,9.375424750712097e-07,2.187785770795866e-06,3.0542498987341225e-06,1.5984967915541545e-05,5.881963387534527e-06,2.3590825205749055e-06
326,1.0766326278992882e-06,2.2243429526240087e-06,1.1231720467135252e-06,1.709021619285544e-06,2.7632755665606883e-06,1.703032495187841e-06,2.539217805224061e-06,1.293353144478155e-06,3.144774346443722e-06,1.5355960333463658e-05,9.502523614108814e-07,2.187653656481597e-06,2.9968459326120897e-06,1.5756835230150745e-05,5.4606639395116755e-06,2.310775727424589e-06
327,1.0822799833567194e-06,2.217565433841494e-06,1.098584572521753e-06,1.7423901423357214e-06,2.7411220814851727e-06,1.7338324433049754e-06,2.484477838296388e-06,1.267349134499802e-06,3.1556721692373906e-06,1.5150871045232837e-05,9.636914359336998e-07,2.1919054000568328e-06,2.940997082567265e-06,1.5588040742573615e-05,5.06052337135025e-06,2.267377469954425e-06
328,1.0959490077031298e-06,2.2077556099333084e-06,1.0765990317480385e-06,1.776314557198646e-06,2.7160751561623523e-06,1.7711655283295652e-06,2.434803526288836e-06,1.245952085194529e-06,3.1625908147564436e-06,1.4862746938555623e-05,9.7744781695005e-07,2.2005085423566824e-06,2.8864517385630756e-06,1.5469241567370478e-05,4.683023388209886e-06,2.227515439474026e-06
