,EMG1,EMG2,EMG3,EMG4,EMG5,EMG6,EMG7,EMG8,EMG9,EMG10,EMG11,EMG12,EMG13,EMG14,EMG15,EMG16
0,7.202320862302914e-07,1.6754721186094603e-07,3.669403544190818e-08,1.245310565759591e-06,5.705836427866501e-07,1.4375259569652773e-07,-2.929478386960027e-07,5.771898696951916e-07,1.0549571971448622e-06,1.8595146866405831e-06,7.2715129239343385e-06,1.5509610044675294e-06,-1.7963051918012892e-07,-6.214066937072734e-07,3.125559561544567e-07,8.95447606729996e-08
1,8.248035679063619e-07,2.2703024495457805e-07,2.0516290628037198e-07,1.322553838824313e-06,6.937994589380778e-07,8.048313495177027e-07,6.094360327519437e-08,7.207162628291504e-07,1.4049550884952513e-06,2.3968220080714297e-06,8.242638816761477e-06,2.091149927624378e-06,4.3042452255965415e-07,1.9849115485144266e-06,4.2970808483297213e-07,2.3691637604048793e-07
2,9.298689600105841e-07,2.8877123264312457e-07,3.702301450730629e-07,1.4086324329940847e-06,8.264080453430264e-07,1.4469645355563375e-06,4.0136349195639025e-07,8.677101829531472e-07,1.7535846327125398e-06,2.91386768017994e-06,9.278468662652244e-06,2.628978124081952e-06,1.0241935367048317e-06,4.453721756213646e-06,5.469308802418407e-07,3.836202763731395e-07
3,1.0332405949586067e-06,3.5212264240739294e-07,5.307677678984453e-07,1.5033435376224065e-06,9.68439247274983e-07,2.065840402460752e-06,7.257705269034431e-07,1.015655282720611e-06,2.0952526477610624e-06,3.3984358582851267e-06,1.0374219144658687e-05,3.1605893190375924e-06,1.5951409374783796e-06,6.749011260857524e-06,6.624833806207812e-07,5.284084532477545e-07
4,1.1327283657173546e-06,4.1665551643868113e-07,6.857479276977159e-07,1.60632374518577e-06,1.120016084268539e-06,2.657167178755571e-06,1.0317406979357564e-06,1.1624451619087525e-06,2.425848641772005e-06,3.839208449889208e-06,1.1523281470760278e-05,3.68190569978962e-06,2.1374137867447024e-06,8.838604560918619e-06,7.74702664287743e-07,6.702934459109016e-07
5,1.2262367821200144e-06,4.820759683702362e-07,8.342058732776943e-07,1.7170829301013354e-06,1.2813278488113292e-06,3.2168543852572813e-06,1.3170201856990615e-06,1.3064589848355675e-06,2.743129440439111e-06,4.226969342601476e-06,1.2716857366894346e-05,4.188673316206923e-06,2.6462978246666506e-06,1.06957183593915e-05,8.821498788921968e-07,8.086051429621966e-07
6,1.3119761053675978e-06,5.480953634157725e-07,9.751857162761519e-07,1.8349563474484154e-06,1.4526262262105734e-06,3.7413304310938665e-06,1.5796228382090741e-06,1.446536686068136e-06,3.0465412907221786e-06,4.555488715236781e-06,1.3943560149022278e-05,4.676350346109623e-06,3.118589867614465e-06,1.230020692060719e-05,9.837741230920096e-07,9.428456244819844e-07
7,1.3887167117839615e-06,6.143544677184397e-07,1.1077058795911606e-06,1.959007010507893e-06,1.6341884963868344e-06,4.227814273315253e-06,1.8179967548068161e-06,1.5819749614044641e-06,3.336491030065449e-06,4.8217399584374386e-06,1.5189157267609832e-05,5.140102177953644e-06,3.5524965336187617e-06,1.3639616038268524e-05,1.0789437968803309e-06,1.072490850450403e-06
8,1.4558783610785196e-06,6.804145651192328e-07,1.2307381530142098e-06,2.0879868673552614e-06,1.8262110586769187e-06,4.674533292734163e-06,2.0312933217989953e-06,1.7125177978443773e-06,3.613537982158151e-06,5.025605475372173e-06,1.643648537157734e-05,5.575147902275247e-06,3.947051455158764e-06,1.4710342080278937e-05,1.1672970039875503e-06,1.1969104660684362e-06
9,1.5133266249257464e-06,7.457792162387757e-07,1.3432060461406217e-06,2.220362264448627e-06,2.0287242458294654e-06,5.080990220995823e-06,2.219666205964314e-06,1.8382199567866628e-06,3.877963777051485e-06,5.16925882378863e-06,1.7665335970044883e-05,5.977155029794881e-06,4.301732986104141e-06,1.551852170295518e-05,1.2485326611404014e-06,1.3154284292095482e-06
10,1.5610468053177814e-06,8.099046199883935e-07,1.444082582375354e-06,2.3543362749041807e-06,2.2415686933653407e-06,5.44821329390047e-06,2.3844078410037705e-06,1.959176396162695e-06,4.129770019475452e-06,5.256236214839134e-06,1.885219008310269e-05,6.342299026411256e-06,4.616656955309015e-06,1.6079656851241587e-05,1.3222863119491733e-06,1.4274351807412335e-06
11,1.5990113759793689e-06,8.72205635048915e-07,1.5326338163563622e-06,2.4879269990383834e-06,2.464356513754636e-06,5.778662092574962e-06,2.527737174410286e-06,2.0752503697728914e-06,4.368800063315461e-06,5.290403281102807e-06,1.9970143309332724e-05,6.666912726324601e-06,4.892770882962389e-06,1.641657391977632e-05,1.3881310378679762e-06,1.5324340647101256e-06
12,1.6273147561505248e-06,9.320946354198714e-07,1.6086608867430636e-06,2.619214243767069e-06,2.696369670577312e-06,6.075567367910983e-06,2.652267515785539e-06,2.185914859382444e-06,4.594675808052738e-06,5.275493718134714e-06,2.098979207816952e-05,6.946936354418852e-06,5.131612237717403e-06,1.655646746550495e-05,1.445628398445371e-06,1.6300294405216469e-06
13,1.646346354617644e-06,9.890536165875538e-07,1.6725605033115703e-06,2.746614815362624e-06,2.9364368150864607e-06,6.342106849063691e-06,2.7604564727343633e-06,2.290213211591905e-06,4.8066492217600295e-06,5.215546269239377e-06,2.1881699321364905e-05,7.1778374137564455e-06,5.334995454258451e-06,1.6528040816342773e-05,1.4943627798718299e-06,1.7199853365128312e-06
14,1.656833100640755e-06,1.0427185546357011e-06,1.7252113980301263e-06,2.8689194818370503e-06,3.182888660119712e-06,6.5810792849292945e-06,2.8543267706594734e-06,2.386793849290045e-06,5.0036734404022986e-06,5.11552675128631e-06,2.2620127113570107e-05,7.355495158132221e-06,5.50506883799927e-06,1.6359211237797233e-05,1.5339426317465757e-06,1.8023913947413804e-06
15,1.6598419385054975e-06,1.0929089242047456e-06,1.7677840178537999e-06,2.9850983688112132e-06,3.4336288736679165e-06,6.7950643039557955e-06,2.9355001534941977e-06,2.4739694031508536e-06,5.184636491298243e-06,4.9813524079006375e-06,2.3186465057384514e-05,7.477403255964803e-06,5.644673024099496e-06,1.6075567400473476e-05,1.5639639714084086e-06,1.8777932690782348e-06
16,1.6568272154216105e-06,1.1395476265010175e-06,1.8015212100123342e-06,3.094135685468771e-06,3.6861939330812557e-06,6.986456620222968e-06,3.0054252128907594e-06,2.5498196547030315e-06,5.348491214427327e-06,4.819410339457731e-06,2.3570123947776433e-05,7.542982921501873e-06,5.757619666687558e-06,1.569983220258567e-05,1.5840492252962546e-06,1.947114036890386e-06
17,1.6495922760828963e-06,1.1826008108301297e-06,1.8275467417070145e-06,3.195059254280242e-06,3.9377577072581365e-06,7.157091121214377e-06,3.0656285919196745e-06,2.61243291139234e-06,5.49424401918532e-06,4.6360797688392596e-06,2.3766006100518442e-05,7.552744339529457e-06,5.8486100313397075e-06,1.5252182654087716e-05,1.5940568163832567e-06,2.0113695711984977e-06
18,1.640071400760476e-06,1.2221639606267322e-06,1.8467702337478079e-06,3.2870739597322624e-06,4.185304447865414e-06,7.3078586292672555e-06,3.1178399212111e-06,2.6602189706879004e-06,5.620906536236543e-06,4.437461807608795e-06,2.3771154146000177e-05,7.5075004711437926e-06,5.922733566060683e-06,1.475071644189991e-05,1.594270255395784e-06,2.0713727685055885e-06
19,1.6300929030213868e-06,1.258559234778362e-06,1.8598751658515614e-06,3.369643853720598e-06,4.4260812808623225e-06,7.438798067010699e-06,3.1639360744887093e-06,2.692083229138774e-06,5.727471404244119e-06,4.229209942893556e-06,2.3584537760408455e-05,7.408777570735046e-06,5.984728115381707e-06,1.4211614888796115e-05,1.5853467688886444e-06,2.127592904253435e-06
20,1.6212982686675e-06,1.29228968071143e-06,1.8673862579803143e-06,3.442514038838641e-06,4.658054858944549e-06,7.5496116644171515e-06,3.2057511633344373e-06,2.7074659560741362e-06,5.81296329313717e-06,4.0164276396280565e-06,2.3210086195186022e-05,7.259895596469419e-06,6.03842740661676e-06,1.3649155080993719e-05,1.5681388883347134e-06,2.1801423822710542e-06
21,1.6151686996793302e-06,1.32389972949304e-06,1.8698625172694096e-06,3.505732527751266e-06,4.880046808683427e-06,7.640200072611164e-06,3.2448683520841765e-06,2.7064094084177332e-06,5.876607399942554e-06,3.803676092872092e-06,2.2659388596710377e-05,7.066460978058458e-06,6.086655502817564e-06,1.3075787572698099e-05,1.543621570483935e-06,2.2287691422878026e-06
22,1.613028624466575e-06,1.353842238259848e-06,1.8680979736788737e-06,3.5596282630927526e-06,5.091518128236438e-06,7.71094378069547e-06,3.282493052600236e-06,2.689570621520512e-06,5.918043101185004e-06,3.5949848147778313e-06,2.195172082375857e-05,6.835823574984638e-06,6.13141060744804e-06,1.2502296877717058e-05,1.5128884486357996e-06,2.272811704508826e-06
23,1.616016366079242e-06,1.3823838636573263e-06,1.8630949677020665e-06,3.6046215623898827e-06,5.292248345806697e-06,7.762686450618215e-06,3.319382990076445e-06,2.657989799492513e-06,5.937377402863057e-06,3.39375664900033e-06,2.1111866490661176e-05,6.575910782024441e-06,6.1741483814525595e-06,1.1938008783085522e-05,1.4770755963127966e-06,2.311187197928449e-06
24,1.6250648889866102e-06,1.4095559391632327e-06,1.8558284074334516e-06,3.640887556089215e-06,5.4821955625807525e-06,7.796482966165417e-06,3.355766534704233e-06,2.6128320440116607e-06,5.9349328362180574e-06,3.2026776617646743e-06,2.0167141084419953e-05,6.294225708164053e-06,6.216083926653927e-06,1.1390941660972208e-05,1.437268612176549e-06,2.3425271524366906e-06
25,1.6408786421379942e-06,1.4351472872799731e-06,1.8470624103480178e-06,3.6681501373290314e-06,5.661575408324015e-06,7.81313539405319e-06,3.3913355730945194e-06,2.555445445582421e-06,5.910774905254681e-06,3.023767228579113e-06,1.9144643145461274e-05,5.9975233550065525e-06,6.258365577468712e-06,1.0867737102349965e-05,1.3944585850703276e-06,2.3654782606340575e-06
26,1.6638981117275993e-06,1.4587089708653215e-06,1.8373241723275747e-06,3.685808639355851e-06,5.830897741596845e-06,7.81260922299162e-06,3.425434926685764e-06,2.487569440614467e-06,5.864357999938684e-06,2.8584913369774783e-06,1.806917205305149e-05,5.691960265082502e-06,6.302032889361679e-06,1.0373397336670306e-05,1.3495246440254849e-06,2.3790363178365343e-06
27,1.6942745292617921e-06,1.479590296013998e-06,1.8269181459786914e-06,3.693218192296934e-06,5.99070681374967e-06,7.79374587818634e-06,3.4573466565038463e-06,2.411334979113645e-06,5.794741928273091e-06,2.707841369867917e-06,1.6962005359366547e-05,5.383244468785008e-06,6.347849967368603e-06,9.911074198804424e-06,1.3032755232942623e-06,2.3827989480160444e-06
28,1.731854996997211e-06,1.4970844617613053e-06,1.815935517620204e-06,3.6898628131382096e-06,6.1410731148751985e-06,7.754588275537642e-06,3.486470956367138e-06,2.3290379111511764e-06,5.7014134048433815e-06,2.572494216470501e-06,1.5840651777577192e-05,5.076603048284245e-06,6.3962018519687566e-06,9.482079694755727e-06,1.2565383208885048e-06,2.377105346421443e-06
29,1.776159974142928e-06,1.5106675751151078e-06,1.8043418212370244e-06,3.6754120583202e-06,6.281154998575427e-06,7.693032527255063e-06,3.5123470227545153e-06,2.2428595104106878e-06,5.585130874286286e-06,2.4530543241377028e-06,1.4719325871987971e-05,4.776629991251074e-06,6.4472255324711305e-06,9.086083490106234e-06,1.2101967649220729e-06,2.363018287086189e-06
30,1.8263797354418775e-06,1.520149220378131e-06,1.7921359614712083e-06,3.649766456849392e-06,6.409134323899269e-06,7.607404296043219e-06,3.5346069488683212e-06,2.154652582605173e-06,5.448297499239232e-06,2.350099010732796e-06,1.360958433678959e-05,4.487127484541453e-06,6.501127849274389e-06,8.721425209256016e-06,1.1651536373381008e-06,2.3421301372771203e-06
31,1.881456889628896e-06,1.5255927052369811e-06,1.7794525704003524e-06,3.6131119511452357e-06,6.522524834573425e-06,7.496887490801262e-06,3.552992495926677e-06,2.0658644270292894e-06,5.294842485136076e-06,2.2640112968057775e-06,1.2520807964875941e-05,4.211021476072622e-06,6.55834482033308e-06,8.385596961061948e-06,1.122266786425544e-06,2.316266119339335e-06
32,1.940242718733291e-06,1.5271602132763898e-06,1.7665399105074097e-06,3.5659530029447922e-06,6.6185854493525915e-06,7.361809286400482e-06,3.5674388235227153e-06,1.977634739870874e-06,5.129780951401727e-06,2.194867315339736e-06,1.1460583749632761e-05,3.950365442382448e-06,6.619239390579465e-06,8.075881474385157e-06,1.082283702051373e-06,2.2871892812669516e-06
33,2.001626495034691e-06,1.525102669750687e-06,1.7536723609815407e-06,3.509122838005904e-06,6.694650618529231e-06,7.2037331336502875e-06,3.5780738521473246e-06,1.8909923767670136e-06,4.958690368505082e-06,2.1424664685305e-06,1.0435065972864122e-05,3.7064049000023143e-06,6.68349243387377e-06,7.789829332056425e-06,1.0457857166999256e-06,2.25639138748783e-06
34,2.064571541618383e-06,1.5198164275926726e-06,1.7410760920845136e-06,3.4437771816060763e-06,6.7483970138801e-06,7.025345712559566e-06,3.5850552377286727e-06,1.8069738870137332e-06,4.787317651811117e-06,2.106450406422518e-06,9.44927782495216e-06,3.479678721279475e-06,6.749696852198984e-06,7.525236633425603e-06,1.0131666282520537e-06,2.225010623367129e-06
35,2.1280612327723577e-06,1.5118277510063293e-06,1.7288693073485198e-06,3.371379235340695e-06,6.778098764702802e-06,6.830154342221669e-06,3.588403041670051e-06,1.726573040897818e-06,4.621303756376992e-06,2.0863985090875998e-06,8.507345171566014e-06,3.2701773029305386e-06,6.815441068343698e-06,7.279667568506455e-06,9.84637642484724e-07,2.1938279810793706e-06
36,2.191062942539858e-06,1.501759909716147e-06,1.7169842171362775e-06,3.2937110989456866e-06,6.782851331346947e-06,6.622038457914426e-06,3.588029823132147e-06,1.6506307592230922e-06,4.465894649432318e-06,2.0817780332302066e-06,7.6127261644355e-06,3.0775878240337236e-06,6.877700223659681e-06,7.0499556950495524e-06,9.602355354977729e-07,2.1632522014072537e-06
37,2.252669578668342e-06,1.4903416276515425e-06,1.7051108800649235e-06,3.2129078016358808e-06,6.762702444005359e-06,6.404733662900386e-06,3.5839422058532817e-06,1.5798315325638172e-06,4.325642661901602e-06,2.091810840726577e-06,6.768414725471373e-06,2.9015602722699496e-06,6.933279951972325e-06,6.832174159677971e-06,9.398671503900994e-07,2.133314699660103e-06
38,2.312326418573203e-06,1.4784005095015453e-06,1.69275032486124e-06,3.1314041584358093e-06,6.718640827522178e-06,6.181339540276684e-06,3.576402927165295e-06,1.514808066543551e-06,4.204202546711165e-06,2.1154437756794926e-06,5.977006862517085e-06,2.741850288079819e-06,6.979252049581413e-06,6.622196981304225e-06,9.234051261218083e-07,2.103779053596239e-06
39,2.3698338489022863e-06,1.4668002419424802e-06,1.6793643156316894e-06,3.051689960233312e-06,6.652434456066938e-06,5.954015156108342e-06,3.5658933288002657e-06,1.4562003453211418e-06,4.104275433621879e-06,2.151492365444506e-06,5.2406210782845386e-06,2.5982612757519874e-06,7.013317456616725e-06,6.416509557826979e-06,9.107474873004988e-07,2.0743640790483557e-06
40,2.4250913796762826e-06,1.4563753658761144e-06,1.6645020559134548e-06,2.975959460472364e-06,6.5663086259378454e-06,5.7240906074784375e-06,3.55286629063207e-06,1.4045904609760591e-06,4.027677100039253e-06,2.198827434822523e-06,4.560776905144291e-06,2.4704443937700763e-06,7.033894432245136e-06,6.212839383223738e-06,9.017851035877665e-07,2.0449807543940615e-06
41,2.477848790941684e-06,1.4478998114963723e-06,1.6478498600906399e-06,2.905895718945596e-06,6.462442881050283e-06,5.4926101066630106e-06,3.537407945105688e-06,1.3604102614609147e-06,3.9754646711413035e-06,2.2564097250742434e-06,3.938292421359951e-06,2.357706971781773e-06,7.039764569846352e-06,6.010393104233998e-06,8.963526763737376e-07,2.0159019587596735e-06
42,2.5276056236819953e-06,1.4420634821376956e-06,1.629271858828949e-06,2.8426942508739407e-06,6.342462023044471e-06,5.260980669260431e-06,3.5190138668950887e-06,1.3239127685952735e-06,3.948042075050401e-06,2.3231199900322907e-06,3.37319933384609e-06,2.2589459218530754e-06,7.0294232833548465e-06,5.809601816126875e-06,8.942214157052208e-07,1.9878113141370165e-06
43,2.5736613277457427e-06,1.4394621784089265e-06,1.6088805317561785e-06,2.7871628608195418e-06,6.207334045838503e-06,5.031340366916213e-06,3.4966254739325656e-06,1.295175764897277e-06,3.9451715246140154e-06,2.3975587446463005e-06,2.864705994657384e-06,2.172689900451953e-06,7.000717761919843e-06,5.611442829621679e-06,8.95092062486286e-07,1.9616991460500997e-06
44,2.6153005933293943e-06,1.4406000566291469e-06,1.5870568795422e-06,2.7397090418842248e-06,6.057806591495556e-06,4.806489950179193e-06,3.4689046671714624e-06,1.2741207321189563e-06,3.965885003032945e-06,2.4779924191819198e-06,2.411266085716479e-06,2.097216849461516e-06,6.951318697891191e-06,5.41687596310538e-06,8.985855720794712e-07,1.9386395957335395e-06
45,2.6519613870985675e-06,1.4458927763627548e-06,1.5643384417352553e-06,2.7002296553383046e-06,5.895002959669503e-06,4.589524154083416e-06,3.4346470336251738e-06,1.260555852466697e-06,4.0083958724334775e-06,2.5624218036836354e-06,2.0107495254209775e-06,2.0307960618885377e-06,6.879821807725372e-06,5.226888398670948e-06,9.042804210850146e-07,1.919554929553863e-06
46,2.683197084894765e-06,1.455700740749614e-06,1.541225943031376e-06,2.6680565066022234e-06,5.720821513024611e-06,4.3834555880963795e-06,3.3932000751719646e-06,1.2541832027611921e-06,4.07012788112424e-06,2.6486905041189073e-06,1.6606324476700379e-06,1.971999802779166e-06,6.7866779471565735e-06,5.04277877640548e-06,9.117635939123335e-07,1.9050643781991926e-06
47,2.7084764876280253e-06,1.4703465932237622e-06,1.5180555827817457e-06,2.6420613015451053e-06,5.538100617668825e-06,4.191017866160352e-06,3.3446950291262096e-06,1.2545790107724355e-06,4.147823009010475e-06,2.734576946706335e-06,1.358121793415366e-06,1.919867353544044e-06,6.67427955880248e-06,4.866075530168247e-06,9.206396650462048e-07,1.8954355780368072e-06
48,2.7271153196844423e-06,1.4900416394605349e-06,1.4950278639047585e-06,2.6208779424723035e-06,5.350579517629071e-06,4.014571684480443e-06,3.289973566601384e-06,1.2612331677838458e-06,4.237604285799939e-06,2.8178440230079067e-06,1.1002037672388327e-06,1.8737896485636296e-06,6.546149689219854e-06,4.6982196954506615e-06,9.305128421749311e-07,1.8906147938325228e-06
49,2.7385072452674367e-06,1.514784733384706e-06,1.472332507198113e-06,2.6031122431148663e-06,5.162593383252524e-06,3.855977379879596e-06,3.2302990666669487e-06,1.273619289995613e-06,4.335072013376033e-06,2.8963478026990416e-06,8.836759069353388e-07,1.8332051073532124e-06,6.405975761311587e-06,4.540466430541624e-06,9.409522566272385e-07,1.8903351635299986e-06
50,2.7424104669665906e-06,1.5443352232821833e-06,1.4502230285357727e-06,2.5874526356444583e-06,4.978495989673754e-06,3.716526065140547e-06,3.1670431229401725e-06,1.291198911147795e-06,4.435488364448403e-06,2.9682498115853503e-06,7.052216327975914e-07,1.7973751833067337e-06,6.257286011853042e-06,4.394044099644282e-06,9.514629490870713e-07,1.8942615105222904e-06
51,2.73898850214978e-06,1.5782806934244416e-06,1.428965846618039e-06,2.5727164591172883e-06,4.80204278821593e-06,3.596993635461654e-06,3.101433353298332e-06,1.3133574644586853e-06,4.533832786067252e-06,3.032073993018433e-06,5.615111890415762e-07,1.76551133779179e-06,6.103599696618446e-06,4.260270395099708e-06,9.61518256246516e-07,1.9020376111316045e-06
52,2.7286566132879754e-06,1.6161315285201116e-06,1.4087511855777536e-06,2.557930736993242e-06,4.636042733479891e-06,3.4976213090491e-06,3.0343897091082474e-06,1.339375619534605e-06,4.624785613095216e-06,3.086427654229147e-06,4.4926363381871016e-07,1.73720085211848e-06,5.948382697470806e-06,4.140429643581049e-06,9.706300860244396e-07,1.913182534356405e-06
53,2.7119861070972404e-06,1.6573226612447302e-06,1.3897268512270723e-06,2.5424545749357334e-06,4.482348174944537e-06,3.417971030742074e-06,2.9665580319255864e-06,1.368473194553053e-06,4.703066320476922e-06,3.129774186729533e-06,3.652431532559777e-07,1.71268722715255e-06,5.794655856423146e-06,4.035503328696637e-06,9.78392882050965e-07,1.9269705498538335e-06
54,2.6897405702616094e-06,1.7011223987555397e-06,1.3721695353480313e-06,2.526003265841347e-06,4.342036572018721e-06,3.3568236486718987e-06,2.8985288755125364e-06,1.399819110742541e-06,4.764196982268044e-06,3.1607608020523058e-06,3.062184062673608e-07,1.6926962467662006e-06,5.6445385611942115e-06,3.945963032450886e-06,9.845021698442068e-07,1.9424569278648932e-06
55,2.6628678752701713e-06,1.7465699411437348e-06,1.35661469213224e-06,2.5084855899519434e-06,4.215582865233263e-06,3.312192876697315e-06,2.830966318930491e-06,1.432498874128905e-06,4.8052958998467365e-06,3.178918653719225e-06,2.6893332175077235e-07,1.678052128733858e-06,5.498978945417651e-06,3.871691296676241e-06,9.887430602292172e-07,1.958631224729304e-06
56,2.632317630198541e-06,1.792475565596552e-06,1.3438012892092367e-06,2.4897984439701765e-06,4.102899472795429e-06,3.281494286441607e-06,2.76447910927369e-06,1.4655623064561218e-06,4.82548200462849e-06,3.1850344762189776e-06,2.501302147838102e-07,1.6694375517445036e-06,5.357859718571029e-06,3.811966775312754e-06,9.909201001798191e-07,1.9745041770366652e-06
57,2.598818478930683e-06,1.8374411314771707e-06,1.334478002363404e-06,2.469778526733494e-06,4.003408689134596e-06,3.26189689651309e-06,2.699430370155772e-06,1.4981040756768528e-06,4.825693184490279e-06,3.1808289533915664e-06,2.4662890408911636e-07,1.6673093082019271e-06,5.220563322706864e-06,3.765548387238841e-06,9.908127626438628e-07,1.989088504137446e-06
58,2.5628504597249256e-06,1.8799154409552493e-06,1.329222056765945e-06,2.4483219363269207e-06,3.916382114768135e-06,3.2506702628103047e-06,2.6359306682507843e-06,1.5292333109058459e-06,4.808075415545959e-06,3.1682344372923686e-06,2.55418325798648e-07,1.6718916622352976e-06,5.086634673527817e-06,3.730911510394882e-06,9.882568069678352e-07,2.001459680518243e-06
59,2.5248458792288023e-06,1.9183211548538624e-06,1.3283727737427696e-06,2.42556519697252e-06,3.841377114473199e-06,3.245246690396908e-06,2.5739875533619705e-06,1.5580395100151919e-06,4.775299565279031e-06,3.1487859895074686e-06,2.7374034337033317e-07,1.6832474393524894e-06,4.955901867413196e-06,3.7064782283113145e-06,9.832436477290544e-07,2.0109054545088074e-06
60,2.4854172354606655e-06,1.951218433184774e-06,1.3320589565819026e-06,2.4020315964705767e-06,3.7783963428914257e-06,3.2430637470551916e-06,2.51366744660264e-06,1.583737577707212e-06,4.72998936311473e-06,3.1234048108433195e-06,2.9918890626626864e-07,1.7013462687929345e-06,4.828019819915597e-06,3.6906637075993815e-06,9.759188675887955e-07,2.016965533687389e-06
61,2.4453965491111553e-06,1.9774210323554815e-06,1.3402307346513603e-06,2.3786323020149087e-06,3.727657080099247e-06,3.2415757395178893e-06,2.4552126709978186e-06,1.605882211732253e-06,4.674312452803939e-06,3.0925382655820694e-06,3.297894381412968e-07,1.7260354785357418e-06,4.702090640884978e-06,3.681752645880398e-06,9.665648414621368e-07,2.019308893149887e-06
62,2.4056421303248783e-06,1.996050281651267e-06,1.3526592501204586e-06,2.356454857732193e-06,3.689148189288573e-06,3.238542015773124e-06,2.399033718776108e-06,1.6244111809097227e-06,4.60991497364554e-06,3.05638327873061e-06,3.6399393118742524e-07,1.756965632376266e-06,4.576726625010381e-06,3.6777410999504265e-06,9.556068684652089e-07,2.017581655780288e-06
63,2.366777037071552e-06,2.0066049518154423e-06,1.3689441685225758e-06,2.336436890362269e-06,3.6622672757502464e-06,3.232328485126294e-06,2.345518676606068e-06,1.6394705672884247e-06,4.538294082784134e-06,3.0149214372327302e-06,4.005996945230039e-07,1.7935480966493264e-06,4.450367173642123e-06,3.676399569290634e-06,9.435587229452617e-07,2.011383422478026e-06
64,2.32906737562258e-06,2.009073353021299e-06,1.3885424224269206e-06,2.3191192715861693e-06,3.6457074624470643e-06,3.222072323282969e-06,2.2948438205904008e-06,1.651200851218325e-06,4.461311591234212e-06,2.967851886687557e-06,4.3862821388942994e-07,1.834961357402648e-06,4.321707831081002e-06,3.675584963634136e-06,9.309532947828168e-07,2.0004618019210594e-06
65,2.2924816407877224e-06,2.003974332952627e-06,1.4108178908878593e-06,2.3045846182673844e-06,3.6375790930972068e-06,3.20768044322744e-06,2.2469605363988575e-06,1.659647022807844e-06,4.381413519541634e-06,2.9147066021211336e-06,4.771931784907883e-07,1.880187777812795e-06,4.190237894112019e-06,3.6733395872781273e-06,9.183370006745792e-07,1.9850215173953823e-06
66,2.2568510280753357e-06,1.992201563538816e-06,1.4351622766549517e-06,2.2925511951360864e-06,3.635742938256727e-06,3.1895582201247425e-06,2.2016448305126726e-06,1.6647932067768862e-06,4.301378583997584e-06,2.8551488155921774e-06,5.154169300737433e-07,1.928033621476165e-06,4.056656691045102e-06,3.6675867746465097e-06,9.06255118225785e-07,1.9658469663730797e-06
67,2.2220705397550907e-06,1.974711481362471e-06,1.4611410848746132e-06,2.282539597034744e-06,3.6382553203492847e-06,3.1681654433041582e-06,2.1585299733874354e-06,1.6667093909709772e-06,4.223790520277441e-06,2.7892037065840093e-06,5.52480895131375e-07,1.9772281278398683e-06,3.922805333050063e-06,3.6558774568952066e-06,8.951881279636013e-07,1.944075997048306e-06
68,2.188262163780667e-06,1.9522490101675645e-06,1.4884978844609998e-06,2.2740385023414626e-06,3.6436444461187187e-06,3.1437592776306807e-06,2.1172427042955863e-06,1.6657323292064444e-06,4.150659945114765e-06,2.7172498961796842e-06,5.878146961580806e-07,2.0267013278991664e-06,3.791079707882754e-06,3.635663227000846e-06,8.854946624464211e-07,1.920855789283176e-06
69,2.1557669691387996e-06,1.9252635758355033e-06,1.5170013810786592e-06,2.2666274886938032e-06,3.6508192406600345e-06,3.1164657481713797e-06,2.077647105166089e-06,1.6624644325425927e-06,4.083385638612757e-06,2.6397975578860164e-06,6.212539214420979e-07,2.0758112165695773e-06,3.663706860714136e-06,3.60507813067166e-06,8.773856438464012e-07,1.8971720885685963e-06
70,2.1249375138196676e-06,1.8939957153048942e-06,1.5463085540562905e-06,2.260036246265781e-06,3.658708071727586e-06,3.086476271684101e-06,2.039992441398906e-06,1.6575583460217079e-06,4.022812128498875e-06,2.557259863243704e-06,6.529902642817582e-07,2.1242695770906357e-06,3.542281472589566e-06,3.5635848293536257e-06,8.709295496854733e-07,1.8738326979904247e-06
71,2.0959093559290218e-06,1.8586136587576181e-06,1.5759211285258698e-06,2.2541003141965343e-06,3.665894941345701e-06,3.0541545716018224e-06,2.00481406273328e-06,1.6515084330504952e-06,3.969239899348972e-06,2.4700168818237605e-06,6.833718492913695e-07,2.171854915762639e-06,3.4276415094397724e-06,3.5118234255882946e-06,8.66075429557515e-07,1.851459219164802e-06
72,2.0685022384738773e-06,1.8193045916709567e-06,1.6051885211101512e-06,2.248585857656995e-06,3.6704887219586904e-06,3.0199494351855573e-06,1.9726684606236192e-06,1.6445844421966662e-06,3.922573228316111e-06,2.378780528061567e-06,7.127449162790311e-07,2.2181340015392127e-06,3.319910439692002e-06,3.4508416217698697e-06,8.626693445948412e-07,1.8304506556592342e-06
73,2.0421901619600647e-06,1.7763017126960331e-06,1.6333770894249148e-06,2.2429590700543146e-06,3.6703234353132805e-06,2.984178642761165e-06,1.9439111112343565e-06,1.6368490904700763e-06,3.882625606993473e-06,2.284799318073871e-06,7.413951475592542e-07,2.262325321754868e-06,3.218565648296309e-06,3.381440223806968e-06,8.604940780520365e-07,1.8109848388025059e-06
74,2.0160780868658963e-06,1.7299039765921243e-06,1.659804147862552e-06,2.2362454338163062e-06,3.6633929998460433e-06,2.9469726692943983e-06,1.9186399881070674e-06,1.628162992864379e-06,3.84928552058188e-06,2.1896094760417365e-06,7.695153538826864e-07,2.3033297068671936e-06,3.1225124520244903e-06,3.304066145961007e-06,8.593874404022589e-07,1.7931593367339578e-06
75,1.988913057494096e-06,1.6805584170769895e-06,1.6839188741586964e-06,2.2270517876615932e-06,3.6482449220182927e-06,2.908513443860034e-06,1.8967766756676904e-06,1.6181559666496147e-06,3.822351787612622e-06,2.0946258293750397e-06,7.971770009770202e-07,2.3398978820963457e-06,3.030157477976306e-06,3.219213958190181e-06,8.593848315615866e-07,1.7772444147238363e-06
76,1.9591481919581175e-06,1.6289779644166965e-06,1.7052837060809492e-06,2.213730392639239e-06,3.624048728650667e-06,2.8692739845336666e-06,1.8781858405862569e-06,1.6062526777165936e-06,3.801225192665024e-06,2.0009215023538824e-06,8.243416733378838e-07,2.3709284258924544e-06,2.9395642732139623e-06,3.1279183414112037e-06,8.607438500969953e-07,1.7638302243641527e-06
77,1.925163143228987e-06,1.576170557336114e-06,1.7235371591115865e-06,2.1946587043970095e-06,3.590278877705326e-06,2.829944309057531e-06,1.86272094450871e-06,1.5918468625469594e-06,3.7848671417491897e-06,1.9092063785012694e-06,8.508904907723593e-07,2.3958025637096007e-06,2.84885032317285e-06,3.0318055904526604e-06,8.638384492106608e-07,1.7537140252288363e-06
78,1.8857202867077006e-06,1.5233131089032107e-06,1.7383545952817993e-06,2.1685969571217124e-06,3.5462870515793764e-06,2.7911480080168605e-06,1.850162263543364e-06,1.5745724530485609e-06,3.772196479134489e-06,1.8199376905494121e-06,8.766268213471714e-07,2.414508506308666e-06,2.7567688881801303e-06,2.932762445037262e-06,8.690600794334442e-07,1.7476520327029252e-06
79,1.8403933360726932e-06,1.471551792238942e-06,1.749362617632205e-06,2.135007202691005e-06,3.4911905589184196e-06,2.7532903317495667e-06,1.8401846329930338e-06,1.5545004784786553e-06,3.76257806202067e-06,1.7334980540412022e-06,9.01279141147481e-07,2.4274676463043718e-06,2.6631568811455753e-06,2.8326810122437068e-06,8.767797595959997e-07,1.7461842907037426e-06
80,1.7895661803245558e-06,1.4218513058046486e-06,1.7561226979632364e-06,2.0941742450808923e-06,3.424220822119402e-06,2.7166519164744327e-06,1.8324238815534987e-06,1.5321300877018247e-06,3.7559583478352464e-06,1.6502995399831141e-06,9.245225079564031e-07,2.435302208849087e-06,2.5689521717593584e-06,2.733371515279854e-06,8.873135713188781e-07,1.7495696851653368e-06
81,1.7340081716951317e-06,1.3749278256346172e-06,1.7583311918443734e-06,2.0470473610068574e-06,3.3452606805064343e-06,2.681577494167051e-06,1.8264645661296257e-06,1.50822175401588e-06,3.7526215067663727e-06,1.5708586797801853e-06,9.459751173397201e-07,2.4387535680292163e-06,2.4757797580312e-06,2.63656069833992e-06,9.008753105368747e-07,1.757798496438676e-06
82,1.6744716926845551e-06,1.331241046498961e-06,1.7561189819914018e-06,1.9948751754595548e-06,3.255223710978544e-06,2.6486325100853237e-06,1.821710769122976e-06,1.4836550692295187e-06,3.752830288446381e-06,1.495924674911042e-06,9.651711166079682e-07,2.4386889939343856e-06,2.3854170365087395e-06,2.543909144628768e-06,9.175564792045011e-07,1.7706571473984885e-06
83,1.6116083838924957e-06,1.2910371837272147e-06,1.7502172295598084e-06,1.9388324831667814e-06,3.156077349979035e-06,2.6186379139451647e-06,1.8174063311384303e-06,1.459393399103419e-06,3.756525852725398e-06,1.4264649510291994e-06,9.81580182307972e-07,2.4360989311124672e-06,2.2994419571788942e-06,2.456912999558621e-06,9.373609475354999e-07,1.7877543571086754e-06
84,1.546045995140734e-06,1.254417066185885e-06,1.741871748534287e-06,1.8798501597649416e-06,3.0504709957247893e-06,2.5925048086717126e-06,1.8128799483978356e-06,1.4364601612369043e-06,3.763162428343423e-06,1.363456840748433e-06,9.947452414759426e-07,2.4321043617544573e-06,2.219097836872107e-06,2.376783329885302e-06,9.60242274593265e-07,1.8084768860758187e-06
85,1.478398158925333e-06,1.2213941018206116e-06,1.7325587430405143e-06,1.8186902136192982e-06,2.941153600009292e-06,2.5709952685897296e-06,1.8077167140021677e-06,1.4158445829518552e-06,3.771825085482332e-06,1.307742759992123e-06,1.0045064914282294e-06,2.4279818810545033e-06,2.145261518545977e-06,2.3044515754568272e-06,9.860748562759996e-07,1.8319465905714377e-06
86,1.409236431187566e-06,1.1919581231641527e-06,1.7237111307133456e-06,1.756102433250377e-06,2.8305231849149054e-06,2.554614311232423e-06,1.801731985580248e-06,1.398398818491986e-06,3.7816033228735336e-06,1.2600357405655212e-06,1.011136135376382e-06,2.425130929847745e-06,2.0784795854547284e-06,2.2406072864401282e-06,1.014617223092537e-06,1.857012519312358e-06
87,1.3391505253506856e-06,1.1661384016602774e-06,1.7165832196647146e-06,1.6929069805089838e-06,2.7205326069833108e-06,2.543597016676186e-06,1.7949614543226718e-06,1.384800982535266e-06,3.7918557977536308e-06,1.220926028034212e-06,1.015258122697805e-06,2.4249114015905806e-06,2.019071860282812e-06,2.1856899517137923e-06,1.0455431172414802e-06,1.882313743891604e-06
88,1.2688534622605956e-06,1.144027673105421e-06,1.712208194792639e-06,1.6299747936237e-06,2.6128772874072753e-06,2.537863128540171e-06,1.7876825794323958e-06,1.3755613830871205e-06,3.802144326691648e-06,1.1908304805989412e-06,1.01762440777361e-06,2.4284233965943826e-06,1.9672072769398137e-06,2.1398640470399285e-06,1.0784709309447896e-06,1.9064450052057227e-06
89,1.1991858307104183e-06,1.1257709167642861e-06,1.7113961917173963e-06,1.5681309456067657e-06,2.509190945571387e-06,2.536979798589706e-06,1.780294603834464e-06,1.3710508949236823e-06,3.811979709362961e-06,1.1699498456930384e-06,1.0189142845849978e-06,2.4363811778544007e-06,1.92286824500374e-06,2.1030468762593698e-06,1.1129512450277738e-06,1.9281110020173812e-06
90,1.1310064654598274e-06,1.1115276170507902e-06,1.7147225369106497e-06,1.5080487563972274e-06,2.411048686140867e-06,2.540222951187029e-06,1.7731820061754025e-06,1.3715373504175354e-06,3.820636929549528e-06,1.1582613309998573e-06,1.019646092759651e-06,2.4491070892364494e-06,1.8857866538895843e-06,2.075026834147176e-06,1.1485125912722518e-06,1.9461145651753884e-06
91,1.065072233891567e-06,1.101443046318559e-06,1.7224879886090538e-06,1.450232281554548e-06,2.319811622681504e-06,2.5467263401132084e-06,1.766782288445048e-06,1.377172997778391e-06,3.82725516749335e-06,1.1555497530021688e-06,1.0201556447037455e-06,2.4666045233105657e-06,1.8555151445672486e-06,2.0555253528439516e-06,1.1847712557416471e-06,1.959236074929753e-06
92,1.0019967973195055e-06,1.0956594698600794e-06,1.7346965803235367e-06,1.3950736507427434e-06,2.236470881435749e-06,2.5556513441346427e-06,1.7617158768381825e-06,1.3879415097369523e-06,3.831208864089453e-06,1.1614795446918336e-06,1.0205847714859027e-06,2.4886728194439187e-06,1.8316359311705115e-06,2.0441086545706727e-06,1.2214632158703087e-06,1.966301978588816e-06
93,9.423146280377983e-07,1.0943080437843727e-06,1.7510476932167025e-06,1.3428621545186557e-06,2.161595622406233e-06,2.5663179213387602e-06,1.7587245122745416e-06,1.403627706989546e-06,3.832432208864633e-06,1.1756521811868024e-06,1.020902949839673e-06,2.514938054448337e-06,1.8139032627495556e-06,2.040099852963841e-06,1.2583716365347646e-06,1.9665601401832943e-06
94,8.865757325991603e-07,1.0974858485593227e-06,1.7709149279570908e-06,1.2937286760691997e-06,2.0953681139990827e-06,2.578223382756239e-06,1.758488040413221e-06,1.4238041873988306e-06,3.831392694830634e-06,1.1976047272544234e-06,1.020979416596664e-06,2.5447491334241956e-06,1.8021804779029503e-06,2.042601430288028e-06,1.295263976874008e-06,1.9599804183894994e-06
95,8.353601378818472e-07,1.1052808574791677e-06,1.7933229799471962e-06,1.2476489424025183e-06,2.0376520370079735e-06,2.5909134169952625e-06,1.7615197214824275e-06,1.4478178071226627e-06,3.828728188995983e-06,1.2267803025431145e-06,1.0206375889703404e-06,2.5770890068253273e-06,1.7962866988203121e-06,2.050563139303831e-06,1.331855803360938e-06,1.9471240854737345e-06
96,7.89200065343779e-07,1.117777258061344e-06,1.8169479968440153e-06,1.204565364924876e-06,1.9881233159054834e-06,2.603880550982931e-06,1.7681700026413836e-06,1.474815216796399e-06,3.824855427487262e-06,1.262497132017739e-06,1.0196301968894492e-06,2.610578581433825e-06,1.7959543067894886e-06,2.0628069503342074e-06,1.36776865688198e-06,1.9288036241759415e-06
97,7.48503500678502e-07,1.13498019633701e-06,1.840217105638629e-06,1.1645377368671581e-06,1.9464620632589698e-06,2.6167175933464835e-06,1.7786810641759247e-06,1.5038317341014434e-06,3.819882806834426e-06,1.3039217784283964e-06,1.017608457040231e-06,2.64352527751581e-06,1.8009241718251965e-06,2.0780764474169137e-06,1.4025665448775324e-06,1.9059562270891839e-06
98,7.135431611196963e-07,1.1567393071255712e-06,1.861587881592475e-06,1.1277879120963869e-06,1.912456643896043e-06,2.6294145598149433e-06,1.7932230458509747e-06,1.5339144594104735e-06,3.8137817942677527e-06,1.3500922509469657e-06,1.0141813544577553e-06,2.674117802124604e-06,1.8110351385083886e-06,2.095277895260505e-06,1.4359035105391266e-06,1.8797306343498637e-06
99,6.844735383684966e-07,1.1827526089165976e-06,1.879910101249934e-06,1.0946041814266356e-06,1.885952318122645e-06,2.6424791162604878e-06,1.8118857189391546e-06,1.5642097896562121e-06,3.806443799958789e-06,1.400000553492365e-06,1.0090133525724796e-06,2.700827664223422e-06,1.8262244185802254e-06,2.11387716348456e-06,1.4676337351624783e-06,1.8514699215238679e-06
100,6.613367971088257e-07,1.2126218396817853e-06,1.894596669953693e-06,1.0652242727070366e-06,1.866833567057359e-06,2.656760973864091e-06,1.834703232063403e-06,1.5939476363826223e-06,3.7975366717228844e-06,1.4526420120690618e-06,1.001866577750547e-06,2.7227153158218582e-06,1.8465235032327389e-06,2.1341935181672245e-06,1.4977520524118854e-06,1.8225101524917372e-06
101,6.440849980598713e-07,1.245863571483676e-06,1.9054591763986122e-06,1.039813212830347e-06,1.8551648350258064e-06,2.6731213365747375e-06,1.8617449784147632e-06,1.6223585262081956e-06,3.786438305607271e-06,1.5070147316216403e-06,9.926037774383115e-07,2.7393598030146943e-06,1.8721399182787768e-06,2.157373525741172e-06,1.5262202061257907e-06,1.7939959631995973e-06
102,6.326393868102789e-07,1.2818554542864326e-06,1.9124209577818747e-06,1.018484398623882e-06,1.8513126952601962e-06,2.69220061111017e-06,1.8931667708973985e-06,1.6486618989396145e-06,3.7723972558284677e-06,1.5621590142571188e-06,9.811827247202912e-07,2.7505496215692613e-06,1.9035118053988782e-06,2.1850645500085106e-06,1.5528426655583356e-06,1.7668103714388526e-06
103,6.269399594963851e-07,1.3198021163787583e-06,1.915430749004574e-06,1.0012728989441387e-06,1.8558667635792635e-06,2.714454117408668e-06,1.929133916536958e-06,1.6721913720078413e-06,3.7548136105189136e-06,1.6171788740544292e-06,9.676024925301272e-07,2.7560481741516833e-06,1.9411726481537035e-06,2.2190329262435754e-06,1.5772589833939246e-06,1.7415762740099013e-06
104,6.269278167563842e-07,1.358788486710763e-06,1.914592161700493e-06,9.88106744229655e-07,1.8693986321548156e-06,2.7403761459244096e-06,1.969707910331688e-06,1.692552929138279e-06,3.7334403072131765e-06,1.6711305302059946e-06,9.518367995538544e-07,2.7555762812202647e-06,1.98553935555426e-06,2.26091461778986e-06,1.5989692061109306e-06,1.7187069182216595e-06
105,6.324881457465238e-07,1.397870102771871e-06,1.9102817479477474e-06,9.78833436082402e-07,1.8922274130783597e-06,2.77066571880882e-06,2.0148554739893808e-06,1.7096744179373482e-06,3.708375324156492e-06,1.7228825781519723e-06,9.338558997586473e-07,2.7489317610572475e-06,2.0368165925095066e-06,2.3120850626210713e-06,1.6173332362550057e-06,1.6984859551484924e-06
106,6.43428061563853e-07,1.4361162079659898e-06,1.9031374549917648e-06,9.73239611508095e-07,1.924337379991609e-06,2.8061629772066606e-06,2.0645547554844e-06,1.7237155720778066e-06,3.679905090141671e-06,1.7710814411401407e-06,9.137004680514861e-07,2.736065946186804e-06,2.0949981814587652e-06,2.373662148148029e-06,1.6316083049126412e-06,1.6811737142728948e-06
107,6.594983590004403e-07,1.4726703451122583e-06,1.893951905747646e-06,9.710218067838638e-07,1.965455515537041e-06,2.8475957851988976e-06,2.118852425127607e-06,1.734900219441965e-06,3.6483277816921997e-06,1.814187118405382e-06,8.915240066642102e-07,2.7169933616759348e-06,2.1598724195190748e-06,2.4466734824681945e-06,1.6410522257584753e-06,1.6670965581853064e-06
108,6.804099665862396e-07,1.5068831502654057e-06,1.8835073145748318e-06,9.717719510156457e-07,2.015168412727888e-06,2.8953490258359884e-06,2.177845069810801e-06,1.7433517802693411e-06,3.6137857248097003e-06,1.850560988587777e-06,8.676175979542083e-07,2.691582242646265e-06,2.230979710160289e-06,2.5322337064915266e-06,1.6449774972194558e-06,1.6566065105247473e-06
109,7.058192487541992e-07,1.5383768722544901e-06,1.8723897741262774e-06,9.750306435330159e-07,2.07297826913315e-06,2.9494520567829105e-06,2.241646682446626e-06,1.7490116171523245e-06,3.5761746320608657e-06,1.8786040149424053e-06,8.423910444751609e-07,2.6593889867424396e-06,2.307569976107036e-06,2.6316212975929493e-06,1.6427289149321816e-06,1.6499518418993652e-06
110,7.353030136987328e-07,1.5669847194173068e-06,1.860860608310242e-06,9.803919053997256e-07,2.138344018713061e-06,3.009782591123281e-06,2.310347319728154e-06,1.7516803627258683e-06,3.535291778652827e-06,1.8969361190178532e-06,8.16271659885577e-07,2.6196824802161586e-06,2.3886310123229357e-06,2.7463451353795756e-06,1.633761842649283e-06,1.6471953634016144e-06
111,7.683366347333146e-07,1.592712204278879e-06,1.848836171249029e-06,9.876248539331655e-07,2.210765987088689e-06,3.076323051778186e-06,2.383958492298978e-06,1.7510945357781616e-06,3.4911036994502906e-06,1.904757861695735e-06,7.896175073886547e-07,2.5717181766094315e-06,2.4728926168170856e-06,2.878178994197659e-06,1.6178546143159985e-06,1.6481829839993762e-06
112,8.042756785567553e-07,1.615766071130303e-06,1.8359621085532216e-06,9.967681209841895e-07,2.2898200760542585e-06,3.149288905548235e-06,2.462403682518917e-06,1.7469201872009325e-06,3.443741881209728e-06,1.9023181166526355e-06,7.627383824110193e-07,2.515106721181635e-06,2.558772193638979e-06,3.02902520571154e-06,1.5952400273024096e-06,1.6525501561485606e-06
113,8.423738365284437e-07,1.6364983591710003e-06,1.8217009638853149e-06,1.0081277623241649e-06,2.3750766755957315e-06,3.2290548012714435e-06,2.545565422430727e-06,1.7387681922996163e-06,3.39320960352304e-06,1.8909875239802297e-06,7.35963047079678e-07,2.4499811664240517e-06,2.644454442908194e-06,3.2007195266644025e-06,1.5665654496381786e-06,1.6597908042707944e-06
114,8.818607718389927e-07,1.655221287648837e-06,1.8053661094582818e-06,1.0221565399151417e-06,2.465991946589141e-06,3.3159560666502763e-06,2.6332662706387544e-06,1.726376223095042e-06,3.339238890026987e-06,1.8727657247189303e-06,7.096578339649601e-07,2.376882227521415e-06,2.7281634864975445e-06,3.395018315002893e-06,1.5327988558360414e-06,1.669357190890672e-06
115,9.220257869399852e-07,1.6721092562041643e-06,1.786231464692257e-06,1.0392900448717867e-06,2.561815449536462e-06,3.410069507664159e-06,2.725124406564595e-06,1.7098117705092085e-06,3.281557043238999e-06,1.8496890914926367e-06,6.842101821671697e-07,2.2965580185737337e-06,2.808439271027555e-06,3.613695612600714e-06,1.4951635003841384e-06,1.680742636578246e-06
116,9.622376430908635e-07,1.687308534805433e-06,1.76384433480118e-06,1.0598362739676777e-06,2.6615118420917843e-06,3.511030597875465e-06,2.820474283906511e-06,1.6895104785875598e-06,3.2203291083654143e-06,1.8235413327313573e-06,6.600146031748515e-07,2.209906903546456e-06,2.884290109286377e-06,3.858473432224617e-06,1.4550582887323237e-06,1.6934968558451276e-06
117,1.0019389875473605e-06,1.7010489992402036e-06,1.7383065220180684e-06,1.0839703111337017e-06,2.7638022878986275e-06,3.6179867924271353e-06,2.9185082455529366e-06,1.6661723475188153e-06,3.156346821414466e-06,1.795838081847611e-06,6.374437858136807e-07,2.118098091599777e-06,2.9552040143737355e-06,4.130800287846514e-06,1.4139015393100578e-06,1.7071654950813387e-06
118,1.040709493130488e-06,1.713596084174943e-06,1.7102054055648077e-06,1.1118129622384026e-06,2.8673731381773967e-06,3.7297262760773803e-06,3.0184714251079124e-06,1.6405876442534313e-06,3.090813583820159e-06,1.7679129910707273e-06,6.168035437601405e-07,2.0226440530249624e-06,3.0210009137910557e-06,4.431814574441286e-06,1.372944858613792e-06,1.7212538434538925e-06
119,1.0783837055968762e-06,1.725148130006844e-06,1.6802543038328477e-06,1.143485368352889e-06,2.9710753564727975e-06,3.844839394661012e-06,3.1196824998344495e-06,1.6134628999045978e-06,3.0249841327949776e-06,1.7409592607842356e-06,5.982959317363434e-07,1.925235572399689e-06,3.0815749701326745e-06,4.762585938988089e-06,1.3331715598841712e-06,1.7352652494635195e-06
120,1.1151061071682135e-06,1.7357892571335935e-06,1.6489632470562347e-06,1.1790766782730556e-06,3.0739183097071257e-06,3.961786769442318e-06,3.221363111745031e-06,1.585343464445508e-06,2.959992332347769e-06,1.7159669573266539e-06,5.820047870560167e-07,1.8274891202874408e-06,3.1366449903844934e-06,5.12422786200926e-06,1.2953267572049666e-06,1.7487137052882215e-06
121,1.1512482527817299e-06,1.7454764145683407e-06,1.6165236995931469e-06,1.2186198305028318e-06,3.1748635922230068e-06,4.0788542273144696e-06,3.3224313779895796e-06,1.5566228669193679e-06,2.896915969107698e-06,1.6936725122345248e-06,5.678992744844603e-07,1.730838020954212e-06,3.18562140848642e-06,5.517607299794394e-06,1.2600248143310726e-06,1.761112351582468e-06
122,1.1872293869040695e-06,1.7540135163417288e-06,1.5828273228332004e-06,1.2621316379013833e-06,3.272651015732457e-06,4.194002924858798e-06,3.421508160197371e-06,1.5275393658574817e-06,2.8368464631254996e-06,1.6746440327078554e-06,5.558425722584937e-07,1.6365519443968285e-06,3.2277013820633443e-06,5.942925972247056e-06,1.2278285037949727e-06,1.7720749451072473e-06
123,1.2233484060522846e-06,1.7610207361040447e-06,1.5474904918558333e-06,1.3096003338331738e-06,3.365970090051487e-06,4.304786686608157e-06,3.51721769291111e-06,1.4981674605940598e-06,2.780766448810553e-06,1.659400200185902e-06,5.456206455777804e-07,1.5457728240341886e-06,3.2621788230313036e-06,6.399436070607379e-06,1.1992448379626333e-06,1.781466264008349e-06
124,1.259708751386593e-06,1.7659381414212753e-06,1.5099150787205364e-06,1.360867098031908e-06,3.453981210408584e-06,4.408614702178646e-06,3.6085113098608198e-06,1.4684596684213845e-06,2.729326485709701e-06,1.648388247370547e-06,5.369978703455881e-07,1.4595196466199033e-06,3.2887389458395067e-06,6.885285762905838e-06,1.174685163852224e-06,1.789409542242466e-06
125,1.2962265561743327e-06,1.768115539211048e-06,1.4694834381346233e-06,1.4155124748880293e-06,3.536718696309441e-06,4.503312916676964e-06,3.694737477870863e-06,1.4383362581969835e-06,2.682793546515958e-06,1.6418695777622257e-06,5.297476888522176e-07,1.3786612978865163e-06,3.30758400486474e-06,7.397589161298544e-06,1.1544455976071386e-06,1.7961811591092734e-06
126,1.3326490626570833e-06,1.7670217186778042e-06,1.4258531145035676e-06,1.4728426392381044e-06,3.614961418003731e-06,4.587610352234097e-06,3.775505646673289e-06,1.4078289664352326e-06,2.6412829055204418e-06,1.639876282085392e-06,5.236237821677434e-07,1.3039141839928958e-06,3.319488792331453e-06,7.9328414511419e-06,1.138712903464991e-06,1.8021638439346912e-06
127,1.3685693350669238e-06,1.7624200314367037e-06,1.3792027253448331e-06,1.5319881539608287e-06,3.6897209184308356e-06,4.661339982731191e-06,3.850537806882953e-06,1.377186214459478e-06,2.605075467814583e-06,1.6422972678662592e-06,5.183110620264891e-07,1.2358742101454245e-06,3.3258834012521486e-06,8.487549296753641e-06,1.1275639537414744e-06,1.8078761534942874e-06
128,1.4035316370566884e-06,1.7542861168516227e-06,1.330296347927357e-06,1.5920858438505926e-06,3.7618118548219825e-06,4.725421542783711e-06,3.919572398575966e-06,1.346820873832132e-06,2.5747657823234146e-06,1.6490493838872612e-06,5.133998110986134e-07,1.1750061163919612e-06,3.3288555788642375e-06,9.058664077201964e-06,1.1209238303877465e-06,1.8139556649669777e-06
129,1.4372715845264886e-06,1.7425767038666286e-06,1.2803224976294726e-06,1.652477853703279e-06,3.8316967882576444e-06,4.781654301317143e-06,3.982225434974591e-06,1.317218566225583e-06,2.5511749480331906e-06,1.6601855739028152e-06,5.083876101039653e-07,1.1215870126507177e-06,3.3309154992869233e-06,9.643369600446974e-06,1.118531310588445e-06,1.821068256053012e-06
130,1.4699091148681202e-06,1.727199647852081e-06,1.2305967993462483e-06,1.7128262673506827e-06,3.899426783311903e-06,4.832248470465084e-06,4.037770992947281e-06,1.2889120166864808e-06,2.535103001222275e-06,1.6758527772389925e-06,5.026999678523361e-07,1.0756666060310115e-06,3.3346249388573666e-06,1.0238439556918056e-05,1.1199747461660218e-06,1.8298460187075947e-06
131,1.5018659775754794e-06,1.7082568942904139e-06,1.1823079906280765e-06,1.7730468699261927e-06,3.9645837968448885e-06,4.879253597104348e-06,4.085090041907279e-06,1.262420102626318e-06,2.5270996424360806e-06,1.6962315334512126e-06,4.957164184528004e-07,1.037061361765455e-06,3.3423583010402275e-06,1.0840017501629563e-05,1.1247417230772378e-06,1.8409131817875294e-06
132,1.5335808566344065e-06,1.686233501369709e-06,1.1364274541569752e-06,1.8331107622383938e-06,4.026419495197441e-06,4.9242980099155896e-06,4.123032730727344e-06,1.2381523790978027e-06,2.527461653113401e-06,1.72152306910772e-06,4.867876663302833e-07,1.0053735170019631e-06,3.356208347803751e-06,1.1444110470583448e-05,1.1322139771932875e-06,1.8549501874836379e-06
133,1.5652831344752004e-06,1.6618764545137645e-06,1.093736546595222e-06,1.8929499934799042e-06,4.084265420151703e-06,4.968749432264711e-06,4.150973964109026e-06,1.2163702832907716e-06,2.5364115023897876e-06,1.7518525697349244e-06,4.7526964621900877e-07,9.800225943215453e-07,3.377888034017222e-06,1.2047317517160125e-05,1.1416567059069552e-06,1.8726972643826837e-06
134,1.5969080170293002e-06,1.6359263605087424e-06,1.0548430223960413e-06,1.9525717766529695e-06,4.137945263922043e-06,5.013931251163014e-06,4.16911987720757e-06,1.1971820687557682e-06,2.554189535232487e-06,1.7870885565606704e-06,4.6064370951068e-07,9.603015510362206e-07,3.408688371830719e-06,1.2647452317863903e-05,1.1522740080752808e-06,1.8948458201396868e-06
135,1.6280832432085683e-06,1.6089621076684852e-06,1.0201492564489841e-06,2.012156471111447e-06,4.1879324187345705e-06,5.061114625796651e-06,4.178397720437731e-06,1.180579565607927e-06,2.580951375776008e-06,1.8267455552947954e-06,4.426979753386822e-07,9.45480057447812e-07,3.449601757552622e-06,1.324388762932163e-05,1.1632846755759557e-06,1.921878946980798e-06
136,1.6581763852108081e-06,1.5813685077622896e-06,9.898336497027492e-07,2.071949612499177e-06,4.235217719252668e-06,5.111344724891535e-06,4.180106870462896e-06,1.1665620100725975e-06,2.6165831682253777e-06,1.870015329914208e-06,4.2160400317660836e-07,9.349143343443759e-07,3.5015270849957997e-06,1.383733492646387e-05,1.173949328311687e-06,1.9539690389187618e-06
137,1.6863888922964065e-06,1.553345171397839e-06,9.638857825424792e-07,2.132077042807723e-06,4.2809323708833015e-06,5.165238632157895e-06,4.17564368505438e-06,1.1552360458924068e-06,2.660590439883349e-06,1.9158247832788824e-06,3.978218250161867e-07,9.281269628271313e-07,3.56543550591598e-06,1.4428971954743538e-05,1.1836100972592557e-06,1.9909885278825813e-06
138,1.7118439504568276e-06,1.524964472145966e-06,9.421857193744667e-07,2.1924902560881736e-06,4.325896953304373e-06,5.222862004980087e-06,4.166437297524614e-06,1.1467565578026817e-06,2.7121843862029503e-06,1.96285387970606e-06,3.7196965829980164e-07,9.248553557962185e-07,3.6424327243782686e-06,1.5019211369144141e-05,1.1917674866369925e-06,2.032587659197232e-06
139,1.7337841093786615e-06,1.4963278988900387e-06,9.245806353652021e-07,2.2530516637734603e-06,4.370464701559423e-06,5.283812815971334e-06,4.153964037398635e-06,1.1411883276631509e-06,2.770528605507719e-06,2.009559987176624e-06,3.4475928732470455e-07,9.250238743970592e-07,3.7336286412280346e-06,1.5606757977739804e-05,1.1980745112629448e-06,2.078221862485555e-06
140,1.7519415131659715e-06,1.467768846127351e-06,9.109110361995196e-07,2.313627758151216e-06,4.4148523311398255e-06,5.347590785645994e-06,4.1397129170809735e-06,1.1384653548569448e-06,2.8349082135889236e-06,2.054289008944403e-06,3.1697489985777364e-07,9.286341628351009e-07,3.839855779748797e-06,1.6188553160392727e-05,1.2022568605806162e-06,2.12710501936088e-06
141,1.7667279602382267e-06,1.439939114047311e-06,9.010226582383448e-07,2.3741036074553835e-06,4.459666774920874e-06,5.414151264393877e-06,4.1251157429246324e-06,1.1384980388104272e-06,2.9046456433039296e-06,2.0954981871353486e-06,2.894762787546237e-07,9.356506221988715e-07,3.961490679305235e-06,1.676054952178203e-05,1.2040986408592897e-06,2.178198448646197e-06
142,1.7789807457378074e-06,1.4136994914279423e-06,8.948223917228585e-07,2.4343122958384626e-06,4.506183182856954e-06,5.484364976170805e-06,4.111443098221057e-06,1.141346571514294e-06,2.978880920325503e-06,2.132020585632664e-06,2.6323992766841055e-07,9.459396341430993e-07,4.098439735844155e-06,1.73189349291911e-05,1.2034687461384794e-06,2.2302954896827942e-06
143,1.7895520226741902e-06,1.3899102950323846e-06,8.923247844942175e-07,2.493906346356279e-06,4.556211349278398e-06,5.560081906401174e-06,4.0996460914743165e-06,1.1473095857226038e-06,3.0564785549760786e-06,2.163204042631532e-06,2.39458550025375e-07,9.593037573847726e-07,4.25007263936201e-06,1.786152116080489e-05,1.2003189080814695e-06,2.282154258763029e-06
144,1.7990797389954738e-06,1.3692949955144132e-06,8.936031021729068e-07,2.5522738794573837e-06,4.61167741947216e-06,5.6436983320722715e-06,4.090175247677431e-06,1.1568304075492115e-06,3.136111326497322e-06,2.1888375853356453e-06,2.19642248618043e-07,9.755937423645621e-07,4.415084841544421e-06,1.8388746267160393e-05,1.19468956414685e-06,2.332613544506615e-06
145,1.8079334139753822e-06,1.3524514654329261e-06,8.986768400038189e-07,2.6086102655791475e-06,4.674155510198434e-06,5.737467181287766e-06,4.082811380452411e-06,1.1703155718723811e-06,3.216355280150802e-06,2.2089829731449217e-06,2.0559527727711967e-07,9.947688803956207e-07,4.591428698916217e-06,1.890362949105384e-05,1.1866834978505263e-06,2.3806322427595548e-06
146,1.8162483030746302e-06,1.3399001581370987e-06,9.074278789328791e-07,2.6620731838455986e-06,4.744514545483113e-06,5.842954299314813e-06,4.07657481119091e-06,1.1880150712576213e-06,3.2957396914418456e-06,2.2238290425218586e-06,1.9928008057996922e-07,1.0168387467493881e-06,4.776292117048031e-06,1.9410577401952716e-05,1.176377329246787e-06,2.4252377218865496e-06
147,1.824014954104735e-06,1.332053492598866e-06,9.195685642918582e-07,2.7118724340351413e-06,4.8226955125215845e-06,5.960789379016859e-06,4.0697870603753496e-06,1.209977503750529e-06,3.372853571399514e-06,2.2336203515404836e-06,2.0271279557292088e-07,1.0418004606042296e-06,4.966179424218272e-06,1.9913568971186494e-05,1.1638029092823892e-06,2.4654554689865085e-06
148,1.8311383339853487e-06,1.3291647532109898e-06,9.346439650690323e-07,2.7573142211204973e-06,4.907590120512145e-06,6.09054922045499e-06,4.060248142829681e-06,1.2360321125518766e-06,3.4465473597829353e-06,2.2387144533755715e-06,2.1795718812703103e-07,1.0696925621269902e-06,5.157265829864811e-06,2.041456704260437e-05,1.1490742691078937e-06,2.500310945221824e-06
149,1.8374050932393185e-06,1.3313411647732832e-06,9.520730809540908e-07,2.7978817343535697e-06,4.997024476234035e-06,6.23069893317228e-06,4.045462726829846e-06,1.265775327243294e-06,3.5161120789646643e-06,2.2396550156740437e-06,2.4716462445716956e-07,1.100753907574592e-06,5.345906292536894e-06,2.0912944590336202e-05,1.1325069829723552e-06,2.5289389285115992e-06
150,1.8424027711495057e-06,1.3385747221160966e-06,9.712267282614711e-07,2.833294791931248e-06,5.087811019679867e-06,6.378624917301176e-06,4.022908115013349e-06,1.298556374258657e-06,3.5812992885484105e-06,2.2371030920427607e-06,2.9258337970064656e-07,1.1356173969368203e-06,5.5289611478712535e-06,2.14060323526662e-05,1.1145534288692849e-06,2.5507452462985046e-06
151,1.8455106409366607e-06,1.3507648760175733e-06,9.915233813756635e-07,2.863453709270729e-06,5.175799081694767e-06,6.530626351766263e-06,3.990323782979261e-06,1.3335021453077816e-06,3.6421629308896586e-06,2.2317105285940655e-06,3.5652878746552526e-07,1.1754418671427646e-06,5.703793794135435e-06,2.1889984779345682e-05,1.0956308739121897e-06,2.565515866371312e-06
152,1.8461076290226893e-06,1.3677823204021211e-06,1.0125351813773622e-06,2.888298486702424e-06,5.255995686918338e-06,6.681816143005201e-06,3.945960756087322e-06,1.3696373334611971e-06,3.698765260812004e-06,2.224050339987503e-06,4.4137243573847004e-07,1.2218500972035922e-06,5.868005484387847e-06,2.2360011447082214e-05,1.0760110974571145e-06,2.5734674109798153e-06
153,1.8439576636003902e-06,1.3895156999411469e-06,1.0340693044566376e-06,2.9076949824015706e-06,5.322902596619169e-06,6.826204400184056e-06,3.888739170301836e-06,1.4060623034837436e-06,3.750864450648553e-06,2.214619907978661e-06,5.495712729972874e-07,1.2766649199407016e-06,6.018995566381011e-06,2.280963635392032e-05,1.0558029459744283e-06,2.5753048812924508e-06
154,1.8394204904203692e-06,1.4158235291071954e-06,1.0561489114119327e-06,2.921427544501147e-06,5.371006133144649e-06,6.957209652095512e-06,3.818312832877364e-06,1.442053435843291e-06,3.797807417660562e-06,2.203954326748473e-06,6.836927392773118e-07,1.341647264479309e-06,6.153494590846064e-06,2.3229388040045162e-05,1.03504110262358e-06,2.5721914609178225e-06
155,1.8332668042634617e-06,1.4464798702721755e-06,1.0789000819252163e-06,2.9292862338379206e-06,5.395276138685378e-06,7.068537636854082e-06,3.7350596122360364e-06,1.4769985803509774e-06,3.838676538223029e-06,2.1927648395967885e-06,8.464439100138886e-07,1.4183912323616265e-06,6.267376948082254e-06,2.3605975923738654e-05,1.0138518245224727e-06,2.565482019994102e-06
156,1.8264020468059036e-06,1.4811806403938555e-06,1.1024507365905226e-06,2.9311225358516996e-06,5.391689866601531e-06,7.155175476485544e-06,3.639981134101148e-06,1.5102238850038084e-06,3.872461522748161e-06,2.1819090099217766e-06,1.0407400695632913e-06,1.5082903882785706e-06,6.356015948914841e-06,2.392288884683379e-05,9.925378191083413e-07,2.556358654836499e-06
157,1.8197848815239403e-06,1.5195385689234738e-06,1.1268958656948435e-06,2.926743418100056e-06,5.357772840649269e-06,7.21417458464442e-06,3.534487304870674e-06,1.5408437889958985e-06,3.898115492665513e-06,2.17218548393626e-06,1.2697105754195147e-06,1.6124887607050187e-06,6.415037424009769e-06,2.4162575860551193e-05,9.715021901064642e-07,2.5456082424232144e-06
158,1.8143897336623195e-06,1.5610776636607451e-06,1.1523219078040252e-06,2.915726861837514e-06,5.2929725455791205e-06,7.244863187248546e-06,3.4200777464362724e-06,1.5677537376745286e-06,3.914595282450587e-06,2.1641258546051306e-06,1.5365473801738755e-06,1.731885818996048e-06,6.441027912478098e-06,2.4310097444208284e-05,9.511218909818016e-07,2.533541037489283e-06
159,1.811168528060042e-06,1.605332701154968e-06,1.1788424131849044e-06,2.897422171050383e-06,5.198662091802978e-06,7.248254912859218e-06,3.298027662257431e-06,1.589823898846944e-06,3.920992273426537e-06,2.1579268838887937e-06,1.8443138900086032e-06,1.8672206663458665e-06,6.431950962510002e-06,2.435733132509066e-05,9.317149992197685e-07,2.520005442868192e-06
160,1.8111655082537556e-06,1.6520008872350558e-06,1.2065690838057786e-06,2.871253517171988e-06,5.077691502232472e-06,7.225906891103712e-06,3.16931644178798e-06,1.6062231996638612e-06,3.9167491937424584e-06,2.15354555055479e-06,2.1958531708847418e-06,2.0191790894631482e-06,6.387337928008663e-06,2.4304939716582465e-05,9.136203590532556e-07,2.5045661157830452e-06
161,1.8156297632307524e-06,1.7009563039606462e-06,1.2355532266489444e-06,2.837170763464659e-06,4.933589100520911e-06,7.179110959509476e-06,3.0348830584005904e-06,1.6166831623593447e-06,3.901918647577719e-06,2.150843602298589e-06,2.5937869263673424e-06,2.188549928091932e-06,6.308310521133023e-06,2.4159901699613525e-05,8.972732836290274e-07,2.486784886901142e-06
162,1.82589116696706e-06,1.7521192518326334e-06,1.2657708861948598e-06,2.795983669113762e-06,4.7698137382778e-06,7.109055617649522e-06,2.895937781354062e-06,1.6215243720437316e-06,3.87734415998187e-06,2.1496336804527966e-06,3.0405103222212136e-06,2.376445262527007e-06,6.197305277684596e-06,2.393071008379147e-05,8.831716355147113e-07,2.4663895444987736e-06
163,1.8431404430498818e-06,1.8053927548739274e-06,1.2971081068524472e-06,2.7493720145226276e-06,4.589528171211541e-06,7.017525331074095e-06,2.754090972493955e-06,1.621430437414745e-06,3.844528116495578e-06,2.1495948119037236e-06,3.538105618920468e-06,2.5844009148324368e-06,6.057404757289169e-06,2.362456869725409e-05,8.717648767726064e-07,2.443252437937988e-06
164,1.8683122696363808e-06,1.8607462610886945e-06,1.3293267477534429e-06,2.6995371112641555e-06,4.3958832573543e-06,6.907365898534155e-06,2.6113456094362025e-06,1.617151032053928e-06,3.8051273135171827e-06,2.1501890355984172e-06,4.088264076948769e-06,2.8141901604215547e-06,5.891596583252634e-06,2.324780319299003e-05,8.633642246308783e-07,2.4173000104924823e-06
165,1.9020322266650974e-06,1.9182790841222386e-06,1.3621053165384909e-06,2.6486829922395747e-06,4.1923603756991e-06,6.782445903331239e-06,2.470026687736864e-06,1.6093199561522556e-06,3.7604060534275956e-06,2.1508133750073825e-06,4.692345125324013e-06,3.067487093708134e-06,5.702561371959666e-06,2.2807417523614973e-05,8.581206671183854e-07,2.3884418222309437e-06
166,1.9446098519127634e-06,1.978127948327551e-06,1.3951601164879068e-06,2.5986087455133903e-06,3.98285389203652e-06,6.6471688728711745e-06,2.332599479656339e-06,1.5983758210021818e-06,3.7109716418907187e-06,2.1511813151533917e-06,5.351456857845482e-06,3.3456028300748914e-06,5.4930771463953025e-06,2.231188752134714e-05,8.560603132279595e-07,2.3565195640538692e-06
167,1.9961090465476566e-06,2.0402876461879744e-06,1.428290583115943e-06,2.550553627164965e-06,3.771516941570516e-06,6.505751886843734e-06,2.201384931568994e-06,1.5845210618541812e-06,3.6567941621952484e-06,2.1515128618287663e-06,6.066364579254981e-06,3.649318297085562e-06,5.266506863125251e-06,2.1770505618149027e-05,8.57115015142659e-07,2.3213219987326882e-06
168,2.0563944853295493e-06,2.104478349413757e-06,1.4613090269648129e-06,2.5052445861511983e-06,3.5625231694113186e-06,6.361657707289336e-06,2.078330800973437e-06,1.5677954530461895e-06,3.5974530321268302e-06,2.152287668182473e-06,6.837253450545058e-06,3.978757378928193e-06,5.027013306434718e-06,2.119200365275455e-05,8.611020853626593e-07,2.282721154201513e-06
169,2.1250850128009176e-06,2.1700945859441376e-06,1.4940054595563427e-06,2.463067478096778e-06,3.35982991119578e-06,6.217459484297483e-06,1.964960554450345e-06,1.5482970702827259e-06,3.5325695119012535e-06,2.153864922493839e-06,7.663511910459515e-06,4.333292840736184e-06,4.77945248130807e-06,2.0584584144021102e-05,8.677035332194731e-07,2.2408622572403937e-06
170,2.201534616662198e-06,2.2362469815429455e-06,1.5262005256107448e-06,2.424284426970235e-06,3.166960809643987e-06,6.0750504873350195e-06,1.8624458029938761e-06,1.526381203728406e-06,3.4622347145468165e-06,2.1563290307103545e-06,8.543626893657225e-06,4.711494833710353e-06,4.528936131794774e-06,1.995787596975784e-05,8.764941759878438e-07,2.1962305475493566e-06
171,2.284943354889492e-06,2.3019288530442133e-06,1.5578071838892595e-06,2.3891477052275777e-06,2.986862006980119e-06,5.935851223735123e-06,1.7716686982752775e-06,1.5026592515956445e-06,3.3873139785306194e-06,2.1595685382281175e-06,9.47515323214492e-06,5.111137930266529e-06,4.280323745991342e-06,1.932431379688471e-05,8.870038133405044e-07,2.149483970168678e-06
172,2.3744797843086006e-06,2.3662246389753043e-06,1.5888789476883497e-06,2.357827252006162e-06,2.8219134211158266e-06,5.800743858843328e-06,1.6932040510448912e-06,1.4778179892889022e-06,3.309633183956579e-06,2.1633920949338363e-06,1.0454652766753504e-05,5.529239585511442e-06,4.038002142288939e-06,1.869826721368026e-05,8.9879829471814e-07,2.101193083620626e-06
173,2.4692812638275746e-06,2.4283827104026978e-06,1.6196416643665805e-06,2.3302950730353464e-06,2.6740999643657868e-06,5.6698473288213035e-06,1.6272778482742119e-06,1.4524519561544663e-06,3.231879920393858e-06,2.1675796673633325e-06,1.1477496885311734e-05,5.962061138795747e-06,3.8058794689044575e-06,1.8093930683962972e-05,9.115317977093174e-07,2.051757709526394e-06
174,2.5684303383567084e-06,2.487688713510282e-06,1.6504532014619483e-06,2.306363804101123e-06,2.5451994522524932e-06,5.5425758985477064e-06,1.573838257741664e-06,1.427039062863684e-06,3.1571170351645733e-06,2.171903085142509e-06,1.2537539118108904e-05,6.4050723965794494e-06,3.587319537307558e-06,1.752344097201165e-05,9.249100504989085e-07,2.001547569775543e-06
175,2.671052521479041e-06,2.5433008972167825e-06,1.6816901382981255e-06,2.285830009287247e-06,2.436814171787355e-06,5.418226783003738e-06,1.5328046485843192e-06,1.401965927275238e-06,3.0882475915007717e-06,2.1760935170122336e-06,1.3626820598850342e-05,6.852965172233443e-06,3.385036943980011e-06,1.699615156062388e-05,9.386352213195485e-07,1.9510670867544354e-06
176,2.7764893268654102e-06,2.5942671834781763e-06,1.7136487577776234e-06,2.2684938231002405e-06,2.350294737154806e-06,5.296789821329743e-06,1.5043413800992472e-06,1.3774982052657084e-06,3.027764276904515e-06,2.17971408291793e-06,1.4735437400671342e-05,7.299806609799143e-06,3.2011361445961502e-06,1.6519239036095387e-05,9.524316908703552e-07,1.9009877505394523e-06
177,2.8843900797593883e-06,2.639712303137627e-06,1.7465243602183075e-06,2.2540132891283015e-06,2.2866989199774083e-06,5.179425083914931e-06,1.4888971875984645e-06,1.3537943861910434e-06,2.977678734578579e-06,2.1820728791398174e-06,1.5851488099662465e-05,7.73934331030755e-06,3.037285361766766e-06,1.60986659203692e-05,9.660797905240992e-07,1.8520615656066063e-06
178,2.9946060019888933e-06,2.678963721416878e-06,1.7804717892876968e-06,2.2418166190244696e-06,2.246751607829117e-06,5.068318098683769e-06,1.487008937881488e-06,1.3310538537704358e-06,2.939469317963819e-06,2.182354927132931e-06,1.6960897020687445e-05,8.165297604827303e-06,2.894820799307154e-06,1.573959582499452e-05,9.793598972662506e-07,1.8049853804187174e-06
179,3.1068888186097754e-06,2.711462963539317e-06,1.8157270091973833e-06,2.231219144019132e-06,2.2307737441087323e-06,4.966092336806926e-06,1.4991262246540761e-06,1.3096656863933547e-06,2.9140646714340506e-06,2.1799422754187767e-06,1.8046972278272524e-05,8.57138081632291e-06,2.774669916392747e-06,1.5446388273753865e-05,9.919800225890711e-07,1.7602632389840803e-06
180,3.2205627822247094e-06,2.7365222651902285e-06,1.8527254290127913e-06,2.221635710548453e-06,2.2386755124572334e-06,4.875228595941427e-06,1.5255545175084151e-06,1.2901925241214632e-06,2.9018588345764293e-06,2.1747007442048946e-06,1.90898193709892e-05,8.950893614021885e-06,2.6772225439478503e-06,1.5222570543216226e-05,1.0036139579491406e-06,1.7181340766309079e-06
181,3.3344003082080415e-06,2.7530925602403613e-06,1.892103092512942e-06,2.2127394186351287e-06,2.270054619017665e-06,4.797789663258286e-06,1.566404045552474e-06,1.2732293853229516e-06,2.9027341309627797e-06,2.167002186747401e-06,2.0066226645284745e-05,9.296249282065993e-06,2.6022923506519766e-06,1.5070832335442585e-05,1.0140216821028294e-06,1.6786151180884517e-06
182,3.44676129891436e-06,2.7597106884375995e-06,1.9345273303412256e-06,2.2044886518246186e-06,2.324319282736569e-06,4.735387833188083e-06,1.6215120361383962e-06,1.2593047001694564e-06,2.916144742400846e-06,2.157450172148695e-06,2.0950823686370468e-05,9.599115951363053e-06,2.5491585503022064e-06,1.4992920569216915e-05,1.0231030662508095e-06,1.6416148745839327e-06
183,3.555787802649224e-06,2.7547026285443905e-06,1.980451288716899e-06,2.196981987405742e-06,2.4007096788045673e-06,4.689143350835287e-06,1.6903953289352156e-06,1.2488642672802426e-06,2.9412556677649867e-06,2.1465458590276943e-06,2.1718577089132087e-05,9.851413963494195e-06,2.5166918507815923e-06,1.4989399742087662e-05,1.030862604664719e-06,1.6070514875183887e-06
184,3.6594133882083594e-06,2.7365808432653244e-06,2.029935832640259e-06,2.1902548373780685e-06,2.4982011832511315e-06,4.6595280401699835e-06,1.7722516244148537e-06,1.2422311132127641e-06,2.976996156925043e-06,2.1345483365496694e-06,2.234769374345346e-05,1.0046556810251303e-05,2.5036077960472453e-06,1.5059361377553e-05,1.0373708859335791e-06,1.5749265555135663e-06
185,3.7552792782977802e-06,2.7045151271101617e-06,2.0825836051822462e-06,2.184213330682072e-06,2.6154786929658805e-06,4.646302877597157e-06,1.8659892410234315e-06,1.2395303900731875e-06,3.0220543620216697e-06,2.1215280978469877e-06,2.282185001674805e-05,1.0180215900443171e-05,2.508778850254502e-06,1.5200195487092966e-05,1.0427178164089573e-06,1.5452829829793384e-06
186,3.840850368852174e-06,2.6587102221304148e-06,2.137538642587802e-06,2.178690628921231e-06,2.7511223211812004e-06,4.648764068174289e-06,1.97023664894645e-06,1.2406930606290976e-06,3.0750442671545767e-06,2.107445029920077e-06,2.313122818767485e-05,1.0250270378727037e-05,2.531459492269963e-06,1.5407502144878138e-05,1.046954565682785e-06,1.5180809665088562e-06
187,3.913771035632321e-06,2.6004817684135586e-06,2.1935232298376577e-06,2.173463143219432e-06,2.9038271997630464e-06,4.666149973781587e-06,2.0833256703395655e-06,1.2455907565457324e-06,3.134811895975756e-06,2.0921551509691037e-06,2.3272055833560035e-05,1.0255922591393675e-05,2.571268152964567e-06,1.567513335556584e-05,1.0501097621946596e-06,1.49312108201445e-06
188,3.972287811062459e-06,2.5319714485577685e-06,2.248970994052122e-06,2.1681867611473376e-06,3.072405160995795e-06,4.697924075650911e-06,2.2033316341257195e-06,1.2542296685009895e-06,3.2005571368735733e-06,2.075352744522284e-06,2.324438314098903e-05,1.0196696322890126e-05,2.62790604680889e-06,1.5995261158423885e-05,1.0523232141759702e-06,1.4700505722031746e-06
189,4.015607348878701e-06,2.4556939244283188e-06,2.3022679358227885e-06,2.1623331050947743e-06,3.2555928353222653e-06,4.743876479530123e-06,2.328230344307518e-06,1.2668623101984558e-06,3.271640804866628e-06,2.0565161224731187e-06,2.3049392522043927e-05,1.0072557713398882e-05,2.700840730611237e-06,1.635837460423651e-05,1.053993209300329e-06,1.4484162955178788e-06
190,4.044055209253168e-06,2.374148307983097e-06,2.3519229611665907e-06,2.1552194883769564e-06,3.4518745944297226e-06,4.804154956836367e-06,2.4561531718719145e-06,1.2839278296408674e-06,3.3472626447045228e-06,2.0350148540185397e-06,2.2689060317857496e-05,9.885281548619584e-06,2.789117673701711e-06,1.675305622980376e-05,1.0557622706790314e-06,1.4277281966841717e-06
191,4.0589113724367365e-06,2.2895700321695906e-06,2.396553382312928e-06,2.1461976022949355e-06,3.659425805328097e-06,4.8792862660475465e-06,2.5856781403988072e-06,1.305891973234166e-06,3.4261820537134338e-06,2.0104267941779365e-06,2.2168653897264296e-05,9.639702816967702e-06,2.8912565212165045e-06,1.7165504804225313e-05,1.0583413254500781e-06,1.4074889390387055e-06
192,4.061990931855342e-06,2.2038177315089067e-06,2.4348684491175296e-06,2.134916970064017e-06,3.87614256581912e-06,4.970105474474247e-06,2.716040941476378e-06,1.3331282069340101e-06,3.5065541901051673e-06,1.9827991784175666e-06,2.149919309454459e-05,9.34377075220022e-06,3.005240150063661e-06,1.757955366523974e-05,1.0623564895121098e-06,1.3872039281902968e-06
193,4.055224897299057e-06,2.1183575427747296e-06,2.4658479704871726e-06,2.1213978293519136e-06,4.099739246711032e-06,5.077451828271978e-06,2.8471546238023455e-06,1.3658769412748806e-06,3.5860038328682113e-06,1.9525792654531417e-06,2.069777864290577e-05,9.00754563613509e-06,3.128601576242419e-06,1.7978093033765577e-05,1.0683055136082605e-06,1.3664726924993484e-06
194,4.0404244747640135e-06,2.0342585727803395e-06,2.488991153544802e-06,2.105804205728417e-06,4.327905739459603e-06,5.201655340231874e-06,2.979466547358449e-06,1.4042321574396632e-06,3.6619639697885994e-06,1.9203103408527567e-06,1.9786216346689495e-05,8.641781884329276e-06,3.2584801991738345e-06,1.834550339863692e-05,1.0765539031781028e-06,1.3451924046275752e-06
195,4.019195281255365e-06,1.9522114812457837e-06,2.5043374169673786e-06,2.088223901890224e-06,4.558397007895177e-06,5.34210676034816e-06,3.113759361926276e-06,1.4481179824879426e-06,3.732074072675128e-06,1.8864477674363372e-06,1.8789005570640895e-05,8.25664122759146e-06,3.3916823400902628e-06,1.8669907187839312e-05,1.087326776587328e-06,1.3237038182857713e-06
196,3.992917763421587e-06,1.872661790373433e-06,2.512175499179036e-06,2.0687684463912815e-06,4.788925671650931e-06,5.497235766877221e-06,3.2508938115194334e-06,1.4972547488469908e-06,3.79444513194963e-06,1.8514770577107132e-06,1.7731312633399346e-05,7.860998768359325e-06,3.5250701466797484e-06,1.8944553947324707e-05,1.1007230000532632e-06,1.3026878287775724e-06
197,3.9627776516239185e-06,1.7959875820707432e-06,2.5126602295530754e-06,2.047863131815799e-06,5.0170027308857304e-06,5.664947977487259e-06,3.391470272697789e-06,1.5511416713712816e-06,3.84782886629572e-06,1.8161497588008577e-06,1.6637200403406753e-05,7.462455602862181e-06,3.65637076685764e-06,1.9168084968696264e-05,1.1167412635002773e-06,1.2828949386495911e-06
198,3.9297718956237104e-06,1.7225609448635863e-06,2.5056347815978397e-06,2.0264069288077805e-06,5.240024323177912e-06,5.843253095318091e-06,3.5355347454223717e-06,1.6090955522047695e-06,3.891760964308929e-06,1.7815804109592215e-06,1.552825051179372e-05,7.067637467786052e-06,3.7848760316824374e-06,1.934323023493392e-05,1.1352846353944484e-06,1.264988416901046e-06
199,3.89457119295494e-06,1.6527208031689505e-06,2.4907826592787715e-06,2.0056860309530667e-06,5.455588781775146e-06,6.0306838316791095e-06,3.6824432112079087e-06,1.6703388867031072e-06,3.9265748987882235e-06,1.749131372621085e-06,1.4422730834854464e-05,6.682418512778023e-06,3.91138336521523e-06,1.9474121030869202e-05,1.1561604061854447e-06,1.249579443098654e-06
200,3.857306213572779e-06,1.5867954958870687e-06,2.467968425003494e-06,1.9871224142640225e-06,5.661642966712864e-06,6.2262259414151425e-06,3.830832129113026e-06,1.7340465501142397e-06,3.953164663660122e-06,1.7201754600932865e-06,1.3335376566843151e-05,6.312074247751899e-06,4.037377469104051e-06,1.9564399557710056e-05,1.1790987217088158e-06,1.2372584783321779e-06
201,3.817494082981776e-06,1.5251528693241636e-06,2.437508118195019e-06,1.9720040450760306e-06,5.856177622799271e-06,6.428809179738436e-06,3.978631445726385e-06,1.7993156593746154e-06,3.972549068847034e-06,1.6958997929075905e-06,1.2277618882852199e-05,5.961407595524111e-06,4.164095439239816e-06,1.9618118592640652e-05,1.203766227497208e-06,1.2285261304988968e-06
202,3.7741804597413543e-06,1.468158316387448e-06,2.400205682710137e-06,1.961339231680958e-06,6.0367409952620075e-06,6.636809715400351e-06,4.123146753609336e-06,1.8651577336191525e-06,3.985514365395735e-06,1.6772137456022506e-06,1.1258023559889731e-05,5.63482467623662e-06,4.292048342436465e-06,1.9642223811921506e-05,1.2297417020849326e-06,1.223741137394304e-06
203,3.726204177973354e-06,1.4160771970083294e-06,2.3571823198102293e-06,1.9558616175311953e-06,6.200313900085379e-06,6.848061721504861e-06,4.261230180855411e-06,1.930580883436787e-06,3.99256301024474e-06,1.6647025128617833e-06,1.0282819515682316e-05,5.336344002367902e-06,4.421093988554348e-06,1.9648113688638916e-05,1.2564913823747348e-06,1.2231391186938742e-06
204,3.6724925621349238e-06,1.3690710065086511e-06,2.309632203369952e-06,1.9560673901056266e-06,6.3436935215133575e-06,7.060318632465707e-06,4.389540187766521e-06,1.994693865829623e-06,3.993998018364453e-06,1.658606838689786e-06,9.356427987924431e-06,5.069512446904157e-06,4.550863476389463e-06,1.9651357944702784e-05,1.2834015465097143e-06,1.2268611632877903e-06
205,3.6123164959031933e-06,1.327307771688891e-06,2.258611090196949e-06,1.962187310783291e-06,6.464047880098955e-06,7.271623892160621e-06,4.504926235782754e-06,2.0566999169883064e-06,3.989904495504024e-06,1.658845174277826e-06,8.481870855419223e-06,4.837211241209577e-06,4.681235416238071e-06,1.9669986587117528e-05,1.3098514475374283e-06,1.2349808090328545e-06
206,3.5454374975816105e-06,1.2910577917642676e-06,2.204971848019304e-06,1.9741242366392474e-06,6.559301596353223e-06,7.480288947839166e-06,4.6049264679291445e-06,2.1157515577745533e-06,3.980123692173176e-06,1.6650525271396222e-06,7.661012529289826e-06,4.641418059522988e-06,4.812569712109431e-06,1.972208424961849e-05,1.3352968129996545e-06,1.24752199296874e-06
207,3.4721367776638477e-06,1.260666348572143e-06,2.1495116576549756e-06,1.9914534543929397e-06,6.6282676212609165e-06,7.68468384506464e-06,4.688218346419961e-06,2.1708568272915064e-06,3.9643611549137995e-06,1.6766193415436877e-06,6.894741515938416e-06,4.483054789370009e-06,4.945613033526815e-06,1.9823486789914886e-05,1.359350849380159e-06,1.2644357215388616e-06
208,3.393163825748593e-06,1.2364267064519895e-06,2.093171914499487e-06,2.0135362097968655e-06,6.6706614407523815e-06,7.883168892452206e-06,4.754781508505281e-06,2.2210223706374965e-06,3.942386375877333e-06,1.6927775187731474e-06,6.1832236424467645e-06,4.361977135584575e-06,5.0811692855359694e-06,1.998633805231268e-05,1.3817989786804423e-06,1.285594585750965e-06
209,3.3096153920691454e-06,1.218494048374878e-06,2.0370815009000028e-06,2.039702053414626e-06,6.687243919775812e-06,8.07426215715832e-06,4.805649722890262e-06,2.265540937599811e-06,3.914259951860751e-06,1.7127240567805234e-06,5.5261753255809705e-06,4.277028946152735e-06,5.219668664923843e-06,2.021868429504124e-05,1.402525553112951e-06,1.3108742936275968e-06
210,3.2227503072805963e-06,1.2069471015265122e-06,1.9824468427368028e-06,2.0694129504412637e-06,6.680153328189883e-06,8.256851393069366e-06,4.842356519619453e-06,2.304218833100027e-06,3.8805230142594015e-06,1.7356781604102766e-06,4.922995979658938e-06,4.226105095918805e-06,5.360761686748231e-06,2.052456927621819e-05,1.4215018167903316e-06,1.3402356903381232e-06
211,3.1338325426864347e-06,1.2019253129784584e-06,1.9304172829540704e-06,2.10230757067137e-06,6.653065582438696e-06,8.430061908667924e-06,4.866321964734314e-06,2.337451552925553e-06,3.842231699901228e-06,1.7608953838457565e-06,4.372745827795019e-06,4.206342687584608e-06,5.503038894729528e-06,2.090418672342863e-05,1.4389209366664638e-06,1.3736710649021652e-06
212,3.044112480174548e-06,1.2036711047055533e-06,1.8819957636127264e-06,2.1380695839091114e-06,6.6107046666098085e-06,8.592694094532651e-06,4.8784867994863604e-06,2.36612127377152e-06,3.80081204225471e-06,1.7877654005251127e-06,3.874087417996807e-06,4.214566175204892e-06,5.643910669448444e-06,2.135390007027435e-05,1.4553023196163146e-06,1.4110560240569374e-06
213,2.9548942051105513e-06,1.2124356047409158e-06,1.8379886878718793e-06,2.1762356262891363e-06,6.5578048225498185e-06,8.742894425560306e-06,4.879402135083979e-06,2.3913258539942235e-06,3.7578488442024616e-06,1.8159337102022775e-06,3.4252766721191468e-06,4.247837287824479e-06,5.779592268145179e-06,2.186606300645157e-05,1.4714238776738443e-06,1.4520725174615002e-06
214,2.8675348176238504e-06,1.2283784751548943e-06,1.7989918269743692e-06,2.2161357087149244e-06,6.498247048041903e-06,8.878522762654991e-06,4.869636179048798e-06,2.4140677188375944e-06,3.7148802868509632e-06,1.8452661900573809e-06,3.0242151780934595e-06,4.303787093091996e-06,5.905133697103847e-06,2.2429315696886396e-05,1.4881909905271873e-06,1.4962588989870665e-06
215,2.7833421233005083e-06,1.2515424105877434e-06,1.7654367580613345e-06,2.2569688550792915e-06,6.4347484796789534e-06,8.997595062257497e-06,4.850137030443332e-06,2.4351071182989166e-06,3.6731508584221444e-06,1.8756481233456575e-06,2.6685147497015453e-06,4.380543480602104e-06,6.0146647759699036e-06,2.3030168872214916e-05,1.5065693819617338e-06,1.543093807956738e-06
216,2.7034410486053965e-06,1.2818626410140604e-06,1.7376888322288497e-06,2.2978257558095507e-06,6.368802273077265e-06,9.098115765904263e-06,4.8223123784436235e-06,2.455011744187628e-06,3.6333637111563767e-06,1.9067889221518666e-06,2.3555356265447485e-06,4.4763447381836165e-06,6.102200903797766e-06,2.3655428678642476e-05,1.5275351908164169e-06,1.5919938735554244e-06
217,2.6286406377377717e-06,1.31920199355999e-06,1.7161253078870478e-06,2.3375830336351147e-06,6.300676810143144e-06,9.177449900185507e-06,4.787760757008558e-06,2.4742011312567174e-06,3.595675568695289e-06,1.9381815606357973e-06,2.082430127472207e-06,4.589131122985413e-06,6.1629405216573906e-06,2.4294113329575574e-05,1.551983779255515e-06,1.6422253824191554e-06
218,2.559341165591637e-06,1.3633890523930856e-06,1.7011173921748036e-06,2.374864361795619e-06,6.229557698733434e-06,9.231896790681093e-06,4.747787989409859e-06,2.4928448199265348e-06,3.5600291614516054e-06,1.969209959381246e-06,1.8462259358022818e-06,4.716309152030667e-06,6.194314143561832e-06,2.4937511978002713e-05,1.5806758064732056e-06,1.6928758625943522e-06
219,2.495566097981362e-06,1.4141715111337326e-06,1.6929099487495418e-06,2.4082427619199393e-06,6.153741048950935e-06,9.257127945264556e-06,4.703103100022103e-06,2.5106869993210716e-06,3.5265342965954095e-06,1.999290766806551e-06,1.6439029177644726e-06,4.854606639385556e-06,6.195985365850699e-06,2.557741726934179e-05,1.614264872935886e-06,1.742977223823358e-06
220,2.437118286647387e-06,1.4710964799276373e-06,1.69147672124757e-06,2.4365507382679313e-06,6.070687592442352e-06,9.249480377977198e-06,4.653924041532194e-06,2.526948132355843e-06,3.495614666888557e-06,2.0280143622123182e-06,1.4724129009360524e-06,4.999915028001639e-06,6.168813994732425e-06,2.6205138728501587e-05,1.6533188215462269e-06,1.791686570891171e-06
221,2.3837678211653374e-06,1.5334398515647768e-06,1.6964464046694154e-06,2.4590921951607152e-06,5.976979629277687e-06,9.20720666209185e-06,4.600213605826835e-06,2.5404413664458385e-06,3.4679748253300914e-06,2.0553141692809825e-06,1.3287085957999568e-06,5.147247128617031e-06,6.113772401125496e-06,2.681285860958439e-05,1.6982687985084396e-06,1.8383862538507712e-06
222,2.3354106508526005e-06,1.6002378848374004e-06,1.7071468895349706e-06,2.47575687625831e-06,5.868564930390012e-06,9.13076136062705e-06,4.5417097281928e-06,2.5499516715934858e-06,3.444522969510123e-06,2.0815823524736935e-06,1.2097996676230133e-06,5.290977282532948e-06,6.0316784360659435e-06,2.73947491220989e-05,1.7493219461190163e-06,1.8827056316540106e-06
223,2.292152504331039e-06,1.6703569594744354e-06,1.7227282685224214e-06,2.4870744713433636e-06,5.741580214032726e-06,9.02193934995591e-06,4.477857764272586e-06,2.5546880150123914e-06,3.4261955128765467e-06,2.107606111937167e-06,1.1127314260216906e-06,5.425299986406661e-06,5.92351210268664e-06,2.7945580162504644e-05,1.8063959469690503e-06,1.924525881821606e-06
224,2.25425022105417e-06,1.7425331356378032e-06,1.7422492712600206e-06,2.494100474837364e-06,5.593468481283895e-06,8.882528426422945e-06,4.408029912053502e-06,2.5544837124714556e-06,3.4136393507087638e-06,2.1343327442940685e-06,1.0345528163623194e-06,5.544748485063021e-06,5.790687853851245e-06,2.845862259940878e-05,1.8690865705721136e-06,1.963908450281582e-06
225,2.2219098063787627e-06,1.8154125426515854e-06,1.764702004256113e-06,2.4980881620575397e-06,5.423863804395624e-06,8.713720012516095e-06,4.3320626768496385e-06,2.5496312582792653e-06,3.406926406545714e-06,2.1626285138052605e-06,9.724258384942786e-07,5.644726798686835e-06,5.63512473993365e-06,2.8925622753207528e-05,1.9366584947159745e-06,2.000951385054445e-06
226,2.1950595507663175e-06,1.8876707538371538e-06,1.789073785840207e-06,2.5001604449011747e-06,5.2349415482643226e-06,8.516913449149642e-06,4.250631431276681e-06,2.5405483051987604e-06,3.4054729468943547e-06,2.193170374985607e-06,9.23807310669407e-07,5.722003944673339e-06,5.45925732696276e-06,2.933852195724175e-05,2.0080448501647e-06,2.0357660267253976e-06
227,2.173265239215742e-06,1.958173418508376e-06,1.8144055953786786e-06,2.501222306282781e-06,5.031126159612819e-06,8.295050450001713e-06,4.165160652920973e-06,2.527524275551811e-06,3.408103439408412e-06,2.2264011939275256e-06,8.865400055598459e-07,5.7750345791239395e-06,5.2661361996526524e-06,2.969023597389779e-05,2.0818317119987324e-06,2.0685792524049356e-06
228,2.1558791168150312e-06,2.0260232978961095e-06,1.839712477662508e-06,2.5020842979045916e-06,4.818268782936446e-06,8.05323221166996e-06,4.077484079915786e-06,2.5105949466192326e-06,3.4131500042344148e-06,2.2624781003347124e-06,8.58788962364308e-07,5.804021835069698e-06,5.059615768454408e-06,2.9973203555759206e-05,2.15624843162728e-06,2.099709021258792e-06
229,2.142329651346538e-06,2.0904275299085163e-06,1.8638316426951274e-06,2.5035828441834755e-06,4.602695332968814e-06,7.79835312770879e-06,3.989562504445942e-06,2.489463486975059e-06,3.418628361815935e-06,2.3013218928147158e-06,8.38917285690652e-07,5.810748698538787e-06,4.844335361498813e-06,3.0177436075186594e-05,2.22924703480359e-06,2.129357593499151e-06
230,2.1323350867099944e-06,2.150481757213863e-06,1.885353773387118e-06,2.50654256826523e-06,4.390504335534938e-06,7.538291294816766e-06,3.903352212093884e-06,2.4635142830146368e-06,3.422464929313882e-06,2.3427896379031847e-06,8.254511036820035e-07,5.7982488595948426e-06,4.625251528881952e-06,3.029105892630532e-05,2.298728514331257e-06,2.1574693785096675e-06
231,2.1259072797205363e-06,2.2050175596919818e-06,1.9027344219033592e-06,2.511625605331049e-06,4.187205303226979e-06,7.2811879654951265e-06,3.820738673280353e-06,2.4320144777548305e-06,3.4225817380506717e-06,2.38682621438341e-06,8.170895277533801e-07,5.7703627615866895e-06,4.407017624932571e-06,3.0304116098598064e-05,2.3628042346148925e-06,2.183842835814974e-06
232,2.1231641643297994e-06,2.2526565026682108e-06,1.9146366888103818e-06,2.519298492170592e-06,3.997653778711186e-06,7.034985026019916e-06,3.743395086257313e-06,2.394407407374858e-06,3.4168449231964562e-06,2.4335245144583794e-06,8.126225687761014e-07,5.7311801418429275e-06,4.193670124942904e-06,3.0212901759046878e-05,2.4198738582726546e-06,2.2083750840245404e-06
233,2.1240614939611606e-06,2.292120668538833e-06,1.9203698939655987e-06,2.5300202208292995e-06,3.8261687417905756e-06,6.807149128818783e-06,3.6725384910803173e-06,2.3505310002622215e-06,3.403187247606638e-06,2.4831127857810907e-06,8.108204719239338e-07,5.684422676182184e-06,3.9885803591595825e-06,3.0021578187030235e-05,2.4685028238444833e-06,2.231180681486969e-06
234,2.128211916890635e-06,2.322626681912458e-06,1.920154437463064e-06,2.5444335261632194e-06,3.676600308754567e-06,6.604460656850165e-06,3.6087599806446295e-06,2.300708084641373e-06,3.3800699133251646e-06,2.535876000349784e-06,8.104632061530937e-07,5.632979783217394e-06,3.7943889466852653e-06,2.9740340694885413e-05,2.5073245993288124e-06,2.2525109881317874e-06
235,2.134927585081131e-06,2.3440900299735156e-06,1.9150594801399015e-06,2.563378769929163e-06,3.5522422830800173e-06,6.432811259994665e-06,3.5520843303467198e-06,2.245741092884641e-06,3.347007664027887e-06,2.5920620856984343e-06,8.105056833681756e-07,5.57878377923167e-06,3.612907943024281e-06,2.938166557100445e-05,2.5351410469330683e-06,2.2725821632599005e-06
236,2.1434567782785138e-06,2.3569892720167133e-06,1.9066519436904925e-06,2.5878324054552562e-06,3.455732933367933e-06,6.297052195067702e-06,3.502163803502813e-06,2.186855225723111e-06,3.3047560147146e-06,2.651850312911545e-06,8.102113937377224e-07,5.522908339507302e-06,3.4451078568687813e-06,2.895651869438813e-05,2.551137364106709e-06,2.2914525642698896e-06
237,2.153212847134095e-06,2.3619808149889928e-06,1.89654669955184e-06,2.618877825132903e-06,3.389053194378877e-06,6.200937253336878e-06,3.4584446359783993e-06,2.1255899616722815e-06,3.25512752573244e-06,2.715336193144074e-06,8.091502029894407e-07,5.465642612542241e-06,3.29123709313684e-06,2.8471711547430937e-05,2.5549302708690878e-06,2.3090069271408007e-06
238,2.1637936882803305e-06,2.3595858215418626e-06,1.8860804387884528e-06,2.6576224478053373e-06,3.3535612502708187e-06,6.1471254676971176e-06,3.420315152308728e-06,2.06361798352152e-06,3.2007206901432667e-06,2.78240243409883e-06,8.070896912098715e-07,5.4065091799611895e-06,3.1510885670102456e-06,2.7929405607489852e-05,2.546372700832698e-06,2.3249633089428117e-06
239,2.174825689308171e-06,2.3501709700719558e-06,1.8762046445403666e-06,2.704981481758356e-06,3.3500092513406884e-06,6.137189776815372e-06,3.3872983832527414e-06,2.002523376325436e-06,3.144651049960059e-06,2.8525283425759162e-06,8.038593127402328e-07,5.3443824848308635e-06,3.024307362329065e-06,2.7329169446063984e-05,2.525493869843144e-06,2.3389058838373556e-06
240,2.1859167975897043e-06,2.3340976893698876e-06,1.8675322443206828e-06,2.7614663848492134e-06,3.378540692520761e-06,6.1716230197731176e-06,3.3591884145112764e-06,1.9436200595514823e-06,3.0901742885686187e-06,2.9247790001883983e-06,7.992852705088781e-07,5.2777887547389305e-06,2.9104976714940955e-06,2.667126039506683e-05,2.4928009617781836e-06,2.350440722596369e-06
241,2.1968439265542062e-06,2.311834824748303e-06,1.860403205717504e-06,2.8271757325411523e-06,3.438681841739303e-06,6.249816174877073e-06,3.3359762763079437e-06,1.8878943725032124e-06,3.040347979147685e-06,2.9979818276669476e-06,7.932219684945056e-07,5.205270143746356e-06,2.8090678484971306e-06,2.5959063132451767e-05,2.44955917307043e-06,2.3593448508680197e-06
242,2.207715254628204e-06,2.28397366486956e-06,1.8548883924712362e-06,2.9019771587104966e-06,3.529333988059669e-06,6.3699758307917714e-06,3.3176647617934865e-06,1.8360971534233486e-06,2.9979106241380106e-06,3.070874999476552e-06,7.855871207538252e-07,5.125624314011964e-06,2.7190620493030826e-06,2.519963176018917e-05,2.3976913658160682e-06,2.3655062348535136e-06
243,2.2188951627297253e-06,2.251157188063787e-06,1.8507861414864065e-06,2.985719007762174e-06,3.648726892082781e-06,6.529101381952315e-06,3.304256907465562e-06,1.7888758087356206e-06,2.965225530374659e-06,3.142314569667396e-06,7.763629784997483e-07,5.037974104550782e-06,2.6391873790909367e-06,2.4402427582468934e-05,2.3394198975544416e-06,2.368712070914651e-06
244,2.2308198713860557e-06,2.2139534427389865e-06,1.8477024213523014e-06,3.0783615160545267e-06,3.794357547533123e-06,6.723190097801511e-06,3.295962653647719e-06,1.7467945259823728e-06,2.9441589047916807e-06,3.2116646161653977e-06,7.656062835775824e-07,4.941808049166928e-06,2.5680227232691402e-06,2.357705222109557e-05,2.276920670370496e-06,2.368520149199559e-06
245,2.2439037031985236e-06,2.172753909093403e-06,1.845165646454917e-06,3.1799701110461147e-06,3.962967755815322e-06,6.947594432496136e-06,3.293316174083863e-06,1.7102654966263675e-06,2.9359662638919507e-06,3.279039458845317e-06,7.534659736340659e-07,4.837106861422483e-06,2.5043428335410035e-06,2.2731735758058462e-05,2.212116511579455e-06,2.3643843011345024e-06
246,2.258563384838572e-06,2.127853773203053e-06,1.842649168076918e-06,3.290540231925065e-06,4.150527397202228e-06,7.197288600148255e-06,3.2969693089093957e-06,1.6795154160218939e-06,2.941277598348829e-06,3.3451697013177054e-06,7.401986946210761e-07,4.724479410762189e-06,2.4474418906564037e-06,2.1874417308113247e-05,2.1465917526002872e-06,2.3559647249989554e-06
247,2.2752707984628673e-06,2.0797409363401125e-06,1.83950645573172e-06,3.4097450666395047e-06,4.352283369659581e-06,7.466908917871377e-06,3.307346533776914e-06,1.6545825596075773e-06,2.9602011822135225e-06,3.41114386975823e-06,7.261622729976456e-07,4.605183192569738e-06,2.397233374730309e-06,2.1015661990167166e-05,2.08156484964348e-06,2.3433641996849084e-06
248,2.2945730880510416e-06,2.0293240071073883e-06,1.8349766532133762e-06,3.5367861387521293e-06,4.563011543101693e-06,7.750656624151116e-06,3.324510928945664e-06,1.635298075304501e-06,2.992459551273196e-06,3.478218388467082e-06,7.117395840004682e-07,4.481017007010062e-06,2.3540057794271127e-06,2.017028299051872e-05,2.0178996127674077e-06,2.327129838798995e-06
249,2.3170712782021262e-06,1.9778518669467523e-06,1.8283674864637833e-06,3.670398470562463e-06,4.7773838338745805e-06,8.042278213368447e-06,3.3482987629921514e-06,1.6212814615971748e-06,3.037474439980284e-06,3.54759197436121e-06,6.972343940012549e-07,4.3541387051886966e-06,2.318012688718685e-06,1.9356029360478603e-05,1.9561686831775652e-06,2.3080924793720947e-06
250,2.3433302205513075e-06,1.926627637567768e-06,1.8193337927790902e-06,3.808863345741374e-06,4.99020870442989e-06,8.335216964149408e-06,3.3784808209406244e-06,1.6119736483420193e-06,3.0944591327460054e-06,3.6201053774146372e-06,6.828459391072202e-07,4.226861907308079e-06,2.2891966726998883e-06,1.8590675010682383e-05,1.8967657353947945e-06,2.2871817856792944e-06
251,2.3737366930471e-06,1.8767755977759142e-06,1.8080971458338627e-06,3.949913468813645e-06,5.196487103765141e-06,8.622863059686602e-06,3.4147505147208934e-06,1.6067341023884235e-06,3.1625879932669047e-06,3.6960027533826264e-06,6.687362191689841e-07,4.101493480844041e-06,2.267117475316939e-06,1.788973114141092e-05,1.8400225978877736e-06,2.265257236589716e-06
252,2.4084577680653444e-06,1.8291411671325337e-06,1.795504653678324e-06,4.090662853349353e-06,5.39143781494879e-06,8.898854387607714e-06,3.456586911642173e-06,1.6049831523736374e-06,3.2411432104315807e-06,3.7748143732221257e-06,6.550991769760813e-07,3.980278524039298e-06,2.250946495745817e-06,1.7265968961688167e-05,1.7862480043450778e-06,2.24295884950958e-06
253,2.447573327552142e-06,1.7842795447270807e-06,1.7828625516443427e-06,4.2277706158982516e-06,5.570627728822353e-06,9.157437155610463e-06,3.5031760684520253e-06,1.6062397461756678e-06,3.329452733021983e-06,3.855318431593376e-06,6.421512749941529e-07,3.865431684924992e-06,2.2394909750954812e-06,1.673038220298068e-05,1.7356788970074267e-06,2.220665352668501e-06
254,2.491206672742665e-06,1.7425172836812836e-06,1.771596952702361e-06,4.35781111456888e-06,5.730225472606383e-06,9.393837597512197e-06,3.5534377461310416e-06,1.6100096471500288e-06,3.4266287165833494e-06,3.935568227051897e-06,6.300803951662253e-07,3.7591003073974195e-06,2.231313496987334e-06,1.6293328203831366e-05,1.6884684650167747e-06,2.1986126663088426e-06
255,2.5394976488000865e-06,1.7040399645672531e-06,1.7629529599440693e-06,4.477639401612646e-06,5.867333636163614e-06,9.604531163547855e-06,3.6059996751019303e-06,1.6157243099361675e-06,3.53142912753523e-06,4.0130028258449305e-06,6.190483567161217e-07,3.6631614559775387e-06,2.224900984460879e-06,1.5964974664283383e-05,1.6447548938755533e-06,2.177035589987461e-06
256,2.592495862707914e-06,1.6689429848306377e-06,1.7578553980473484e-06,4.584627413724557e-06,5.980272336420768e-06,9.787287569069988e-06,3.659039997288289e-06,1.6228453155164808e-06,3.6425216546020857e-06,4.08477565499928e-06,6.092369767233735e-07,3.5789540165216046e-06,2.218772477894482e-06,1.5755027671371597e-05,1.60472599675112e-06,2.1561921440710975e-06
257,2.650100953575538e-06,1.6372254758400783e-06,1.7568622692921293e-06,4.6767980047341885e-06,6.0685850678593725e-06,9.940875786370094e-06,3.7101661381912662e-06,1.6309718195234165e-06,3.7590024386062673e-06,4.148367200173447e-06,6.008488862401656e-07,3.5070959668789524e-06,2.211532916543062e-06,1.5672055098625168e-05,1.5686485040922513e-06,2.1363259259394973e-06
258,2.712024214497284e-06,1.6087636854265868e-06,1.7601526809206632e-06,4.752923346230917e-06,6.132626653961464e-06,1.0064335050279419e-05,3.756457772649112e-06,1.6398039272940141e-06,3.880783160897879e-06,4.202097828305311e-06,5.940512324373482e-07,3.447447847916176e-06,2.2019838688363474e-06,1.5722644733908852e-05,1.5368486361874739e-06,2.117673145640422e-06
259,2.7777100698081432e-06,1.5833852864408495e-06,1.7675576147190046e-06,4.812593815195003e-06,6.172877713805599e-06,1.0155994949378022e-05,3.7945903326553898e-06,1.6490362921002884e-06,4.008617208480708e-06,4.245137846883457e-06,5.88940588894699e-07,3.3992022910654963e-06,2.189347886982751e-06,1.591068756396892e-05,1.5096165405411814e-06,2.1005089231673495e-06
260,2.8463127308566565e-06,1.5610703186716593e-06,1.778632469507697e-06,4.856170062127201e-06,6.189292640146272e-06,1.0212946877727322e-05,3.821018865933317e-06,1.6583227478737618e-06,4.143795168166712e-06,4.277164072601189e-06,5.85564130561816e-07,3.3609932721469613e-06,2.1735153351529787e-06,1.6237165282813793e-05,1.4870857470528438e-06,2.0851833765037036e-06
261,2.916800843851028e-06,1.5420589849331634e-06,1.7927636155981421e-06,4.8844934865864965e-06,6.180970155826121e-06,1.0231516107665662e-05,3.83234788690073e-06,1.6673449062312692e-06,4.287662789416345e-06,4.298026082994701e-06,5.839345350097532e-07,3.3309658606144527e-06,2.155117010091458e-06,1.6700397116788234e-05,1.4691530183185076e-06,2.0721413970566934e-06
262,2.988072725387193e-06,1.526716011542364e-06,1.8092779584857574e-06,4.898374227274417e-06,6.146400374364796e-06,1.0208376262481529e-05,3.825881052503022e-06,1.6759009210754674e-06,4.441127382201171e-06,4.307506778946086e-06,5.839988105942162e-07,3.3069473332215983e-06,2.1353017934978107e-06,1.729617580883839e-05,1.4554448355447506e-06,2.061901264479101e-06
263,3.0590035387106037e-06,1.5153185607407217e-06,1.8274888140983256e-06,4.898168927942296e-06,6.0842899527946485e-06,1.0141634548301805e-05,3.800138949099914e-06,1.6839200367232396e-06,4.6043168908559964e-06,4.30508719108651e-06,5.856177654687729e-07,3.2868150023028698e-06,2.1153326670625427e-06,1.801743095280946e-05,1.4453137926983916e-06,2.0549275823917056e-06
264,3.1284687956932657e-06,1.5079527777832697e-06,1.8466746512960822e-06,4.883815056785178e-06,5.994520191090339e-06,1.0031619946357594e-05,3.7551428779729332e-06,1.6914020317133105e-06,4.776443933510872e-06,4.289853139693506e-06,5.886022437619878e-07,3.268870870794779e-06,2.096264103153952e-06,1.8853663430673598e-05,1.4378638595716283e-06,2.0514343818395588e-06
265,3.1953693236415124e-06,1.5045096529944989e-06,1.8661112063443125e-06,4.855311277300244e-06,5.878705181014115e-06,9.881285734444312e-06,3.6923794908099472e-06,1.698355351385345e-06,4.955799512120404e-06,4.2607861170434895e-06,5.927537027871657e-07,3.2519893690137535e-06,2.0788801737683547e-06,1.9790522219288058e-05,1.4320611264525458e-06,2.051276625443186e-06
266,3.2586706690868984e-06,1.5047119599835739e-06,1.8852401377927055e-06,4.8132700035104405e-06,5.740161162396028e-06,9.696064999930578e-06,3.614423678718508e-06,1.7047654906556274e-06,5.139831677294701e-06,4.217278447592557e-06,5.978551493804206e-07,3.2355456690383614e-06,2.0638348280684836e-06,2.0809498719628776e-05,1.426956487785426e-06,2.054014842243946e-06
267,3.3174449754446398e-06,1.5081367204689238e-06,1.9038344500595584e-06,4.759156627964463e-06,5.583432473872458e-06,9.483114376173817e-06,3.5243102745725228e-06,1.710550921959751e-06,5.3252560415133254e-06,4.15947793226782e-06,6.036636070680452e-07,3.219325310865278e-06,2.0517720246999395e-06,2.1887566264235473e-05,1.4218884283240287e-06,2.0590793547632395e-06
268,3.3708052079332888e-06,1.5142803560650574e-06,1.921945295312161e-06,4.695050994279579e-06,5.4136475051476785e-06,9.250190256940088e-06,3.424956186647909e-06,1.7155271658196106e-06,5.508209404366338e-06,4.088349805231787e-06,6.099812858856921e-07,3.203556082936923e-06,2.0432866083628673e-06,2.2996854050536585e-05,1.416533006621672e-06,2.065940870829249e-06
269,3.4177092577363896e-06,1.5227079635131548e-06,1.9396779015604165e-06,4.623110537088378e-06,5.235949540758079e-06,9.004637662950338e-06,3.3189443553623075e-06,1.7194987400302635e-06,5.684686166501341e-06,4.005590180730037e-06,6.16778703939167e-07,3.1889587751033917e-06,2.03877620470145e-06,2.4104707661677536e-05,1.4108235583414496e-06,2.074260978090937e-06
270,3.4568518050940887e-06,1.5331674365012496e-06,1.9570609741703243e-06,4.545173032708305e-06,5.05511088567808e-06,8.75284862162167e-06,3.208637976385622e-06,1.7224776222179811e-06,5.851259268043137e-06,3.91347843833399e-06,6.242610931471323e-07,3.176609284497911e-06,2.0383220813837927e-06,2.517491025087344e-05,1.4048117599601066e-06,2.083986633075526e-06
271,3.4867443470240037e-06,1.54552995049739e-06,1.9741057316822008e-06,4.462772134080672e-06,4.875286171743915e-06,8.500121436625451e-06,3.096339721753577e-06,1.7248387853427233e-06,6.00554711565723e-06,3.814662017572803e-06,6.328162933104705e-07,3.167599878353439e-06,2.041687685526214e-06,2.6170872627137625e-05,1.3985502958751469e-06,2.0953046512142707e-06
272,3.5057844182532624e-06,1.5596350968182536e-06,1.9909314827528864e-06,4.3773848714613285e-06,4.699874227481642e-06,8.25056983961395e-06,2.984345131744184e-06,1.7272620540026605e-06,6.1460818026015935e-06,3.711940529710171e-06,6.428906240203792e-07,3.1626860032407907e-06,2.048375852387829e-06,2.7060207455363894e-05,1.3920937830774997e-06,2.108448242719451e-06
273,3.5122672659539374e-06,1.575299379296957e-06,2.0078499833725456e-06,4.2905633977587875e-06,4.531558894191451e-06,8.006966047879229e-06,2.8749108741013073e-06,1.730503509336934e-06,6.271945327234824e-06,3.6082118050496408e-06,6.548844530741862e-07,3.1620492038397635e-06,2.0576385067701255e-06,2.7818422049449554e-05,1.385597236912858e-06,2.1234995145740594e-06
274,3.5045842177321635e-06,1.5925824349473988e-06,2.0253597436554776e-06,4.203885449379478e-06,4.3724773471382885e-06,7.77075455251447e-06,2.770156381666418e-06,1.7351824488409373e-06,6.382641364937317e-06,3.506561181657685e-06,6.691035327206105e-07,3.165175982429284e-06,2.0684944474418895e-06,2.8429678707749753e-05,1.3793627889123457e-06,2.140318265218339e-06
275,3.481692515559032e-06,1.6120278372137427e-06,2.0440352506796686e-06,4.118901233921923e-06,4.224315504118268e-06,7.542324030199555e-06,2.671918478733929e-06,1.741689583611936e-06,6.478096230862244e-06,3.410247040878293e-06,6.857439823324015e-07,3.1708599037378478e-06,2.079844645195077e-06,2.8884436395726738e-05,1.373748770373371e-06,2.1585799962532665e-06
276,3.4435547332255445e-06,1.6345772651134516e-06,2.064355229920563e-06,4.0371016890858616e-06,4.088271446392786e-06,7.321321438776164e-06,2.581610800076671e-06,1.7501365727205683e-06,6.558433281428281e-06,3.3224921187681703e-06,7.04893318947717e-07,3.1773958400142746e-06,2.090570714209733e-06,2.917534999733723e-05,1.3690397046456549e-06,2.177845891644436e-06
277,3.391136831751178e-06,1.6612493357665117e-06,2.0865552215947295e-06,3.959759853519057e-06,3.964977504121935e-06,7.106869182854211e-06,2.50014127225857e-06,1.7602911825525294e-06,6.623619170658168e-06,3.2462713300981204e-06,7.265374995680686e-07,3.182977634696149e-06,2.099512561781469e-06,2.929385942797586e-05,1.3654506468289475e-06,2.1976073810471204e-06
278,3.325917464323216e-06,1.6928728160989885e-06,2.110627069718953e-06,3.887719104257502e-06,3.854479658621045e-06,6.897744241869343e-06,2.4279543849821495e-06,1.7715534681029963e-06,6.673419063772154e-06,3.1842072132297396e-06,7.505732262525346e-07,3.1861518520100186e-06,2.1054359342467427e-06,2.9230436543363042e-05,1.363235493064304e-06,2.2172888278344182e-06
279,3.2493773410418943e-06,1.7299890765861457e-06,2.1365149274021944e-06,3.821357734958611e-06,3.7563743333959368e-06,6.692625176044178e-06,2.3652393236167847e-06,1.7830047541002724e-06,6.707764524231757e-06,3.138480503925621e-06,7.768259412082428e-07,3.1861285701662895e-06,2.107073497421018e-06,2.897911282350987e-05,1.3626971755774922e-06,2.236244451021995e-06
280,3.162885287271087e-06,1.7728967896767354e-06,2.1643330209776214e-06,3.7607020727600026e-06,3.6700783403799875e-06,6.490457097894127e-06,2.3121792383896935e-06,1.7935232673933978e-06,6.727139055532061e-06,3.1107485791625963e-06,8.050457216017749e-07,3.1828640535365725e-06,2.1032469291283237e-06,2.854278618973957e-05,1.3640912615606422e-06,2.2537991225923237e-06
281,3.067847188268217e-06,1.821784256053019e-06,2.194361866141583e-06,3.705528783663074e-06,3.595018602296808e-06,6.290862545235948e-06,2.2690137536408952e-06,1.8019807110247354e-06,6.732510230295308e-06,3.102141941775043e-06,8.34874376484768e-07,3.176938688135994e-06,2.093140632388254e-06,2.793523988225229e-05,1.367543119713636e-06,2.269380262958787e-06
282,2.965807269436497e-06,1.8768072477077683e-06,2.2268051354998978e-06,3.6554479570012896e-06,3.530593891826418e-06,6.0944408427234265e-06,2.235885786496746e-06,1.8075029232397467e-06,6.7247494485261735e-06,3.113312328489002e-06,8.658328393101875e-07,3.169273294312558e-06,2.07662267860268e-06,2.717911973734855e-05,1.3729972322754896e-06,2.282737868535622e-06
283,2.858418848220193e-06,1.9380207694292337e-06,2.261523661060027e-06,3.6099909223520037e-06,3.4759942234019186e-06,5.9028167228834765e-06,2.212656328221269e-06,1.809661559623046e-06,6.70402801010308e-06,3.144577796719634e-06,8.973895396459596e-07,3.160758055865451e-06,2.0542724304372254e-06,2.6301893742016126e-05,1.3802301118434724e-06,2.2941028472561233e-06
284,2.7473585690954827e-06,2.0052694159940052e-06,2.297930796112146e-06,3.5686276821440217e-06,3.4300272631730057e-06,5.718331013501265e-06,2.198817986642049e-06,1.8084200168066313e-06,6.669666020384301e-06,3.196233806820567e-06,9.290946979135908e-07,3.1519609736948116e-06,2.0270310236584095e-06,2.533204878127269e-05,1.3889483606788438e-06,2.304094442041452e-06
285,2.6343035948070416e-06,2.0781221861776294e-06,2.3350691203971573e-06,3.5306451144237258e-06,3.39106649731269e-06,5.543421339755515e-06,2.1935632587210215e-06,1.8038434188686259e-06,6.620356386511651e-06,3.268820689119667e-06,9.606607124590916e-07,3.143074765533709e-06,1.9958471250999983e-06,2.4296487802504525e-05,1.398876410560696e-06,2.3134327856939254e-06
286,2.520982841074207e-06,2.1558329049917537e-06,2.3718292325976415e-06,3.4949742215923555e-06,3.357256749550499e-06,5.38010244014421e-06,2.196030400731193e-06,1.7958261914786904e-06,6.554530936761002e-06,3.3630620987006826e-06,9.919170131558477e-07,3.134073068180268e-06,1.9615984754073327e-06,2.3218922500200253e-05,1.4097516029382148e-06,2.322726038441382e-06
287,2.4091438933246832e-06,2.237390308682267e-06,2.4072152261270193e-06,3.4601812002318146e-06,3.3269694777901926e-06,5.229920049840799e-06,2.205563702799602e-06,1.784034035749551e-06,6.47087864891604e-06,3.479571677968429e-06,1.0227085501660467e-06,3.1249167342495874e-06,1.9251440848328484e-06,2.211885835799248e-05,1.4212667473360165e-06,2.3323986739718137e-06
288,2.300380124932861e-06,2.3217446327881094e-06,2.4404764599851684e-06,3.42474743162779e-06,3.2992384952663767e-06,5.0941283263326626e-06,2.2217338575656064e-06,1.7680191927682735e-06,6.368941804932594e-06,3.618710286226067e-06,1.052831652823917e-06,3.115692811214242e-06,1.887344257226121e-06,2.1011259951640935e-05,1.4330574375289496e-06,2.3425927812235487e-06
289,2.195999030572002e-06,2.408106328856707e-06,2.4710113350257137e-06,3.3875307596632307e-06,3.2738967601365445e-06,4.9736248135715645e-06,2.244147237522618e-06,1.7474125603972307e-06,6.249531550037056e-06,3.7807352157169185e-06,1.082029420442466e-06,3.1066193829368797e-06,1.8490571157334915e-06,1.99071794617709e-05,1.4447840654344087e-06,2.353030132252131e-06
290,2.09705347536906e-06,2.4960586347776235e-06,2.4981481510134836e-06,3.348160047124181e-06,3.2513402604858255e-06,4.868671743562672e-06,2.2723182462957595e-06,1.7221265113840605e-06,6.1148629514265265e-06,3.966057582167343e-06,1.1100084581670425e-06,3.0979070444942553e-06,1.8110944418226945e-06,1.8815037799709406e-05,1.456266498243969e-06,2.362976595879704e-06
291,2.0044398164717417e-06,2.5853585811478384e-06,2.520951730768965e-06,3.307158107117155e-06,3.2320443299205193e-06,4.778715885603344e-06,2.3056590932293888e-06,1.692445536300634e-06,5.968525894062581e-06,4.175445700207408e-06,1.1364580915444257e-06,3.089606236899817e-06,1.77413552410311e-06,1.774177067525917e-05,1.467549291233926e-06,2.371334145286882e-06
292,1.9189439265420696e-06,2.6756286064478336e-06,2.5381017809141963e-06,3.2657206021546724e-06,3.216104005418497e-06,4.702458666448e-06,2.343412973203077e-06,1.6589258473089902e-06,5.8153622336496564e-06,4.410103130581302e-06,1.161123968808689e-06,3.0816239807642783e-06,1.7387067474079387e-06,1.6693447527158653e-05,1.4788019476002866e-06,2.3767775245235134e-06
293,1.8412075552020273e-06,2.766198418195828e-06,2.547881705060773e-06,3.2252363496438087e-06,3.2030565389420696e-06,4.638277642596633e-06,2.384567155306301e-06,1.6222625959184925e-06,5.661137364429998e-06,4.671567778991337e-06,1.1839446688315162e-06,3.0739104399771687e-06,1.7052929279423261e-06,1.5675552158446943e-05,1.4901139809646723e-06,2.3779075469565867e-06
294,1.771647940588798e-06,2.856087132546586e-06,2.5483774697435394e-06,3.1867857561635495e-06,3.1919977626984683e-06,4.58498330046574e-06,2.4279155298225753e-06,1.5832907313153274e-06,5.511926193799278e-06,4.961453294325734e-06,1.205112183345038e-06,3.066605177095452e-06,1.6744427026576136e-06,1.469315962193846e-05,1.5013344711245506e-06,2.373450816157509e-06
295,1.7103933474304408e-06,2.944033870301246e-06,2.5378930931125026e-06,3.150856444848872e-06,3.181730622600806e-06,4.542497212028593e-06,2.472173030410456e-06,1.5429926919047031e-06,5.373436240884446e-06,5.281082150327089e-06,1.2249522165525986e-06,3.0600125341900796e-06,1.6467266185974416e-06,1.3751019509821058e-05,1.512020862590932e-06,2.362472052948941e-06
296,1.6572989651031317e-06,3.0286158698477326e-06,2.515406648237665e-06,3.1173358759017784e-06,3.1707537597816546e-06,4.511992912052346e-06,2.515959176961043e-06,1.5024287994614904e-06,5.250587390385115e-06,5.631066199755953e-06,1.2437351296436022e-06,3.0544870245887176e-06,1.6226392598861192e-06,1.2853503885800049e-05,1.5214998111947024e-06,2.3444937976936865e-06
297,1.6120646169064038e-06,3.1084654549565126e-06,2.4808534182600646e-06,3.0856869243756934e-06,3.157300064795382e-06,4.49547179011199e-06,2.5577977302579613e-06,1.4627166987205133e-06,5.147428697613028e-06,6.01104821116157e-06,1.2615618600312342e-06,3.0503128988585156e-06,1.60256460300951e-06,1.200433958896972e-05,1.529069336430582e-06,2.3194736069518153e-06
298,1.5743490822841955e-06,3.1824854809001774e-06,2.43515953456265e-06,3.0551722064936666e-06,3.1396916085234433e-06,4.495080563031395e-06,2.59636163032466e-06,1.425032963425994e-06,5.067291004888957e-06,6.41990099651946e-06,1.2783509713763501e-06,3.0476435602532716e-06,1.5867749615185243e-06,1.120613757107125e-05,1.534259949979268e-06,2.2877289542033e-06
299,1.5437514733349875e-06,3.2499845451656533e-06,2.38007866055759e-06,3.025007472090584e-06,3.1168141435132597e-06,4.512536122640185e-06,2.6308133072745386e-06,1.3905264353546598e-06,5.012967184431614e-06,6.8563024669614884e-06,1.2939062239210747e-06,3.0466182980317445e-06,1.5753973457495649e-06,1.0460349646600714e-05,1.5369175854734696e-06,2.2499202700637514e-06
300,1.5197399690210207e-06,3.310722473834235e-06,2.3178715830302105e-06,2.994427708099896e-06,3.0883157219695714e-06,4.5488575005891675e-06,2.6609662061764874e-06,1.360217441997971e-06,4.986684588746411e-06,7.319152821827554e-06,1.3080023147001398e-06,3.0475526766447544e-06,1.5683605512162484e-06,9.768105169721478e-06,1.5370330655936285e-06,2.207059785265516e-06
301,1.5016722039866039e-06,3.364875311929449e-06,2.250879229759096e-06,2.9627789357801997e-06,3.054436544513466e-06,4.6042984474103494e-06,2.687273185770668e-06,1.334970813567268e-06,4.989870024600125e-06,7.807503590479464e-06,1.3204389069206268e-06,3.0509395131232627e-06,1.565430342995697e-06,9.13104590491258e-06,1.5345234891043185e-06,2.160456571564967e-06
302,1.4888921077873166e-06,3.4129486485473546e-06,2.1811805384261117e-06,2.92971894975237e-06,3.015701900878625e-06,4.678287170817546e-06,2.7107482973667487e-06,1.3154938976912671e-06,5.022926174900669e-06,8.32013367662221e-06,1.3310919401123283e-06,3.0573292738655933e-06,1.5663319765113287e-06,8.551229786513007e-06,1.5291358128705434e-06,2.111573323191082e-06
303,1.4808628833921483e-06,3.4556503883044146e-06,2.1104884358255844e-06,2.8954553717104244e-06,2.9727776340849643e-06,4.769354141687922e-06,2.7328145330722684e-06,1.30231563597781e-06,5.08516063499597e-06,8.854965410225248e-06,1.3399645533910981e-06,3.0673480915679037e-06,1.5707765317122301e-06,8.030461505284178e-06,1.5204897231133895e-06,2.061821762926855e-06
304,1.4772672225824202e-06,3.493677328460529e-06,2.0402057170862693e-06,2.8608557049705048e-06,2.926558546654268e-06,4.875111009562926e-06,2.7550804164298207e-06,1.295769608194894e-06,5.174893630080452e-06,9.408452387054324e-06,1.347179562916644e-06,3.081819049076088e-06,1.5783326014157562e-06,7.569770603858149e-06,1.5082402079202332e-06,2.012393096905396e-06
305,1.4779583221594411e-06,3.5274769993970516e-06,1.9715045595494193e-06,2.8272894564643273e-06,2.878253447847622e-06,4.992274817605537e-06,2.779130485875953e-06,1.295975709335091e-06,5.289817034064944e-06,9.975174545938428e-06,1.3528897692073512e-06,3.10178845745122e-06,1.5883100965303831e-06,7.169146350815619e-06,1.4922620758155028e-06,1.96421773559682e-06
306,1.4828711983075686e-06,3.557192631119128e-06,1.9053885565576312e-06,2.7962385577960755e-06,2.8292430113928672e-06,5.116653988267947e-06,2.8063735385143314e-06,1.302799114904575e-06,5.42754397756997e-06,1.0547955300150692e-05,1.3571730508460514e-06,3.1284362479560163e-06,1.5997677169482476e-06,6.8273861103534e-06,1.472720904236056e-06,1.9180036048951224e-06
307,1.4920597632641444e-06,3.5828251368777476e-06,1.8427602877695737e-06,2.7689617886693538e-06,2.7808457366800692e-06,5.243096767675801e-06,2.8379011815214613e-06,1.3158168838695804e-06,5.585949512299458e-06,1.1118646131466555e-05,1.3599975774632132e-06,3.1629657528925706e-06,1.6115767415194726e-06,6.5422633550405654e-06,1.4499935768875676e-06,1.874248670177427e-06
308,1.5057173337567455e-06,3.604419332406519e-06,1.7845099338292405e-06,2.7464479870759685e-06,2.7342723264515414e-06,5.365688285434861e-06,2.874324433762767e-06,1.3343380950447963e-06,5.763001637107357e-06,1.1679301499957092e-05,1.361235704439431e-06,3.206494320712241e-06,1.622496138061618e-06,6.311223709193016e-06,1.4245002952014822e-06,1.833256567581538e-06
309,1.5240468519780268e-06,3.6221681972557865e-06,1.7315749293063166e-06,2.7295565977246978e-06,2.6906946284457684e-06,5.478634010986368e-06,2.9156490594792486e-06,1.357476494587939e-06,5.956302618874644e-06,1.2223141465937475e-05,1.3606818293034004e-06,3.2599007543691517e-06,1.6312686239770374e-06,6.132236532723194e-06,1.3965717315279776e-06,1.7952482572263291e-06
310,1.5471042883967145e-06,3.6364321455458624e-06,1.6849082307160426e-06,2.7191276125296304e-06,2.651184700426715e-06,5.577810991674361e-06,2.961277085785625e-06,1.384238022566041e-06,6.162717478470656e-06,1.2744759763977977e-05,1.3581046339819513e-06,3.323630621983685e-06,1.63668164056437e-06,6.004250153068918e-06,1.366412702533972e-06,1.760510343727163e-06
311,1.5747054436186374e-06,3.6476169523767523e-06,1.645367590894128e-06,2.7159738008892658e-06,2.616611951532995e-06,5.6621182026496625e-06,3.0101116390361808e-06,1.4136300845748696e-06,6.378163370003168e-06,1.3239395768187465e-05,1.3532949668410275e-06,3.3975717020699403e-06,1.63764516681445e-06,5.927129543236057e-06,1.3340959850403524e-06,1.7294316783645442e-06
312,1.606366607568628e-06,3.655904693235936e-06,1.6136093298134677e-06,2.720772472019877e-06,2.5876413323922093e-06,5.7336320038999e-06,3.0606551771833667e-06,1.4448255085405774e-06,6.597507151512422e-06,1.3701609591642953e-05,1.3460430588289435e-06,3.481128183795824e-06,1.6334314644853049e-06,5.901302739647991e-06,1.2995729688425513e-06,1.7024114430323659e-06
313,1.6412743218728878e-06,3.6609988664066547e-06,1.5900427893812092e-06,2.7339427858935697e-06,2.5647025465182972e-06,5.796481581758152e-06,3.111162631619969e-06,1.4772917410381174e-06,6.8147501332013565e-06,1.4124192998550773e-05,1.3361403295567601e-06,3.573486220747516e-06,1.623960045330842e-06,5.9273854666001175e-06,1.2627680708265767e-06,1.6797292798468229e-06
314,1.678321395364739e-06,3.6620721337692606e-06,1.5748166830435195e-06,2.7555949651005494e-06,2.5479289433909437e-06,5.855283593876145e-06,3.1600616400615253e-06,1.5107246408293564e-06,7.023756061493015e-06,1.4498059434874701e-05,1.3234448973218581e-06,3.6739364021618614e-06,1.6098123612068385e-06,6.00595506959735e-06,1.223728292019946e-06,1.6614572941206092e-06
315,1.716232730118917e-06,3.6579570177575907e-06,1.567809106202474e-06,2.785524540275179e-06,2.537286075289477e-06,5.914108105685864e-06,3.2065370223989444e-06,1.5448148289296392e-06,7.219259612300399e-06,1.4813157761041129e-05,1.3078674437392827e-06,3.7820746816176697e-06,1.5919423292929977e-06,6.137477984940532e-06,1.1827115367852049e-06,1.6474416696793517e-06
316,1.753732577009149e-06,3.647509622195572e-06,1.5686274833228798e-06,2.823222797250336e-06,2.532877753954379e-06,5.976259150492383e-06,3.2508262484778924e-06,1.5790680223098075e-06,7.3972395425232315e-06,1.5060064673216377e-05,1.2892974317976731e-06,3.897751854444709e-06,1.5714218417933059e-06,6.322226624913241e-06,1.1401426887370702e-06,1.6373447121635855e-06
317,1.789657541958579e-06,3.6300689260156493e-06,1.5766239703520565e-06,2.868047216301757e-06,2.5351128583312703e-06,6.044391213828487e-06,3.2940074316030965e-06,1.612808596399269e-06,7.5542453511193185e-06,1.5231898007194923e-05,1.2676207936406784e-06,4.020791398297374e-06,1.5494113791905606e-06,6.560022430810945e-06,1.0964903807703278e-06,1.630708469361905e-06
318,1.8229535387338467e-06,3.6058674594809096e-06,1.5909312658783957e-06,2.919602154241498e-06,2.54454318635506e-06,6.120480775037134e-06,3.3375221011767633e-06,1.6452968427145196e-06,7.686689771097486e-06,1.532586318487172e-05,1.2427669984055798e-06,4.150633043051313e-06,1.5271659324248654e-06,6.849925782812005e-06,1.0521950754182808e-06,1.6269603606525796e-06
319,1.8525946819892669e-06,3.5761262703749986e-06,1.6104891261218078e-06,2.9780005500217245e-06,2.5615997229705962e-06,6.205641334837818e-06,3.3827301060602973e-06,1.6758555817670394e-06,7.791052233788508e-06,1.534348290889599e-05,1.2146751238375414e-06,4.286101612538086e-06,1.5059460828687472e-06,7.1901992237461255e-06,1.0076756534854443e-06,1.6253927417217788e-06
320,1.877644464209428e-06,3.5426727766508274e-06,1.6340396095234532e-06,3.0437040514756536e-06,2.5864724174830073e-06,6.300003085480774e-06,3.4305675523972553e-06,1.7039866844145054e-06,7.864492116892031e-06,1.5289046468108236e-05,1.1832689795370644e-06,4.425358716598526e-06,1.4869389992069965e-06,7.5785691707271e-06,9.633521222867701e-07,1.6252691355468886e-06
321,1.8976355784114153e-06,3.507318348951522e-06,1.6601566322338758e-06,3.117126023762937e-06,2.619041266827698e-06,6.4027735817373885e-06,3.4813450391617863e-06,1.729504142605743e-06,7.905192582850322e-06,1.5167007325344847e-05,1.1485261103651395e-06,4.565906178536827e-06,1.471281015250134e-06,8.012483854015804e-06,9.196886094938958e-07,1.6260268124258838e-06
322,1.9130039842163803e-06,3.4714319732696684e-06,1.6873642826053725e-06,3.1983463411203594e-06,2.6588114113605534e-06,6.512388660720993e-06,3.534819737094249e-06,1.752651667389768e-06,7.912584249179037e-06,1.49800670017967e-05,1.1105259800626656e-06,4.704673624367456e-06,1.4602263360308551e-06,8.489261409421825e-06,8.772276541181476e-07,1.6273583896044592e-06
323,1.925127199448708e-06,3.435824557648889e-06,1.7142590802674905e-06,3.2869963397487157e-06,2.7049307583802705e-06,6.626615584399763e-06,3.5905208405374475e-06,1.7740956173394889e-06,7.88768391616396e-06,1.472895095613697e-05,1.0693577737221345e-06,4.838392487948996e-06,1.4553761212422717e-06,9.006201265681499e-06,8.365390020464551e-07,1.6291056146155444e-06
324,1.9359131930129883e-06,3.400731476650474e-06,1.7395039946581411e-06,3.382248485780622e-06,2.7561902075312126e-06,6.742631961279502e-06,3.648034862338775e-06,1.794753362831918e-06,7.833270986020323e-06,1.4413274675460214e-05,1.024981054644953e-06,4.9641778693788235e-06,1.458685852393376e-06,9.560467122941854e-06,7.981363071177354e-07,1.6311116112178035e-06
325,1.9472766845091148e-06,3.365828202399506e-06,1.7617534861767237e-06,3.4829083605631448e-06,2.810955384806762e-06,6.857240479805942e-06,3.707018997956884e-06,1.8155832686231097e-06,7.753372563535566e-06,1.4032855901866917e-05,9.771833442938193e-07,5.080060336708907e-06,1.4721973138407126e-06,1.0148492971967308e-05,7.624521608835973e-07,1.6331321977087054e-06
326,1.9608128068151528e-06,3.330457284614967e-06,1.779756244315272e-06,3.5875619008225097e-06,2.867240193425646e-06,6.967323129638095e-06,3.767062386907754e-06,1.8374845240580507e-06,7.652113650974996e-06,1.3589425602298734e-05,9.256314571216277e-07,5.185342558305104e-06,1.4978030811554004e-06,1.076520516184197e-05,7.298492756477599e-07,1.634785001825363e-06
327,1.977715957416502e-06,3.294068769245168e-06,1.7927066385866977e-06,3.694695269225973e-06,2.9231228594654476e-06,7.070436978822541e-06,3.827657556854755e-06,1.8612909289557422e-06,7.532856770094643e-06,1.308818686194869e-05,8.700077515121284e-07,5.280643701911007e-06,1.5372146342001835e-06,1.1403755031905245e-05,7.00617355364878e-07,1.635578859093687e-06
328,1.998809091772298e-06,3.2565081434542185e-06,1.800578535548147e-06,3.8026857331047655e-06,2.977360055967668e-06,7.165273431773435e-06,3.888304867277527e-06,1.887724851288462e-06,7.398213650997446e-06,1.253821986781145e-05,8.102430654511924e-07,5.367445542435438e-06,1.5920184208326417e-06,1.205616572019943e-05,6.749541018630332e-07,1.6350850843248097e-06
329,2.0245732651919656e-06,3.21787932730778e-06,1.804167147914307e-06,3.909606118199828e-06,3.0297103148461117e-06,7.251750363528425e-06,3.9485255268558065e-06,1.9172634858911496e-06,7.250460607502333e-06,1.1951492612696734e-05,7.467052421448978e-07,5.44726155497769e-06,1.6637496879934034e-06,1.2714659135727709e-05,6.529523975852538e-07,1.6331074618590963e-06
