,EMG1,EMG2,EMG3,EMG4,EMG5,EMG6,EMG7,EMG8,EMG9,EMG10,EMG11,EMG12,EMG13,EMG14,EMG15,EMG16
0,7.407839932949086e-07,1.15964067952505e-07,1.3098523294763312e-07,2.768525069062739e-07,7.559784693392326e-07,2.1154457613676246e-06,7.005863582375736e-07,5.207425043231395e-07,9.839636791638732e-07,7.019038061384821e-07,3.953734698847353e-08,3.4752875182697824e-07,-2.9628677871172105e-07,1.2292889135969136e-06,1.2324552959644985e-07,8.149445026292881e-07
1,7.909226787139264e-07,2.2183291904046435e-07,2.2010045945293506e-07,3.3896440006423875e-07,1.1289403717053249e-06,2.413277237751406e-06,8.314401646645439e-07,8.661215890155117e-07,2.069950337761632e-06,5.7118384784134005e-06,1.8264044128648109e-07,4.82938995959575e-07,4.1823795683458417e-07,2.022943187628335e-06,2.733205878105339e-07,9.293740662105622e-07
2,8.445056764557102e-07,3.240191314409897e-07,3.086264596430308e-07,4.0288460537647374e-07,1.488499346369603e-06,2.710290039856601e-06,9.624362053936637e-07,1.2064939202351547e-06,3.1205499756054385e-06,1.0535284599147368e-05,3.2170485794259554e-07,6.199230280168108e-07,1.1033794759997988e-06,2.8323816722125716e-06,4.150428175729139e-07,1.0409488979744414e-06
3,9.0102583324115e-07,4.2020812295440787e-07,3.9583059473708887e-07,4.6763033896799346e-07,1.8336341362659817e-06,3.0041878633203793e-06,1.0916849224533657e-06,1.5384983061887477e-06,4.106404354254072e-06,1.5001431409808223e-05,4.5596978013583695e-07,7.578701611109001e-07,1.7509224685511758e-06,3.6492653631431072e-06,5.463747781466909e-07,1.148272146798786e-06
4,9.598314305075976e-07,5.087643193502397e-07,4.810126195516637e-07,5.321887804693239e-07,2.163077640375239e-06,3.2930565808212225e-06,1.217708356430534e-06,1.8587169643497086e-06,5.00136341306659e-06,1.8969642805405557e-05,5.846594846914451e-07,8.9611314353238e-07,2.3541773580575835e-06,4.4668101080431605e-06,6.65834464419471e-07,1.2497915997908723e-06
5,1.0200855606600825e-06,5.889524791353173e-07,5.634969752313353e-07,5.955605005225439e-07,2.475238462113542e-06,3.5749868250636546e-06,1.3392891084277134e-06,2.1638366448217574e-06,5.785079160042443e-06,2.2344743270622606e-05,7.070312768307608e-07,1.0339233831231535e-06,2.908322042579177e-06,5.280906823838948e-06,7.725794443810047e-07,1.3438654027450943e-06
6,1.0807990499894704e-06,6.608749851209539e-07,6.426317658851213e-07,6.568760697019104e-07,2.768174046443271e-06,3.847767427504828e-06,1.4552000229736635e-06,2.45098464202635e-06,6.445089657398926e-06,2.508411595372962e-05,8.224503107154518e-07,1.170553617900222e-06,3.41015245844801e-06,6.090568468032433e-06,8.662846920424211e-07,1.4288155336380052e-06
7,1.140957962201853e-06,7.251646158499011e-07,7.178276588583963e-07,7.155482219120004e-07,3.039580368589532e-06,4.108999283852697e-06,1.5641053048996008e-06,2.718117082366847e-06,6.977341214329072e-06,2.719333766347068e-05,9.30389767762283e-07,1.3053425129179716e-06,3.8575791760427235e-06,6.897532168682128e-06,9.469407340292176e-07,1.503000027844295e-06
8,1.1996387900952698e-06,7.826378685501577e-07,7.886178772733723e-07,7.713531818517038e-07,3.286814012399122e-06,4.356504259610215e-06,1.6646700769531835e-06,2.9642672846018085e-06,7.384709992253263e-06,2.871298294698511e-05,1.0303669761351187e-06,1.4377948553365278e-06,4.249371129288149e-06,7.705173241745244e-06,1.014755385405991e-06,1.5650148460864453e-06
9,1.2559620702634423e-06,8.341008590220617e-07,8.546901012745425e-07,8.243707856573048e-07,3.507139534275896e-06,4.5886462223744256e-06,1.7556431023445525e-06,3.189530149622526e-06,7.674124187750483e-06,2.9702625655497935e-05,1.12194769856954e-06,1.5675126510090858e-06,4.585311418317887e-06,8.517186965917776e-06,1.0702087715714856e-06,1.6139193474914376e-06
10,1.3089584163455221e-06,8.803402071234149e-07,9.158631028976663e-07,8.748229808211417e-07,3.6982943618914077e-06,4.804281888542435e-06,1.8358268897137348e-06,3.394824443497776e-06,7.853913034651457e-06,3.0227628094384632e-05,1.2048740653036214e-06,1.6940793436734839e-06,4.866614920953681e-06,9.336899229548186e-06,1.1141579882278952e-06,1.6492404791507386e-06
11,1.3576214436349311e-06,9.221703907317133e-07,9.720114764135076e-07,9.229481294374086e-07,3.859078105972468e-06,5.002336357478155e-06,1.904151255219236e-06,3.5816070813177838e-06,7.932762245056366e-06,3.0351468118256602e-05,1.2792057510754232e-06,1.8170493643850756e-06,5.096348964805822e-06,1.0167591662176073e-05,1.1478151411546121e-06,1.6708168758197581e-06
12,1.4012316198561708e-06,9.604306677789733e-07,1.0229900731853572e-06,9.689862128532056e-07,3.989560277029524e-06,5.181334192947983e-06,1.9599613144676286e-06,3.7517178258519603e-06,7.920018808623902e-06,3.013326975932501e-05,1.34532294341946e-06,1.935934305436949e-06,5.279564836306957e-06,1.1012862799159201e-05,1.1725514380754806e-06,1.678788117024707e-06
13,1.4396514585911742e-06,9.959524204515508e-07,1.068657201187678e-06,1.0131949189688e-06,4.090824116149713e-06,5.339284678446913e-06,2.0033059030000532e-06,3.9073738868192016e-06,7.826102786182861e-06,2.9628061924223776e-05,1.4037761387503114e-06,2.050092194066311e-06,5.422922390870166e-06,1.1876049648016763e-05,1.1896864801615704e-06,1.6737376669552444e-06
14,1.473263591413499e-06,1.0295510632689646e-06,1.109019801610328e-06,1.0558129172991916e-06,4.164486122936316e-06,5.473944730711462e-06,2.034990726873817e-06,4.0510831274113e-06,7.662413635197541e-06,2.8887122097426675e-05,1.4551285930726307e-06,2.15861967888722e-06,5.53384085702525e-06,1.275934025641154e-05,1.2003837228500075e-06,1.656718412580337e-06
15,1.5026296038792343e-06,1.0620499200346144e-06,1.1443640749718718e-06,1.096980444916693e-06,4.21220305070003e-06,5.583188700550678e-06,2.0563853063460106e-06,4.185280321049244e-06,7.440942053641601e-06,2.7957454346348593e-05,1.499928521777678e-06,2.2603076255437805e-06,5.619532811562439e-06,1.366350583014869e-05,1.2056178936434985e-06,1.629092626133468e-06
16,1.5282136591325115e-06,1.0942809497347148e-06,1.175218407526808e-06,1.13667897995154e-06,4.235259248940344e-06,5.66534416896757e-06,2.069140565711381e-06,4.311893062111104e-06,7.1738079475557535e-06,2.6880990203347672e-05,1.5387745870792124e-06,2.3536934744680995e-06,5.686391942631279e-06,1.4588281200617762e-05,1.2061712386784933e-06,1.5923527721426156e-06
17,1.5503823211335821e-06,1.1270245784967363e-06,1.2021640392728056e-06,1.1747598499988192e-06,4.234450030627841e-06,5.719529947913836e-06,2.074967230288287e-06,4.432103973977293e-06,6.8727013837532485e-06,2.5694281451915883e-05,1.5723225626239726e-06,2.4372438900328436e-06,5.739847138926289e-06,1.5532895470988772e-05,1.2026540049186377e-06,1.5480306772399304e-06
18,1.5696173923873585e-06,1.1609677986987607e-06,1.2256432667320184e-06,1.211070716016669e-06,4.210460360161006e-06,5.7459962207819545e-06,2.0754949674294312e-06,4.546233901831689e-06,6.548333335527735e-06,2.442879861254722e-05,1.6011671962894835e-06,2.5095473330994886e-06,5.784389208554321e-06,1.6496071050906562e-05,1.195533485019264e-06,1.4976668921931792e-06
19,1.5866591335863656e-06,1.196738101905014e-06,1.2458728652444886e-06,1.2455966012806068e-06,4.164541192389085e-06,5.746364924429039e-06,2.0721639241683154e-06,4.653667475053646e-06,6.210130261312704e-06,2.31113949739083e-05,1.625679985121236e-06,2.569404266513522e-06,5.823590442489483e-06,1.7475961114692012e-05,1.1851557511841543e-06,1.4427708999543704e-06
20,1.6023825094816228e-06,1.2349264992873787e-06,1.262879847376543e-06,1.278505403631478e-06,4.099055265304545e-06,5.723642277975344e-06,2.0661312901374758e-06,4.7529709401017355e-06,5.8661880484495844e-06,2.176464350579021e-05,1.6458993082765652e-06,2.6158916875621633e-06,5.860201787140275e-06,1.8470588026280562e-05,1.1717609844929813e-06,1.3847472557142904e-06
21,1.6175536334041576e-06,1.2760477402141182e-06,1.2766210570083943e-06,1.3100535896199943e-06,4.017608383383019e-06,5.681925005646893e-06,2.058199373681809e-06,4.842305362294228e-06,5.523374851386348e-06,2.04072506611852e-05,1.6614994193626023e-06,2.6484822443796576e-06,5.896344598786663e-06,1.9477601742001066e-05,1.1554929014184868e-06,1.3248330592590254e-06
22,1.6327117853126942e-06,1.3205094885152368e-06,1.287096789617354e-06,1.3404311329822467e-06,3.924708446248424e-06,5.625791965979726e-06,2.0488037257103223e-06,4.920001647955483e-06,5.187476298570285e-06,1.9054749267239057e-05,1.6718607913731174e-06,2.667190828067436e-06,5.933614721824042e-06,2.0493465257205787e-05,1.1364291776702168e-06,1.26408108854579e-06
23,1.648218463352951e-06,1.3686045498833774e-06,1.2944108457193587e-06,1.3696898021501426e-06,3.825116741994689e-06,5.559560205355696e-06,2.0381046545112604e-06,4.985039576715116e-06,4.863235652196818e-06,1.772019425394053e-05,1.6762738974530695e-06,2.672696624441819e-06,5.9729727550911956e-06,2.151331563934311e-05,1.1146734907147271e-06,1.203368273206721e-06
24,1.6643728376034383e-06,1.4204613977590303e-06,1.298814368531233e-06,1.3977929842474917e-06,3.723221505108814e-06,5.486832349743434e-06,2.0261473341740317e-06,5.037235579688627e-06,4.554300840861675e-06,1.641445908569967e-05,1.6742035933627114e-06,2.6663573898469456e-06,6.014660906150482e-06,2.2530829224503562e-05,1.0904633145730907e-06,1.1434532871031172e-06
25,1.6814824917844288e-06,1.4759727586282257e-06,1.3007158843505576e-06,1.4246727586585204e-06,3.6227072202960113e-06,5.41052510782454e-06,2.0130166224076045e-06,5.077078890502006e-06,4.263237384482413e-06,1.5146208681345965e-05,1.6654576527140533e-06,2.6500130004143094e-06,6.058426182440772e-06,2.3538365043076713e-05,1.0641863641652165e-06,1.0850904686976222e-06
26,1.6998291653620204e-06,1.5347655142051185e-06,1.3005914452406299e-06,1.4502314250910553e-06,3.526520332928395e-06,5.333022158499862e-06,1.998942235645276e-06,5.105325478227886e-06,3.991677249509796e-06,1.3921963368923632e-05,1.6501949206579598e-06,2.6255993191164514e-06,6.103749388621189e-06,2.4529078263343497e-05,1.0363042376396286e-06,1.0290941295721648e-06
27,1.7195667023820165e-06,1.5961941088388246e-06,1.2988631776877373e-06,1.4743783365241239e-06,3.4369179397434824e-06,5.256134915831755e-06,1.984321283034347e-06,5.122625726957132e-06,3.740590195618744e-06,1.274643522050402e-05,1.628843974631129e-06,2.5947637377707638e-06,6.149724449237662e-06,2.5500001121011937e-05,1.007314651642513e-06,9.763528666965611e-07
28,1.7406473244332847e-06,1.6593214125071854e-06,1.2958479097441663e-06,1.4971075520108718e-06,3.355443435609736e-06,5.18097207482235e-06,1.969628564816186e-06,5.129449520179656e-06,3.5105573980601937e-06,1.1623006608199545e-05,1.6020305976583032e-06,2.558677358884377e-06,6.19506792557196e-06,2.6453645619928906e-05,9.777867293037481e-07,9.27926836208073e-07
29,1.7628422424421686e-06,1.7229149656395427e-06,1.2917385368827734e-06,1.5184689945058357e-06,3.282869212038275e-06,5.107909278253078e-06,1.955227614286734e-06,5.126332526262083e-06,3.3018386698447835e-06,1.0554169032795557e-05,1.5705530159817575e-06,2.5180561350762917e-06,6.238786175100449e-06,2.7397188340870893e-05,9.483604373854046e-07,8.851811085481359e-07
30,1.7858451803974585e-06,1.7854918948848059e-06,1.2866211341879978e-06,1.5384289746208593e-06,3.2192244092547947e-06,5.036709356725363e-06,1.9411965610235224e-06,5.114208766964471e-06,3.1142136831267267e-06,9.541793619900563e-06,1.5353766508054864e-06,2.473279241898796e-06,6.280992884309934e-06,2.8339794343267596e-05,9.196947286002893e-07,8.497640811641551e-07
31,1.8093912624676618e-06,1.845386561941461e-06,1.2805858927742118e-06,1.5567656995832686e-06,3.1639236878803793e-06,4.966760788509619e-06,1.9273528370807086e-06,5.09453325250923e-06,2.9468250476006516e-06,8.5872086121314e-06,1.4975862145792564e-06,2.4245575334178295e-06,6.323130591578699e-06,2.9290648952654315e-05,8.92418095136737e-07,8.234452129240987e-07
32,1.8333362606460874e-06,1.9008252883234708e-06,1.2738356481300258e-06,1.5730520314177566e-06,3.1159061748425045e-06,4.897404142806494e-06,1.9135361265496024e-06,5.069069209696849e-06,2.7982090757841964e-06,7.691206155604723e-06,1.4582601269709334e-06,2.372126289783321e-06,6.367610920209746e-06,3.026019492352827e-05,8.670753099985508e-07,8.080449370597862e-07
33,1.8576789286795045e-06,1.9500660034643517e-06,1.2666772988925283e-06,1.5867121777588306e-06,3.0737362299793085e-06,4.8282979022953945e-06,1.8999593158396931e-06,5.039441957798438e-06,2.66655766854081e-06,6.854130123291081e-06,1.4183196871484681e-06,2.3163849584466373e-06,6.417220404523422e-06,3.126281635400337e-05,8.440838651022897e-07,8.055329281698377e-07
34,1.8825190917928973e-06,1.991641457937792e-06,1.2594422685793042e-06,1.5971447105114113e-06,3.0356712220455297e-06,4.759671107528311e-06,1.8873601698330497e-06,5.006703005257083e-06,2.5501943380776777e-06,6.076024977766896e-06,1.3784409109082158e-06,2.258002664274952e-06,6.474451809493874e-06,3.231719373403648e-05,8.23755633781007e-07,8.180897830235244e-07
35,1.9079523425753674e-06,2.0246349846484176e-06,1.252421611994004e-06,1.603869423702344e-06,2.999692318264951e-06,4.692238177764416e-06,1.8768620832423831e-06,4.971190011381691e-06,2.448028875492618e-06,5.356660187008577e-06,1.3390449135886362e-06,2.198064510564822e-06,6.540889793993528e-06,3.344377559167211e-05,8.063828620818997e-07,8.480161753305822e-07
36,1.9339325903804454e-06,2.0488240046135526e-06,1.2458212943480475e-06,1.606654982459493e-06,2.9636443975749565e-06,4.626764719913308e-06,1.8696670681681581e-06,4.932713301821614e-06,2.3596102000674814e-06,4.6953683231096615e-06,1.300335530489574e-06,2.138148953389105e-06,6.61685924723535e-06,3.4661717152939714e-05,7.923005450269904e-07,8.976190981984523e-07
37,1.9601575049509007e-06,2.0645456124015544e-06,1.23970424338087e-06,1.6055954895691527e-06,2.925689225149997e-06,4.563691497396678e-06,1.8667933682680664e-06,4.890725687906516e-06,2.284816649012511e-06,4.090926104188079e-06,1.2623780220568843e-06,2.080150949454758e-06,6.70149407155568e-06,3.598712069954277e-05,7.818680730991517e-07,9.691575687435556e-07
38,1.9860310747611514e-06,2.072392551619317e-06,1.2339294476980898e-06,1.601068168674698e-06,2.8848508937963916e-06,4.503131793160269e-06,1.86898774173606e-06,4.844278867698286e-06,2.223571673309884e-06,3.541686562512017e-06,1.225209965573955e-06,2.025921071866516e-06,6.793057299994952e-06,3.7432365110374155e-05,7.754170221105185e-07,1.0648089841986916e-06
39,2.010768990435762e-06,2.0730786897593098e-06,1.2281303100534067e-06,1.5935625216010467e-06,2.8411457288877787e-06,4.444940113762966e-06,1.8767606578651333e-06,4.79199948293774e-06,2.1756880102562864e-06,3.0458125521598537e-06,1.1889391239208484e-06,1.976979944638677e-06,6.889151207051592e-06,3.900521673173592e-05,7.732274628933587e-07,1.1866424772081184e-06
40,2.033625252120223e-06,2.067559878355044e-06,1.2217401115457558e-06,1.583548064283635e-06,2.795178763390169e-06,4.388517544463617e-06,1.890420388571607e-06,4.7323117677344915e-06,2.140736300008238e-06,2.601352313556218e-06,1.1537758360355691e-06,1.9344240066630893e-06,6.987021148636243e-06,4.070746435990409e-05,7.75539141936129e-07,1.3365959011068307e-06
41,2.0540106604341292e-06,2.057099010571757e-06,1.214082430767104e-06,1.5714879435094159e-06,2.7475965956603462e-06,4.332612647469185e-06,1.910081488140727e-06,4.66382762135087e-06,2.117966500223306e-06,2.206151983904169e-06,1.1199829123809462e-06,1.898979681956902e-06,7.08432623198925e-06,4.253444214978837e-05,7.825640676121973e-07,1.5164505790601715e-06
42,2.0713574514334705e-06,2.0430710378063904e-06,1.2045689747389337e-06,1.5578429904264964e-06,2.698851799160799e-06,4.275488541954437e-06,1.9357028726794367e-06,4.585714854558586e-06,2.1063694440943256e-06,1.8577627644265807e-06,1.0877773694757892e-06,1.8711493560332133e-06,7.179903389520885e-06,4.447605131532474e-05,7.945020913736012e-07,1.7278164560707054e-06
43,2.0849206501187382e-06,2.0266715766979973e-06,1.1929157434841944e-06,1.5429846728746144e-06,2.6493533654108607e-06,4.215411565236254e-06,1.9671403007806055e-06,4.497959728126732e-06,2.104877759838198e-06,1.5534905992354162e-06,1.057258578761988e-06,1.8513407356516636e-06,7.2739175911506794e-06,4.651767758033989e-05,8.116038418434511e-07,1.972132404494368e-06
44,2.0937361409275512e-06,2.0087820653424865e-06,1.1791812652612542e-06,1.5271774885855874e-06,2.599678952030293e-06,4.151178255764535e-06,2.0041204965716573e-06,4.401509950929131e-06,2.112517165695739e-06,1.2906153034701485e-06,1.028437506392333e-06,1.839866952052971e-06,7.36745901475978e-06,4.8639464585847006e-05,8.342364671204879e-07,2.2506695591316e-06
45,2.0967649549525327e-06,1.990078784965845e-06,1.1636013920292105e-06,1.5106765156789844e-06,2.550572732138981e-06,4.082385818422998e-06,2.0461171428105317e-06,4.298254920784802e-06,2.128337059550792e-06,1.066570698490775e-06,1.0013557809593247e-06,1.8368753687325558e-06,7.461865384662537e-06,5.0815085773699714e-05,8.628522648068605e-07,2.564495513150682e-06
46,2.093157227992098e-06,1.9712649201094594e-06,1.146419281267649e-06,1.493773784668499e-06,2.5027471168328786e-06,4.009250158261256e-06,2.0922161711523935e-06,4.190803370353456e-06,2.1512648760540705e-06,8.789059489119567e-07,9.76177204533189e-07,1.8423284406577244e-06,7.5581575753698746e-06,5.3012607503599055e-05,8.978999830713071e-07,2.9143594794057145e-06
47,2.082486795340027e-06,1.953188748260547e-06,1.1278817388230247e-06,1.4767468889630803e-06,2.4566666231276553e-06,3.932086266508372e-06,2.1410439352940773e-06,4.082114021389368e-06,2.180040563381729e-06,7.251820828462639e-07,9.531575738748947e-07,1.8560194603397737e-06,7.657003915858565e-06,5.519731997702913e-05,9.397734305410756e-07,3.300529313406301e-06
48,2.0648075512620403e-06,1.936733179784731e-06,1.1083614121325044e-06,1.4598638186519884e-06,2.4124863662094726e-06,3.850877867438235e-06,2.190762446789012e-06,3.975092318742709e-06,2.2131497345350485e-06,6.030155717494866e-07,9.325327917193206e-07,1.8775929796470771e-06,7.75896706148254e-06,5.73330257726308e-05,9.887791970830583e-07,3.722645527866396e-06
49,2.040537416401394e-06,1.922605128303213e-06,1.0884163213295143e-06,1.4434636358313486e-06,2.370173783700244e-06,3.765249771448421e-06,2.239147802193364e-06,3.87225166603529e-06,2.248751981826624e-06,5.102378048780646e-07,9.144334427977141e-07,1.9065855183828291e-06,7.864367769677997e-06,5.937961205017488e-05,1.0451058536526108e-06,4.179607470917428e-06
50,2.01030319511046e-06,1.911209997971134e-06,1.0686919760193358e-06,1.4279391045711618e-06,2.3296865153470165e-06,3.6747133198861242e-06,2.283828322635388e-06,3.7755755612869376e-06,2.2846885197445215e-06,4.4504014686534783e-07,8.988662596334259e-07,1.9424023402374986e-06,7.9726843947532e-06,6.128907432697477e-05,1.1088429265087834e-06,4.669481870897367e-06
51,1.9748857002525176e-06,1.9026459590530655e-06,1.0497907205407017e-06,1.413602718301827e-06,2.291044615301616e-06,3.5788888060893543e-06,2.322683417036834e-06,3.6866170766138114e-06,2.318567105422439e-06,4.0603872721270256e-07,8.857417759534412e-07,1.984186280556046e-06,8.081946226246258e-06,6.300366541402991e-05,1.1800470257347244e-06,5.18944261503991e-06
52,1.9352680307365525e-06,1.8967245778971213e-06,1.032222376078497e-06,1.4005836680401515e-06,2.254223896188134e-06,3.4776400163353864e-06,2.354221960853787e-06,3.6065887795588956e-06,2.3480564309404363e-06,3.9227706399377696e-07,8.749277228229593e-07,2.0306926533897476e-06,8.188440843937842e-06,6.445781329241846e-05,1.2587770367558258e-06,5.735737583796298e-06
53,1.8926132036268135e-06,1.8929666983895367e-06,1.0163756596361739e-06,1.3888085935082376e-06,2.2189804393759176e-06,3.371246774774481e-06,2.3777210668385653e-06,3.5362668909092076e-06,2.371495947547051e-06,4.0319933762260367e-07,8.662890992982456e-07,2.0802662732995695e-06,8.286823554743994e-06,6.558413292113287e-05,1.3450670743390491e-06,6.303687283161261e-06
54,1.8480797907705265e-06,1.8906473914307351e-06,1.0024655065385405e-06,1.3780173134938014e-06,2.184780193806006e-06,3.260674564698215e-06,2.3930411724961547e-06,3.4758851345865357e-06,2.3884218242334866e-06,4.3856236863552526e-07,8.597170451230051e-07,2.1309368931573915e-06,8.370629901346148e-06,6.632313885134733e-05,1.4388972633856545e-06,6.88775852285364e-06
55,1.8026518584514662e-06,1.888951158749864e-06,9.905145145056158e-07,1.3677780265082447e-06,2.1508612007323687e-06,3.147790020557822e-06,2.4002399223585864e-06,3.4251602814146426e-06,2.3994768302925475e-06,4.983200141227217e-07,8.551738332400522e-07,2.1806615939935307e-06,8.433043169456854e-06,6.663309147730068e-05,1.5401660512633441e-06,7.481703880507686e-06
56,1.7571473660566978e-06,1.8871154072590913e-06,9.804166321995393e-07,1.3575567784312715e-06,2.1163746730533395e-06,3.035257225955453e-06,2.3993144352855407e-06,3.3833449894414858e-06,2.4057825757708295e-06,5.826460070267847e-07,8.526808053527608e-07,2.2277422249333923e-06,8.467686231802867e-06,6.649367680119088e-05,1.6486110250810552e-06,8.078696176080167e-06
57,1.7123254189785475e-06,1.8844179392084869e-06,9.720468680438985e-07,1.3469109507976085e-06,2.0805669899108726e-06,2.9260617977856527e-06,2.390320489121742e-06,3.3492542055341246e-06,2.4083637701755096e-06,6.920900147348091e-07,8.522274447877788e-07,2.2712705930602115e-06,8.469220597090321e-06,6.590088697589647e-05,1.7637126157960838e-06,8.67146232698959e-06
58,1.6689436932378968e-06,1.8801600386632436e-06,9.653076516202037e-07,1.3357258658828208e-06,2.0429274186228853e-06,2.8229756674985723e-06,2.373689668212293e-06,3.3213121728923695e-06,2.4079968747080924e-06,8.27634880448474e-07,8.537412588363336e-07,2.3112933464169672e-06,8.433407255648503e-06,6.486077639307761e-05,1.8846311858541835e-06,9.25243475080836e-06
59,1.6277030474286703e-06,1.8738616004712807e-06,9.60072753594902e-07,1.3243322700215463e-06,2.003256261850136e-06,2.7282673917389627e-06,2.3503429548983406e-06,3.2975765881951913e-06,2.4053109726198685e-06,9.906488144409663e-07,8.571635156017764e-07,2.3486045760403636e-06,8.356681390103913e-06,6.339273223198752e-05,2.010169641781422e-06,9.81374377578471e-06
60,1.5891211708244166e-06,1.865493826728807e-06,9.561161011933907e-07,1.3134277134913982e-06,1.9616938656152893e-06,2.6436226882397867e-06,2.3214615217336735e-06,3.275734164754785e-06,2.4008281893148227e-06,1.182878034331801e-06,8.62487915534416e-07,2.384382289678467e-06,8.236275845576235e-06,6.15380997849286e-05,2.1387744293006108e-06,1.034681280453102e-05
61,1.5534778259774959e-06,1.8554460068133931e-06,9.531088585044326e-07,1.3038543395667673e-06,1.9187155545415736e-06,2.5701292452677944e-06,2.2881124998521108e-06,3.2531891375733747e-06,2.3949052427337955e-06,1.4063822145010258e-06,8.696970559810152e-07,2.4198572033320253e-06,8.071365209714681e-06,5.935964573939154e-05,2.2686050022772228e-06,1.0841743753175252e-05
62,1.5209304442041773e-06,1.8442767786281345e-06,9.507082537829316e-07,1.2963897404171204e-06,1.8750547172264191e-06,2.5083332192597224e-06,2.2509787050713658e-06,3.2272570871142985e-06,2.387746150990447e-06,1.6633695238171478e-06,8.787206891900624e-07,2.456066185968382e-06,7.863996910598855e-06,5.6929871621120254e-05,2.39761670104058e-06,1.1287259591291433e-05
63,1.4917053056477779e-06,1.8325084066000064e-06,9.486640829384212e-07,1.2916655833226385e-06,1.8315743045691008e-06,2.458451160882475e-06,2.2102882413618832e-06,3.195393397168544e-06,2.379572358257166e-06,1.9561174497098935e-06,8.894926947498452e-07,2.4937092717579156e-06,7.61882584548443e-06,5.431918401559227e-05,2.523560093830155e-06,1.1671845554150395e-05
64,1.4661610323525408e-06,1.820547532630334e-06,9.468154206863924e-07,1.2901588732553196e-06,1.7891191613570033e-06,2.420708980492112e-06,2.1659251101771185e-06,3.1554986892321187e-06,2.3708128616320126e-06,2.287044053891225e-06,9.020087945883556e-07,2.5330990818469477e-06,7.34214425140977e-06,5.159031174303516e-05,2.6439609264620327e-06,1.1985798725444394e-05
65,1.44465161771664e-06,1.8086289203796832e-06,9.450132498492174e-07,1.2921632793949486e-06,1.7483677699621895e-06,2.3955894898591996e-06,2.117672333699498e-06,3.1062756590210493e-06,2.362143091882036e-06,2.658754796755455e-06,9.162917745387193e-07,2.574191489026358e-06,7.0408993276305165e-06,4.8797230080504874e-05,2.7562603172025524e-06,1.2223068075288262e-05
66,1.4273492019056855e-06,1.796738793835055e-06,9.430898084224026e-07,1.2977601602980247e-06,1.7097679473832094e-06,2.3837852512398826e-06,2.0654574478699595e-06,3.047405257836643e-06,2.354383224283413e-06,3.073885155153004e-06,9.323047072144389e-07,2.6167233251060224e-06,6.721860155818908e-06,4.598645473622886e-05,2.8581122282053785e-06,1.2381728557896172e-05
67,1.4142124912225984e-06,1.784600690953577e-06,9.408892250717131e-07,1.3068273200680124e-06,1.6736227358041878e-06,2.385967713118183e-06,2.009413585626448e-06,2.9794004667146426e-06,2.3483626653694544e-06,3.5348098162586666e-06,9.498949833509926e-07,2.660417089671308e-06,6.391071329204435e-06,4.319925513937312e-05,2.947576088069378e-06,1.2462718291740063e-05
68,1.405059660946014e-06,1.7717725765082684e-06,9.383501688341508e-07,1.3190736291387107e-06,1.640255902312847e-06,2.4026359387188542e-06,1.9497886699795193e-06,2.9033171306880985e-06,2.3447814634752793e-06,4.0434013106235924e-06,9.687837207078262e-07,2.7050987791583503e-06,6.053789617780136e-06,4.047234296561712e-05,3.022996811745795e-06,1.2467640759296577e-05
69,1.3995713993241138e-06,1.757810540384232e-06,9.355866107151671e-07,1.3341125915590378e-06,1.610138935440361e-06,2.4340536580427747e-06,1.8869827488321027e-06,2.820602497874876e-06,2.3440690336787435e-06,4.60084373859211e-06,9.885872705408974e-07,2.7506262225181673e-06,5.714714743194492e-06,3.7836583316930296e-05,3.0827912369237618e-06,1.2397168296122477e-05
70,1.397223602194516e-06,1.7424445375618267e-06,9.328541589202758e-07,1.3515738331351258e-06,1.5838961579261934e-06,2.4801441755686954e-06,1.821766419072851e-06,2.7331249932356328e-06,2.3463256228539526e-06,5.2074495541131105e-06,1.0088802578313531e-06,2.7967073465227002e-06,5.378136752803106e-06,3.5315652588881185e-05,3.12554254098206e-06,1.2251126231495233e-05
71,1.3973371459537984e-06,1.7257143600691292e-06,9.30420649597467e-07,1.3711830522831507e-06,1.5621666772356121e-06,2.5403966552869533e-06,1.7553631082893003e-06,2.6431841217947526e-06,2.351397105654352e-06,5.862541159402561e-06,1.0292633575290904e-06,2.8427726085318836e-06,5.0479452473171595e-06,3.292572106625486e-05,3.150373174983751e-06,1.2029987376668993e-05
72,1.399294899179502e-06,1.707998950958454e-06,9.284794007338455e-07,1.3927472665111257e-06,1.5454212345888857e-06,2.61388543870402e-06,1.6892292589210502e-06,2.553328056391569e-06,2.3589960477347125e-06,6.564454152577282e-06,1.049376411091142e-06,2.8879825000573875e-06,4.72764893345968e-06,3.067622491348015e-05,3.157233535868465e-06,1.1736611936043126e-05
73,1.4027196671175468e-06,1.6899131967986412e-06,9.27155499522247e-07,1.4160594013815541e-06,1.5338845947127082e-06,2.699348450184675e-06,1.6247665160896347e-06,2.466024134778119e-06,2.3687890326985033e-06,7.310640412209434e-06,1.0688690575038338e-06,2.931328275079833e-06,4.420426537427881e-06,2.857161206374495e-05,3.1469368647514374e-06,1.1377223812032399e-05
74,1.4074265902089863e-06,1.6721181163159155e-06,9.265351710093859e-07,1.4408426996974796e-06,1.5276343496668764e-06,2.7952663369336273e-06,1.5631969038954714e-06,2.383371978928682e-06,2.3804295242868537e-06,8.097801607719241e-06,1.087360260763977e-06,2.97173941443854e-06,4.129087285133385e-06,2.6613588884894852e-05,3.1210292238193173e-06,1.096122947633959e-05
75,1.4132118597369115e-06,1.6551367418335605e-06,9.266613024066232e-07,1.4668167465807525e-06,1.5267963256489008e-06,2.9000197483365955e-06,1.505552780129507e-06,2.3069891777152034e-06,2.393538281583605e-06,8.921898679829986e-06,1.1044070018860365e-06,3.008142713925574e-06,3.855887143335195e-06,2.4803360636918396e-05,3.0816177471701308e-06,1.0500056765326327e-05
76,1.419685820287338e-06,1.6392599996137247e-06,9.275049615509838e-07,1.493770121322872e-06,1.5316358037826108e-06,3.0121622629612357e-06,1.4526830885917103e-06,2.238060190231507e-06,2.407691845878764e-06,9.777874404119742e-06,1.1195429163288632e-06,3.0394848656082475e-06,3.6023608180677232e-06,2.3142806509012982e-05,3.0311647588891565e-06,1.000554423969059e-05
77,1.4262747710590203e-06,1.6245334852809395e-06,9.289604409331653e-07,1.5215213362572959e-06,1.5424618470522016e-06,3.1306424618178615e-06,1.4052904902328317e-06,2.1774693537075842e-06,2.422444911713107e-06,1.0659175661326054e-05,1.132395191290277e-06,3.0647980812985452e-06,3.369314539983632e-06,2.163352535051075e-05,2.9722006745633017e-06,9.488536693997266e-06
78,1.4323567763967815e-06,1.610758653851508e-06,9.309154887356079e-07,1.549810417408738e-06,1.559485708636007e-06,3.2547774420050143e-06,1.3639818631935211e-06,2.1259057111619687e-06,2.437289195348392e-06,1.1557436279464015e-05,1.1427631704216813e-06,3.083358775256106e-06,3.1569326101169385e-06,2.0274986642786324e-05,2.9070611538205247e-06,8.958238321907581e-06
79,1.4374243168413196e-06,1.597496440107449e-06,9.333750039531332e-07,1.578204878326849e-06,1.5827368306973846e-06,3.3839769024570043e-06,1.3292581592533559e-06,2.08385327327772e-06,2.4515225036576226e-06,1.2462597945405026e-05,1.1505856339466075e-06,3.0948470151836795e-06,2.964957310009506e-06,1.9063887994223875e-05,2.83779080048183e-06,8.422328838130831e-06
80,1.4411821326852376e-06,1.5841149367540713e-06,9.365120180619754e-07,1.6060997844026227e-06,1.6120142490303127e-06,3.517371895108152e-06,1.3014633251123142e-06,2.051514622824769e-06,2.464237687428226e-06,1.3363395447175531e-05,1.155871553574807e-06,3.099404245362674e-06,2.7928848537342e-06,1.79947022328721e-05,2.7661149724106947e-06,7.887294588759549e-06
81,1.4435353523521628e-06,1.569948007354903e-06,9.405762972355793e-07,1.632848456982747e-06,1.6468598526069018e-06,3.653511675184451e-06,1.2807565610025796e-06,2.028784626637186e-06,2.474616014513484e-06,1.4247738620899326e-05,1.1586988925053666e-06,3.0976323613935994e-06,2.640040345488884e-06,1.7060322051197375e-05,2.6933579802874812e-06,7.3586150550898425e-06
82,1.4444859860397238e-06,1.5545447800897016e-06,9.457832768299057e-07,1.6578904276745082e-06,1.686544767977651e-06,3.79024649102796e-06,1.267086191884002e-06,2.0153069178484793e-06,2.48231905011054e-06,1.510257445348906e-05,1.1593019649114102e-06,3.090555599191824e-06,2.5056186659532937e-06,1.6252252080665355e-05,2.6204266018323083e-06,6.840878004652848e-06
83,1.4440204638829072e-06,1.5378091482655025e-06,9.523078175517742e-07,1.6807265022299704e-06,1.730100480881478e-06,3.9248233950371495e-06,1.2601536681933364e-06,2.01057656711985e-06,2.4875428165076084e-06,1.5913862383644874e-05,1.1581543643484105e-06,3.0795235219536697e-06,2.388863030842228e-06,1.5560507317923453e-05,2.547969881370277e-06,6.337904026835643e-06
84,1.442079871074117e-06,1.5198968253960252e-06,9.60331007576882e-07,1.700851905676688e-06,1.7764723587067337e-06,4.054078339401563e-06,1.2594270310468922e-06,2.0140450392870503e-06,2.4906538613548496e-06,1.6667742427679527e-05,1.155926217448599e-06,3.066161046465174e-06,2.2892154214609176e-06,1.4973954142410738e-05,2.4766284423163517e-06,5.852868776776874e-06
85,1.4386117822159327e-06,1.5010353833910112e-06,9.70064378415794e-07,1.7178298941932894e-06,1.8247583818061524e-06,4.174561238640703e-06,1.2642136514724485e-06,2.025150322932632e-06,2.4918224978502874e-06,1.7352511473129125e-05,1.1533381312948022e-06,3.052346180346148e-06,2.206237233874519e-06,1.4480922232845482e-05,2.407205812085624e-06,5.388443812820956e-06
86,1.4336040301348177e-06,1.4815094097794487e-06,9.81751505630573e-07,1.7314165393078707e-06,1.8743900303658255e-06,4.282595108933163e-06,1.2737115142388434e-06,2.0432141228481853e-06,2.4909705731785116e-06,1.79600270240724e-05,1.1510452357887062e-06,3.039998502495395e-06,2.139410597053375e-06,1.4068977928866117e-05,2.3406236815256258e-06,4.946949834148384e-06
87,1.4270886952874682e-06,1.4617969651121927e-06,9.95640679982292e-07,1.7415433364499772e-06,1.925174218744978e-06,4.3744275246032944e-06,1.2869870009112694e-06,2.0672752742120818e-06,2.487904452078665e-06,1.8485891874236187e-05,1.1495887456876477e-06,3.030737330934942e-06,2.088008260042777e-06,1.3724195256498816e-05,2.2776785896367036e-06,4.5304329737681944e-06
88,1.4192408988846175e-06,1.4426234361795795e-06,1.0119187972225972e-06,1.7481586034464638e-06,1.977218775122531e-06,4.446560890983048e-06,1.3029784037481264e-06,2.0959841326665183e-06,2.4823852797894963e-06,1.8928283657153727e-05,1.1493828332384206e-06,3.0256790774731174e-06,2.0510920573147227e-06,1.3431374777070054e-05,2.2187891673687037e-06,4.14057953175328e-06
89,1.4105374944055765e-06,1.4248096996446882e-06,1.030637498174512e-06,1.7510802594038186e-06,2.0308036216647913e-06,4.496214581920309e-06,1.3206612021936857e-06,2.1276154465536746e-06,2.4740712751862675e-06,1.9285893348041273e-05,1.1507451274173428e-06,3.0253987631119123e-06,2.027563948424988e-06,1.3175407997594323e-05,2.163886946979078e-06,3.7785448910390895e-06
90,1.4017422127231869e-06,1.4090469283535881e-06,1.0516654665489857e-06,1.750000855557344e-06,2.086236664824554e-06,4.521790342521583e-06,1.3393092076945046e-06,2.160198922411007e-06,2.4624956404180527e-06,1.9557265171661284e-05,1.153934280254975e-06,3.029932405320099e-06,2.0162073978672024e-06,1.29428194144284e-05,2.1124777338063933e-06,3.4449257641472907e-06
91,1.3936852371882482e-06,1.3957847111351496e-06,1.0746610090336003e-06,1.744645705636127e-06,2.1436907177281155e-06,4.523097199950069e-06,1.3586291501867675e-06,2.1917247114483956e-06,2.4472301880773064e-06,1.97430279738463e-05,1.159137459029133e-06,3.0387924093371343e-06,2.0157869322240934e-06,1.2722681281270144e-05,2.0638503389227093e-06,3.13993568353673e-06
92,1.3870711105005103e-06,1.3852677267051466e-06,1.0990557439604988e-06,1.7349465386482379e-06,2.203025904243949e-06,4.501124947725287e-06,1.3786778058502005e-06,2.2203691442618423e-06,2.4280308665686143e-06,1.984846121762914e-05,1.1664313041287926e-06,3.0510301518216693e-06,2.0252148354919134e-06,1.2506679737564333e-05,2.0173281559323087e-06,2.8635542085812767e-06
93,1.3824510455179224e-06,1.377607229920778e-06,1.1240941636189404e-06,1.7211064130654657e-06,2.2636543149877473e-06,4.457444898932287e-06,1.3997065649253583e-06,2.2447142584809836e-06,2.4047318294023163e-06,1.9883293350590736e-05,1.1757395005072793e-06,3.0653911543972705e-06,2.043681511719942e-06,1.2288483777793799e-05,1.972378016565446e-06,2.615490036569354e-06
94,1.3802814625513058e-06,1.372784971298923e-06,1.148982533606236e-06,1.7035312538653425e-06,2.324489583897479e-06,4.393548307200681e-06,1.4220819990873218e-06,2.263917425148342e-06,2.377125743858939e-06,1.9859068993708994e-05,1.186794917824915e-06,3.080594948097904e-06,2.0706742467296684e-06,1.206271014782414e-05,1.928561986076772e-06,2.3950428477327157e-06
95,1.3809467645685935e-06,1.370646717203886e-06,1.1730770811454767e-06,1.6827096943010338e-06,2.383970339661071e-06,4.310460551283747e-06,1.4462428042938131e-06,2.2777867070908254e-06,2.3451542887015036e-06,1.978618948948608e-05,1.1991492298527227e-06,3.09564680210763e-06,2.105854334862294e-06,1.182432084510353e-05,1.8855424562784693e-06,2.2009968844275783e-06
96,1.3847016324170884e-06,1.3709706493161174e-06,1.1959364155723701e-06,1.6591795417026047e-06,2.4402097671981078e-06,4.2088633697465664e-06,1.4726414338084929e-06,2.286775562528339e-06,2.309270272497298e-06,1.967188013558182e-05,1.2122249836882442e-06,3.109947807316238e-06,2.1488243796123723e-06,1.1569353446186004e-05,1.8431717865193095e-06,2.0316047144090107e-06
97,1.3915900222388095e-06,1.3735518624546072e-06,1.21719785945699e-06,1.633609791944678e-06,2.4913449367735555e-06,4.089640918412101e-06,1.501754506408362e-06,2.291877554270694e-06,2.2706058894494624e-06,1.9519185174541473e-05,1.225337975580173e-06,3.123095303531345e-06,2.1988956487301624e-06,1.1295970640702751e-05,1.801462713947336e-06,1.8846753725264618e-06
98,1.4014182845443793e-06,1.3782396233193255e-06,1.2364548515213972e-06,1.6068555486102082e-06,2.5359517983533006e-06,3.954428435595037e-06,1.5341472867259954e-06,2.2943597734342176e-06,2.2307781892206735e-06,1.9326783371886793e-05,1.2376561972595498e-06,3.134566168108279e-06,2.254988152141701e-06,1.1004042159984293e-05,1.7604512018425782e-06,1.757724510986718e-06
99,1.413817833551446e-06,1.384942073983705e-06,1.2532803680358872e-06,1.5798665591579691e-06,2.573276810152445e-06,3.8057968586682843e-06,1.5704242314411184e-06,2.29542737922798e-06,2.191455353975253e-06,1.908964399635344e-05,1.2481546956047437e-06,3.143544920372901e-06,2.315742578081438e-06,1.0694146764774632e-05,1.7201356273165324e-06,1.6480876336240982e-06
100,1.42837438006293e-06,1.393575643848199e-06,1.2673207583977193e-06,1.5535336010226728e-06,2.6032301614453305e-06,3.6470702854511334e-06,1.6110672735860059e-06,2.2960115118958018e-06,2.1539740131040073e-06,1.880064381984054e-05,1.255653862630026e-06,3.148965107081133e-06,2.3797782574732236e-06,1.0367576700416318e-05,1.680454599870892e-06,1.5530203511218762e-06
101,1.4447038307250331e-06,1.4039483195651989e-06,1.278307094930047e-06,1.5286402191788863e-06,2.6262950416656454e-06,3.482007872402057e-06,1.6563135967706398e-06,2.296696275101862e-06,2.119199898074585e-06,1.8452915887427625e-05,1.2589632132337296e-06,3.1496718562919473e-06,2.4458578651495946e-06,1.0026413655414862e-05,1.6411987681743033e-06,1.4699381792299326e-06
102,1.4624300094500996e-06,1.4156873834754175e-06,1.2860065668118175e-06,1.5059096144027415e-06,2.6434533344904017e-06,3.3145100535177435e-06,1.7061015149593161e-06,2.297685039340037e-06,2.0876121696676095e-06,1.804206465175954e-05,1.257106469192101e-06,3.1446004516276145e-06,2.5128076439042824e-06,9.672971559724568e-06,1.601965980433145e-06,1.396759971580715e-06
103,1.4812024633274621e-06,1.4283090194504804e-06,1.2902855124895805e-06,1.485996554429758e-06,2.6560288853949487e-06,3.148341527919399e-06,1.7600565577482106e-06,2.2988100989596107e-06,2.0594432396054134e-06,1.7567236301588065e-05,1.249594459602798e-06,3.132906440303357e-06,2.5794246626024637e-06,9.309474613646278e-06,1.562264811439828e-06,1.3320959112881951e-06
104,1.500780272444446e-06,1.4413389590880845e-06,1.2912878786531152e-06,1.4694022609407686e-06,2.665390261039412e-06,2.9868693256635954e-06,1.8175463679006875e-06,2.299644267721669e-06,2.034706483454998e-06,1.7030639274488625e-05,1.2366229874257632e-06,3.1140254259902137e-06,2.644608258272132e-06,8.938269064243841e-06,1.5216513640139362e-06,1.275131932042797e-06
105,1.5210209372579037e-06,1.4543326505589793e-06,1.2894920485392992e-06,1.4564098909915747e-06,2.672677211719832e-06,2.8329033531873317e-06,1.8777897619709762e-06,2.2997079432683264e-06,2.013138115152002e-06,1.6435916417238343e-05,1.2190127168131204e-06,3.087680493951529e-06,2.7075318391231864e-06,8.56234348874353e-06,1.4798182614553764e-06,1.2253192013905127e-06
106,1.541766035090127e-06,1.4668256045830486e-06,1.2855402513042619e-06,1.4470774601701313e-06,2.678660220257471e-06,2.6886555738864745e-06,1.9399555015609754e-06,2.2986786491343577e-06,1.9941855674887966e-06,1.5786831698879042e-05,1.1979201274960499e-06,3.0538528276582126e-06,2.7676098971359774e-06,8.185616840093139e-06,1.436747855834539e-06,1.182084207812288e-06
107,1.5627629179351197e-06,1.478375930752147e-06,1.2800561969784964e-06,1.4412674950052813e-06,2.6836974588619625e-06,2.5557368694715574e-06,2.00323134854365e-06,2.29645488909559e-06,1.9770944865847007e-06,1.5088221227709525e-05,1.1745868241281197e-06,3.012732833929566e-06,2.8242855534744263e-06,7.812336316915319e-06,1.3928883264864369e-06,1.1447009453970928e-06
108,1.583624344425892e-06,1.488734485098708e-06,1.2736341024104167e-06,1.4386682709753015e-06,2.687848090925737e-06,2.4351702333439342e-06,2.0668533887555627e-06,2.293008453149428e-06,1.9610995990837043e-06,1.4348905809580989e-05,1.1502523150754185e-06,2.9646919893330333e-06,2.876813387273478e-06,7.446121107401986e-06,1.3491025031379052e-06,1.1123179816625416e-06
109,1.6037674254026135e-06,1.4979578097604285e-06,1.2668819839685202e-06,1.4387654510669398e-06,2.6911717923668304e-06,2.327459111802785e-06,2.1300392369792946e-06,2.288183766400212e-06,1.945655967544811e-06,1.3583387149837137e-05,1.1261142268133694e-06,2.9102661936248414e-06,2.924138782153639e-06,7.089584229114959e-06,1.3063849919679115e-06,1.0840738889632023e-06
110,1.622370679265996e-06,1.5063308555057137e-06,1.2603652779241267e-06,1.4408166501032549e-06,2.694021652900996e-06,2.232727903999792e-06,2.1918416944707845e-06,2.2816809977592313e-06,1.9305596086925403e-06,1.2810333930557252e-05,1.1032574455939359e-06,2.8500960803144853e-06,2.9648145523006444e-06,6.744459040154346e-06,1.2656242808230348e-06,1.0592379488081092e-06
111,1.6384250079948074e-06,1.5142962884627757e-06,1.254503920237409e-06,1.4439094817017524e-06,2.697137063357731e-06,2.150902912702198e-06,2.251114384010829e-06,2.273175777919432e-06,1.915918683241284e-06,1.2049389697360559e-05,1.082587184637796e-06,2.7847849837270662e-06,2.996987907726828e-06,6.411866721510104e-06,1.2275509900313923e-06,1.0372636981060231e-06
112,1.6509045150630221e-06,1.522543138775065e-06,1.2495178799369563e-06,1.4470759432058694e-06,2.701523594758893e-06,2.0818276964234612e-06,2.3067334023603305e-06,2.2623430913759963e-06,1.90206401432101e-06,1.1318732748742458e-05,1.064791430649742e-06,2.7146844703992492e-06,3.0186617945420466e-06,6.092741768443244e-06,1.1927621464074753e-06,1.0177494870628874e-06
113,1.6589834231159798e-06,1.5320140026356428e-06,1.245426343091523e-06,1.449402450438886e-06,2.7082016784952425e-06,2.0252343715482026e-06,2.357899853504085e-06,2.2488329201441014e-06,1.8894265515557035e-06,1.063411256418667e-05,1.0503269658890886e-06,2.639757948464416e-06,3.028265653506879e-06,5.788380217875315e-06,1.1617107472210114e-06,1.0004421398614184e-06
114,1.6621766536624688e-06,1.5436951306324713e-06,1.24211034318558e-06,1.450155832658321e-06,2.717963374224697e-06,1.980686443986809e-06,2.4042185519861444e-06,2.2323428971310333e-06,1.878407337800636e-06,1.0008785131494408e-05,1.0394441324326133e-06,2.5596941658351175e-06,3.0252625386519167e-06,5.500757063599457e-06,1.1346797525518747e-06,9.852572406062994e-07
115,1.6603016329525472e-06,1.5584277946015848e-06,1.2394324624458703e-06,1.448915470694872e-06,2.7312900714504467e-06,1.947638329519175e-06,2.4454974180243885e-06,2.212673224219585e-06,1.869299827146118e-06,9.453820144757155e-06,1.0322588666679339e-06,2.4742084184722948e-06,3.010363395972835e-06,5.2323037324601475e-06,1.111779793111577e-06,9.722175545989018e-07
116,1.6532672081912285e-06,1.5768792923720725e-06,1.237346177651563e-06,1.4455794156854243e-06,2.748419847565491e-06,1.9255219845121137e-06,2.4814602681204453e-06,2.189691175820542e-06,1.8622388170533e-06,8.97856778219671e-06,1.0288065226605749e-06,2.38329884673e-06,2.9851372329842544e-06,4.985467659640069e-06,1.0929582764444837e-06,9.613852738926803e-07
117,1.6409005057034558e-06,1.5995364413481914e-06,1.2359638834014132e-06,1.4402148062577832e-06,2.7694128644396438e-06,1.9137626471538876e-06,2.5115478353184543e-06,2.1633199047354168e-06,1.8571969291637043e-06,8.591071986862324e-06,1.0290128717470981e-06,2.2873003485482045e-06,2.951445614573539e-06,4.762610253901924e-06,1.0780096090695432e-06,9.528491456888425e-07
118,1.6229993738196148e-06,1.626626281720339e-06,1.2355867461251765e-06,1.4329493633102858e-06,2.7941451615664722e-06,1.911815665029275e-06,2.5349021885782787e-06,2.1336052122601412e-06,1.8541596098097661e-06,8.298262897804842e-06,1.0326465857825589e-06,2.1867899355559683e-06,2.9112676294023036e-06,4.5660497788870865e-06,1.0665974091887127e-06,9.467302641331002e-07
119,1.5995175491806682e-06,1.658033828205178e-06,1.236659344199949e-06,1.4240161368624137e-06,2.822276349633304e-06,1.919201079150989e-06,2.5506491769707987e-06,2.100822727140192e-06,1.8534395914932921e-06,8.105901482720627e-06,1.0393762384062179e-06,2.082534499175301e-06,2.866793745075994e-06,4.397783856030676e-06,1.058275650580318e-06,9.432059186485019e-07
120,1.5707077624014183e-06,1.6932917289849208e-06,1.239648132477293e-06,1.413814101760859e-06,2.853253610988395e-06,1.935395498644331e-06,2.558443382292729e-06,2.0655610248160187e-06,1.8558676799107996e-06,8.018349232477852e-06,1.0489303456275687e-06,1.9755644111308094e-06,2.8203551358995724e-06,4.259080706981038e-06,1.0525011618763549e-06,9.425255882084331e-07
121,1.537189492677464e-06,1.7316423873020543e-06,1.2449589020274504e-06,1.4028427759703484e-06,2.886388189848805e-06,1.9596528881506044e-06,2.5589127903388058e-06,2.028679115111376e-06,1.862692363291501e-06,8.038347799855536e-06,1.0612186875760333e-06,1.8672421346774758e-06,2.7741502368575645e-06,4.150304196865805e-06,1.0486658176524775e-06,9.449593534461097e-07
122,1.499935882624769e-06,1.7721516556743789e-06,1.2529445109090195e-06,1.3915334700940721e-06,2.9209693783154945e-06,1.990904745432229e-06,2.5536413571222446e-06,1.991105140410844e-06,1.8753120769481592e-06,8.16696625435315e-06,1.0763003832677382e-06,1.7591560055582512e-06,2.7299993480289176e-06,4.070977123674427e-06,1.0461703253896227e-06,9.507357834131298e-07
123,1.4601304368213476e-06,1.8138743175704765e-06,1.263883825874309e-06,1.3801097650097964e-06,2.95630617342546e-06,2.027739653523302e-06,2.544721716994875e-06,1.953634797620454e-06,1.8950806817529816e-06,8.403635136192303e-06,1.0942317156904161e-06,1.6528536819676042e-06,2.6892212036325748e-06,4.019983243225763e-06,1.044528827970588e-06,9.600447554369211e-07
124,1.4189369021703704e-06,1.8560607578593155e-06,1.2778881522613784e-06,1.3686018320032628e-06,2.9916267150419657e-06,2.068450574699118e-06,2.53421907918288e-06,1.916891678866381e-06,1.9232445154526496e-06,8.746109669281739e-06,1.1149233070254318e-06,1.5496066151994685e-06,2.652577881000552e-06,3.995745837057617e-06,1.0434651039243634e-06,9.730387029724578e-07
125,1.3773373585163982e-06,1.89830089157281e-06,1.2948223018395454e-06,1.3570172214109446e-06,3.025878920957938e-06,2.111225382764696e-06,2.523840289093064e-06,1.8813936273838073e-06,1.9608861183495633e-06,9.190417509235263e-06,1.1380845043688048e-06,1.4503534373684933e-06,2.620265817359074e-06,3.996186462597898e-06,1.0429435628249532e-06,9.897790859807444e-07
126,1.3361518119624594e-06,1.940455594886705e-06,1.3142779260637346e-06,1.3455213807834427e-06,3.0575586494461043e-06,2.1544649301902393e-06,2.5148388175905308e-06,1.8476264912150665e-06,2.0088291306236963e-06,9.73088707423992e-06,1.1632325331894682e-06,1.3557970812543495e-06,2.5919766984214424e-06,4.01854873513321e-06,1.0430829774585726e-06,1.0101835014284143e-06
127,1.2961801437296804e-06,1.9824105931390477e-06,1.3356242492919538e-06,1.3344519617789535e-06,3.084758740827545e-06,2.1970072138038327e-06,2.5080579303211456e-06,1.8161331732710182e-06,2.0675710029957223e-06,1.0360159284326918e-05,1.189755790254079e-06,1.266535182044755e-06,2.56707241354806e-06,4.059284646802536e-06,1.0440000014616683e-06,1.0340157799860123e-06
128,1.2582734902022592e-06,2.0239018486879277e-06,1.3581727090804876e-06,1.3241514120965845e-06,3.1055548565299103e-06,2.238091108471063e-06,2.5040726736851626e-06,1.7875654672978081e-06,2.137256320614397e-06,1.1069090811212137e-05,1.217035010203748e-06,1.183123932608318e-06,2.5448651984450664e-06,4.1140084066989565e-06,1.0457152714249122e-06,1.0609267254105384e-06
129,1.223258325569625e-06,2.0645552640858163e-06,1.3813681915590233e-06,1.314781601803149e-06,3.1185504608439544e-06,2.27718435986311e-06,2.5033451727808405e-06,1.7625896041537545e-06,2.2176859109210296e-06,1.1846630810770665e-05,1.2445474950304082e-06,1.1060526781423087e-06,2.524881974025712e-06,4.177534405603707e-06,1.0481368038122931e-06,1.0905385282418529e-06
130,1.1918396353423737e-06,2.10403660562222e-06,1.4048473941619007e-06,1.3062532789552721e-06,3.1232362507551083e-06,2.3138667424541658e-06,2.5062290899985817e-06,1.7417026321871176e-06,2.308383335208722e-06,1.2679853139116657e-05,1.2718727645773486e-06,1.0356715041391108e-06,2.507016011765327e-06,4.244192285271869e-06,1.051039226417417e-06,1.1225138554380522e-06
131,1.1645912717504092e-06,2.1421742862654492e-06,1.4283485367340657e-06,1.2982460940335394e-06,3.1199783707801392e-06,2.3477520005645578e-06,2.5128165456633506e-06,1.7251191647933474e-06,2.4087182352055026e-06,1.3554326188366224e-05,1.2986117091844427e-06,9.721251904267338e-07,2.4915550510134052e-06,4.308532282000545e-06,1.0540543332050197e-06,1.1565443333394265e-06
132,1.1419977736941252e-06,2.1790031522242857e-06,1.451609316001559e-06,1.2902325708164103e-06,3.1097108223284757e-06,2.3784040849938512e-06,2.5228371678345626e-06,1.712785197573445e-06,2.5180985179543047e-06,1.445479518837228e-05,1.3243335725178065e-06,9.153235754331218e-07,2.4790689034024043e-06,4.3661234692112796e-06,1.0567303846864432e-06,1.1922782083607917e-06
133,1.1244719163086099e-06,2.2147006925263824e-06,1.4743496631724081e-06,1.2814821558923781e-06,3.0935571547017754e-06,2.405388957804327e-06,2.5357521921873532e-06,1.7044873422346228e-06,2.636152865622678e-06,1.536579812553749e-05,1.3486585829068993e-06,8.649543554418611e-07,2.470163323367422e-06,4.413932391695979e-06,1.0586661133198953e-06,1.2293008640491423e-06
134,1.1123625696849417e-06,2.2494042598807583e-06,1.4962895135851237e-06,1.271118586555861e-06,3.0725881740216486e-06,2.428506665901313e-06,2.5508921012645327e-06,1.6999796247575035e-06,2.762703280116516e-06,1.627184331504391e-05,1.3713759795996698e-06,8.205420307774934e-07,2.465214484931545e-06,4.450114347529256e-06,1.05965582779886e-06,1.267256775365979e-06
135,1.1060012765140425e-06,2.2829851162740895e-06,1.5171218170275914e-06,1.2583100955060136e-06,3.047768253134178e-06,2.4479830536249294e-06,2.5674385759485816e-06,1.6990183428407425e-06,2.8975139940241035e-06,1.7157225617531895e-05,1.3924034395596333e-06,7.815260418846295e-07,2.4642005415179113e-06,4.473461672975523e-06,1.05970995640582e-06,1.3060151190271544e-06
136,1.1057326238865516e-06,2.314950130911684e-06,1.536469034988809e-06,1.242537077368795e-06,3.0199733524892003e-06,2.464476378558378e-06,2.584390526898573e-06,1.7012951531438065e-06,3.040021183845868e-06,1.800569830739697e-05,1.411652097714699e-06,7.472811073811604e-07,2.466631069101296e-06,4.482982420715887e-06,1.0589689050359124e-06,1.3456782071410773e-06
137,1.1118578856129176e-06,2.344578834996206e-06,1.553881809867548e-06,1.2237292932417045e-06,2.989916017015333e-06,2.478946104224341e-06,2.6007500682640793e-06,1.7064206437108132e-06,3.1891791599913256e-06,1.8799911858893624e-05,1.4290050884582768e-06,7.170665039265356e-07,2.4715869075555344e-06,4.4781551378509165e-06,1.0576760706044832e-06,1.3864036330775972e-06
138,1.124535078671879e-06,2.371163744140232e-06,1.568918470477064e-06,1.202148451726062e-06,2.957954120988624e-06,2.492431973543901e-06,2.615819427109873e-06,1.714017169315568e-06,3.3435140269541124e-06,1.95210387421739e-05,1.444383550144767e-06,6.899940900982433e-07,2.47790493225449e-06,4.459767123041049e-06,1.0561904239373595e-06,1.4281989803922803e-06
139,1.1437093966388485e-06,2.3941045626010244e-06,1.5812661598829458e-06,1.1782102576775792e-06,2.9239730615274613e-06,2.505831799757846e-06,2.6293414848205285e-06,1.7237489496238636e-06,3.5014537552534525e-06,2.0150183228036752e-05,1.4577248682813935e-06,6.650839215690967e-07,2.484349305716149e-06,4.430457497287196e-06,1.0549287289317564e-06,1.4708066092396151e-06
140,1.1690875662992774e-06,2.4128374663043713e-06,1.5907239244380812e-06,1.1524517867462292e-06,2.8875141919524994e-06,2.51982556020003e-06,2.6413665186892376e-06,1.735239338564528e-06,3.66171402351875e-06,2.0672213133760323e-05,1.4688480995276377e-06,6.413866714779671e-07,2.489647600030322e-06,4.3944188091707785e-06,1.0542576675469445e-06,1.5136694043544632e-06
141,1.2001367693938335e-06,2.426827513075794e-06,1.5970445550291668e-06,1.125525749714652e-06,2.8480642041751915e-06,2.5349242719099757e-06,2.651925938963717e-06,1.748064244912819e-06,3.8233210827651404e-06,2.1079739506708856e-05,1.4773459577199248e-06,6.180929013546274e-07,2.4926202012945205e-06,4.356538171222841e-06,1.0544029290469245e-06,1.5559627764465307e-06
142,1.236096273485594e-06,2.435704755466438e-06,1.5998998916710043e-06,1.0981165106143766e-06,2.8052832694629063e-06,2.551453668728941e-06,2.6607759172878055e-06,1.7618961220543833e-06,3.9852078575117e-06,2.137430311759689e-05,1.4826327579335706e-06,5.945633239910777e-07,2.4925025207605323e-06,4.321568453005374e-06,1.0554362846566922e-06,1.5967423465365689e-06
143,1.2760178873989156e-06,2.4393574608903525e-06,1.5990877042556415e-06,1.0708715151340528e-06,2.7590674542341587e-06,2.569404575525786e-06,2.667354668216306e-06,1.7766467138871446e-06,4.145819519887924e-06,2.156417790830654e-05,1.4841273011128476e-06,5.702798640319577e-07,2.48908641090098e-06,4.293679955979252e-06,1.0573605724004576e-06,1.6351978495254266e-06
144,1.3188379931566795e-06,2.437838782230513e-06,1.5948235415969491e-06,1.044364238675895e-06,2.7095169168326846e-06,2.5882809830358575e-06,2.6708017135588182e-06,1.7924417659746278e-06,4.303082511633356e-06,2.1660518190128505e-05,1.4814187420441168e-06,5.447782236099512e-07,2.4824704778278963e-06,4.276284404074162e-06,1.0602228562021285e-06,1.6708469193344404e-06
145,1.3634237420979993e-06,2.431146695165891e-06,1.587904013727536e-06,1.0190528783362959e-06,2.6569166377004637e-06,2.607077972232473e-06,2.6699958232519674e-06,1.809445618086181e-06,4.454618701441878e-06,2.16740709890012e-05,1.4743089707375649e-06,5.176478618854076e-07,2.4727453161573102e-06,4.2719244767302965e-06,1.064147770108757e-06,1.703503804305234e-06
146,1.4086055743712724e-06,2.4190486877583996e-06,1.5796307472215653e-06,9.952639662511717e-07,2.6017075052285443e-06,2.624408202473351e-06,2.663771987724853e-06,1.8277056490034264e-06,4.597867921864151e-06,2.161359107156869e-05,1.4627805537569672e-06,4.886070873771914e-07,2.4598926254838123e-06,4.282227834660699e-06,1.0692554202069703e-06,1.733074369966355e-06
147,1.4533118988694697e-06,2.401115271981387e-06,1.5715422821808074e-06,9.731889109011955e-07,2.5443677269699465e-06,2.638724150672797e-06,2.651259127612144e-06,1.8470712323396101e-06,4.7299908810847735e-06,2.148548269055825e-05,1.4469607427692107e-06,4.5754309925126817e-07,2.443835885201802e-06,4.308005667460549e-06,1.0755799319808693e-06,1.7593552334897978e-06
148,1.4967755632375093e-06,2.37694667836612e-06,1.5651213126361216e-06,9.528721113782097e-07,2.4852982924650684e-06,2.6485679033751264e-06,2.6320453101436354e-06,1.867118041796767e-06,4.847927556892711e-06,2.1293578284695108e-05,1.4270447677813802e-06,4.2445690252866324e-07,2.424561494299669e-06,4.349454565202227e-06,1.0831146083267024e-06,1.7819206402945542e-06
149,1.5386088188153905e-06,2.3463762944676082e-06,1.5616241907894278e-06,9.342398820587711e-07,2.4248291186840833e-06,2.6528109504208474e-06,2.6060209711014357e-06,1.8871359739103229e-06,4.9490530464973954e-06,2.1039195663748387e-05,1.4031687548284852e-06,3.8939216826828286e-07,2.402196677171792e-06,4.406246739322852e-06,1.0919228851182602e-06,1.8001150267895567e-06
150,1.5786679560322269e-06,2.3095072437033984e-06,1.5620381908117234e-06,9.171817106271514e-07,2.3632169857930348e-06,2.6508424969244925e-06,2.5730917290305312e-06,1.9063039993756912e-06,5.032122424582495e-06,2.072262930979632e-05,1.3753461743363604e-06,3.524067737007224e-07,2.3769036393744028e-06,4.477455784768616e-06,1.1021855741808746e-06,1.8131429438209347e-06
151,1.6168505351158698e-06,2.26665296742064e-06,1.567072842196828e-06,9.01600636899964e-07,2.300575923756366e-06,2.6425803743451452e-06,2.5330686218424636e-06,1.923990805688977e-06,5.097726971437727e-06,2.0346173977544774e-05,1.3435442810832326e-06,3.1355685012758753e-07,2.3487821461794326e-06,4.561527681424724e-06,1.1141746455944764e-06,1.8201633433380418e-06
152,1.6529623674595036e-06,2.218289069953488e-06,1.5771254097608326e-06,8.87400837315332e-07,2.236898819955795e-06,2.628232737365843e-06,2.485801855641748e-06,1.939960655447639e-06,5.14792909728674e-06,1.9917374616240717e-05,1.3078421965596272e-06,2.7287464040224057e-07,2.318021422804461e-06,4.656340072875456e-06,1.1281900601395641e-06,1.8203526747311955e-06
153,1.6866550016675992e-06,2.165025166046765e-06,1.5922450196171278e-06,8.744927841282166e-07,2.1721887242881266e-06,2.608035029371521e-06,2.431433429922282e-06,1.954341387656369e-06,5.18538652977595e-06,1.9450666299064356e-05,1.2685775485962725e-06,2.3035250345585497e-07,2.2850825045123376e-06,4.759314765865502e-06,1.1444691450993906e-06,1.813031674151872e-06
154,1.7174438809961076e-06,2.1075833956896415e-06,1.6121434934127243e-06,8.628325789666111e-07,2.106612043616767e-06,2.5822682767744955e-06,2.3706396302476235e-06,1.96740976676289e-06,5.212594178833625e-06,1.8966013655196454e-05,1.2264099928252338e-06,1.8594221623040765e-07,2.2506198283421653e-06,4.867848983443743e-06,1.1631082091554582e-06,1.7978913403117063e-06
155,1.7447985848527108e-06,2.0467978144568277e-06,1.636241201702344e-06,8.52414528123389e-07,2.040651561213653e-06,2.5514805918807407e-06,2.304731443479626e-06,1.9793560922278616e-06,5.2317217301216205e-06,1.848523652816452e-05,1.182251890250925e-06,1.395785023873818e-07,2.215252235180525e-06,4.980141189316997e-06,1.1840220306907002e-06,1.7752018999085053e-06
156,1.7682022506453982e-06,1.983602148656835e-06,1.6637001035775724e-06,8.432394661033673e-07,1.9751756627873436e-06,2.5165778665819342e-06,2.235572961421658e-06,1.990155431315925e-06,5.244932973488051e-06,1.8028583832816986e-05,1.137091303832119e-06,9.122274427704453e-08,2.1794135029241416e-06,5.09583101045613e-06,1.2069273733297505e-06,1.7458083319349034e-06
157,1.7872577931136965e-06,1.9189411073209756e-06,1.6934589238261927e-06,8.35344758246061e-07,1.911316452609282e-06,2.4786800472933087e-06,2.1653955359494783e-06,1.9995614150039546e-06,5.254695163956353e-06,1.7613263946281294e-05,1.0918147441284057e-06,4.0919967615470635e-08,2.1433175921271775e-06,5.215896962845981e-06,1.2313597420956383e-06,1.7108539856468977e-06
158,1.8019321952376426e-06,1.8536170965423015e-06,1.7243220948757453e-06,8.288370246952698e-07,1.8502049015122101e-06,2.4389332872775954e-06,2.096547053293007e-06,2.0071275935860602e-06,5.263843019797212e-06,1.7253398733740408e-05,1.0471263146419585e-06,-1.1081462947846996e-08,2.1070675251099385e-06,5.3419473447330565e-06,1.256697978610888e-06,1.6714924366031998e-06
159,1.8126613237955e-06,1.7881745112721871e-06,1.755128488738589e-06,8.238338079221787e-07,1.7927369297932847e-06,2.3984737481386496e-06,2.0312124504225883e-06,2.0121798716013035e-06,5.275463186735068e-06,1.696007516308798e-05,1.0035503600521734e-06,-6.413331518771893e-08,2.070913175014282e-06,5.475409287162725e-06,1.2821549711891044e-06,1.6288147603427743e-06
160,1.8201737809438498e-06,1.7229339606433887e-06,1.78500437303794e-06,8.203692108283326e-07,1.7395219384714655e-06,2.3585197207998442e-06,1.971235676046865e-06,2.0138380821246307e-06,5.292605059322792e-06,1.6741109481309385e-05,9.61441028825962e-07,-1.1706791814908994e-07,2.0353872106604197e-06,5.616968913704091e-06,1.3068035718537631e-06,1.5838646697245965e-06
161,1.825316592154487e-06,1.6581846335959738e-06,1.813606704091662e-06,8.183560316488616e-07,1.6910274815628335e-06,2.3203973544959706e-06,1.9181075294938787e-06,2.0112113861723622e-06,5.3178259223905795e-06,1.6601099765150343e-05,9.210067964452061e-07,-1.6826018171674358e-07,2.001149665388041e-06,5.766357272329452e-06,1.3297028394842993e-06,1.5376056145783439e-06
162,1.828989027205503e-06,1.5943973068461045e-06,1.8411736788858854e-06,8.176234862364273e-07,1.647744971276414e-06,2.2853927116814042e-06,1.873009574666433e-06,2.0036456487194712e-06,5.352794648669387e-06,1.6542104040765564e-05,8.823939950866455e-07,-2.1574060175679938e-07,1.9688043492680306e-06,5.9223693221328365e-06,1.3500639070833932e-06,1.490900100493767e-06
163,1.8320337702721495e-06,1.5323029819951852e-06,1.8683191877729737e-06,8.179898680209271e-07,1.6101890070678811e-06,2.254526207501454e-06,1.8368135548501004e-06,1.9907944259488307e-06,5.398142878776724e-06,1.6564441264949174e-05,8.457548076748064e-07,-2.572476824296517e-07,1.9388922228826754e-06,6.083000264452382e-06,1.367407492343739e-06,1.444513337624057e-06
164,1.8350969124625834e-06,1.472796993690054e-06,1.8957065630047003e-06,8.193049257712667e-07,1.5787855479592468e-06,2.228399254148536e-06,1.810062844338288e-06,1.9724887092576227e-06,5.453483652169957e-06,1.6666978672958452e-05,8.112291923858176e-07,-2.9022137700509933e-07,1.9118951186011966e-06,6.2457882285259995e-06,1.3816848001159776e-06,1.3990826162011262e-06
165,1.83855875828999e-06,1.416763206482369e-06,1.9237843430273043e-06,8.21456411923835e-07,1.5538066546572758e-06,2.207187380184636e-06,1.7929941062665336e-06,1.9485624168811962e-06,5.517424241154712e-06,1.684680557113044e-05,7.789112446820642e-07,-3.1167456358991797e-07,1.8881088552928074e-06,6.408363761166674e-06,1.3932442206681662e-06,1.3550916631619215e-06
166,1.8425578053196866e-06,1.3649589916579e-06,1.9526532921094006e-06,8.243614096728143e-07,1.5353587706299933e-06,2.1907782169924186e-06,1.7856002273507495e-06,1.918775928073203e-06,5.587491056205837e-06,1.7098612199712434e-05,7.488545007503767e-07,-3.17957895980034e-07,1.8675028307673536e-06,6.568848060949182e-06,1.4026000989410503e-06,1.3128977814678142e-06
167,1.8470612797963225e-06,1.317980437661944e-06,1.982025799726718e-06,8.27938320982582e-07,1.5233808957008873e-06,2.1789849214182217e-06,1.787663510547705e-06,1.882881941409363e-06,5.660058654218871e-06,1.7414380631938376e-05,7.211067346595951e-07,-3.0463644099108907e-07,1.849672621535701e-06,6.72571629469134e-06,1.410163683722596e-06,1.272765872941521e-06
168,1.8518670084306656e-06,1.276227503139532e-06,2.0112927048275736e-06,8.320776346507863e-07,1.5176454315568863e-06,2.1717009014772545e-06,1.7987059519373334e-06,1.840790572474722e-06,5.730481124565105e-06,1.7784016792274044e-05,6.957816286541341e-07,-2.6660475791153923e-07,1.8338473748569943e-06,6.87717593734442e-06,1.4161075286274713e-06,1.234907911839549e-06
169,1.8565134555473702e-06,1.2398692192691e-06,2.0397767706783296e-06,8.366292007095111e-07,1.5177493071559787e-06,2.1688800394949906e-06,1.8179185455999916e-06,1.7926940723061506e-06,5.7935186240144134e-06,1.8196749557574575e-05,6.73121160345508e-07,-1.9830675968679795e-07,1.81896370759729e-06,7.0205952887693024e-06,1.42039804839994e-06,1.1995376403366105e-06
170,1.860214447981087e-06,1.2088735477068522e-06,2.067075152755617e-06,8.414063861248293e-07,1.5231130022903888e-06,2.170413854885417e-06,1.8441903273255669e-06,1.739025899553377e-06,5.843948630559384e-06,1.8642323640040716e-05,6.534806766586371e-07,-9.385500114272831e-08,1.8039308435926342e-06,7.1524519643822934e-06,1.4229330727607818e-06,1.166887742202574e-06
171,1.8619104524035207e-06,1.1831061508190195e-06,2.0932039241706894e-06,8.461819696499479e-07,1.5329954044156505e-06,2.1761111546729954e-06,1.8762942899055497e-06,1.6803937046532825e-06,5.877103378876003e-06,1.9111365016800843e-05,6.372669388000177e-07,5.3027300288742896e-08,1.7880286317998946e-06,7.268675537578851e-06,1.423680258151523e-06,1.1372188229996024e-06
172,1.8604645436395794e-06,1.1624183345256548e-06,2.1184334413660233e-06,8.506414741577028e-07,1.5464964152277908e-06,2.1857947149269535e-06,1.9131195165582917e-06,1.6176878403532872e-06,5.889117685256332e-06,1.9594903520445485e-05,6.248955544655414e-07,2.491280209671994e-07,1.771081218067135e-06,7.364861256690995e-06,1.422759119709055e-06,1.1108478245616702e-06
173,1.8548916251707854e-06,1.1466393165546743e-06,2.143039508726733e-06,8.543322822262627e-07,1.5625660738878533e-06,2.199319561517279e-06,1.953724513152082e-06,1.552190052710425e-06,5.8768143908451145e-06,2.008328858439543e-05,6.167669802345879e-07,5.017382870679621e-07,1.7532704488538077e-06,7.436121645879633e-06,1.4204608663876467e-06,1.0881155508934255e-06
174,1.844421231573045e-06,1.1354955560810502e-06,2.1672123902116706e-06,8.566992107677304e-07,1.5800739440060616e-06,2.2164413095008805e-06,1.9971598788146632e-06,1.4854348974717182e-06,5.8373364257488715e-06,2.056548464076836e-05,6.132295847116654e-07,8.184610805504762e-07,1.7349604354805917e-06,7.477157053153413e-06,1.4171657212811322e-06,1.0692966052498742e-06
175,1.828488891144093e-06,1.1285536291825103e-06,2.1910795737844596e-06,8.572430655682209e-07,1.5979520037413243e-06,2.2366920509467714e-06,2.0422615523875953e-06,1.4189765795809527e-06,5.768098789042025e-06,2.1029616458577762e-05,6.14534667487866e-07,1.2069731327684393e-06,1.7167567143935435e-06,7.483223160486641e-06,1.4131739390136534e-06,1.0545465495112905e-06
176,1.806912032652681e-06,1.1252401509564459e-06,2.2146517262340565e-06,8.557251795613222e-07,1.61538326436947e-06,2.2594201283204157e-06,2.087589806918675e-06,1.354296232497405e-06,5.667581733037489e-06,2.146355445581977e-05,6.208053540794472e-07,1.6748735285987402e-06,1.6995243225324995e-06,7.451560457915715e-06,1.408607495006326e-06,1.0439159088808317e-06
177,1.7801107290669658e-06,1.1249504229627059e-06,2.2376654312533296e-06,8.522636757690005e-07,1.6319841594470289e-06,2.283948143278725e-06,2.13155537155877e-06,1.2927870438208857e-06,5.53635536892724e-06,2.185424247151052e-05,6.320261381117275e-07,2.2295900356744413e-06,1.684234436076717e-06,7.382221895289248e-06,1.4034840731582375e-06,1.0373918677234066e-06
178,1.7490598368863996e-06,1.1271868153229323e-06,2.2594799225621884e-06,8.47238905229337e-07,1.6478803302290518e-06,2.309673844514519e-06,2.1726910136069735e-06,1.2356877509999215e-06,5.3772428840309845e-06,2.218748402885418e-05,6.480455030558477e-07,2.87826024522785e-06,1.6718452410284494e-06,7.277810868915329e-06,1.3978355348102517e-06,1.0349171781921931e-06
179,1.7150188978290379e-06,1.131581820402423e-06,2.2791316063995298e-06,8.411079933146916e-07,1.663581841673952e-06,2.3360239943821005e-06,2.2099097276482703e-06,1.1839981532094037e-06,5.194500062320876e-06,2.244999116818383e-05,6.685761752756064e-07,3.627607981603999e-06,1.6632617437649369e-06,7.1423659342609114e-06,1.391686636099455e-06,1.0364088304054073e-06
180,1.679298599769855e-06,1.1377720521653364e-06,2.2954858324031137e-06,8.34281551186928e-07,1.6797404110852729e-06,2.362392052503739e-06,2.2426008971996297e-06,1.1384443822080563e-06,4.992783606022578e-06,2.2631559261148413e-05,6.931916245027547e-07,4.48386095796133e-06,1.65927091168513e-06,6.980130239944408e-06,1.3849208751292882e-06,1.0418155669478776e-06
181,1.6431692761385622e-06,1.1452750529656826e-06,2.307400178224392e-06,8.271014716259768e-07,1.69698970207719e-06,2.388273453774361e-06,2.2705591166234474e-06,1.0994854084985117e-06,4.776552735563495e-06,2.2725070050013502e-05,7.213419491956026e-07,5.452715232938077e-06,1.6604540789575715e-06,6.7951135236847164e-06,1.3771977409615016e-06,1.0511290492017849e-06
182,1.607823260733506e-06,1.1535030103527561e-06,2.3138964754111595e-06,8.198707319322091e-07,1.7158827897500982e-06,2.4135359354478457e-06,2.2938137693991993e-06,1.067326473951664e-06,4.549886088905637e-06,2.2727688857139815e-05,7.523944379339079e-07,6.53939743538921e-06,1.6671298668153135e-06,6.591629683374896e-06,1.3679993115291415e-06,1.064292547475352e-06
183,1.574302946709465e-06,1.1618805819554411e-06,2.3143351035734523e-06,8.128991069654566e-07,1.7367973143937084e-06,2.4384997550621456e-06,2.312457652707065e-06,1.0419434206743503e-06,4.3164615562794455e-06,2.2646606172565488e-05,7.856686585892493e-07,7.748845392033012e-06,1.679396159786716e-06,6.374981634087203e-06,1.3567826392213861e-06,1.0811201606289952e-06
184,1.5434557008983559e-06,1.1699285013807624e-06,2.3084937965967516e-06,8.065709819515671e-07,1.759817029103961e-06,2.4637033270421464e-06,2.3265576371023735e-06,1.0231462035956435e-06,4.079761044430664e-06,2.2503864151803217e-05,8.204804773277488e-07,9.085840114622058e-06,1.6973234633600497e-06,6.1514402245431585e-06,1.3431569805476126e-06,1.1013219529239907e-06
185,1.5159718497902004e-06,1.1772895855860443e-06,2.296436342508678e-06,8.013908332156778e-07,1.7846694365722429e-06,2.4896142599211987e-06,2.336105977362048e-06,1.0106661761967167e-06,3.8434449569555204e-06,2.2333429649124527e-05,8.562589266431299e-07,1.0554882141991072e-05,1.7212072136712378e-06,5.927538915726114e-06,1.326997371022888e-06,1.1245796146692212e-06
186,1.492439111690119e-06,1.183827254914698e-06,2.2782354692566763e-06,7.97928619723427e-07,1.810722827990222e-06,2.516580243812536e-06,2.3409512169798373e-06,1.0042033973604335e-06,3.611417877740922e-06,2.2173293819862106e-05,8.927052837075198e-07,1.2159819302463677e-05,1.7516689205453662e-06,5.709394050555774e-06,1.3084680016973615e-06,1.1505795030811965e-06
187,1.4733986517715575e-06,1.1897909993505127e-06,2.2538447271231358e-06,7.967147918027974e-07,1.8370095395921471e-06,2.544971249775613e-06,2.3408314442986374e-06,1.0033971246122576e-06,3.387447487680033e-06,2.2059518542391578e-05,9.298685237345397e-07,1.3903370147237382e-05,1.789510176969729e-06,5.5024173610924535e-06,1.2879429363063967e-06,1.1790006240472712e-06
188,1.459404820919933e-06,1.1958673481454718e-06,2.2232997474015465e-06,7.981862958124879e-07,1.8622645755126632e-06,2.5752239333975403e-06,2.3356060605169015e-06,1.0077738281694805e-06,3.1747568256229174e-06,2.2024032546284482e-05,9.680733159608943e-07,1.5786650982007694e-05,1.8354758660487355e-06,5.311127879740094e-06,1.2658373809448156e-06,1.2094930541343418e-06
189,1.451004747006099e-06,1.2030560400101955e-06,2.1870465210128504e-06,8.026763647440963e-07,1.8850783724337525e-06,2.607669456743287e-06,2.3255138550499554e-06,1.016795107372854e-06,2.975861057238453e-06,2.209438925464143e-05,1.0077545933185596e-06,1.7808841175323325e-05,1.8901119703631301e-06,5.13893350097302e-06,1.2424490341414066e-06,1.2416344544730905e-06
190,1.4486515818742892e-06,1.2124701499488004e-06,2.1460701827670126e-06,8.104176862944102e-07,1.904238373966483e-06,2.6423317926866826e-06,2.311275940419987e-06,1.0300284531388853e-06,2.79256684867262e-06,2.2294245584981804e-05,1.049330129443219e-06,1.9967148347342894e-05,1.953693579453332e-06,4.988056694860518e-06,1.2179041498491526e-06,1.2748897472829387e-06
191,1.452647799565745e-06,1.2251468834751985e-06,2.101708116085744e-06,8.215738907823835e-07,1.9190247737331436e-06,2.678890227015727e-06,2.2940252188423817e-06,1.047257936383425e-06,2.6260166557280205e-06,2.2643858075470707e-05,1.093182132492328e-06,2.225702568525536e-05,2.026145078743302e-06,4.8596301116141214e-06,1.1922534980757619e-06,1.3086424740571558e-06
192,1.4631080250900945e-06,1.2419168175581558e-06,2.055305956130244e-06,8.362747346402449e-07,1.9291595365505492e-06,2.7167280757284e-06,2.275084159640107e-06,1.0683853933083925e-06,2.476747449646942e-06,2.316018912721441e-05,1.139655850792436e-06,2.4672321119943665e-05,2.1069836948742056e-06,4.753932436595728e-06,1.1656814020632899e-06,1.3422583031024076e-06
193,1.4798942846746025e-06,1.2633638588645068e-06,2.0079506922087288e-06,8.546004600556573e-07,1.9345176562045482e-06,2.7549138727155404e-06,2.255690419578317e-06,1.093253387482165e-06,2.3447791567232757e-06,2.3856865537598465e-05,1.1889905290564546e-06,2.7205100238478638e-05,2.1953311094830545e-06,4.670771674846901e-06,1.1386528941407335e-06,1.3751092165188212e-06
194,1.5025515221567593e-06,1.2898818387233417e-06,1.9603532644768073e-06,8.765240049353874e-07,1.934949167218838e-06,2.7922253691474584e-06,2.236846819918934e-06,1.1216109628842682e-06,2.2297619174253495e-06,2.4744255857071182e-05,1.2412385339291327e-06,2.98452271835098e-05,2.2899638702348684e-06,4.609884784351872e-06,1.1118716196098184e-06,1.4066103560285633e-06
195,1.5302958195894396e-06,1.3217771534304173e-06,1.9128647224519235e-06,9.018813595962524e-07,1.930316462076303e-06,2.8274079367835726e-06,2.219333237001016e-06,1.1532100028186574e-06,2.131178952256369e-06,2.5829587071033157e-05,1.2962349713739916e-06,3.257993644114541e-05,2.389352025354519e-06,4.571108607995899e-06,1.0861107378843881e-06,1.4362948418486698e-06
196,1.5620925494830201e-06,1.3592988603069302e-06,1.8656264689693272e-06,9.304084930810587e-07,1.9206047403151506e-06,2.8595528657970264e-06,2.2037658116213856e-06,1.1878476496271312e-06,2.0485314064009153e-06,2.711701893208841e-05,1.35362381541891e-06,3.539343264433035e-05,2.491701471073778e-06,4.554215947305597e-06,1.0620512186166722e-06,1.4638480225027683e-06
197,1.5968287424777475e-06,1.4025555292087113e-06,1.8187872174578422e-06,9.617864157268724e-07,1.905952079628573e-06,2.888310313721241e-06,2.1906236909278174e-06,1.2253209903791206e-06,1.9813825078271475e-06,2.8607722460194688e-05,1.4129504121996067e-06,3.826639163447339e-05,2.595069908028639e-06,4.558617956360848e-06,1.040228128450638e-06,1.4891002561371066e-06
198,1.6335216504111384e-06,1.4514215011529487e-06,1.7726614237049524e-06,9.95626489196994e-07,1.8865736715341089e-06,2.9138345406212583e-06,2.180222104891051e-06,1.265414435032904e-06,1.9292468510594434e-06,3.0300017710084692e-05,1.4737762445522701e-06,4.117536263177607e-05,2.6975842641484738e-06,4.583268923389651e-06,1.0210851019019316e-06,1.5120375757824131e-06
199,1.6714955180025846e-06,1.5055046214093098e-06,1.727749220994569e-06,1.031437269879403e-06,1.862745526133185e-06,2.936550957789898e-06,2.172640036942075e-06,1.3079182917959587e-06,1.8915109223661408e-06,3.2189542394220195e-05,1.5357116407384673e-06,4.409221564580977e-05,2.7975800219446323e-06,4.62692228890335e-06,1.0050288913566055e-06,1.5328226436447583e-06
200,1.7104862388571038e-06,1.5641828452721533e-06,1.6846294736839853e-06,1.0686340180443258e-06,1.8348961515690544e-06,2.9568599404268474e-06,2.167709892238237e-06,1.3525758981438842e-06,1.867506182571661e-06,3.426925689189243e-05,1.598374437237315e-06,4.698367025070023e-05,2.8934512738271294e-06,4.688623062202824e-06,9.92405164255677e-07,1.551787976730927e-06
201,1.75062575942536e-06,1.6267079328823343e-06,1.6438141888704748e-06,1.1065543545478195e-06,1.8035658709636305e-06,2.9748989172262796e-06,2.1651988044481884e-06,1.3989654695631427e-06,1.856603110867633e-06,3.65290137491853e-05,1.661403591187968e-06,4.981068325661863e-05,2.9834343234608666e-06,4.768177886131746e-06,9.83439995427422e-07,1.5693653841635116e-06
202,1.79227332649588e-06,1.692306487842282e-06,1.6056776435241034e-06,1.1444591089194986e-06,1.7691922581439823e-06,2.9904840510318364e-06,2.1650802447146618e-06,1.4464256687276879e-06,1.8581728407981865e-06,3.895463797462391e-05,1.72455971153208e-06,5.252736461851248e-05,3.0656779805612354e-06,4.8663230632272325e-06,9.78212247128339e-07,1.5859448898835695e-06
203,1.835766247142102e-06,1.7601916513108575e-06,1.5704989055615009e-06,1.1815953316874362e-06,1.7320254758012814e-06,3.0032082532550633e-06,2.1675947353318115e-06,1.4941061751674477e-06,1.8714601911128607e-06,4.1526825825914226e-05,1.7877695855851542e-06,5.50803882902968e-05,3.1385174300515212e-06,4.984460213956061e-06,9.766609084621731e-07,1.601737343331811e-06
204,1.88126165005286e-06,1.8294904079891128e-06,1.5385073690630719e-06,1.2173185444379386e-06,1.6923074480145887e-06,3.0125678876800415e-06,2.1730009283946345e-06,1.5411050999949335e-06,1.8955752694753266e-06,4.422024789820137e-05,1.8509990827103642e-06,5.741228887078188e-05,3.2006856220299547e-06,5.124103264066359e-06,9.786143990584888e-07,1.6167077564901044e-06
205,1.9287180536443795e-06,1.8991470767656357e-06,1.5098361852505526e-06,1.2511306936117804e-06,1.6504847882906551e-06,3.018092928933001e-06,2.18128684223438e-06,1.5865528309907422e-06,1.929736780574693e-06,4.700290788562911e-05,1.9140475362986747e-06,5.947067976589211e-05,3.2513954008652655e-06,5.286444970207446e-06,9.838162418020713e-07,1.6305564314963612e-06
206,1.97788970337356e-06,1.9678752181409746e-06,1.4844547679700758e-06,1.282617893235597e-06,1.607206927424763e-06,3.019515466817258e-06,2.192140480702171e-06,1.6296004261734024e-06,1.9735958259197897e-06,4.983548195164287e-05,1.9764384953371833e-06,6.121948903751965e-05,3.2903790886950683e-06,5.472559365750043e-06,9.919356359335063e-07,1.6427371603773342e-06
207,2.0282960047603514e-06,2.0342475452550792e-06,1.4621507926774461e-06,1.311444726697155e-06,1.5631655287400104e-06,3.0169316528838563e-06,2.2051196332451904e-06,1.669456204592866e-06,2.027310856594978e-06,5.267039148084826e-05,2.037468192114512e-06,6.264549318939336e-05,3.31790857402503e-06,5.6843231816703386e-06,1.0025815192113075e-06,1.6525337294382158e-06
208,2.079198002999488e-06,2.0968912647367085e-06,1.4425703249469726e-06,1.337409765195462e-06,1.5190447983705253e-06,3.010884501676161e-06,2.219742123468316e-06,1.705503163823538e-06,2.09127754375242e-06,5.545052713786466e-05,2.0963259528538357e-06,6.37570508280696e-05,3.334673431977279e-06,5.925411545404444e-06,1.0153014257671686e-06,1.6591599763129317e-06
209,2.1295466039802105e-06,2.1545868051485187e-06,1.4253564878187035e-06,1.3603978520248894e-06,1.47565683935774e-06,3.0023528292645506e-06,2.2355064043368116e-06,1.7373198305305198e-06,2.1657679078310277e-06,5.8108284804466516e-05,2.1521321406873213e-06,6.457690421972321e-05,3.341466963266725e-06,6.2017315740627785e-06,1.0295491116917807e-06,1.6618430717060617e-06
210,2.1779757875827977e-06,2.2062201318123673e-06,1.4103259925933363e-06,1.3802157122891493e-06,1.4340229305860243e-06,2.9926633287579515e-06,2.2520404725672267e-06,1.7645829449651021e-06,2.2507738769020594e-06,6.0567478530200326e-05,2.203870000532971e-06,6.51329294736163e-05,3.338860713179691e-06,6.521242026956874e-06,1.0446795621131997e-06,1.6598919184663754e-06
211,2.2229791310847723e-06,2.250799477571166e-06,1.3974948064734988e-06,1.3964899445541546e-06,1.3952587706059735e-06,2.9833369734521213e-06,2.2692389770089574e-06,1.787049027210228e-06,2.3461134456914832e-06,6.275094692007515e-05,2.250372276105764e-06,6.544978169920905e-05,3.3271556804160607e-06,6.893251816896619e-06,1.0600077799133132e-06,1.6527563822129469e-06
212,2.263197188604019e-06,2.287622427902184e-06,1.3869161255475756e-06,1.4087568391776774e-06,1.3604259266636683e-06,2.9759071482780575e-06,2.2871824082268384e-06,1.8046848181455063e-06,2.4516454793844067e-06,6.45925170407164e-05,2.2904527692809405e-06,6.554276577998821e-05,3.306759329927554e-06,7.327362246036526e-06,1.074869186790667e-06,1.6400959981895792e-06
213,2.297587197658549e-06,2.3163580996963065e-06,1.3785004728833931e-06,1.4166762988383734e-06,1.330473877684946e-06,2.971781948061132e-06,2.30603664994853e-06,1.8177925467974437e-06,2.5673430428053513e-06,6.604726049070346e-05,2.3230207724004166e-06,6.541479455640742e-05,3.278771984170471e-06,7.832715410383707e-06,1.0886717640680967e-06,1.6218835200313326e-06
214,2.325349675019996e-06,2.3368534948914616e-06,1.3719264966816188e-06,1.4201847160151452e-06,1.3062084349718513e-06,2.9721632015872568e-06,2.326076624115937e-06,1.82695585948972e-06,2.6931040082784373e-06,6.709396042788073e-05,2.34702704038233e-06,6.50571830184954e-05,3.2453340523056314e-06,8.417970091666933e-06,1.1009866340192176e-06,1.5984918579527221e-06
215,2.3457450424178926e-06,2.3488607017502464e-06,1.3666180640574863e-06,1.4194881671467106e-06,1.2882554580574903e-06,2.9779470591162883e-06,2.347619779612832e-06,1.8327946646537146e-06,2.8285022863014816e-06,6.772803847238135e-05,2.361454004484999e-06,6.445384991124022e-05,3.209458085613745e-06,9.091476934516257e-06,1.111576453664413e-06,1.5706353507122613e-06
216,2.358079981627673e-06,2.351953878644657e-06,1.3617896475469538e-06,1.4149581507487782e-06,1.2770373484061747e-06,2.989610615304327e-06,2.3708146250052358e-06,1.8357079381691297e-06,2.9727992831001703e-06,6.7949102809218e-05,2.3655701743723344e-06,6.358727019200305e-05,3.174477196329402e-06,9.861178691553434e-06,1.1202732089769535e-06,1.5391676128123773e-06
217,2.3618968292681347e-06,2.345591954802934e-06,1.3565732402204143e-06,1.4070147151499072e-06,1.2727403536945967e-06,3.0072320257224774e-06,2.3954938493637704e-06,1.835816815632243e-06,3.1252554345292023e-06,6.775208038677787e-05,2.3592115570450004e-06,6.244451893994755e-05,3.1435718268024912e-06,1.0734376591661526e-05,1.1268541415503314e-06,1.5049643761808764e-06
218,2.357101476123165e-06,2.3292204634610797e-06,1.350132413079628e-06,1.3960213612782392e-06,1.275295247232537e-06,3.030702808193093e-06,2.421204298746292e-06,1.8331297229686863e-06,3.2854238573466376e-06,6.712951123785474e-05,2.3428101876345535e-06,6.102233296253439e-05,3.1196285299399514e-06,1.171739706796617e-05,1.1310521067229921e-06,1.4689916003508818e-06
219,2.343931508210528e-06,2.3024686239824326e-06,1.3417046543875876e-06,1.3822522253433153e-06,1.2844646973366635e-06,3.059927128244843e-06,2.447380495268537e-06,1.827711965545595e-06,3.453158357237807e-06,6.6083707372664e-05,2.3172319464774183e-06,5.9330440637475986e-05,3.1052138803398795e-06,1.2815132498225472e-05,1.132639330835598e-06,1.4323353347902316e-06
220,2.3229409434119598e-06,2.265430060935387e-06,1.3307048353043733e-06,1.366001620201091e-06,1.3000426570007717e-06,3.094761359509211e-06,2.473479152071942e-06,1.8196882622370893e-06,3.628475810744679e-06,6.463901132029014e-05,2.2835644048129535e-06,5.739251185986278e-05,3.1025484058753485e-06,1.4030880464033612e-05,1.1315202156143007e-06,1.3960558775485913e-06
221,2.295057729043907e-06,2.2188296404520604e-06,1.3169268650386958e-06,1.3477603882794947e-06,1.321983424809441e-06,3.134749145455818e-06,2.4988865206194823e-06,1.8092216413989902e-06,3.8114622197557106e-06,6.284462243596296e-05,2.2428876397552594e-06,5.524444897962722e-05,3.1136162846794465e-06,1.536672779736046e-05,1.1278017268932625e-06,1.361018668058634e-06
222,2.261545705225198e-06,2.163890393865198e-06,1.300621934913525e-06,1.3283155708390234e-06,1.3503267700987993e-06,3.17890583423101e-06,2.522764416291568e-06,1.7966126252129556e-06,4.00213501876467e-06,6.076670616053231e-05,2.1960668613489505e-06,5.293050273827607e-05,3.1403322799509738e-06,1.6823999147329347e-05,1.1217553137867414e-06,1.3278302879225924e-06
223,2.2238033494076668e-06,2.101980041607319e-06,1.2823631938936649e-06,1.308735201636354e-06,1.385035633628548e-06,3.225699487361782e-06,2.5441099840161175e-06,1.78235020158656e-06,4.200312763934948e-06,5.847597515254918e-05,2.143707497183651e-06,5.049828568703903e-05,3.1845404141875153e-06,1.8403257261343393e-05,1.1136906504286999e-06,1.2968497322760082e-06
224,2.1831578130719447e-06,2.0343930319546995e-06,1.2628602452651936e-06,1.2902850952818818e-06,1.4259035493581764e-06,3.2732624783959376e-06,2.561955468691394e-06,1.7669725909443088e-06,4.4057093134755576e-06,5.6037679988120504e-05,2.0863310966877763e-06,4.799373153432257e-05,3.2478390058628843e-06,2.010369655212582e-05,1.1038977334662608e-06,1.2682418841530458e-06
225,2.1407581524801272e-06,1.9624561936667294e-06,1.2428250259123547e-06,1.274310956337969e-06,1.472585164932607e-06,3.3197716203993328e-06,2.575498520228811e-06,1.7508563829553835e-06,4.618099258713495e-06,5.3507493666597585e-05,2.0245457447774833e-06,4.545684253105363e-05,3.331432836635745e-06,2.1922253175395292e-05,1.0926967991749706e-06,1.2420747566699527e-06
226,2.097510963118246e-06,1.8876929387250006e-06,1.2228834728752126e-06,1.2620987724563146e-06,1.5247243630084148e-06,3.3637917429321278e-06,2.5841246954920637e-06,1.7340901657702094e-06,4.837203958941035e-06,5.093251615331618e-05,1.9589871162106165e-06,4.291920897687673e-05,3.436159450753295e-06,2.3853655141302065e-05,1.0804589163020694e-06,1.2184249237375302e-06
227,2.054091796969018e-06,1.8117613772563201e-06,1.2035578303112009e-06,1.254763594403037e-06,1.5820289306571256e-06,3.4043893014110545e-06,2.5874015316310215e-06,1.7164976558953294e-06,5.062292514503139e-06,4.8353880091398084e-05,1.8901578217851927e-06,4.040398180245285e-05,3.5626301083701038e-06,2.5892187016874747e-05,1.06751682247006e-06,1.1974209581508563e-06
228,2.011109496989383e-06,1.736233981535292e-06,1.185316551893377e-06,1.253213337986588e-06,1.6441766811909683e-06,3.4410641794909993e-06,2.5851248597040492e-06,1.6978407996651794e-06,5.29177352302846e-06,4.580818177692091e-05,1.8184342216059515e-06,3.792760543431178e-05,3.7112991762670745e-06,2.803390307990571e-05,1.0540806082216918e-06,1.1791858215564246e-06
229,1.9692739613067295e-06,1.6624181028253296e-06,1.1686212780035548e-06,1.2581627213288585e-06,1.7106669703507087e-06,3.4737449755317182e-06,2.577400742102547e-06,1.6781422204506737e-06,5.522967707550965e-06,4.332701665659238e-05,1.7442539105700539e-06,3.550180293904466e-05,3.882345113005486e-06,3.0277509318664712e-05,1.0402817125370288e-06,1.1637273695085408e-06
230,1.9293683891026207e-06,1.591290070243296e-06,1.1539319678157176e-06,1.2701611583077955e-06,1.7807888032175275e-06,3.50292792070581e-06,2.564623430402699e-06,1.6578835102313664e-06,5.752023074063704e-06,4.093543437188835e-05,1.6682349961644754e-06,3.3135057314372975e-05,4.075451183583733e-06,3.2623606564878914e-05,1.0262668679716734e-06,1.1508670730367838e-06
231,1.8920774040837877e-06,1.5235242814895643e-06,1.1416889299793808e-06,1.2896223839174723e-06,1.8536930070909763e-06,3.5297285650751115e-06,2.5472565712810483e-06,1.6378910103243304e-06,5.973850826950246e-06,3.8651576335769493e-05,1.5910778975286914e-06,3.083369680809527e-05,4.289672111761217e-06,3.5072987415130216e-05,1.012188683833836e-06,1.1402473427347804e-06
232,1.8578635482630952e-06,1.4595874208779218e-06,1.132305962085484e-06,1.3168285007977776e-06,1.928488843996515e-06,3.5556498733996076e-06,2.5255615529205333e-06,1.619071054093256e-06,6.1821171565678e-06,3.6488669790257884e-05,1.5134290627921744e-06,2.8602779800364928e-05,4.523385991396286e-06,3.762441567902137e-05,9.981160771339545e-07,1.1314085989965903e-06
233,1.8269563435511806e-06,1.3998440242246733e-06,1.126191363425514e-06,1.3518926949838126e-06,2.004439076001174e-06,3.582159867448542e-06,2.4995240563996576e-06,1.6022671934401607e-06,6.369526833527471e-06,3.445740449479407e-05,1.4359201790771051e-06,2.644680064200904e-05,4.774185035829529e-06,4.0272462770112835e-05,9.8400601730272e-07,1.1238688479796077e-06
234,1.7993903094857715e-06,1.344630446090977e-06,1.1237539764629997e-06,1.3947228623929503e-06,2.0812437484600994e-06,3.6102937825439308e-06,2.4690358170604165e-06,1.5882295822680989e-06,6.5286059444556775e-06,3.2566631555959784e-05,1.359306151348403e-06,2.437009634648299e-05,5.038819896169791e-06,4.3007088145303865e-05,9.697709787228003e-07,1.1171437170687496e-06
235,1.7750755167880668e-06,1.2942921706605885e-06,1.1253481619957206e-06,1.4450247875307108e-06,2.1591109766957522e-06,3.6404108787229754e-06,2.434168132430843e-06,1.5775594836245178e-06,6.652850105329943e-06,3.0822670001322215e-05,1.2845239770286862e-06,2.2376803716652148e-05,5.313600060167802e-06,4.5815435414155104e-05,9.553629949835078e-07,1.1108010754697261e-06
236,1.7538835317143943e-06,1.2491650565113937e-06,1.1312166577606022e-06,1.5023046257047142e-06,2.2384896574068175e-06,3.672137861606939e-06,2.3953546147197754e-06,1.5706637160249768e-06,6.737688915587486e-06,2.922828298846822e-05,1.21263186130953e-06,2.047044803402127e-05,5.595345391001287e-06,4.868299923861716e-05,9.40801334052654e-07,1.104611579002223e-06
237,1.7356732766317208e-06,1.2094937251675774e-06,1.141487068531092e-06,1.5658370590988093e-06,2.3198296564771377e-06,3.7045514334966404e-06,2.3534293197719498e-06,1.5677822720852476e-06,6.780601739177177e-06,2.7781853127968647e-05,1.1446871455207828e-06,1.865354134346431e-05,5.882282520778745e-06,5.1591667284643815e-05,9.26124531590749e-07,1.0986207525548532e-06
238,1.7202701172533516e-06,1.1753501269070263e-06,1.1561686912176113e-06,1.6346710120489143e-06,2.4036430265420437e-06,3.7366704557739287e-06,2.309588074531365e-06,1.5690243653091417e-06,6.7803526165398e-06,2.6476857964713315e-05,1.081635471679903e-06,1.6927562739411072e-05,6.1741601607737515e-06,5.4516162802493076e-05,9.113071233565484e-07,1.093060193499719e-06
239,1.707480982787108e-06,1.146612252031153e-06,1.1751572031278745e-06,1.7077579092506289e-06,2.4905936342157837e-06,3.768072503562056e-06,2.2653125682806504e-06,1.57437080570979e-06,6.736509077625291e-06,2.530163942675261e-05,1.0242441460842664e-06,1.529336954729682e-05,6.471579071202545e-06,5.7422226334341934e-05,8.962238259787758e-07,1.0882451800170398e-06
240,1.697142753071205e-06,1.122998618733726e-06,1.1983214341937445e-06,1.7841642660079278e-06,2.581340667611454e-06,3.7991796873320027e-06,2.222198904727685e-06,1.5836726473340784e-06,6.650223029054288e-06,2.4240013545010543e-05,9.730865031301143e-07,1.3751753664180263e-05,6.775086762678678e-06,6.0267623495587825e-05,8.807036781222214e-07,1.084507158116169e-06
241,1.6891133223215747e-06,1.1041161232832155e-06,1.2256173722585245e-06,1.863229965702635e-06,2.6763328721640266e-06,3.8309643589485676e-06,2.1816886784401277e-06,1.5966489671571017e-06,6.525286822932516e-06,2.3273675581064157e-05,9.28576247700483e-07,1.2303812924700485e-05,7.084489132740381e-06,6.300419384172407e-05,8.646113133597263e-07,1.0821022845781445e-06
242,1.6831634250239876e-06,1.0894677414179308e-06,1.2571174352735157e-06,1.944550324928308e-06,2.7757645275504905e-06,3.864327167669337e-06,2.1448448318172977e-06,1.6128942848412152e-06,6.3678730603837844e-06,2.2386017661632345e-05,8.910034745042633e-07,1.0951032207304963e-05,7.3986165519602e-06,6.557855799138594e-05,8.478690588601028e-07,1.08113813338179e-06
243,1.6788933616307027e-06,1.0784196379256735e-06,1.2929463975510299e-06,2.0277841079750653e-06,2.8795500058142123e-06,3.89964678033776e-06,2.1122878929540956e-06,1.6319588268562651e-06,6.185054141647735e-06,2.1565164081597868e-05,8.605262538976994e-07,9.695144958595011e-06,7.715537487299874e-06,6.793069199970844e-05,8.304294823924634e-07,1.0815862459555465e-06
244,1.6758214111091643e-06,1.070181587240794e-06,1.3331873004072533e-06,2.1124543063851676e-06,2.9872000174746785e-06,3.936785386731176e-06,2.084247599112251e-06,1.65349780244816e-06,5.983437814236867e-06,2.080443675145498e-05,8.371548392379461e-07,8.537808613803799e-06,8.032873661154743e-06,6.999307340592308e-05,8.122951895116969e-07,1.083336158379624e-06
245,1.6736068110598234e-06,1.0638208645918772e-06,1.3778160654544636e-06,2.1978858111237876e-06,3.0977065216598648e-06,3.975435241098749e-06,2.060664228655651e-06,1.677338190090179e-06,5.7687000194182036e-06,2.0100541142655677e-05,8.207730546811864e-07,7.480072724039323e-06,8.34785624182585e-06,7.169563236187029e-05,7.936154233309626e-07,1.0862300604635837e-06
246,1.6722431122096052e-06,1.0583050471050726e-06,1.4266908388027605e-06,2.2832091803323646e-06,3.209532650871484e-06,4.0154909252570965e-06,2.0413522453698814e-06,1.7033745314222626e-06,5.545701356747936e-06,1.9451009714535055e-05,8.111606382992932e-07,6.521791520373018e-06,8.657129265363565e-06,7.297755718599175e-05,7.747265597761816e-07,1.0901371722568036e-06
247,1.6720521061664136e-06,1.0526244283200586e-06,1.4795694328764077e-06,2.3673224461112693e-06,3.3207580259509102e-06,4.057171583717649e-06,2.0261300175323415e-06,1.7314368676513066e-06,5.318592575971911e-06,1.8852102924991428e-05,8.079777041421859e-07,5.661307223233496e-06,8.956654539003428e-06,7.379958668537775e-05,7.560455774501033e-07,1.0950686306312255e-06
248,1.673440817996657e-06,1.046019650318127e-06,1.5360865032032191e-06,2.448875593931029e-06,3.429386147286798e-06,4.100780714019284e-06,2.0147513796228687e-06,1.761251650579763e-06,5.090728761872579e-06,1.8297528484418118e-05,8.107417217982077e-07,4.895525124470939e-06,9.242003036148178e-06,7.414927476198963e-05,7.379354419711299e-07,1.1012048626187366e-06
249,1.6766411737315747e-06,1.038156115259218e-06,1.595670540180259e-06,2.5264115577890323e-06,3.5336862859692995e-06,4.146243659520119e-06,2.006723265768041e-06,1.7924799170085123e-06,4.864554899120904e-06,1.7777990636876627e-05,8.188284729243255e-07,4.220221273953278e-06,9.508771253909529e-06,7.403569153544771e-05,7.206720486419309e-07,1.1088595162579819e-06
250,1.6816905197077538e-06,1.0290761985235823e-06,1.6574669892940267e-06,2.5986633352306406e-06,3.632385316541117e-06,4.192722658912601e-06,2.0012323095761706e-06,1.824877095272792e-06,4.641679887522246e-06,1.7281755081924574e-05,8.315015068734304e-07,3.630416183699223e-06,9.75256012923154e-06,7.347666325955023e-05,7.044932296963703e-07,1.1184627605169052e-06
251,1.6886153652607597e-06,1.019010452473433e-06,1.7203057975745027e-06,2.664817973371494e-06,3.7245705415572508e-06,4.238507529207317e-06,1.9972883035947518e-06,1.8585387417155981e-06,4.423204438543634e-06,1.6796417701487673e-05,8.479797729368762e-07,3.120683895753733e-06,9.968670740146101e-06,7.248953263871569e-05,6.89650458863415e-07,1.1304839267547838e-06
252,1.6975844727343736e-06,1.0082461019628666e-06,1.7826849596114956e-06,2.7245539409039717e-06,3.8093444005832294e-06,4.281208410844662e-06,1.9940785731802048e-06,1.893977536897093e-06,4.210127537994164e-06,1.6311227651647486e-05,8.675065350173194e-07,2.685317952481177e-06,1.0152515003238538e-05,7.109224640622456e-05,6.764101360109475e-07,1.1452769052814598e-06
253,1.7089269605626794e-06,9.971253762200938e-07,1.8427829924226469e-06,2.777873418127389e-06,3.885611350370898e-06,4.318199719914094e-06,1.9913376849152176e-06,1.931905252918099e-06,4.003551502265765e-06,1.5818255159524498e-05,8.893504341533466e-07,2.3184265552663423e-06,1.0300915699499944e-05,6.930868399711507e-05,6.650207821825617e-07,1.1629889672358394e-06
254,1.7230507665278646e-06,9.860853930206429e-07,1.8985480014601998e-06,2.8248946552600214e-06,3.9523469258167084e-06,4.347168639684422e-06,1.9894090582543386e-06,1.9729233754994436e-06,3.804577870757125e-06,1.531137190041926e-05,9.127733168170402e-07,2.014071323881792e-06,1.0412944355745766e-05,6.717142243242743e-05,6.55689526674827e-07,1.1836163835231549e-06
255,1.7403032321970812e-06,9.75626033603708e-07,1.94786283042292e-06,2.865669246557784e-06,4.009155729437854e-06,4.366530568942293e-06,1.9889386510426365e-06,2.017336522898916e-06,3.6141329813993264e-06,1.4784537354858519e-05,9.370759775978438e-07,1.7664718406586887e-06,1.0489303374344428e-05,6.472187271760259e-05,6.485529926945034e-07,1.2071131548418484e-06
256,1.760861321009777e-06,9.662279795108988e-07,1.9887591928902173e-06,2.9000031203656773e-06,4.056650967507875e-06,4.3755236433203345e-06,1.990536218590799e-06,2.065073152125472e-06,3.4330219876961626e-06,1.4231740294238928e-05,9.61719521915416e-07,1.5701905568428622e-06,1.0530845934444009e-05,6.200934613062225e-05,6.43643126562787e-07,1.2334157593053761e-06
257,1.7847298510957389e-06,9.58319526448456e-07,2.0195929570693956e-06,2.927401030434087e-06,4.096403407679957e-06,4.373916533321466e-06,1.9946514527071237e-06,2.1156653092709398e-06,3.2620595114731368e-06,1.364888155137902e-05,9.86386497663013e-07,1.4201456118800479e-06,1.0537466218607791e-05,5.9090111779680034e-05,6.408923649210357e-07,1.262423424541017e-06
258,1.8117753270915132e-06,9.522892288337711e-07,2.039047968252083e-06,2.9472782706656996e-06,4.1304816419983235e-06,4.361504247945529e-06,2.0015499173019913e-06,2.1683476720926055e-06,3.1019603501418823e-06,1.3036199673177393e-05,1.0109047182190962e-06,1.3114062845898907e-06,1.050806361213964e-05,5.602626536978462e-05,6.401646397977013e-07,1.2940137541958191e-06
259,1.841720840976422e-06,9.484896388529267e-07,2.0460897585250843e-06,2.959292689118773e-06,4.160819409368016e-06,4.3378858559549115e-06,2.011283081842056e-06,2.222286592886459e-06,2.9531675033380084e-06,1.2399615930621177e-05,1.0351112852262855e-06,1.2389515443483435e-06,1.0441344443527063e-05,5.2882853252198015e-05,6.412708650391762e-07,1.328021812714915e-06
260,1.8741700821821073e-06,9.472544821225357e-07,2.040180225847571e-06,2.963525577693806e-06,4.188741473370586e-06,4.302786494718759e-06,2.0236756940639323e-06,2.276817673139672e-06,2.815926900882567e-06,1.174981025175721e-05,1.0587666056580184e-06,1.1976288700345398e-06,1.0336750277544091e-05,4.972312920080271e-05,6.439817310852646e-07,1.3641413089159506e-06
261,1.908684276203609e-06,9.48954074988839e-07,2.0216609018815622e-06,2.9604689465920846e-06,4.21481745585696e-06,4.256505275476244e-06,2.038341660602928e-06,2.3315633442392824e-06,2.690472754154129e-06,1.1099724494742253e-05,1.081532952295528e-06,1.1823820579262118e-06,1.0195105193084154e-05,4.660400063837956e-05,6.480616458716379e-07,1.4018307215158556e-06
262,1.9448375530691625e-06,9.540190522241683e-07,1.991846885693646e-06,2.9509455554143064e-06,4.2389074116863416e-06,4.199949409158152e-06,2.054722907205043e-06,2.3864008355055274e-06,2.5770696848087488e-06,1.0462719318032792e-05,1.102969892045295e-06,1.1885826685045063e-06,1.0018866392808578e-05,4.357333463332497e-05,6.533023377998914e-07,1.4403119444955851e-06
263,1.9822463431474887e-06,9.62871486146475e-07,1.9526896053859136e-06,2.936027358263522e-06,4.260225531875358e-06,4.134236269518316e-06,2.0720995579963983e-06,2.4413623913164783e-06,2.4759016269961625e-06,9.852030089787622e-06,1.1225609893286502e-06,1.2121847517425517e-06,9.811762262192251e-06,4.066917386399847e-05,6.595497891842026e-07,1.4786964370399715e-06
264,2.0205733328383623e-06,9.758257486133699e-07,1.906307652979849e-06,2.916929061084563e-06,4.2775729273021545e-06,4.0603471781788634e-06,2.0896196471976302e-06,2.4965988155228895e-06,2.3869339767424116e-06,9.280294960225001e-06,1.1398302991836204e-06,1.2495899568352762e-06,9.577784767958022e-06,3.792026676989437e-05,6.667488896612135e-07,1.516191953438135e-06
265,2.0594565516831494e-06,9.93040242456388e-07,1.854677483752874e-06,2.8948522611053293e-06,4.289870446965923e-06,3.979192108278684e-06,2.1064563544726558e-06,2.5524160597367482e-06,2.3098802928228533e-06,8.758782557497805e-06,1.1544878688372702e-06,1.2974018923744976e-06,9.320176266003496e-06,3.534703212015765e-05,6.749613199107754e-07,1.5522703815127895e-06
266,2.0984714584792084e-06,1.0145155354425234e-06,1.7995259510177476e-06,2.870786874435296e-06,4.29656865920913e-06,3.891777561196509e-06,2.1219346335571365e-06,2.609229091627914e-06,2.2443067757852368e-06,8.297079860108325e-06,1.1664654254200098e-06,1.352270764409586e-06,9.041167344592551e-06,3.2962117310539755e-05,6.843042254624255e-07,1.5866954895615213e-06
267,2.1372559328939337e-06,1.0401108926814947e-06,1.742338673728953e-06,2.845319546153634e-06,4.297489076372587e-06,3.7990633983577602e-06,2.1354251362908186e-06,2.667357679778624e-06,2.189734948990986e-06,7.903551680396672e-06,1.1758156226347116e-06,1.4108571191745022e-06,8.742409406425889e-06,3.077080778410034e-05,6.948690825984053e-07,1.6194177922807968e-06
268,2.175612853867989e-06,1.06956653127914e-06,1.6844196759721995e-06,2.8185698378481546e-06,4.292403393133174e-06,3.701729167342424e-06,2.146153468687057e-06,2.7268082666189884e-06,2.1455960239602833e-06,7.586142505092105e-06,1.1825543852633725e-06,1.4699293618757239e-06,8.425554769363443e-06,2.877218274155086e-05,7.066904143232031e-07,1.6504563205602823e-06
269,2.2133623797778548e-06,1.1025180782429303e-06,1.6269599516723387e-06,2.7903535285246585e-06,4.280900455357715e-06,3.6002655365753336e-06,2.153163980186573e-06,2.787206250657766e-06,2.111119259864702e-06,7.352873007298182e-06,1.186532569096194e-06,1.5265809831178052e-06,8.092716077951866e-06,2.6961002982080272e-05,7.197483259745982e-07,1.6798879927626842e-06
270,2.2500528514977843e-06,1.138487861749098e-06,1.5710747023082304e-06,2.76048291043673e-06,4.262496213607382e-06,3.4953064190538784e-06,2.155414845469623e-06,2.847887789853798e-06,2.0853252915931015e-06,7.211680628022175e-06,1.1874001746168435e-06,1.5784468760080894e-06,7.746787108063946e-06,2.5329429025544645e-05,7.33976373869596e-07,1.7079245232579585e-06
271,2.284785118877915e-06,1.1768544380406714e-06,1.5177976224711718e-06,2.7289436869070636e-06,4.236694537648434e-06,3.3878376001003234e-06,2.1518683758080705e-06,2.9080590305272145e-06,2.0670863267037775e-06,7.169914584145619e-06,1.1847189232571302e-06,1.6239004739034802e-06,7.391584792608566e-06,2.386803490064791e-05,7.492752640294519e-07,1.7349265929580561e-06
272,2.3162863396251656e-06,1.2168631928169413e-06,1.4680478762625313e-06,2.695805724594608e-06,4.203056356573417e-06,3.2791481938225845e-06,2.1415454402404407e-06,2.9669348037050165e-06,2.055125000027666e-06,7.2341002714180105e-06,1.1782130994182975e-06,1.6622370078144654e-06,7.031641738032686e-06,2.2566451752727478e-05,7.655586772541595e-07,1.761267512568592e-06
273,2.3432115067990298e-06,1.257741346931516e-06,1.422585761616692e-06,2.6610894926942526e-06,4.1614309560034395e-06,3.170654957068225e-06,2.1235883749402026e-06,3.0238231625926517e-06,2.0479853651951016e-06,7.410162974118037e-06,1.167979093573619e-06,1.6936406671223632e-06,6.671553006235024e-06,2.141417102463347e-05,7.828679427049509e-07,1.7871445574021138e-06
274,2.3645007635422712e-06,1.2988474776874241e-06,1.3819671891983812e-06,2.6248509036381884e-06,4.112236167303301e-06,3.0637663926303232e-06,2.0973858556066315e-06,3.0781678373389327e-06,2.0440825129856445e-06,7.703863215044748e-06,1.1544702239968583e-06,1.718819144538895e-06,6.315273722099632e-06,2.0401535277811323e-05,8.014775765771466e-07,1.8124961962311487e-06
275,2.3796036362923883e-06,1.3397001251966076e-06,1.3465121902090243e-06,2.587321067501655e-06,4.056574848884139e-06,2.9598033350970915e-06,2.062774633903397e-06,3.1295447478943567e-06,2.0418841368868396e-06,8.12116351169323e-06,1.1383065302188116e-06,1.7385555771911938e-06,5.9658616290122426e-06,1.9520525577853143e-05,8.218538222471343e-07,1.8370478148350228e-06
276,2.388511048128957e-06,1.3798577026526853e-06,1.3162964707341746e-06,2.5488199811848345e-06,3.996152163047458e-06,2.8598747343244763e-06,2.0202397426466903e-06,3.1775638798423355e-06,2.040179196772774e-06,8.668244521950874e-06,1.120101369728359e-06,1.7534984901256318e-06,5.625565281483869e-06,1.8764947861479042e-05,8.445335299782872e-07,1.8603572499544323e-06
277,2.39159759536273e-06,1.41881703799313e-06,1.2911604747930907e-06,2.5095501843373124e-06,3.933067258215612e-06,2.7647367514732695e-06,1.9709599385960406e-06,3.2216521588410723e-06,2.0382439828560427e-06,9.351028863603877e-06,1.1004041045961822e-06,1.7642192955579448e-06,5.295974342629186e-06,1.8129752907730003e-05,8.700938368678239e-07,1.8817616630617122e-06
278,2.3893248311965003e-06,1.45602554663117e-06,1.270771331411375e-06,2.4695529545772994e-06,3.869481634534277e-06,2.674795533771839e-06,1.916592486867419e-06,3.2608121827370484e-06,2.035755555752375e-06,1.0174639363152404e-05,1.0797107472531334e-06,1.7713116554432321e-06,4.978270019573181e-06,1.76096237445196e-05,8.991789829321088e-07,1.9003166322407327e-06
279,2.3820276568379826e-06,1.49091744725323e-06,1.2547757817510158e-06,2.428850574355336e-06,3.8072028346463095e-06,2.590253590814979e-06,1.8588929892847235e-06,3.2935332387549532e-06,2.0325733984445344e-06,1.1143372719963044e-05,1.0584918229817378e-06,1.775339158061911e-06,4.673597412021685e-06,1.7197852877021138e-05,9.324644935301973e-07,1.914885893311271e-06
280,2.369998337592961e-06,1.522979309164723e-06,1.2429301802223383e-06,2.3875890908252577e-06,3.7474033054627412e-06,2.5112151056197946e-06,1.7994242774722886e-06,3.3179428359398115e-06,2.0286504958555637e-06,1.2260982591758683e-05,1.0372308781066103e-06,1.776670054872755e-06,4.383353416202753e-06,1.688635673899035e-05,9.705960324669837e-07,1.9243809382463128e-06
281,2.353714353045304e-06,1.551890135120248e-06,1.235059807282743e-06,2.346056507624396e-06,3.690648254051357e-06,2.437649047208187e-06,1.7394776309436654e-06,3.3321468391446152e-06,2.0241161168784835e-06,1.3530610643329331e-05,1.01642830808688e-06,1.7753744811916696e-06,4.109213833678104e-06,1.6665916291557058e-05,1.0141792209025115e-06,1.9280257429432847e-06
282,2.3338655572647394e-06,1.5775955776058317e-06,1.2309292701434182e-06,2.304563314397191e-06,3.6370764590795594e-06,2.3692853884152866e-06,1.6801022153170716e-06,3.3346450021363225e-06,2.019343622453752e-06,1.4954235774894694e-05,9.965374904132902e-07,1.7712818921345917e-06,3.852944255445236e-06,1.6525549720541394e-05,1.0637857535209545e-06,1.925549096268746e-06
283,2.3111968571838683e-06,1.600221468112982e-06,1.2301824167688739e-06,2.2632653668733773e-06,3.5864373493794267e-06,2.3055451385589336e-06,1.6221192906206056e-06,3.3246529276821158e-06,2.0148911148532368e-06,1.6531915666552125e-05,9.778899239632486e-07,1.7641668731578838e-06,3.616196690970388e-06,1.6451831357943e-05,1.1199352016295856e-06,1.917247825082064e-06
284,2.2864586953899175e-06,1.6199096426742765e-06,1.2323581945675904e-06,2.222075424069917e-06,3.537963828531013e-06,2.245510432845184e-06,1.5660907015862493e-06,3.3021648712126206e-06,2.0113481756381996e-06,1.826105960509289e-05,9.60687499948949e-07,1.7539731039573876e-06,3.4004178070311797e-06,1.6429382549663027e-05,1.1830733005626127e-06,1.9039012644242373e-06
285,2.260480540074082e-06,1.6366779187535867e-06,1.2369639648604577e-06,2.1807304087479736e-06,3.4903311168495195e-06,2.187922733490862e-06,1.512269574805816e-06,3.2677712301773805e-06,2.009229839527594e-06,2.0136231046870338e-05,9.450621778474683e-07,1.7409648248820823e-06,3.206785192447375e-06,1.6442451174686166e-05,1.2535450741657347e-06,1.8865979589347371e-06
286,2.2341443581294136e-06,1.6504259351842801e-06,1.2435896278302098e-06,2.138936246066126e-06,3.4418586852742197e-06,2.131293978821496e-06,1.4605959227523659e-06,3.22242744766061e-06,2.0090767241583975e-06,2.2149902648987908e-05,9.311227762694392e-07,1.7256945755513943e-06,3.0360977686927916e-06,1.6476900185532275e-05,1.331552119907568e-06,1.866571390437082e-06
287,2.208216508431853e-06,1.661144221373567e-06,1.2519886251166982e-06,2.0964910811588076e-06,3.390858333798555e-06,2.0742120045954158e-06,1.4108291005601473e-06,3.1673426955162417e-06,2.0117106660546456e-06,2.4293521408270166e-05,9.189402489788062e-07,1.7087904204502383e-06,2.888732551255809e-06,1.6522032881942214e-05,1.4171195643419902e-06,1.8450748458559866e-06
288,2.183203674918566e-06,1.6691381283089812e-06,1.2621404163094375e-06,2.0533633936206594e-06,3.335941616645832e-06,2.015730343540426e-06,1.3628391280756917e-06,3.1039807528915245e-06,2.018405019028735e-06,2.6557671308392386e-05,9.085124093674007e-07,1.6907475151037654e-06,2.7647187292110574e-06,1.6571709814850954e-05,1.510091922585109e-06,1.823263823326801e-06
289,2.1593260296979332e-06,1.6750273657371091e-06,1.2743476159143463e-06,2.0097143365667725e-06,3.2762399780686648e-06,1.9556075358177627e-06,1.3168556260993455e-06,3.0340390958127206e-06,2.030784369996784e-06,2.8930927443261023e-05,8.997436092509479e-07,1.6718639722547634e-06,2.663805731194506e-06,1.6624228971253726e-05,1.6101794128923834e-06,1.8021039209012089e-06
290,2.1365078965904786e-06,1.6795328708534066e-06,1.289255030825211e-06,1.9658200641487884e-06,3.2116015978369063e-06,1.8942859544403755e-06,1.2734290707396685e-06,2.9592854778831423e-06,2.0505040332969153e-06,3.1397981445094246e-05,8.924439985955947e-07,1.652245827878928e-06,2.585463814358e-06,1.668061386134125e-05,1.7170485040749739e-06,1.7823844928294802e-06
291,2.114328324744512e-06,1.6832605694804913e-06,1.307688865971535e-06,1.9219564565798995e-06,3.1426789359021413e-06,1.8326922014729428e-06,1.2331750690542395e-06,2.881289351444502e-06,2.0789618245318066e-06,3.393783212533618e-05,8.863645514188579e-07,1.6317910922466055e-06,2.5288527620649573e-06,1.6741808611601022e-05,1.8303771300906765e-06,1.7648213665245724e-06
292,2.092101813891353e-06,1.6866152786530694e-06,1.3304818891231311e-06,1.8784454541136202e-06,3.0707165979651196e-06,1.771973006649661e-06,1.1965833675486165e-06,2.8012828463647845e-06,2.1172182125052118e-06,3.6522425982375297e-05,8.81245378333151e-07,1.6101865375023228e-06,2.4927848490173753e-06,1.6806330329969136e-05,1.949819626451836e-06,1.7501050479492342e-06
293,2.0692200212359932e-06,1.6898213919252004e-06,1.3584425905093888e-06,1.8358806748301192e-06,2.997085568832725e-06,1.713234721396052e-06,1.164001430625158e-06,2.720303745492203e-06,2.166069941998256e-06,3.911570875510016e-05,8.768171708213208e-07,1.5869626665925433e-06,2.475707720325198e-06,1.6869352024228646e-05,2.0749040080808683e-06,1.7388185470435282e-06
294,2.0455413952978397e-06,1.6930317774619787e-06,1.392342682574486e-06,1.795256764837032e-06,2.922868715628977e-06,1.6573791296510401e-06,1.1356798298012972e-06,2.639437744956952e-06,2.2261161291156515e-06,4.167319023623762e-05,8.727501828900854e-07,1.5616012116626284e-06,2.4757726845836926e-06,1.6922903665453022e-05,2.204908946138798e-06,1.7313106814391749e-06
295,2.0214654084069035e-06,1.6964860203162528e-06,1.4328073794116278e-06,1.7578195854138088e-06,2.8487419252040827e-06,1.605084725115694e-06,1.1117823957195925e-06,2.5599178866999344e-06,2.2977206978327177e-06,4.414277517680011e-05,8.68621154072354e-07,1.533691095795283e-06,2.4911152286632627e-06,1.695746760265777e-05,2.338772868868851e-06,1.7276646730250631e-06
296,1.9976319048393887e-06,1.7005801484559234e-06,1.48019446408236e-06,1.724784485181229e-06,2.7751393811731945e-06,1.5568466178593241e-06,1.0924176331203935e-06,2.4831035945792034e-06,2.3809288534758867e-06,4.646800565524057e-05,8.639670080443861e-07,1.503116329469726e-06,2.5203015865023116e-06,1.6965707424244415e-05,2.4750520853439246e-06,1.7277859307849522e-06
297,1.9745491324282914e-06,1.7058032506659925e-06,1.5345393531767483e-06,1.6971578145653033e-06,2.702535430413413e-06,1.513008481573448e-06,1.0777431516440834e-06,2.410478529281304e-06,2.475507592327902e-06,4.859403210520052e-05,8.583787809426598e-07,1.4701861357673836e-06,2.562522788290667e-06,1.6946836477620524e-05,2.611918741299259e-06,1.731486131784144e-06
298,1.9523998404104794e-06,1.7126407050777046e-06,1.595556723986136e-06,1.675696748696133e-06,2.631667313880577e-06,1.4738420927480855e-06,1.068026776314175e-06,2.3436608185014194e-06,2.5812205032686144e-06,5.0474412967596105e-05,8.515302533475354e-07,1.4356273219115688e-06,2.6172899315358986e-06,1.690846271347667e-05,2.747258595349255e-06,1.7385182481805092e-06
299,1.931001831256426e-06,1.7214849560433279e-06,1.6627034896381434e-06,1.6608917504975785e-06,2.563534819219231e-06,1.4397149742449472e-06,1.063566418959694e-06,2.2843007895976886e-06,2.6981543479837737e-06,5.207504085098858e-05,8.432122814918563e-07,1.400442200097306e-06,2.6840308557254696e-06,1.6864710238753897e-05,2.878849766629615e-06,1.7486557232607634e-06
300,1.909822503418246e-06,1.7325308879106456e-06,1.735280923617648e-06,1.6529230800167386e-06,2.499167539730929e-06,1.4112591641408407e-06,1.0645670094255837e-06,2.2338523402533817e-06,2.8267638983162913e-06,5.337233397674336e-05,8.334862520109456e-07,1.3656773366698727e-06,2.7619878193664014e-06,1.6832461541895185e-05,3.0044045874640265e-06,1.7617677172006497e-06
301,1.8880162653148927e-06,1.7457134890114468e-06,1.8124726574981096e-06,1.6516463252185383e-06,2.439445186026559e-06,1.3893926869679636e-06,1.071103640267439e-06,2.1933925852558604e-06,2.9676138892344215e-06,5.434682597504003e-05,8.227988746991348e-07,1.3322170472114006e-06,2.8502880149438767e-06,1.6828162219428342e-05,3.1214265085924605e-06,1.7777315068762692e-06
302,1.8645516936545014e-06,1.7607627480306659e-06,1.8933110397381092e-06,1.6566441018226182e-06,2.385181261866826e-06,1.375154460625215e-06,1.083183917171438e-06,2.1636301308778113e-06,3.121046000521093e-06,5.497847513159797e-05,8.118729555275848e-07,1.3007126925072704e-06,2.9480161540162668e-06,1.6866074606008533e-05,3.2271625444111225e-06,1.7962645211664979e-06
303,1.8384935957632735e-06,1.7773360573437992e-06,1.976711025317775e-06,1.6673036573382287e-06,2.3372752612103534e-06,1.3694855172740794e-06,1.1008265130697316e-06,2.1450050663112403e-06,3.286902099487664e-06,5.52501071051802e-05,8.014730231821181e-07,1.271617707260016e-06,3.0543078993081778e-06,1.695757598518285e-05,3.31882257651381e-06,1.8169200278082268e-06
304,1.809304921402295e-06,1.7951252406546185e-06,2.0616318494658975e-06,1.6828533080595458e-06,2.2966781093586266e-06,1.3731171795664393e-06,1.124047632320666e-06,2.137709367267325e-06,3.464358259454023e-06,5.515740998173907e-05,7.922494610398083e-07,1.2452798638081377e-06,3.1684063933964726e-06,1.7110964264769036e-05,3.393919823285658e-06,1.8392326832252078e-06
305,1.7769632634262284e-06,1.8138761509940954e-06,2.1472908079744017e-06,1.7023405915654756e-06,2.264218716919715e-06,1.3865759179867915e-06,1.1527786840603388e-06,2.141656526972838e-06,3.65190076339397e-06,5.471694899426993e-05,7.847340945045026e-07,1.2220637182519519e-06,3.28963119667456e-06,1.733154449595763e-05,3.4505562449962943e-06,1.8627499012530768e-06
306,1.7418624363627797e-06,1.8333341618675951e-06,2.2333316222022007e-06,1.7246251456536445e-06,2.240515930906501e-06,1.4102078341217598e-06,1.1868398507905479e-06,2.1565043730108447e-06,3.847381340273486e-06,5.396562321676421e-05,7.794033691077512e-07,1.2023928119930585e-06,3.4173567465984433e-06,1.7621903415452405e-05,3.4876067773672555e-06,1.8868758933101892e-06
307,1.704595838847262e-06,1.8531922141599626e-06,2.3198712916619378e-06,1.7484979527285477e-06,2.2260592579981996e-06,1.4442014726291358e-06,1.2259620801811834e-06,2.1816701386741553e-06,4.0481228951720375e-06,5.295192322609271e-05,7.766827730906068e-07,1.1866632631012537e-06,3.5510602246149848e-06,1.798217820755366e-05,3.504735218809681e-06,1.9107547768718974e-06
308,1.6657480143791793e-06,1.8731233453808366e-06,2.4074035702465036e-06,1.7729389349109312e-06,2.221345416013786e-06,1.4886234954676207e-06,1.269762123657168e-06,2.2162761938479967e-06,4.2512835386556565e-06,5.172523247614878e-05,7.768842795367674e-07,1.1751226079557409e-06,3.6903566862250555e-06,1.840998968817895e-05,3.5021233235767484e-06,1.933369829609574e-06
309,1.6258116886952957e-06,1.8929036014921316e-06,2.496597847876026e-06,1.7973672393407506e-06,2.2269713095069048e-06,1.5434252260247841e-06,1.317680109666854e-06,2.259099550624168e-06,4.4545455782647506e-06,5.0329858660352604e-05,7.801637718188708e-07,1.1678153374714114e-06,3.834975770435514e-06,1.8900061565486675e-05,3.480033092784829e-06,1.9537862093216227e-06
310,1.5852242212105508e-06,1.912532635867295e-06,2.58804661505749e-06,1.821711782570657e-06,2.243635355984163e-06,1.608435116555273e-06,1.3689429473355065e-06,2.3085706104638193e-06,4.656566497584018e-06,4.8804515647643165e-05,7.865332564830331e-07,1.1646346868965012e-06,3.984756881120195e-06,1.94444358430545e-05,3.4386605418995013e-06,1.971334856393301e-06
311,1.5443915817478929e-06,1.9322570970881116e-06,2.682046268746812e-06,1.8462655830412537e-06,2.2719976932831907e-06,1.6833971561032553e-06,1.4225809211474266e-06,2.3628309040517706e-06,4.856677057155164e-06,4.718338467696701e-05,7.958924733418527e-07,1.165420049550178e-06,4.1396451028174085e-06,2.0033875564262334e-05,3.3785200863464146e-06,1.985625705237304e-06
312,1.5036613340080725e-06,1.9524912469388417e-06,2.7785218535027493e-06,1.8714268566609457e-06,2.312446655622479e-06,1.7680256150779818e-06,1.4775122207190053e-06,2.419896827550482e-06,5.054250809407409e-06,4.549673088296467e-05,8.080420742336106e-07,1.1699881596625453e-06,4.299517698120083e-06,2.06591531479544e-05,3.300972443729286e-06,1.9964600386996432e-06
313,1.4633391628519942e-06,1.9736674167832893e-06,2.8770802944021706e-06,1.8974827613466113e-06,2.3649141364934065e-06,1.862012675909976e-06,1.5326948648203277e-06,2.4779122118977422e-06,5.248437484325001e-06,4.377148444408154e-05,8.226887996942744e-07,1.1781191050940841e-06,4.463844794261787e-06,2.13106697628075e-05,3.2084009530326675e-06,2.0037213764417366e-06
314,1.4237471724704756e-06,1.9960530184514905e-06,2.9770309932221887e-06,1.9245590706338506e-06,2.4288211977930207e-06,1.9649706682119668e-06,1.5873112069698572e-06,2.5353704303277107e-06,5.438215742466767e-06,4.203160055200639e-05,8.394829523928917e-07,1.1896069366431898e-06,4.631447733617492e-06,2.19772765689095e-05,3.10397445551873e-06,2.007221401243754e-06
315,1.3852186923866995e-06,2.0196378480253083e-06,3.07732718833409e-06,1.95269124063599e-06,2.5031016452073657e-06,2.0763337093606977e-06,1.6408986573249952e-06,2.591182918912485e-06,5.622436873702458e-06,4.029732939225554e-05,8.58075067376519e-07,1.2043300815422373e-06,4.8004989435159965e-06,2.2646567660858084e-05,2.991218962851184e-06,2.0065292849096737e-06
316,1.348006751283777e-06,2.0441699971778385e-06,3.176563154642812e-06,1.9818315161168277e-06,2.586204401230701e-06,2.1952955093831957e-06,1.693331240822855e-06,2.6445378099764334e-06,5.799926848379026e-06,3.858351013818145e-05,8.781358628253836e-07,1.2222124092904433e-06,4.9685964512527336e-06,2.330721595546191e-05,2.8735898930791874e-06,2.000893622868199e-06
317,1.31218793418646e-06,2.0692439258610586e-06,3.2730340277118005e-06,2.0117516868999973e-06,2.6760654196411926e-06,2.320810373803028e-06,1.7446549451648366e-06,2.6946166413376643e-06,5.969750029567127e-06,3.689871403441502e-05,8.993380459860731e-07,1.243098132866505e-06,5.132717938975828e-06,2.3951512310372e-05,2.7541444310954296e-06,1.989307299332531e-06
318,1.2776635851214076e-06,2.094295201967018e-06,3.364711849296928e-06,2.04200222689006e-06,2.7701147378691036e-06,2.451586852470635e-06,1.7948817379137695e-06,2.740350098581492e-06,6.1313977682209975e-06,3.524691675618383e-05,9.213350841419206e-07,1.2666813979204555e-06,5.289173696249823e-06,2.4575509064050114e-05,2.63536957077983e-06,1.9707224675912797e-06
319,1.2442715479270391e-06,2.1185172947742567e-06,3.4492273479018632e-06,2.0720124217377503e-06,2.8653222105053617e-06,2.5860652648134793e-06,1.8438516975635084e-06,2.780311737746076e-06,6.2846969615842e-06,3.363074891260606e-05,9.437493002794801e-07,1.2925790401398791e-06,5.43394482615843e-06,2.517602190075003e-05,2.5191522699891426e-06,1.944391793995104e-06
320,1.2119028960717339e-06,2.1408691559870235e-06,3.5241130246637504e-06,2.101222016839953e-06,2.9582818051176652e-06,2.7224233384298706e-06,1.8911852753186475e-06,2.812719104723885e-06,6.429560933989467e-06,3.205372690395457e-05,9.66193322655898e-07,1.320508607454188e-06,5.563600418132314e-06,2.5746849713301894e-05,2.4068143063743784e-06,1.910157871586771e-06
321,1.1805561223369307e-06,2.1603006477804695e-06,3.5872584421879818e-06,2.1290951935273956e-06,3.0454509682837653e-06,2.8585587212877978e-06,1.936299852790095e-06,2.8356063672343125e-06,6.565719375915707e-06,3.051988344822435e-05,9.883071592642067e-07,1.3504286201450166e-06,5.676435587295866e-06,2.6276987067658102e-05,2.299154287306704e-06,1.8684446872717923e-06
322,1.1503652107681662e-06,2.176098410325173e-06,3.6372731140987738e-06,2.155033115649068e-06,3.123580964317227e-06,2.9920030408941016e-06,1.9785470710544913e-06,2.847252251198739e-06,6.692555267711071e-06,2.9031717058946248e-05,1.0097310300183888e-06,1.38251038683878e-06,5.773078810220007e-06,2.6751978096438632e-05,2.1964867670176683e-06,1.8199934720840117e-06
323,1.1216059436087804e-06,2.1881022372034406e-06,3.673595797419602e-06,2.1783598727764225e-06,3.190147168343382e-06,3.119897703149891e-06,2.017470929824921e-06,2.846693953580177e-06,6.809329066133005e-06,2.7589623225782996e-05,1.030028344775622e-06,1.4169916905917386e-06,5.8560195581014774e-06,2.715852166651625e-05,2.0987147810306063e-06,1.7656785894306276e-06
324,1.0946383157291563e-06,2.1966665385637797e-06,3.6964199475538083e-06,2.198416707997118e-06,3.2435973305132516e-06,3.239220793597264e-06,2.0529544050135497e-06,2.8340383500174322e-06,6.9155965981385204e-06,2.6194445770612074e-05,1.0486705151938923e-06,1.4540885694479355e-06,5.928346555170427e-06,2.7490251633586045e-05,2.005495162695494e-06,1.706524730325707e-06
325,1.0698196963775884e-06,2.2024602863535835e-06,3.7065605599097993e-06,2.2146085601042995e-06,3.283388294713698e-06,3.3472655447742005e-06,2.0850720606142226e-06,2.8104202732489764e-06,7.01116288832329e-06,2.485071021379028e-05,1.0651672309159616e-06,1.493980140012208e-06,5.992653467913303e-06,2.7750672211399405e-05,1.916468406838704e-06,1.6437236898478284e-06
326,1.047474969923128e-06,2.206228973203599e-06,3.705304311058167e-06,2.2263839923988563e-06,3.3098187093142162e-06,3.442135505501197e-06,2.113780070645547e-06,2.777626173469467e-06,7.095681689212073e-06,2.356762267277711e-05,1.0792721366254569e-06,1.536730521253193e-06,6.05058930411325e-06,2.7951142219147423e-05,1.8314286861459497e-06,1.5785412464999958e-06
327,1.0279288098985537e-06,2.2085899807066842e-06,3.694219043918993e-06,2.233283785112489e-06,3.3236866610649478e-06,3.5229194619932477e-06,2.138720076108084e-06,2.7375710124423906e-06,7.168616876325723e-06,2.2357681789315576e-05,1.0910258513457771e-06,1.58217654075125e-06,6.102695451957278e-06,2.8105823516211024e-05,1.7503615237753999e-06,1.5122025549735217e-06
328,1.0115311798685354e-06,2.209952620172121e-06,3.674907055861537e-06,2.2350749363197292e-06,3.3258692655086645e-06,3.5893889641364685e-06,2.1593111675820973e-06,2.691945800842761e-06,7.229503651938781e-06,2.1234445786773266e-05,1.1005806005772881e-06,1.6299433246957555e-06,6.148275877069458e-06,2.8227833257346385e-05,1.6733836701694432e-06,1.4458380669539361e-06
