,EMG1,EMG2,EMG3,EMG4,EMG5,EMG6,EMG7,EMG8,EMG9,EMG10,EMG11,EMG12,EMG13,EMG14,EMG15,EMG16
0,2.439633578270073e-07,2.1990312921661772e-07,6.773940398043436e-07,1.3370155761137255e-07,3.631185259742473e-07,3.770407417373962e-07,1.8474893939370764e-07,3.624575776285224e-08,-3.223239731191153e-08,3.608488930914027e-06,-5.0896029676935145e-09,2.0057323168609044e-07,-6.31580546501832e-08,8.46369492931066e-07,3.3198795222103916e-07,1.663360106875911e-07
1,3.987313182050843e-07,3.7781634070233546e-07,7.639899418543567e-07,1.8880863487533526e-07,5.187218930301515e-07,4.891843380800087e-07,2.826589866164659e-07,1.4497857421688335e-07,5.327730313164588e-07,7.774051400583365e-06,1.0837412604065993e-07,2.972700686407263e-07,2.354746656756081e-07,1.0273080328974026e-06,4.2893329587178225e-07,2.9742210984787617e-07
2,5.488406392683458e-07,5.264678772729672e-07,8.530833164652425e-07,2.429991077968193e-07,6.804789495729296e-07,6.011197204180239e-07,3.825136013839314e-07,2.546199543148943e-07,1.076865346608787e-06,1.1862900065255294e-05,2.187794172266217e-07,3.9474280321173706e-07,5.215824948373821e-07,1.2133920986899984e-06,5.239696465765255e-07,4.286920704221463e-07
3,6.897326133421742e-07,6.639837720926439e-07,9.435763713389414e-07,2.950291108256225e-07,8.465405203757762e-07,7.119734532397001e-07,4.833624544929604e-07,3.639338160445632e-07,1.5941602672571678e-06,1.582971263809935e-05,3.2532024658450646e-07,4.910342161434506e-07,7.913311919143256e-07,1.400864406294022e-06,6.158412320115802e-07,5.586383746263193e-07
4,8.17939489805341e-07,7.893455265502116e-07,1.0342258840406058e-06,3.440252229822144e-07,1.015078224322365e-06,8.210008305832355e-07,5.842299194211099e-07,4.72211178359596e-07,2.078791931525954e-06,1.9633932805915555e-05,4.2732332648365617e-07,5.843495714337553e-07,1.0408807638524004e-06,1.586946604761931e-06,7.033392255691935e-07,6.859508676518752e-07
5,9.314345195949709e-07,9.023276152184891e-07,1.1237041146744051e-06,3.895120569597782e-07,1.184455928139613e-06,9.277110259775128e-07,6.841655463209419e-07,5.792902463284491e-07,2.5253497635787234e-06,2.3239646374315853e-05,5.242407468985196e-07,6.732610165185796e-07,1.266525262904714e-06,1.7699931871382175e-06,7.853404462530438e-07,8.094548399867649e-07
6,1.0296619472978051e-06,1.0031565084642462e-06,1.210733448879802e-06,4.3127185089580697e-07,1.3534346346241213e-06,1.031889211757789e-06,7.822868974966043e-07,6.853725456036753e-07,2.9296685291667246e-06,2.6614436695621128e-05,6.15586436276422e-07,7.569762104565248e-07,1.4651549708541841e-06,1.9494407844100568e-06,8.609713250723738e-07,9.280649560081164e-07
7,1.1132387266091614e-06,1.0921716699690249e-06,1.2942642316699793e-06,4.692119827501088e-07,1.5213027259619645e-06,1.133456198353925e-06,8.777904675771405e-07,7.908315230441773e-07,3.289347881910366e-06,2.9728752453738444e-05,7.008687332687595e-07,8.354370492800041e-07,1.6348739103654132e-06,2.125716067802187e-06,9.29777586491185e-07,1.0408395709775696e-06
8,1.1834422239899303e-06,1.1696761124715464e-06,1.3735768638603397e-06,5.03347146476107e-07,1.6878561634534287e-06,1.2323159803090478e-06,9.699668601699604e-07,8.961466681333681e-07,3.6034666189674515e-06,3.2556505840279716e-05,7.795561687883956e-07,9.091352613013868e-07,1.775338371472343e-06,2.3001015739197472e-06,9.917312861657065e-07,1.147042356471946e-06
9,1.2417264848911077e-06,1.2360047924626195e-06,1.4481862489126285e-06,5.337935888916488e-07,1.8532077932567673e-06,1.3282816608857024e-06,1.0582238322376547e-06,1.0018649735065153e-06,3.871978597311456e-06,3.507634829065082e-05,8.511104867007209e-07,9.78796682162425e-07,1.8876434658143283e-06,2.474457839990933e-06,1.0471141344823818e-06,1.2461105590776936e-06
10,1.2894586759549223e-06,1.2917471600870318e-06,1.517630452895096e-06,5.607182514162545e-07,2.017491657152177e-06,1.4210971106603161e-06,1.1420578726120494e-06,1.108543542203836e-06,4.095600927461467e-06,3.727223747915931e-05,9.150951738880912e-07,1.0451373126650053e-06,1.9739677354751516e-06,2.650828552410306e-06,1.0963891002527333e-06,1.3375744065876113e-06
11,1.3278501079632835e-06,1.3378912659088707e-06,1.5813650086829514e-06,5.843287782509996e-07,2.1805892005534015e-06,1.5105408198454186e-06,1.2210064428065112e-06,1.2167293524151932e-06,4.275987151837768e-06,3.913297724473268e-05,9.712736194563109e-07,1.1087355748706715e-06,2.0371935235196967e-06,2.8311467494667363e-06,1.1400924804663972e-06,1.4210399175247495e-06
12,1.357985533299638e-06,1.375692661147099e-06,1.6388299344446652e-06,6.049192351791022e-07,2.3419647431114775e-06,1.5964639172435094e-06,1.2946924324933342e-06,1.3269282389072918e-06,4.41552894637957e-06,4.065250325677729e-05,1.0196156107404756e-06,1.1699682233478947e-06,2.080549101629338e-06,3.017221331058409e-06,1.178799332814047e-06,1.4962858185676186e-06
13,1.3808819375301613e-06,1.4064058839810863e-06,1.6895785802769945e-06,6.228741796105443e-07,2.500623200424371e-06,1.6786869861835623e-06,1.3629046657224492e-06,1.4395510397321565e-06,4.516879931050283e-06,4.183248874576169e-05,1.060253807787839e-06,1.228987512823402e-06,2.107267078491124e-06,3.2108918457308624e-06,1.2131676258441245e-06,1.5634002163414899e-06
14,1.3974931601169383e-06,1.4311333842444803e-06,1.7333919947971975e-06,6.385990319714114e-07,2.655133261014577e-06,1.7569031431492395e-06,1.4255569354521628e-06,1.554900836541772e-06,4.582796321394839e-06,4.268599909260189e-05,1.0934771246227965e-06,1.2857562878443129e-06,2.12030225576169e-06,3.4141260273358843e-06,1.2439267623883652e-06,1.6228290824766549e-06
15,1.4086570687968592e-06,1.4508447822167743e-06,1.7703791466685186e-06,6.524541057091356e-07,2.803652237729087e-06,1.8306739803674412e-06,1.4825839606335627e-06,1.6731450722388865e-06,4.61649025763274e-06,4.323874553166677e-05,1.1197555670541236e-06,1.3401360966924585e-06,2.122175493893938e-06,3.6290101590734674e-06,1.2717598470679648e-06,1.6752978817276076e-06
16,1.4150496151962e-06,1.4664658598549254e-06,1.8010144711569714e-06,6.647368924106394e-07,2.944035988571241e-06,1.8994330640674376e-06,1.533925980067845e-06,1.7942094735089828e-06,4.621958436038666e-06,4.352544921135916e-05,1.1397142600084376e-06,1.391962286905304e-06,2.1149743481090875e-06,3.857716452971485e-06,1.2971922608939725e-06,1.7216711648080584e-06
17,1.417190027204844e-06,1.4789158298040647e-06,1.8260134768194662e-06,6.756808177580386e-07,3.074130885337608e-06,1.9625121834847253e-06,1.5795417648199043e-06,1.9176629464950458e-06,4.603714972448381e-06,4.3582613071461114e-05,1.154031521039361e-06,1.4410561785584066e-06,2.1004825315373898e-06,4.102511006375293e-06,1.3205527497525207e-06,1.7628208062031437e-06
18,1.415518932579631e-06,1.489025237633255e-06,1.846070852263351e-06,6.854714442416029e-07,3.192070354703909e-06,2.0192890378426917e-06,1.6193427266489637e-06,2.042658422036549e-06,4.566206641766553e-06,4.3442362741452844e-05,1.1633327870337674e-06,1.487237095310521e-06,2.0803125552295897e-06,4.365772934072687e-06,1.3419639667786483e-06,1.7995135207148954e-06
19,1.4104774133139839e-06,1.4974101581639242e-06,1.8616710085873574e-06,6.942990888205419e-07,3.2962921856607065e-06,2.069339714849851e-06,1.653124804476708e-06,2.167921859790845e-06,4.513460412792507e-06,4.313069741216267e-05,1.168155710588248e-06,1.5304020376386985e-06,2.055891385393628e-06,4.6499468120540595e-06,1.3613270085455901e-06,1.8323094917340009e-06
20,1.4024852605318548e-06,1.5044597635426377e-06,1.8731437404374571e-06,7.023934095856682e-07,3.3852581028037833e-06,2.1124133191389897e-06,1.680628997453796e-06,2.291784620350961e-06,4.448901629384385e-06,4.266899604521015e-05,1.1689729411689748e-06,1.5706025647799113e-06,2.0283825792906745e-06,4.957429171207918e-06,1.3783293460659794e-06,1.861508026832161e-06
21,1.3918500157838826e-06,1.5104617588637656e-06,1.8808779042464162e-06,7.099990878738317e-07,3.4571940745046605e-06,2.1483096610075996e-06,1.7017333830485204e-06,2.41226795330716e-06,4.375220532320764e-06,4.207562024636503e-05,1.1662028395755032e-06,1.608017082762216e-06,1.9988074123834315e-06,5.290442363638596e-06,1.3925388003837264e-06,1.8871460973036991e-06
22,1.3787037059505368e-06,1.5157167746386764e-06,1.8854461265576677e-06,7.17345530066976e-07,3.5102208193445888e-06,2.1768572868508634e-06,1.7166182064576718e-06,2.5272229497851668e-06,4.2945065000703685e-06,4.136582221655892e-05,1.1602259860549256e-06,1.642828466333226e-06,1.9683131164800597e-06,5.65085748436286e-06,1.4035961497107647e-06,1.9090168062006304e-06
23,1.3629924607226003e-06,1.5205342668861977e-06,1.8875214713194087e-06,7.246478424471245e-07,3.5428624877352767e-06,2.197999536644564e-06,1.7257230255684407e-06,2.6345542101565997e-06,4.2086639095873634e-06,4.0550689571403216e-05,1.151479795137281e-06,1.6750990602709826e-06,1.9382225189532785e-06,6.039911364607952e-06,1.4113903393098844e-06,1.9267813402321505e-06
24,1.3444968690777684e-06,1.5251817014517824e-06,1.8877246444680789e-06,7.321171822799978e-07,3.5545049295708807e-06,2.211844084646945e-06,1.7295452985679804e-06,2.732534228017731e-06,4.119773966448401e-06,3.963760252956979e-05,1.1405520169855696e-06,1.7047371711595791e-06,1.9098201371373e-06,6.4579263110418755e-06,1.4160821554349212e-06,1.9402415580699817e-06
25,1.3229035765905568e-06,1.529886802458979e-06,1.8866088845397617e-06,7.39969018799794e-07,3.5454597288996733e-06,2.2186153815877414e-06,1.728544215746684e-06,2.8200897895004783e-06,4.030085915509529e-06,3.863347995713172e-05,1.128126990903262e-06,1.7315557579299045e-06,1.884169607320866e-06,6.904196397069766e-06,1.4180122092125734e-06,1.9495836044041946e-06
26,1.2980094998214322e-06,1.534844186859628e-06,1.884761047724349e-06,7.484143249846269e-07,3.5167422888780363e-06,2.2185867272545093e-06,1.7232560732620145e-06,2.896879460873408e-06,3.941646721383637e-06,3.75489408814872e-05,1.1148361373428006e-06,1.7553518092579014e-06,1.8620624648561457e-06,7.377039346201022e-06,1.4176082693423362e-06,1.9553368389702997e-06
27,1.2700247764683571e-06,1.5401506810200158e-06,1.8828127288330815e-06,7.576215917547839e-07,3.4698805314965763e-06,2.212049107251601e-06,1.714434211737572e-06,2.9631277152534758e-06,3.855907189524306e-06,3.6400281048381627e-05,1.101182400137242e-06,1.776008316927772e-06,1.844006475572638e-06,7.873858478161975e-06,1.4153063457102253e-06,1.9581202864806993e-06
28,1.2397164183981603e-06,1.5457506395538527e-06,1.8812942734851408e-06,7.676798710655299e-07,3.4068269644313127e-06,2.1992560896036254e-06,1.7030294828706726e-06,3.0193728989427163e-06,3.7735760256712384e-06,3.520824167322298e-05,1.0875653368233042e-06,1.7936444941252371e-06,1.8302283573847822e-06,8.391050354118656e-06,1.411497594325545e-06,1.9584801591317328e-06
29,1.2082325539405885e-06,1.5514718389049897e-06,1.880466790220184e-06,7.785862270312825e-07,3.3297864480987817e-06,2.180315126736715e-06,1.6900292674099355e-06,3.0662730600184893e-06,3.6946530613136168e-06,3.3995269637009236e-05,1.074309389566446e-06,1.8087471204077955e-06,1.820705716481115e-06,8.92382276802075e-06,1.4065752863546742e-06,1.9569309793360575e-06
30,1.1767787438625074e-06,1.5570520663953006e-06,1.8802523781623695e-06,7.902695512863388e-07,3.2409381927835104e-06,2.155192481742749e-06,1.6762967766051867e-06,3.104446995386583e-06,3.618504782481416e-06,3.2783372798987794e-05,1.0616442099557593e-06,1.8221738812109547e-06,1.8152135193136635e-06,9.466332210417523e-06,1.401049539054488e-06,1.954028997352856e-06
31,1.1463874136196304e-06,1.5620757302063579e-06,1.880296144482346e-06,8.026391766254841e-07,3.1423521830458254e-06,2.1239427526350555e-06,1.6625307251449038e-06,3.1342624984193532e-06,3.544045429926752e-06,3.1593107138652036e-05,1.0496653942006652e-06,1.83497551316751e-06,1.813360464592049e-06,1.0012415119505041e-05,1.3955755207089953e-06,1.9502935225338067e-06
32,1.1178503092952848e-06,1.5659296924255964e-06,1.8801592203920122e-06,8.15602868965708e-07,3.0362351049265953e-06,2.0869552454473853e-06,1.6493164265958323e-06,3.1555931620214108e-06,3.470041566078619e-06,3.0443095876363563e-05,1.0383246760229574e-06,1.8481454387808145e-06,1.8145915856291998e-06,1.0556559076804629e-05,1.3908169288025064e-06,1.946024643355541e-06
33,1.091781072142972e-06,1.5678938650559962e-06,1.8795398213559305e-06,8.290912122235845e-07,2.9252035321844207e-06,2.044996040856182e-06,1.6371465477848778e-06,3.1676828010618605e-06,3.395368551221158e-06,2.934964223242715e-05,1.0274596099196961e-06,1.8625147281134927e-06,1.8181517252410992e-06,1.1094464389126985e-05,1.3872503986811148e-06,1.9412302029426835e-06
34,1.068732556648542e-06,1.5673086146287768e-06,1.8783258176681487e-06,8.431525265202292e-07,2.81226059850466e-06,1.9990823146086436e-06,1.6263867835843725e-06,3.1692523789930146e-06,3.319134291289503e-06,2.8326404785549998e-05,1.0168567859022845e-06,1.878844650866385e-06,1.8230933745921462e-06,1.1622839146366004e-05,1.3850620349210062e-06,1.935756129448985e-06
35,1.0492514586660912e-06,1.563662124648488e-06,1.8764330598380098e-06,8.580008142293721e-07,2.7004826288752056e-06,1.950316080229869e-06,1.617228624050968e-06,3.1588892045418713e-06,3.2406526759890674e-06,2.7384033539087124e-05,1.0063474002717356e-06,1.8979392682618702e-06,1.8284374806876113e-06,1.2138592727563589e-05,1.3841522417955432e-06,1.9295076310767214e-06
36,1.0338527348128488e-06,1.5565753897836637e-06,1.8736490961732756e-06,8.739099715334505e-07,2.592675513553947e-06,1.8997601258560635e-06,1.6096419217422066e-06,3.135587405047343e-06,3.1592857485742514e-06,2.6529512775224347e-05,9.958787028562373e-07,1.9206229155823873e-06,1.8333957781954378e-06,1.2638044542303585e-05,1.38420544692981e-06,1.9225965293324105e-06
37,1.0230049903862278e-06,1.5458877825050485e-06,1.8696688926626134e-06,8.910639864061854e-07,2.4912051191120256e-06,1.848393650900458e-06,1.603401217153675e-06,3.0991295539134306e-06,3.0744727241981313e-06,2.5765478587309917e-05,9.855216101334263e-07,1.947611725492336e-06,1.8374079717078805e-06,1.3116739895670198e-05,1.3848366662532966e-06,1.915316395282631e-06
38,1.017124636932354e-06,1.5318804989650673e-06,1.8642399504468782e-06,9.094949344688416e-07,2.397976729777845e-06,1.7971000736315862e-06,1.5982771774793716e-06,3.0500826422467595e-06,2.986096654256165e-06,2.5090636324342294e-05,9.754520895262622e-07,1.9794077244873177e-06,1.8399422298636165e-06,1.3569888225991298e-05,1.385778530517988e-06,1.907966808604683e-06
39,1.0165209077199465e-06,1.5153179265590476e-06,1.8572617419016359e-06,9.290895014282718e-07,2.31445826547582e-06,1.74663222494782e-06,1.5942871172673796e-06,2.989546149521e-06,2.8947063792303446e-06,2.4501754499183818e-05,9.659105510803303e-07,2.016267730391617e-06,1.8403119748577227e-06,1.3992802680161546e-05,1.3869700212249485e-06,1.9006944039657552e-06
40,1.0213485592549831e-06,1.4971991204803857e-06,1.8487633959409031e-06,9.495947629865314e-07,2.241676300054059e-06,1.6976264649552204e-06,1.5917514991109237e-06,2.918986122145805e-06,2.8012561900941383e-06,2.3995888914277757e-05,9.57135964567438e-07,2.05818641379419e-06,1.8377397487498823e-06,1.438068068959132e-05,1.3884685291792879e-06,1.8934759682584903e-06
41,1.0316507956060867e-06,1.4784940062834343e-06,1.838753004351053e-06,9.706310602082796e-07,2.180181742204953e-06,1.6506791737900578e-06,1.5910806876320679e-06,2.8402603716709433e-06,2.706687255584944e-06,2.357132720294184e-05,9.493289562158783e-07,2.104873844526212e-06,1.831588895966078e-06,1.4728103380062825e-05,1.3902828954726793e-06,1.8861657164927455e-06
42,1.047435250276334e-06,1.460006273903412e-06,1.8270742794683997e-06,9.917350554061773e-07,2.130047615396427e-06,1.6063405299934326e-06,1.5925022343658226e-06,2.755607208609519e-06,2.611735786067921e-06,2.322717574847638e-05,9.426492001806054e-07,2.155760768049397e-06,1.8215022241717758e-06,1.5029485466783945e-05,1.3922732258361055e-06,1.8785374831803115e-06
43,1.0686715796586521e-06,1.4423104560602225e-06,1.813436127298479e-06,1.012397084880038e-06,2.090907458175786e-06,1.5650195666667986e-06,1.5959250860655262e-06,2.667402414063911e-06,2.5169787075652566e-06,2.296224174247797e-05,9.371948994143293e-07,2.2099996365313298e-06,1.807323505976392e-06,1.528058911937172e-05,1.3941283012379582e-06,1.8703444971246899e-06
44,1.0952286087320587e-06,1.4257756873114542e-06,1.7975960227668064e-06,1.0320893635413359e-06,2.0620073423483284e-06,1.5269422465709064e-06,1.6009318517192926e-06,2.5778359556909068e-06,2.4229347313060152e-06,2.2773573160065013e-05,9.32960385086865e-07,2.266480563182308e-06,1.7889455572970334e-06,1.5479742942801604e-05,1.3953587335309399e-06,1.8613270721685132e-06
45,1.126834558194601e-06,1.4106833303576963e-06,1.7795616317986218e-06,1.0503181303869615e-06,2.042263523274023e-06,1.4922261411968743e-06,1.6068398874421084e-06,2.4887370848804393e-06,2.3301064857249137e-06,2.2654874424099355e-05,9.298203788361236e-07,2.3239602903015406e-06,1.7663015017971954e-06,1.5627854769932506e-05,1.3953407686581504e-06,1.851094003253646e-06
46,1.1630708485800472e-06,1.3973262610356296e-06,1.759690247207659e-06,1.066663350844865e-06,2.0302785571243354e-06,1.4609963242219975e-06,1.6128012033750025e-06,2.401514422656069e-06,2.2389507957064945e-06,2.259530574392264e-05,9.275764897752448e-07,2.3812607372411945e-06,1.739504453885839e-06,1.5727514064555023e-05,1.3934564027192037e-06,1.839007876984477e-06
47,1.2033709103584111e-06,1.3860203746249891e-06,1.7386013756692752e-06,1.080798245394147e-06,2.024311373477952e-06,1.433396429869825e-06,1.617900450973603e-06,2.317132988102115e-06,2.149799374760997e-06,2.2579063633550257e-05,9.260369131262182e-07,2.4373810807507432e-06,1.7089372241415282e-06,1.578189974958363e-05,1.3892441176144748e-06,1.8242750215221375e-06
48,1.2470061328906148e-06,1.377116949464553e-06,1.7169444003288588e-06,1.0925478279816935e-06,2.0223186470224244e-06,1.4095356970974279e-06,1.6212077113815519e-06,2.236190397820527e-06,2.062839991866561e-06,2.258586804266384e-05,9.25056808895858e-07,2.4914363796290794e-06,1.675154627942723e-06,1.579403462872246e-05,1.382467778116892e-06,1.806214056197237e-06
49,1.2930856623077627e-06,1.371037502540829e-06,1.6951946374518133e-06,1.101914883057165e-06,2.0221558778478044e-06,1.3894996041208498e-06,1.6217646218584787e-06,2.159090379854179e-06,1.978289490192563e-06,2.259262407576267e-05,9.245191534493671e-07,2.542481286813236e-06,1.6386887651314196e-06,1.5766581462712687e-05,1.3731346056997209e-06,1.7844451648420964e-06
50,1.3406147417403709e-06,1.3682194010626847e-06,1.6735823560656795e-06,1.108974987112322e-06,2.0218724817456093e-06,1.3733340621851112e-06,1.6185883486406145e-06,2.086179513773846e-06,1.8966698318020057e-06,2.257621106476557e-05,9.24331739842986e-07,2.589448201163955e-06,1.599969252814204e-06,1.570207589099315e-05,1.3615094655267367e-06,1.7588287446402829e-06
51,1.38858254465329e-06,1.3689953528408748e-06,1.6521347904929328e-06,1.1137660445328501e-06,2.0199682584878783e-06,1.3609541597016122e-06,1.610829478761265e-06,2.0177471380591605e-06,1.8189495442425324e-06,2.251646705018744e-05,9.245004797053552e-07,2.631403866267317e-06,1.5594229635727082e-06,1.560326108822104e-05,1.3480743453333757e-06,1.7293056051224037e-06
52,1.436021124893768e-06,1.3735218056357805e-06,1.6307764164249964e-06,1.1163025803871875e-06,2.0154860445870377e-06,1.352139546758263e-06,1.5980227087031144e-06,1.953914699753918e-06,1.7464638978024353e-06,2.2398024223778987e-05,9.251869053857025e-07,2.6679989763978186e-06,1.5175767914415164e-06,1.54730023641673e-05,1.3333903572798661e-06,1.6959130885056302e-06
53,1.4820280127755808e-06,1.381746434534143e-06,1.6094142722745584e-06,1.1166202359605024e-06,2.0078399998032363e-06,1.3466941002379772e-06,1.580202109248821e-06,1.8945172663107925e-06,1.6807117608614784e-06,2.2210203471738453e-05,9.266228678720768e-07,2.6997156098288687e-06,1.4750440461436714e-06,1.5313446222730756e-05,1.3179344325448185e-06,1.658965433343581e-06
54,1.525779905725365e-06,1.3933829534679836e-06,1.5879760263311572e-06,1.114772117763002e-06,1.9964653558347015e-06,1.3446261798565633e-06,1.5577694633086199e-06,1.8390475070609332e-06,1.6231464270817623e-06,2.19452835558704e-05,9.289488283871358e-07,2.727656062135584e-06,1.4325073121705311e-06,1.5124853649284787e-05,1.3020108340597608e-06,1.6191300022604845e-06
55,1.5665399310873777e-06,1.4079088992771016e-06,1.566417860288999e-06,1.1108701293882776e-06,1.9806073416240075e-06,1.3461658229780057e-06,1.531249915485116e-06,1.7866828101014043e-06,1.5750259339117978e-06,2.159616269544748e-05,9.321280484949763e-07,2.7530193478618337e-06,1.3907406797765746e-06,1.4905201064020212e-05,1.2857925382645767e-06,1.5773002079765182e-06
56,1.6036025240823132e-06,1.4245815649828552e-06,1.5446910624650154e-06,1.105215380247117e-06,1.959493566494269e-06,1.3516410879353924e-06,1.5012186501822694e-06,1.7364873393489352e-06,1.537352816135515e-06,2.1155013065479776e-05,9.359491673655654e-07,2.7766321164876164e-06,1.350560620438935e-06,1.4651199879998255e-05,1.269460115381731e-06,1.5344137496951357e-06
57,1.6361755234220745e-06,1.4425233520981573e-06,1.5227110813776053e-06,1.0983720255406635e-06,1.9327648905007255e-06,1.3613705548763256e-06,1.4684730806018364e-06,1.6878446523804046e-06,1.5108919216128722e-06,2.061507832799833e-05,9.400760956456409e-07,2.798740530717511e-06,1.3127286108943416e-06,1.4360327845303639e-05,1.2533104714860304e-06,1.4913233061631469e-06
58,1.6633512974020714e-06,1.4609332968908465e-06,1.5004578009407996e-06,1.0910585776422515e-06,1.9007388213338313e-06,1.3755889603816463e-06,1.434139212688523e-06,1.6408548532555728e-06,1.4962156198274288e-06,1.9975639404365193e-05,9.441375213526962e-07,2.819032238451797e-06,1.2779268972818129e-06,1.4033066746150025e-05,1.2377540330534931e-06,1.4487302582777775e-06
59,1.6843023096605183e-06,1.4792687216401586e-06,1.4781917457770059e-06,1.0839658424120719e-06,1.8642437592970059e-06,1.3943713763077782e-06,1.3994898537028225e-06,1.5963471460437636e-06,1.493725021609545e-06,1.924621952489969e-05,9.477962429229199e-07,2.836825000471137e-06,1.2467828721617865e-06,1.3674472372598236e-05,1.2232216513220731e-06,1.4071774234656693e-06
60,1.69860136646991e-06,1.4971896468289214e-06,1.4565747435671274e-06,1.077666548472726e-06,1.8242883078544361e-06,1.417629658884973e-06,1.3656672304057172e-06,1.5555561921948088e-06,1.5036461901294062e-06,1.8446251101084826e-05,9.507557765528882e-07,2.851355829442072e-06,1.2198434517170305e-06,1.3294039633571575e-05,1.2100433899669915e-06,1.3670611680254588e-06
61,1.7063622061460503e-06,1.514377332892328e-06,1.4365591160471542e-06,1.0726060252109852e-06,1.7819566306224613e-06,1.445194544826152e-06,1.333544241574483e-06,1.5197826176637166e-06,1.5260414139711856e-06,1.7600932399873176e-05,9.527812552830388e-07,2.8620267193366227e-06,1.1975202430972521e-06,1.2903664515956069e-05,1.1983820142951635e-06,1.3286624432618335e-06
62,1.708052572805782e-06,1.5304746263084664e-06,1.4191364964798947e-06,1.0691047746720775e-06,1.7384529230596074e-06,1.4768641471730629e-06,1.3037278895856351e-06,1.4902173355897605e-06,1.5608409551883473e-06,1.673670135807656e-05,9.538008594809096e-07,2.8684944277378334e-06,1.1800764360280503e-06,1.2515197450452648e-05,1.1882714782673005e-06,1.2922471218362577e-06
63,1.704273842255426e-06,1.5451424716302322e-06,1.4051397972755936e-06,1.0673812966112256e-06,1.6949948110288046e-06,1.5123641538971366e-06,1.2766300370869092e-06,1.4678991230099828e-06,1.6078621933650717e-06,1.5878379731803442e-05,9.54005473793393e-07,2.8706021629993783e-06,1.1676522105693598e-06,1.2139265094768653e-05,1.179733698512606e-06,1.258189020981185e-06
64,1.6957809123984552e-06,1.5581136219690494e-06,1.395179677427502e-06,1.0676054014722496e-06,1.6525866474903084e-06,1.5513202554191578e-06,1.2525469789036957e-06,1.4537128827725407e-06,1.6667815990288111e-06,1.5047863503988394e-05,9.538221659014975e-07,2.868235087508396e-06,1.1602959092468227e-06,1.1785268526501414e-05,1.1728686133908119e-06,1.2270049181128467e-06
65,1.683522619488203e-06,1.5692403537373577e-06,1.3896502873448972e-06,1.0699453200750465e-06,1.611899388827733e-06,1.5932964939640477e-06,1.2317002723136702e-06,1.448382066808758e-06,1.73705064664353e-06,1.4263750311847474e-05,9.537795901480514e-07,2.861262200009331e-06,1.157964458904207e-06,1.146140271984686e-05,1.1678262248880074e-06,1.1992789879970222e-06
66,1.668479547629618e-06,1.5785440345406468e-06,1.3887772723860612e-06,1.0745863901253768e-06,1.5732941449031304e-06,1.6377924828407597e-06,1.2142233961482531e-06,1.4524608760931739e-06,1.8178357431687452e-06,1.3541556537694865e-05,9.543774253400256e-07,2.8496518139351625e-06,1.1604966153286395e-06,1.1174399868803988e-05,1.164726661902858e-06,1.1755370576248518e-06
67,1.651496041457231e-06,1.5862011385111107e-06,1.3927122726056701e-06,1.081733300081044e-06,1.5368881923274595e-06,1.6841340326233789e-06,1.20012380148732e-06,1.4663208517105986e-06,1.9081044329718597e-06,1.2894106922718449e-05,9.559988065312114e-07,2.833602001724862e-06,1.1676604102348164e-06,1.0929719242934194e-05,1.1636288624073295e-06,1.1561388865807297e-06
68,1.6333244974999442e-06,1.5924334017211117e-06,1.4015820890951728e-06,1.0916048886062007e-06,1.5026047521264435e-06,1.7313463636585258e-06,1.189310684091302e-06,1.4901321576142094e-06,2.0068211054848597e-06,1.2331773626375959e-05,9.58852673811588e-07,2.813484622222066e-06,1.1793122355676845e-06,1.0732398357288985e-05,1.1645245552075219e-06,1.1412307384428569e-06
69,1.6147772808948094e-06,1.5973760559333359e-06,1.4154530390918038e-06,1.1044097704593956e-06,1.470225488990534e-06,1.7781281193981108e-06,1.181726857353309e-06,1.5238891831580798e-06,2.1130403320146318e-06,1.1862536170347166e-05,9.62952407400751e-07,2.789643613084934e-06,1.1955159051352869e-06,1.0587601050114728e-05,1.1673129921353738e-06,1.1307512631438298e-06
70,1.5967660068383947e-06,1.6010102383099839e-06,1.434310882996043e-06,1.1202825949825718e-06,1.4395063397401018e-06,1.8229998906349293e-06,1.1774544869821938e-06,1.5674668231692006e-06,2.225815822965335e-06,1.149191247831106e-05,9.681349168173285e-07,2.76225894213436e-06,1.2164814607736462e-06,1.0500179486109385e-05,1.1717562587452934e-06,1.1244457777494987e-06
71,1.5801811529996024e-06,1.6031643267752835e-06,1.4580879871431075e-06,1.1392017134994932e-06,1.4103245104816465e-06,1.8646295343451182e-06,1.1766843549841425e-06,1.6206238167511098e-06,2.3440674984586948e-06,1.1222825402693526e-05,9.741231963627929e-07,2.7314324080007353e-06,1.2423894251757894e-06,1.047397889541958e-05,1.1774399579417856e-06,1.121863148426641e-06
72,1.5657318956389179e-06,1.6035270572916495e-06,1.4866513398073593e-06,1.1609523313294714e-06,1.382713480472828e-06,1.9021475769132154e-06,1.1796392668587997e-06,1.6830095487437207e-06,2.46650092402613e-06,1.1055508392976104e-05,9.806038952794836e-07,2.697466280682208e-06,1.2732598878488035e-06,1.051192661807044e-05,1.1837936120674659e-06,1.1223540499970375e-06
73,1.5538920614845424e-06,1.6016348383221177e-06,1.5197553837004798e-06,1.1851412771582603e-06,1.3567511776485624e-06,1.9351727913388723e-06,1.1865665467959075e-06,1.754255752690139e-06,2.5915980253781645e-06,1.098749135298551e-05,9.872803877793344e-07,2.6610971163286475e-06,1.3089511161842161e-06,1.0616799939818007e-05,1.1902144958780515e-06,1.1250969614801177e-06
74,1.5450215822823127e-06,1.5969158519794506e-06,1.5570366552885807e-06,1.211209024126155e-06,1.3324703505798821e-06,1.9635692272409733e-06,1.1977518562250872e-06,1.8340192849725387e-06,2.717741850945077e-06,1.1013632408041634e-05,9.939378835316174e-07,2.6234353207223636e-06,1.3492837559232843e-06,1.079168600140078e-05,1.1962395414426216e-06,1.1291961968004052e-06
75,1.539587209223541e-06,1.5888920218960466e-06,1.5980132846946e-06,1.2384589423255343e-06,1.3099426135093553e-06,1.9872582519652642e-06,1.213489154105359e-06,1.9218764574675844e-06,2.8434063548712853e-06,1.1126211407624464e-05,1.0005021198688959e-06,2.585633066177094e-06,1.3941835633580975e-06,1.1039586702249277e-05,1.2016034878162464e-06,1.1339132780038184e-06
76,1.538283138147299e-06,1.577429245802687e-06,1.642047160812871e-06,1.2661810945527236e-06,1.289432720028748e-06,2.0062146390189187e-06,1.2340630837113594e-06,2.0171984441347695e-06,2.967215212664614e-06,1.131509367249575e-05,1.0069823716048187e-06,2.548545358366466e-06,1.4436976444809156e-06,1.1362488997103342e-05,1.206114354584531e-06,1.1389388075033693e-06
77,1.5419200387198864e-06,1.5628192504549772e-06,1.688329995796824e-06,1.2938479717863776e-06,1.271402448697998e-06,2.020491181846096e-06,1.2597492954843893e-06,2.119130728873455e-06,3.087891661910909e-06,1.1567855571979435e-05,1.013341007685873e-06,2.512621555393238e-06,1.4978854867656745e-06,1.1760467134721307e-05,1.209512943138779e-06,1.1444590834445446e-06
78,1.5511940813091993e-06,1.545647183710629e-06,1.7359022816056039e-06,1.321225759056378e-06,1.2563657081523095e-06,2.0301905266404384e-06,1.2907417666649984e-06,2.2266724506229915e-06,3.2043291305737305e-06,1.1869996618231847e-05,1.0194337437164023e-06,2.478060984821523e-06,1.5567155218490003e-06,1.2231191547688743e-05,1.211514107330005e-06,1.150951754451112e-06
79,1.566532919662522e-06,1.5265838114057317e-06,1.7836735494623348e-06,1.3482870739441435e-06,1.2447815924485593e-06,2.0354434994968652e-06,1.3270272123168987e-06,2.3388297467037184e-06,3.315777476694522e-06,1.2205771196971088e-05,1.0250342806504986e-06,2.4450674088928613e-06,1.6200605739834037e-06,1.2769999298768379e-05,1.2120072355510967e-06,1.158901836479469e-06
80,1.5880733206293786e-06,1.5062506597483156e-06,1.8305003290383563e-06,1.3750411140674097e-06,1.2370371060380382e-06,2.0364192952801903e-06,1.3683121237525453e-06,2.454806438427194e-06,3.4218105325272836e-06,1.2559773463455755e-05,1.0298857433736018e-06,2.4140067218139324e-06,1.6877387089895655e-06,1.3370511894939901e-05,1.211208588373196e-06,1.1686258728851598e-06
81,1.6157345646257927e-06,1.4851751450109372e-06,1.87533902325108e-06,1.4014402008885255e-06,1.2334255086004578e-06,2.0333042418952157e-06,1.4140377771972459e-06,2.5741252376663015e-06,3.52198007762755e-06,1.2918486302647388e-05,1.0337712698018925e-06,2.3854320436288258e-06,1.7594960680716632e-06,1.4025640015809204e-05,1.2096117219348778e-06,1.180263003540551e-06
82,1.6493126725298507e-06,1.4637682738884404e-06,1.9173257439077887e-06,1.4273185203318664e-06,1.2340930699568187e-06,2.0261812422802206e-06,1.4634487775456472e-06,2.6965993578302776e-06,3.615584840754292e-06,1.3270980931321483e-05,1.0365764545615698e-06,2.3600855633803423e-06,1.8350213762065626e-06,1.4728601867892983e-05,1.2078140500641226e-06,1.1938524313467895e-06
83,1.6884905296416491e-06,1.4423439447082742e-06,1.9556586869298965e-06,1.452331499012917e-06,1.2389928541558613e-06,2.0148668144583105e-06,1.5156510424679504e-06,2.8222179031718275e-06,3.7018536007709435e-06,1.3608771469051315e-05,1.0382755743816461e-06,2.3389362279750005e-06,1.9140547385117184e-06,1.5473559314633077e-05,1.206390410319984e-06,1.209363898831802e-06
84,1.7327614268199813e-06,1.4211967530930144e-06,1.9893882055017927e-06,1.4760085589496182e-06,1.2478486558790825e-06,1.998877961787432e-06,1.569663712486817e-06,2.951004422543567e-06,3.7802818989008257e-06,1.3925178917697957e-05,1.0388702071889412e-06,2.3231734538994607e-06,1.996389298986065e-06,1.6255834554019322e-05,1.2058638144339708e-06,1.2267034380122596e-06
85,1.7813519809606583e-06,1.4006249005383349e-06,2.0173079164817695e-06,1.4979156722796615e-06,1.2601414690012578e-06,1.977623554738013e-06,1.6245455559934412e-06,3.082813296154764e-06,3.85076582301129e-06,1.4214250855559688e-05,1.0383788170638485e-06,2.3140639496692373e-06,2.081727104833861e-06,1.7071908105404316e-05,1.206712383335831e-06,1.2457665308603105e-06
86,1.8331857516569625e-06,1.380888826648174e-06,2.0380300658877997e-06,1.5177445119486078e-06,1.275195817348193e-06,1.9507166783662447e-06,1.67952237696593e-06,3.2171415883627115e-06,3.913421115670862e-06,1.4469514413632915e-05,1.0368592274631496e-06,2.3127238171569846e-06,2.1695871363405054e-06,1.7919229374570745e-05,1.209332642587929e-06,1.2664501835296926e-06
87,1.886924231583287e-06,1.362204082270205e-06,2.0502557508489585e-06,1.535218175313687e-06,1.2923967679548583e-06,1.918222825046684e-06,1.7339258851175648e-06,3.3530876634807166e-06,3.9681891337541175e-06,1.4683587694503166e-05,1.0343779189874038e-06,2.3199686240237588e-06,2.2593326922432985e-06,1.879567286900443e-05,1.2139646387744448e-06,1.2885837385184523e-06
88,1.9411208265603613e-06,1.344768650628707e-06,2.0531554508062746e-06,1.5499332390283465e-06,1.3113915935739906e-06,1.8807236723061467e-06,1.7870006164602647e-06,3.4893959993486773e-06,4.014531520340582e-06,1.4849036538223633e-05,1.0309641025838875e-06,2.3362947196752246e-06,2.350307924653075e-06,1.969852502285669e-05,1.2206367857188306e-06,1.3118795790339114e-06
89,1.994368500615385e-06,1.3288349121400517e-06,2.0466357380303186e-06,1.5613660238947417e-06,1.3320899417528935e-06,1.8391624783133289e-06,1.8378458278765716e-06,3.624501668491018e-06,4.051458006291349e-06,1.4959435596474823e-05,1.0266165162453927e-06,2.3618800330121245e-06,2.4420455377728206e-06,2.062319542738842e-05,1.2291492623716355e-06,1.335923810193124e-06
90,2.0452938618180477e-06,1.3148246910332617e-06,2.0313268772284134e-06,1.5691184974258848e-06,1.3545073269395563e-06,1.794567376133121e-06,1.8856186474766923e-06,3.7566098594962267e-06,4.077788486807238e-06,1.5009866536739012e-05,1.021313432750961e-06,2.3965190259950445e-06,2.534373973861307e-06,2.15621792189897e-05,1.2391316048662032e-06,1.3601756386960722e-06
91,2.092559478816106e-06,1.3033720359995016e-06,2.0083352886880593e-06,1.5732001140094993e-06,1.378656512615483e-06,1.7478368544205454e-06,1.929896110831944e-06,3.883820929103622e-06,4.092434400186021e-06,1.4997134497197407e-05,1.0150155244802723e-06,2.4395251365103787e-06,2.6272895024207772e-06,2.250478275792188e-05,1.250169459278481e-06,1.384005824116494e-06
92,2.1350672617242215e-06,1.295228037760152e-06,1.97891366051667e-06,1.574057147767087e-06,1.404524880801292e-06,1.6996561156829325e-06,1.9709515131672022e-06,4.004282486467505e-06,4.094686571875825e-06,1.4919946279641473e-05,1.0076995451714493e-06,2.489674397195187e-06,2.7206799797058596e-06,2.3437838502793023e-05,1.261865408748674e-06,1.406755802125855e-06
93,2.172141978254983e-06,1.2911046809534504e-06,1.944175878224299e-06,1.5723301920232796e-06,1.4320134228409292e-06,1.6505098201259832e-06,2.0097183362366814e-06,4.116388322366689e-06,4.0845233767865215e-06,1.4778832526109508e-05,9.993801046458952e-07,2.545256754717815e-06,2.8141116916750116e-06,2.4347314420187737e-05,1.2737607669866627e-06,1.4277367350810315e-06
94,2.2034628331570652e-06,1.2915809347933962e-06,1.9049182064689119e-06,1.5685975220584544e-06,1.4608376186258495e-06,1.6007392081581918e-06,2.0474587319699635e-06,4.218983790330609e-06,4.062688940447759e-06,1.4575499891486951e-05,9.901276207594829e-07,2.604254670173811e-06,2.9068709805287356e-06,2.5220240301500092e-05,1.2852323810496105e-06,1.4461888500842942e-06
95,2.2288763320689443e-06,1.2970924854614623e-06,1.8615658962721151e-06,1.563257280982221e-06,1.4905247780317382e-06,1.5505629595961153e-06,2.085369086997367e-06,4.311447246259925e-06,4.030346775553288e-06,1.4311744638066886e-05,9.801050227132373e-07,2.66455288129732e-06,2.9982247229577766e-06,2.6045785420549703e-05,1.295464241132836e-06,1.461308457150465e-06
96,2.2482663347274965e-06,1.3079136413807962e-06,1.81424106135506e-06,1.5565103761304043e-06,1.5205037324290451e-06,1.5001071519503458e-06,2.1243105370536046e-06,4.393615386246997e-06,3.988690450652346e-06,1.3989175209287716e-05,9.695544591292603e-07,2.7240582824879723e-06,3.0875609993220953e-06,2.6814367066246696e-05,1.3034884091080965e-06,1.4723467729845328e-06
97,2.261488444627848e-06,1.3241000804541495e-06,1.7629062018661975e-06,1.5484334154479007e-06,1.5501355740617295e-06,1.4495600652890408e-06,2.1647011208743748e-06,4.465718937968462e-06,3.93899447547194e-06,1.3610996865820839e-05,9.58753973369455e-07,2.780769637274089e-06,3.1742866467432637e-06,2.7515397403964886e-05,1.3083188263016049e-06,1.4786822499273749e-06
98,2.268312036547473e-06,1.3454520332690954e-06,1.707527058908731e-06,1.5390813378939223e-06,1.5786933387337525e-06,1.3993764466795652e-06,2.206520441502462e-06,4.5284694375599836e-06,3.88286909178963e-06,1.3184346264796243e-05,9.48001032322034e-07,2.832953794628111e-06,3.2577475489416794e-06,2.8136353449129153e-05,1.3091800685086789e-06,1.4798415407805823e-06
99,2.2683465019685987e-06,1.3715213170550163e-06,1.6482387732256473e-06,1.5284892670705e-06,1.6054545799422803e-06,1.3503594087285444e-06,2.2493490909539685e-06,4.58316273294655e-06,3.822212384701229e-06,1.2720255799931072e-05,9.37578551011878e-07,2.879443226900114e-06,3.33725309419785e-06,2.8664555051684324e-05,1.3056881826931806e-06,1.4755473933552214e-06
100,2.2610588748355272e-06,1.4016356337935776e-06,1.5854795405937796e-06,1.5166517722821147e-06,1.6299222778082592e-06,1.303559788916049e-06,2.2924297559964804e-06,4.63152997230924e-06,3.7589473684255316e-06,1.2231732038715797e-05,9.277020777057058e-07,2.9198317254654613e-06,3.4120638848115666e-06,2.9089812213532808e-05,1.2978236812198552e-06,1.4658253167612844e-06
101,2.2460237542610803e-06,1.4349377667132898e-06,1.5200110700766819e-06,1.5036137157306436e-06,1.6520109778976958e-06,1.2600647231471746e-06,2.33483850721001e-06,4.675311890349541e-06,3.694963687551951e-06,1.1732527876295048e-05,9.184894163831746e-07,2.954352399725766e-06,3.481344804608444e-06,2.940617162460154e-05,1.2857326242501587e-06,1.4510637997989857e-06
102,2.2232772426232263e-06,1.470479918901773e-06,1.4528177673569e-06,1.4895599551359191e-06,1.6720259586243444e-06,1.2208087416489836e-06,2.375767911644708e-06,4.715836171806809e-06,3.6323139483462935e-06,1.1236575307678626e-05,9.099388686905067e-07,2.9834900318343938e-06,3.5440976667352164e-06,2.9613031913691974e-05,1.269593586707054e-06,1.431916115801863e-06
103,2.1934676193302533e-06,1.5073369698494018e-06,1.384959668633976e-06,1.4748208378471159e-06,1.6904166260529539e-06,1.1864883391125727e-06,2.4147324274239492e-06,4.753788029988675e-06,3.573355571063164e-06,1.0756919271292358e-05,9.019062724617353e-07,3.0075886569941123e-06,3.599029243671405e-06,2.97158705219827e-05,1.24967682379868e-06,1.40908459788607e-06
104,2.157727992438378e-06,1.544596436755639e-06,1.3174346162671454e-06,1.4598989783244019e-06,1.7075065488304065e-06,1.1575652044996983e-06,2.4515309903812526e-06,4.789108028080138e-06,3.5206500634056863e-06,1.0304642477649749e-05,8.941107381757271e-07,3.026634447782178e-06,3.6445229717225792e-06,2.9725677663867405e-05,1.2264210341759038e-06,1.3831349858851148e-06
105,2.1174399679072694e-06,1.5812262524821722e-06,1.2510964724082687e-06,1.445511771986442e-06,1.7233908102548936e-06,1.1342978986372734e-06,2.486025362038058e-06,4.8210519823323325e-06,3.4767133871628413e-06,9.88845657735721e-06,8.862098368605628e-07,3.040186068891664e-06,3.678899540993108e-06,2.9656269469579343e-05,1.2003643498247013e-06,1.3544796981356915e-06
106,2.07400256167124e-06,1.616035554332784e-06,1.1866457378952778e-06,1.4325199091238925e-06,1.73801437174819e-06,1.1167512691044688e-06,2.5179594496282723e-06,4.848534902314807e-06,3.443748866133379e-06,9.514725859925663e-06,8.779233432189829e-07,3.047432099946999e-06,3.7008163406684015e-06,2.9520459709605285e-05,1.1720061103407017e-06,1.3235452585761577e-06
107,2.0286230618797382e-06,1.647841771541304e-06,1.1246177861236856e-06,1.4217513949816616e-06,1.75133774848967e-06,1.1047909649534116e-06,2.5469984337707285e-06,4.8705488452899794e-06,3.423430559235938e-06,9.187650911143563e-06,8.691027096798612e-07,3.0474241264122483e-06,3.709601729199685e-06,2.93280625226586e-05,1.1417521779554105e-06,1.2909269533746637e-06
108,1.9821950414322883e-06,1.6756735414304214e-06,1.0653378339114876e-06,1.4138467275161507e-06,1.7634114603615748e-06,1.098123350328492e-06,2.572929786095445e-06,4.886308715485939e-06,3.416879491276482e-06,8.909562967043002e-06,8.596981202739147e-07,3.0393849958242985e-06,3.7054518303336343e-06,2.9087282492850436e-05,1.1099946397127713e-06,1.2573304674301126e-06
109,1.9353089141536122e-06,1.6987772732623672e-06,1.0089208445580067e-06,1.409174365402346e-06,1.774260174026846e-06,1.0964199310336937e-06,2.5957609283432312e-06,4.895103416414351e-06,3.424923582469104e-06,8.681224654943657e-06,8.497026625479137e-07,3.0229070052512996e-06,3.689356213660333e-06,2.8807000213708354e-05,1.077217540790261e-06,1.2233760487300778e-06
110,1.8883210607710068e-06,1.7164484720184019e-06,9.553437558146848e-07,1.4077915696439592e-06,1.7837189430237766e-06,1.0994692100005471e-06,2.6155468249406456e-06,4.896079015329261e-06,3.4483795565995247e-06,8.502109718724326e-06,8.391508723096965e-07,2.9979922547052367e-06,3.662707404146141e-06,2.8496720422968632e-05,1.0439848745795595e-06,1.1894759907565704e-06
111,1.841442313400996e-06,1.7279507355036696e-06,9.04538208414609e-07,1.4094363701049673e-06,1.7914305435621343e-06,1.1072202915815379e-06,2.6321084524525256e-06,4.888132983179172e-06,3.4880108723497682e-06,8.370707493041153e-06,8.281329483418784e-07,2.965026021506303e-06,3.626879091943838e-06,2.816445067168795e-05,1.0108432778448138e-06,1.1558633391604237e-06
112,1.7948758836507522e-06,1.7326468889898787e-06,8.564814350815563e-07,1.4135628162437258e-06,1.79701112138016e-06,1.1196722614376163e-06,2.64491190161616e-06,4.86995906118415e-06,3.5442815717771365e-06,8.284811483267768e-06,8.167778241590567e-07,2.9247720383860322e-06,3.583087161973385e-06,2.781544301365105e-05,9.78292182781833e-07,1.1227195212286953e-06
113,1.7489289702966548e-06,1.7301761860277513e-06,8.112712915889312e-07,1.4194487707656225e-06,1.8001568902059438e-06,1.1367399155801916e-06,2.6531784388300324e-06,4.840226858321478e-06,3.6172115250216748e-06,8.241773657735316e-06,8.052494819582651e-07,2.8783549942664264e-06,3.5324809355344876e-06,2.7453127796402597e-05,9.468409246086027e-07,1.0902968422818286e-06
114,1.7039914388923926e-06,1.72054083043718e-06,7.691280451589979e-07,1.426381316242949e-06,1.8005515189080035e-06,1.1582066614979657e-06,2.6560425244384494e-06,4.797870387448888e-06,3.7062945546529564e-06,8.23873546100514e-06,7.937663150123828e-07,2.8271845654619464e-06,3.4762503008115577e-06,2.7080573934411113e-05,9.170260150876306e-07,1.0589353907869302e-06
115,1.6604574895922747e-06,1.7041269718084601e-06,7.303149049560019e-07,1.4338631395358254e-06,1.7977641693279967e-06,1.1837401578407751e-06,2.6525506620067883e-06,4.74239505413165e-06,3.8104006674170853e-06,8.272752706116835e-06,7.825840840336054e-07,2.772911047429852e-06,3.415689974753773e-06,2.670101164263854e-05,8.893353864041615e-07,1.028979229449245e-06
116,1.6187337865061617e-06,1.6816653355011397e-06,6.950666636602991e-07,1.4417282048294565e-06,1.791355144530005e-06,1.212919975388609e-06,2.641675699565402e-06,4.674056616000495e-06,3.927781604108061e-06,8.340686362220588e-06,7.719542659991984e-07,2.7174632018298035e-06,3.352233639062423e-06,2.631769311327297e-05,8.641159872900118e-07,1.0007060474066402e-06
117,1.5793017244229832e-06,1.6541209668265134e-06,6.635712282622398e-07,1.450064701691199e-06,1.7810920256349354e-06,1.2452599390933712e-06,2.622648219671612e-06,4.593827616839076e-06,4.056213220243996e-06,8.438862608297335e-06,7.621156890716754e-07,2.663039668531192e-06,3.2874400960693875e-06,2.593321908124841e-05,8.415410516393735e-07,9.743437066835247e-07
118,1.5426915874349427e-06,1.62257882880088e-06,6.359511358295746e-07,1.4589840473051838e-06,1.7670275843947367e-06,1.280286818881017e-06,2.595397203345685e-06,4.503210918266964e-06,4.193207784470168e-06,8.562725286364821e-06,7.53298982009179e-07,2.611933494467441e-06,3.2228912520362442e-06,2.554830021287578e-05,8.216364957262968e-07,9.501160151487573e-07
119,1.5093505524463378e-06,1.5881601637133677e-06,6.122251418366746e-07,1.468441065556581e-06,1.7493560007074258e-06,1.317697666095931e-06,2.5606577490988316e-06,4.4040506791011495e-06,4.336222920675257e-06,8.706667751868837e-06,7.457056174435855e-07,2.5662592132864073e-06,3.1599707712376874e-06,2.5161548556451716e-05,8.043172556851865e-07,9.282493659571868e-07
120,1.4795493351343967e-06,1.551928030574911e-06,5.922949774515892e-07,1.4782462402898563e-06,1.7282209430017166e-06,1.3574198118918123e-06,2.5196971309169802e-06,4.2984283763274365e-06,4.482710350228799e-06,8.864038773953024e-06,7.39499623768861e-07,2.527770187550659e-06,3.0996059283073394e-06,2.477141151774866e-05,7.894202440690424e-07,9.089633067520066e-07
121,1.4534172334721053e-06,1.5148299542487983e-06,5.759811274358366e-07,1.4881554133939901e-06,1.7037346780403945e-06,1.3994723065221656e-06,2.4739707456887217e-06,4.188562461983796e-06,4.6299312245650134e-06,9.027673649814073e-06,7.348294607175114e-07,2.4978227460506265e-06,3.042146403511753e-06,2.437823157260038e-05,7.767563817219073e-07,8.924642445089664e-07
122,1.4309992126374065e-06,1.4777606127014999e-06,5.63070583764648e-07,1.4978908510954522e-06,1.6762320781764438e-06,1.4437930032560718e-06,2.424981536534351e-06,4.0765740061215035e-06,4.7748420803301495e-06,9.191510160493047e-06,7.318267759276524e-07,2.477372642592244e-06,2.987447223391619e-06,2.3984411722074703e-05,7.661515927129503e-07,8.789203135277271e-07
123,1.4122247047971853e-06,1.4416460378024122e-06,5.533330897789791e-07,1.5071778451881664e-06,1.6464734975185306e-06,1.490195142957378e-06,2.374322041336178e-06,3.964181739572994e-06,4.914405369389867e-06,9.352491606199575e-06,7.30594624447708e-07,2.4669634638631642e-06,2.9350547077173287e-06,2.359345653961949e-05,7.574410320652601e-07,8.68426398954313e-07
124,1.3968454922412256e-06,1.4074050467460784e-06,5.465272008600893e-07,1.5158828235379665e-06,1.6155603301188554e-06,1.538449745882772e-06,2.323660973880901e-06,3.8525588005234424e-06,5.046016618746061e-06,9.51079520583558e-06,7.312477207267521e-07,2.4667331390332563e-06,2.8843715755510515e-06,2.3209360982534074e-05,7.504518200314951e-07,8.609783920979739e-07
125,1.3844542124705255e-06,1.3758313506447592e-06,5.4242178419151e-07,1.5240969912391017e-06,1.5846843757454017e-06,1.5883993323136315e-06,2.274549193023401e-06,3.742375160468022e-06,5.1674214037263685e-06,9.668016790208073e-06,7.339723072002204e-07,2.4764007728699998e-06,2.8347660039170567e-06,2.2836483545292345e-05,7.450254874460683e-07,8.564564172170716e-07
126,1.3745963154746826e-06,1.3475149400154537e-06,5.408100350948242e-07,1.532017637765673e-06,1.5549605086913468e-06,1.6399794707856212e-06,2.228195838756021e-06,3.633810662577866e-06,5.276257423678364e-06,9.825236942595403e-06,7.390379477337091e-07,2.4952693069746125e-06,2.7856270002884877e-06,2.2479213363995006e-05,7.410861366313439e-07,8.546278250766412e-07
127,1.366852894486628e-06,1.322823605293641e-06,5.415076209196638e-07,1.5397370050589312e-06,1.527363156139001e-06,1.6931057744113363e-06,2.1853931295552934e-06,3.526482490698511e-06,5.369838786612353e-06,9.982463093685456e-06,7.467599055457976e-07,2.5223496888128118e-06,2.736334932020868e-06,2.214128668787096e-05,7.386776826815035e-07,8.551949120635754e-07
128,1.360785496258673e-06,1.301944347425824e-06,5.443467896598849e-07,1.5471515350062243e-06,1.5026730874701032e-06,1.7475784387779597e-06,2.146577789554731e-06,3.4194613293086193e-06,5.445281381146171e-06,1.0138836953571957e-05,7.574377932222672e-07,2.556556154748621e-06,2.6861551809243614e-06,2.182545649746234e-05,7.378989159580233e-07,8.578631182954536e-07
129,1.3558296095628815e-06,1.2849929455474693e-06,5.491794855366558e-07,1.554089642792264e-06,1.4814359004815525e-06,1.8031334317520323e-06,2.111952660522223e-06,3.3114906410061666e-06,5.499782310601624e-06,1.0292450466362073e-05,7.712922452641845e-07,2.5967846321768618e-06,2.6341573593174317e-06,2.153395343030782e-05,7.388043346087041e-07,8.623576971050003e-07
130,1.351258853554561e-06,1.2720916230631555e-06,5.558902064519196e-07,1.5605839065280168e-06,1.4639629328076278e-06,1.8595283342645172e-06,2.0816409517599737e-06,3.201340211142616e-06,5.53102595552535e-06,1.0439848481920531e-05,7.884218893944329e-07,2.6417956599108995e-06,2.57921683169873e-06,2.1268984290157105e-05,7.413635595161416e-07,8.684333295649569e-07
131,1.346205833531904e-06,1.2633305770193495e-06,5.643919866668685e-07,1.5670758045754897e-06,1.4504024262497856e-06,1.916526927446774e-06,2.0558178945045633e-06,3.0881399343223747e-06,5.537550971250914e-06,1.057610117371421e-05,8.087807061727269e-07,2.6900405867039705e-06,2.520023865805769e-06,2.103220452511289e-05,7.454750017229733e-07,8.759546725119328e-07
132,1.3397459742404152e-06,1.2587300675707512e-06,5.746057116688237e-07,1.5743741153747648e-06,1.4408862304433e-06,1.9737954437372517e-06,2.034712505295748e-06,2.9715746748446793e-06,5.518730796152994e-06,1.069574323463066e-05,8.321693006037485e-07,2.7396315524656764e-06,2.4551154080649916e-06,2.082368585206185e-05,7.50992925019834e-07,8.849241569544634e-07
133,1.3310770658336983e-06,1.2582984835982172e-06,5.864444911570222e-07,1.5834054057534752e-06,1.4356366889402292e-06,2.030789371952538e-06,2.018482933040904e-06,2.851922904056404e-06,5.47447106225969e-06,1.079383424976279e-05,8.582620081630069e-07,2.7885188916852743e-06,2.3831725811011665e-06,2.0642064280768035e-05,7.577227645361243e-07,8.953882110257054e-07
134,1.3197070749153138e-06,1.2620669791307198e-06,5.997934304715491e-07,1.594960689003509e-06,1.4349301935729917e-06,2.086731283340821e-06,2.0071467660226787e-06,2.730011244135212e-06,5.405323588166411e-06,1.0866219077280374e-05,8.866694014725552e-07,2.834812420364548e-06,2.3036337463394794e-06,2.0486052671192325e-05,7.65394052929418e-07,9.074050925516532e-07
135,1.3055196681458523e-06,1.2700329866384622e-06,6.144755567874453e-07,1.6095741629784898e-06,1.4390588715671535e-06,2.1407356634498897e-06,2.000669148694534e-06,2.6071449730344217e-06,5.313023358739772e-06,1.0909370550167241e-05,9.169909484662611e-07,2.8771580193031883e-06,2.217172009202709e-06,2.035578026136669e-05,7.736962814036835e-07,9.21122224460672e-07
136,1.2886772161573971e-06,1.2821056937227027e-06,6.302375205139654e-07,1.627523778677206e-06,1.4484376817650425e-06,2.192010788341827e-06,1.9990829704982594e-06,2.4849623933579055e-06,5.2004227388125675e-06,1.0921293081345184e-05,9.488226412253711e-07,2.915024595439499e-06,2.1255848653076878e-06,2.0253039018595366e-05,7.823599201944017e-07,9.367854763512498e-07
137,1.2694548681263776e-06,1.2980933590775101e-06,6.468103058574453e-07,1.6489151444363648e-06,1.4636798320425579e-06,2.240008601202499e-06,2.0024779946260542e-06,2.3651671346285677e-06,5.070601936461471e-06,1.090347797693381e-05,9.817187424999907e-07,2.9486853374837662e-06,2.031219582123748e-06,2.0180848910339258e-05,7.911790417104373e-07,9.546506520405668e-07
138,1.2481387300747647e-06,1.3177003852761333e-06,6.640104619430062e-07,1.6737788539979334e-06,1.4854562040827436e-06,2.2844399551994905e-06,2.010858244936134e-06,2.249289934588206e-06,4.926152081432604e-06,1.0861938108771515e-05,1.0151497999648691e-06,2.9788430646289263e-06,1.936475432873827e-06,2.0142959389864777e-05,7.999956596825437e-07,9.749074234253832e-07
139,1.2250043898591257e-06,1.3405124836951781e-06,6.817639423821148e-07,1.7020661296631027e-06,1.5142784488789136e-06,2.325131499549242e-06,2.0240287028882853e-06,2.1386121283054093e-06,4.769206501553661e-06,1.0806343783541625e-05,1.0484920856176969e-06,3.0061949807696346e-06,1.8436349286778706e-06,2.0143375179511275e-05,8.087062799548796e-07,9.976353214958305e-07
140,1.2003227888229622e-06,1.366007227870041e-06,7.000731757973754e-07,1.7335437759613685e-06,1.5504121119476564e-06,2.36180539580625e-06,2.0415875928945413e-06,2.034144552149328e-06,4.60184775248458e-06,1.074832274450503e-05,1.081046047819009e-06,3.031263937326488e-06,1.7547991614008426e-06,2.018567296892908e-05,8.172926903113365e-07,1.0227786415567987e-06
141,1.1743611149677336e-06,1.3936628917537347e-06,7.190306784600902e-07,1.7677230905520842e-06,1.5939416411717095e-06,2.3940075536265025e-06,2.0629393664130214e-06,1.9365861265927347e-06,4.426357278963563e-06,1.070004745808157e-05,1.1120920096271163e-06,3.0544738117472526e-06,1.67178863076228e-06,2.0272022144119002e-05,8.258472449345694e-07,1.0501832015693242e-06
142,1.1473969095446097e-06,1.4231092262427694e-06,7.388270047660557e-07,1.803872184547219e-06,1.6448681427956248e-06,2.4213130989741072e-06,2.0873557922697235e-06,1.8463436595479629e-06,4.24514346711216e-06,1.0673182303374695e-05,1.1409726013235725e-06,3.076222399924681e-06,1.5960838161031686e-06,2.0402078940729434e-05,8.345225638550854e-07,1.0796907887617556e-06
143,1.1198077822358651e-06,1.4541640462014022e-06,7.596844467812014e-07,1.8410194069460603e-06,1.7031297581454055e-06,2.4436358700443706e-06,2.1141353647740324e-06,1.7636095399700947e-06,4.060476791992878e-06,1.0678002456077171e-05,1.1671729414859653e-06,3.0968112431245058e-06,1.5288131522457168e-06,2.057198777911073e-05,8.434337268387124e-07,1.111176876665718e-06
144,1.0921762278052305e-06,1.486747493564597e-06,7.817945275555689e-07,1.8779163553785341e-06,1.7686307703962995e-06,2.4614103597223864e-06,2.1426705117999e-06,1.688379145262684e-06,3.874244851295374e-06,1.0722877476766681e-05,1.190370725712988e-06,3.116300125929222e-06,1.4707736790395853e-06,2.0773627787257454e-05,8.526181190864692e-07,1.1444740088066436e-06
145,1.065256679011955e-06,1.5208272608386464e-06,8.053257509433484e-07,1.913060262826246e-06,1.84140395653322e-06,2.475593156273999e-06,2.172288684401621e-06,1.6204150110741297e-06,3.688005235959269e-06,1.0814181989349226e-05,1.2103995105314151e-06,3.1344044262342e-06,1.4225005292242328e-06,2.0994190154673836e-05,8.620566229212401e-07,1.17927566325178e-06
146,1.0398196770197807e-06,1.55642690019304e-06,8.304572419342259e-07,1.9448698404204833e-06,1.9217415123503087e-06,2.4875200664031653e-06,2.2020635123090267e-06,1.5592646200039248e-06,3.503407021459789e-06,1.0956331377398388e-05,1.2271558982572428e-06,3.1504271566775922e-06,1.3843433927056755e-06,2.1216302022872662e-05,8.717125853991444e-07,1.2151095021658204e-06
147,1.0165174624511992e-06,1.5935711156380314e-06,8.573968138165399e-07,1.9720176858947595e-06,2.010075726256166e-06,2.498646178517068e-06,2.2308142530269964e-06,1.5043078603328906e-06,3.3225644778572536e-06,1.1151802256461696e-05,1.24058685540808e-06,3.1632009540299353e-06,1.3565055669377639e-06,2.1419134286361988e-05,8.815573956211832e-07,1.2513916807112255e-06
148,9.958318247059877e-07,1.6321785497046743e-06,8.863850517201094e-07,1.9937951651920313e-06,2.1067003659920382e-06,2.5102462181068264e-06,2.2572729974398805e-06,1.4547726192508602e-06,3.1479931595333144e-06,1.1401174730698336e-05,1.2507652990057064e-06,3.1711503847384237e-06,1.3390935060467094e-06,2.1580831810809458e-05,8.915933376392213e-07,1.287516259677473e-06
149,9.780847808661141e-07,1.672060211297584e-06,9.176655398156083e-07,2.010289086512367e-06,2.2115587105974124e-06,2.523237168090674e-06,2.28031579632022e-06,1.4098046791801268e-06,2.9822354915986364e-06,1.1703098200271146e-05,1.2579205457360983e-06,3.1725537164450656e-06,1.3321793069416652e-06,2.1681797669957913e-05,9.019129323920218e-07,1.3229140518353237e-06
150,9.63472676807429e-07,1.7130643817995278e-06,9.514160203069276e-07,2.022249986634542e-06,2.324165970087132e-06,2.538183944926375e-06,2.299200592613641e-06,1.368680258458744e-06,2.8274988751764563e-06,1.2054129063438199e-05,1.2623731822490426e-06,3.1658973178426842e-06,1.3357766385664107e-06,2.170741425069939e-05,9.127373054451931e-07,1.3571217582945026e-06
151,9.520684126284304e-07,1.7552374693782305e-06,9.87684509849752e-07,2.030772264787144e-06,2.443621777148195e-06,2.5553373902022323e-06,2.313744884646504e-06,1.331032281405859e-06,2.6854496560205624e-06,1.2448645885985364e-05,1.2644480010611762e-06,3.1501644093087464e-06,1.3497494992422456e-06,2.1648848520857676e-05,9.243633520418572e-07,1.389905384526925e-06
152,9.438010769907092e-07,1.7988593006069239e-06,1.0263599709083754e-06,2.037018158936658e-06,2.568674149973686e-06,2.5746073823557375e-06,2.3243245022654102e-06,1.2968636982978884e-06,2.5571587911006686e-06,1.2879103386236878e-05,1.264432379697474e-06,3.125011695178371e-06,1.3737709578893764e-06,2.150169661428225e-05,9.370660199060833e-07,1.4213446376314697e-06
153,9.384625925827137e-07,1.8443153453975637e-06,1.0671833898048576e-06,2.042093783819024e-06,2.6977654312748303e-06,2.595561403558604e-06,2.331629304009352e-06,1.2663340119455512e-06,2.443165977779444e-06,1.3336715034347975e-05,1.262573867987154e-06,3.0908780689034834e-06,1.4073228436448902e-06,2.1263249086885805e-05,9.510272103135816e-07,1.4518038182014303e-06
154,9.357231784735036e-07,1.8918834394176955e-06,1.1097916599291158e-06,2.046989158604116e-06,2.8290525468531678e-06,2.617508801647181e-06,2.336349938226958e-06,1.2395259790620708e-06,2.3436371048850484e-06,1.38124652382687e-05,1.259090678729563e-06,3.0489951642304647e-06,1.4496638003401776e-06,2.092988679891607e-05,9.66307778764916e-07,1.481797560399676e-06
155,9.351543760912592e-07,1.9415790939318625e-06,1.153750057031637e-06,2.0524690989579224e-06,2.9605312258591217e-06,2.639639409273714e-06,2.3390461097807605e-06,1.216341011833339e-06,2.258596747255738e-06,1.4298147292296201e-05,1.25420757441925e-06,3.0011510312315014e-06,1.4997892181295216e-06,2.0496668687670927e-05,9.828317303473894e-07,1.511792723721998e-06
156,9.363282214794669e-07,1.9931090652855058e-06,1.198561865299434e-06,2.0589475916262257e-06,3.0902731367364027e-06,2.6611622490179607e-06,2.340148673566299e-06,1.196487253373031e-06,2.1881592681266587e-06,1.4786948812429353e-05,1.2482160323638785e-06,2.949214442413273e-06,1.5564347596779601e-06,1.995995162375304e-05,1.0003544878191058e-06,1.5420333174484333e-06
157,9.389619069947192e-07,2.0458356746289618e-06,1.2436916824115032e-06,2.0664204162123797e-06,3.21655848860479e-06,2.681320336573469e-06,2.3399030294754435e-06,1.1794870592193905e-06,2.1325961565967577e-06,1.5273287494179824e-05,1.2414823763257076e-06,2.8947477400905812e-06,1.6181074797447562e-06,1.93211839465321e-05,1.0184330334575025e-06,1.5724603536639578e-06
158,9.429523047668352e-07,2.098730629206961e-06,1.2885728376381913e-06,2.074452010583893e-06,3.3377539656769384e-06,2.6992202047781378e-06,2.3383167806474923e-06,1.164712603243684e-06,2.092174203658297e-06,1.5752191252825715e-05,1.2343617411773081e-06,2.838982452686558e-06,1.6831123544860798e-06,1.8589098010447768e-05,1.0364287064080798e-06,1.6027582555179346e-06
159,9.482698466706671e-07,2.150433761759497e-06,1.3325598311748696e-06,2.0822346810026047e-06,3.4520982669236066e-06,2.713681810626347e-06,2.3352438189476694e-06,1.1514720554072624e-06,2.0669366999868526e-06,1.621881295779067e-05,1.2271215568514398e-06,2.783047789896294e-06,1.7495853502221174e-06,1.7779046925642595e-05,1.0535738579573633e-06,1.6325366988212355e-06
160,9.548562829077093e-07,2.199450212353357e-06,1.3748775934023708e-06,2.0887647856224183e-06,3.557735648756931e-06,2.723320838851901e-06,2.330460680947789e-06,1.1391496945647053e-06,2.05662148037189e-06,1.6668115180412036e-05,1.2199411474318617e-06,2.728158547929703e-06,1.8156177838129736e-06,1.6910212432526203e-05,1.06913498356585e-06,1.6615425342685893e-06
161,9.625964016064666e-07,2.2443879142939162e-06,1.4146383735157509e-06,2.093095397229651e-06,3.653072779657928e-06,2.7267908386962716e-06,2.32357475906659e-06,1.1274044428716685e-06,2.06068651849613e-06,1.7094278715911305e-05,1.2128943431996774e-06,2.67557703093445e-06,1.8795008236709556e-06,1.6002366926838313e-05,1.0826050887718751e-06,1.6897036259043972e-06
162,9.713068464238332e-07,2.2841667647596757e-06,1.450965473756744e-06,2.094590040891047e-06,3.7371562506049957e-06,2.723049858245974e-06,2.3139275770847338e-06,1.1163344445315354e-06,2.0783140978499762e-06,1.749016940762664e-05,1.2058987264452746e-06,2.6264254033926916e-06,1.9398557608483237e-06,1.5073478466464768e-05,1.0937497046860561e-06,1.7169713963387488e-06
163,9.807220996836666e-07,2.3181958537245073e-06,1.4831399573315012e-06,2.093116360859677e-06,3.8097920726579205e-06,2.7116111863790796e-06,2.3007334475144206e-06,1.1064363090899297e-06,2.108371487165145e-06,1.7847861542703746e-05,1.1987474771015832e-06,2.5815765802864277e-06,1.99547174743688e-06,1.4138604009183173e-05,1.1024868426065179e-06,1.743161634953422e-06
164,9.905163555943861e-07,2.3464764726301943e-06,1.51063627504365e-06,2.0890674807674934e-06,3.871318497748607e-06,2.6926891511496485e-06,2.283352218360748e-06,1.0983609367754488e-06,2.1493649143849486e-06,1.8159924600707544e-05,1.1912243322160306e-06,2.541661328095367e-06,2.045108390392047e-06,1.3209841816721528e-05,1.108827011977459e-06,1.7679077004071633e-06
165,1.0003499247164965e-06,2.3695752027800095e-06,1.533171765287311e-06,2.0831301379507373e-06,3.92212704893801e-06,2.6670913007227013e-06,2.2613876810209384e-06,1.092674955243454e-06,2.1994120131410195e-06,1.8420039043914423e-05,1.1831646622649833e-06,2.5071047403250857e-06,2.087537170011689e-06,1.2296738842427772e-05,1.112962786319486e-06,1.790635272402082e-06
166,1.0098935339827895e-06,2.388490680630214e-06,1.5508776946077275e-06,2.0759293335105172e-06,3.962329098283818e-06,2.63584786799767e-06,2.234631466225869e-06,1.0897574047134376e-06,2.2562486372738278e-06,1.8622635073324582e-05,1.1744142608827604e-06,2.4781835586219773e-06,2.1217523751416187e-06,1.1406755611457632e-05,1.1153028515087958e-06,1.810524028907202e-06
167,1.0188974217653698e-06,2.4044486120823883e-06,1.564322499864927e-06,2.067802568264572e-06,3.991842485426604e-06,2.5998311415820335e-06,2.203111490587627e-06,1.0897985115562753e-06,2.317236474993752e-06,1.876253450097614e-05,1.1647820290207533e-06,2.455031041374819e-06,2.1472026959865872e-06,1.0545736316664824e-05,1.116333224135851e-06,1.8265600788835047e-06
168,1.0273735228093283e-06,2.4186375751026566e-06,1.5742433502755464e-06,2.058814188654481e-06,4.0106143100533095e-06,2.5596216219391126e-06,2.167164472308342e-06,1.092846042024348e-06,2.3793772610012143e-06,1.8835319571146904e-05,1.1540469392915583e-06,2.4375354218404244e-06,2.1639245535517913e-06,9.718339671152468e-06,1.1164396517496938e-06,1.837782685956143e-06
169,1.0357223292300593e-06,2.431995007575507e-06,1.581245509325341e-06,2.048919726498539e-06,4.018654439149236e-06,2.5155818139211234e-06,2.127296410353447e-06,1.098835868265854e-06,2.4394604256242248e-06,1.8838226353436976e-05,1.1419600035356923e-06,2.425245290699455e-06,2.17246281000827e-06,8.928361044445798e-06,1.1158485976433323e-06,1.8436830499504934e-06
170,1.044625217949024e-06,2.445153177753982e-06,1.5856779171095988e-06,2.0381318227847778e-06,4.01595047877761e-06,2.467961453112065e-06,2.0839628235901713e-06,1.1075673493536115e-06,2.4944413745922333e-06,1.8770722288480635e-05,1.1282125151977278e-06,2.41737460037194e-06,2.1736040986604063e-06,8.178909334455625e-06,1.1147281592843935e-06,1.8445018782058018e-06
171,1.0548076492173454e-06,2.458449839153117e-06,1.5876459779531927e-06,2.026577226007809e-06,4.002450910549412e-06,2.4169897683984096e-06,2.037556851763611e-06,1.1186934983818254e-06,2.5419559360679687e-06,1.8634227688667106e-05,1.1124865117041408e-06,2.412936332422436e-06,2.1681023230694543e-06,7.472397187518351e-06,1.113359374622862e-06,1.8411907838070735e-06
172,1.0668864522384306e-06,2.471867938357505e-06,1.5870783475857217e-06,2.014408439859417e-06,3.978168287580722e-06,2.3630043185515153e-06,1.9886380652939046e-06,1.1318158659598497e-06,2.5806612267498955e-06,1.8431349035743694e-05,1.0946308394951994e-06,2.4109700739984456e-06,2.1566153442762102e-06,6.810380231510278e-06,1.112219130601503e-06,1.8350952542836404e-06
173,1.0813638975121095e-06,2.4849831456299245e-06,1.5838175621318002e-06,2.001675399542527e-06,3.943336614929125e-06,2.306566677073072e-06,1.9382081318275833e-06,1.1466491187002115e-06,2.610104787088333e-06,1.8165174409513056e-05,1.074751889106501e-06,2.410674974524053e-06,2.1398953926660426e-06,6.193386277371631e-06,1.1119019314477154e-06,1.8275952045850211e-06
174,1.0986829105172117e-06,2.497098558999174e-06,1.5777114201530333e-06,1.988348743529202e-06,3.898524412144459e-06,2.2484170073472385e-06,1.8878145076011856e-06,1.1631065643203574e-06,2.630264702606597e-06,1.783855862694206e-05,1.053093448796659e-06,2.411334651405376e-06,2.118964192534154e-06,5.620931527324541e-06,1.1129544174916784e-06,1.8198521444813095e-06
175,1.1192410513754414e-06,2.507566744822352e-06,1.5686877004767347e-06,1.974519408642286e-06,3.844637260997632e-06,2.1892976685087534e-06,1.8393795056231757e-06,1.181217562751306e-06,2.6412585427733057e-06,1.7453147903946835e-05,1.0298996436993775e-06,2.412190872740607e-06,2.0950105868226705e-06,5.091885948770884e-06,1.1157517806885418e-06,1.8126951813354562e-06
176,1.1433327584180863e-06,2.516070472255963e-06,1.5568090911157993e-06,1.960583195185703e-06,3.7827945532248577e-06,2.1298668641658256e-06,1.794857743861159e-06,1.20096404520445e-06,2.6433741945995195e-06,1.7008747370526774e-05,1.0054200612949375e-06,2.4124657684350536e-06,2.069118457422684e-06,4.605081049563756e-06,1.1204846497408747e-06,1.8066162251666619e-06
177,1.1710733762986345e-06,2.522655104694545e-06,1.5422835056899566e-06,1.947261832937595e-06,3.71409286612315e-06,2.070736991622519e-06,1.7559585152111693e-06,1.2221778512322382e-06,2.637147612798088e-06,1.6504380692716527e-05,9.799712657518059e-07,2.4115514736095795e-06,2.042094912713475e-06,4.159731689380124e-06,1.1272143171564194e-06,1.8017991191023226e-06
178,1.2023977385557794e-06,2.5275634978636888e-06,1.5254036128283226e-06,1.935465470880502e-06,3.6393194503117806e-06,2.012480312154129e-06,1.7240422849689858e-06,1.244525117186941e-06,2.623378684342226e-06,1.5941201580206132e-05,9.539385724269739e-07,2.4092530466656282e-06,2.0144469333384846e-06,3.755329470024045e-06,1.1359027106301824e-06,1.7981367806938136e-06
179,1.237156262031024e-06,2.531087909759493e-06,1.5064483539437311e-06,1.9260651310967586e-06,3.5588122656317896e-06,1.9555992399331066e-06,1.700097660802821e-06,1.2675213602874702e-06,2.603165277012026e-06,1.5325173045232606e-05,9.277193796702353e-07,2.405930743892406e-06,1.986376034725767e-06,3.391165512525251e-06,1.1463923308164418e-06,1.7952499706717882e-06
180,1.2751954367480663e-06,2.533536559320715e-06,1.4856105246867524e-06,1.9196731450585498e-06,3.4726243065795263e-06,1.9005775064342784e-06,1.6847321573764716e-06,1.2905674564778245e-06,2.5778690671740437e-06,1.4667315891856208e-05,9.017015756424972e-07,2.4023894598084295e-06,1.9577536102055035e-06,3.065939558917044e-06,1.1584113115778298e-06,1.792552441505961e-06
181,1.3163206053852495e-06,2.5352285488408925e-06,1.4629577141893112e-06,1.9165221692370596e-06,3.3808351118097164e-06,1.8479820601832808e-06,1.6782299441688838e-06,1.313042404118322e-06,2.548904781624796e-06,1.3981701960470335e-05,8.763088936641365e-07,2.3995371689263447e-06,1.9281878019647618e-06,2.777680065559473e-06,1.1716521345084706e-06,1.7894122712318195e-06
182,1.3602116231173221e-06,2.536444175196976e-06,1.4383914847387735e-06,1.916444793767059e-06,3.283734533714439e-06,1.7984665846435828e-06,1.6806760475448759e-06,1.3344200631800008e-06,2.517525712312436e-06,1.3283311491021947e-05,8.520030810594833e-07,2.398103813395237e-06,1.8972466483869493e-06,2.5238894331544046e-06,1.1858490218006056e-06,1.7853521542266113e-06
183,1.4063850182874924e-06,2.537393984510467e-06,1.4116451805348593e-06,1.9189009190035385e-06,3.181844832100923e-06,1.7526252707083897e-06,1.692019306400588e-06,1.3542973498350554e-06,2.484847359186677e-06,1.2587294472530434e-05,8.292055482615911e-07,2.3985972985395345e-06,1.8647367164827149e-06,2.301731881020656e-06,1.200775166270025e-06,1.7801154581502533e-06
184,1.4541968237111807e-06,2.5382806984094964e-06,1.382415947968078e-06,1.9230448395221676e-06,3.0759151394543184e-06,1.7108089120027073e-06,1.7120077002557754e-06,1.3723261577130237e-06,2.452021874323245e-06,1.1909109993770381e-05,8.082319887098194e-07,2.401298671425156e-06,1.830855956750042e-06,2.1081418037729924e-06,1.216235309492032e-06,1.7735800468021126e-06
185,1.5029385744028768e-06,2.539399627908593e-06,1.3506110210603307e-06,1.9278427634177937e-06,2.966929180078596e-06,1.673042961161849e-06,1.740093292058964e-06,1.388173775954421e-06,2.420281058401611e-06,1.1264207676945403e-05,7.89284342818441e-07,2.4061572139723558e-06,1.7961213811230654e-06,1.939984385643754e-06,1.2321461550975893e-06,1.7657289460320133e-06
186,1.5520809756597583e-06,2.541149306512992e-06,1.3165469517705607e-06,1.932221437778156e-06,2.8560604493053897e-06,1.639089551692264e-06,1.7754121434421763e-06,1.4015309412394977e-06,2.390792735218064e-06,1.0667053222711833e-05,7.724825452452058e-07,2.412760421311881e-06,1.7611841732853337e-06,1.7944093522878309e-06,1.2485902012360523e-06,1.7567481318765375e-06
187,1.6014744344664823e-06,2.54389755827617e-06,1.2809510287691204e-06,1.9352172050402465e-06,2.744580704264619e-06,1.6086039502443987e-06,1.8168611623236389e-06,1.4121237554111732e-06,2.364501282972181e-06,1.0130334349520195e-05,7.578974779026945e-07,2.420456501484415e-06,1.7267346263024977e-06,1.6691542129174478e-06,1.2657077940991798e-06,1.7470424451771371e-06
188,1.6512777362731058e-06,2.547812572558798e-06,1.2447594241177754e-06,1.9360326423000904e-06,2.63381945003607e-06,1.581295709367025e-06,1.863195975936002e-06,1.4198051415419612e-06,2.3420640702270657e-06,9.664796812192766e-06,7.455490818838223e-07,2.428438564290436e-06,1.6934849236203197e-06,1.562528523806257e-06,1.28353234467042e-06,1.7370563675607609e-06
189,1.7017567802797588e-06,2.5528289217257786e-06,1.2088591500132707e-06,1.9339322880483724e-06,2.5251712696793224e-06,1.5570014749928022e-06,1.9130400800515566e-06,1.4247174766620238e-06,2.323909364740235e-06,9.279372834965018e-06,7.354036627239211e-07,2.4357124892491134e-06,1.6620773158763167e-06,1.4731543152834588e-06,1.3019230643414407e-06,1.727081238293917e-06
190,1.7532110438426927e-06,2.5587391319801903e-06,1.17393182275552e-06,1.9281714733228455e-06,2.4200253740673222e-06,1.5356317630073045e-06,1.964881531511597e-06,1.427343619622277e-06,2.3104136840457966e-06,8.981272416607078e-06,7.274239973983415e-07,2.4410658334778704e-06,1.632957213374411e-06,1.3996891554233853e-06,1.3205871294993908e-06,1.7172063498365923e-06
191,1.8059595638384003e-06,2.565239699602932e-06,1.1404407631966578e-06,1.9181591990535376e-06,2.3196295228291355e-06,1.517072715518438e-06,2.0171794394827253e-06,1.428368038303359e-06,2.3020566741692877e-06,8.776145008889697e-06,7.216264469263354e-07,2.443111234426004e-06,1.6063355229001555e-06,1.3407137883349464e-06,1.3391491002661668e-06,1.7073811493041188e-06
192,1.860254393649937e-06,2.57184641986697e-06,1.1087178917790815e-06,1.903669254738397e-06,2.2250678885208898e-06,1.501144142926437e-06,2.06845424463911e-06,1.4284561522545412e-06,2.299406844164364e-06,8.668401577368122e-06,7.180682578429262e-07,2.4404038974756395e-06,1.5822215286103866e-06,1.2947657659931341e-06,1.357215877171806e-06,1.6975499002699547e-06
193,1.9161987838910027e-06,2.5777549344182898e-06,1.079084441208466e-06,1.8848510910983527e-06,2.1373526822172683e-06,1.4875800787510297e-06,2.117255799874583e-06,1.4280864380791062e-06,2.3031098986396854e-06,8.661511356506012e-06,7.167839423361558e-07,2.431580112809762e-06,1.5604672515105974e-06,1.2603481361201026e-06,1.3743468647382401e-06,1.6877698710605792e-06
194,1.9737123802183074e-06,2.5818046430047324e-06,1.0519268980456782e-06,1.8621074125878685e-06,2.0574156385438614e-06,1.4759952095388748e-06,2.162179815037828e-06,1.4274931312558495e-06,2.314032205213639e-06,8.758140373985207e-06,7.177246558468376e-07,2.415474242782661e-06,1.5408160293206142e-06,1.235878586343832e-06,1.3900076353906208e-06,1.6781566768357977e-06
195,2.0324672766256388e-06,2.5826754915296624e-06,1.0276730936039068e-06,1.835996161122924e-06,1.985957075064666e-06,1.4659031402852152e-06,2.202067009179193e-06,1.4267292827613587e-06,2.333303511774274e-06,8.960174601358759e-06,7.207241401304075e-07,2.391248947493086e-06,1.5230154444860226e-06,1.2196669741766123e-06,1.403653974555697e-06,1.6687194949226603e-06
196,2.091801924947266e-06,2.5792630878502966e-06,1.0066979055323741e-06,1.8071422522945546e-06,1.923323198086712e-06,1.4567708120488996e-06,2.2362211683465152e-06,1.4258746000588944e-06,2.362162999403418e-06,9.26863138158765e-06,7.255046888393575e-07,2.3585502554649277e-06,1.5070269873630069e-06,1.2100087159998125e-06,1.4148447907607002e-06,1.659308835692713e-06
197,2.1507063316620357e-06,2.5709801737082695e-06,9.892540902355216e-07,1.7761173291196441e-06,1.8694898703900017e-06,1.4480207168277353e-06,2.2644200622085548e-06,1.4253018713211858e-06,2.4018315395644418e-06,9.683407954566337e-06,7.317202080152459e-07,2.3176197296404365e-06,1.4931613330365507e-06,1.2054203506993376e-06,1.423227564594135e-06,1.6497266965557035e-06
198,2.207916788126261e-06,2.5577799043607554e-06,9.754677610277688e-07,1.743406001039056e-06,1.8241102535912767e-06,1.439021519836983e-06,2.286700545448792e-06,1.4257514675884838e-06,2.453393305278119e-06,1.0202974959316235e-05,7.390251175826347e-07,2.269292797296244e-06,1.4819581189637923e-06,1.2048619422111498e-06,1.428489625433523e-06,1.6398708640466177e-06
199,2.262063540957577e-06,2.53995862230743e-06,9.653433820978462e-07,1.709525310621371e-06,1.7865879774997332e-06,1.4291639988132345e-06,2.303071397680568e-06,1.428124759725939e-06,2.5176173480744793e-06,1.0824232418034625e-05,7.471688135225499e-07,2.21488228829577e-06,1.4739298721493553e-06,1.207765348117701e-06,1.4304100790862264e-06,1.6297635934088516e-06
200,2.3117893073115717e-06,2.517955458490094e-06,9.587425387898677e-07,1.6751253937822033e-06,1.7561155657028464e-06,1.417946304561867e-06,2.3133953351103674e-06,1.4332160373764442e-06,2.5948800191802037e-06,1.1542517847096112e-05,7.560978771146054e-07,2.1560006356375613e-06,1.4694061637260371e-06,1.2138759004826222e-06,1.4289407376251208e-06,1.6194411436846224e-06
201,2.355855379849406e-06,2.4922912904690947e-06,9.553724612975654e-07,1.6409234203593985e-06,1.7316586269549794e-06,1.4049370386783162e-06,2.317576040571321e-06,1.4415877195772126e-06,2.685242175301274e-06,1.2351530802790792e-05,7.660062710113712e-07,2.0943551498072724e-06,1.4685338208335654e-06,1.223021950487652e-06,1.4241778428822707e-06,1.6089036931097498e-06
202,2.393314971033249e-06,2.463638044303021e-06,9.548380564305455e-07,1.6075579160653057e-06,1.7120039256941355e-06,1.389735979329857e-06,2.3158595854364167e-06,1.4535752905469138e-06,2.788517522649231e-06,1.3243083952986236e-05,7.772810886251938e-07,2.0315412340761273e-06,1.471363238166134e-06,1.2349187043237668e-06,1.416222941525464e-06,1.5982651467264426e-06
203,2.423706951095457e-06,2.4328887982476892e-06,9.56761894319015e-07,1.5754974601481252e-06,1.6959731616920307e-06,1.3721244802404852e-06,2.3089551024399966e-06,1.4693351963840507e-06,2.904200045774774e-06,1.4206808836100425e-05,7.903682296209462e-07,1.968926734998724e-06,1.4779329225901982e-06,1.2490635116408606e-06,1.4050881896173855e-06,1.5879057382280638e-06
204,2.4470724497339927e-06,2.401063478928896e-06,9.608705876929747e-07,1.5450092178396054e-06,1.6826993640620539e-06,1.3522952052527627e-06,2.2979128589397592e-06,1.488907673390563e-06,3.0312988176773938e-06,1.522992265327162e-05,8.056401025165323e-07,1.9076725347325828e-06,1.4882902683258924e-06,1.2647377374168964e-06,1.3907374084550848e-06,1.5784028870569644e-06
205,2.4637178975885492e-06,2.369039125198363e-06,9.669609514289635e-07,1.5161747040696548e-06,1.6717252822171247e-06,1.3309038912395063e-06,2.2838965081136323e-06,1.512300960622377e-06,3.168251847193285e-06,1.6297058236300883e-05,8.23321860279381e-07,1.848757754713167e-06,1.5024393785433148e-06,1.2811272677630594e-06,1.3731255942613833e-06,1.5703332940638463e-06
206,2.47401602214863e-06,2.337299227772609e-06,9.748510063011784e-07,1.488956237473945e-06,1.6628260056254953e-06,1.3088853832944614e-06,2.2679866149755317e-06,1.5395797505627283e-06,3.313046815682644e-06,1.739003695407895e-05,8.43482591452412e-07,1.7929214311169635e-06,1.5202444058054905e-06,1.2975123166717484e-06,1.3521396965340656e-06,1.5641749448733805e-06
207,2.4785353019044725e-06,2.305860402107088e-06,9.844103061772274e-07,1.46324217942434e-06,1.6557540412739302e-06,1.2871890524709785e-06,2.2510544521573786e-06,1.5708973346435694e-06,3.4635103743647016e-06,1.8487532768226618e-05,8.66064103228668e-07,1.7406108103127095e-06,1.5413633455771467e-06,1.3133735264833256e-06,1.3275908309681684e-06,1.5603580872846471e-06
208,2.4782890164719918e-06,2.2743803771877216e-06,9.955739907893669e-07,1.4388727899847291e-06,1.6501277039619619e-06,1.2665998308433616e-06,2.2336698328450968e-06,1.606419969329699e-06,3.617591740935981e-06,1.9565189425852228e-05,8.908968019999977e-07,1.6919846308322575e-06,1.565261405232761e-06,1.3283177270432858e-06,1.2993780599104172e-06,1.559339465235475e-06
209,2.4747416783595756e-06,2.242411301929863e-06,1.008330341774078e-06,1.4157475174962871e-06,1.6454481298514241e-06,1.24766773987382e-06,2.2160286372486305e-06,1.6461961091719491e-06,3.773488078662648e-06,2.0596977491457725e-05,9.176840919653276e-07,1.6469152335310335e-06,1.5912670082404594e-06,1.3419360544856315e-06,1.2676697871104444e-06,1.5615861875427071e-06
210,2.469579436643361e-06,2.209692600166329e-06,1.022775999378195e-06,1.3939449576458955e-06,1.6411777423058405e-06,1.2306886436464764e-06,2.197991613811796e-06,1.6901064339192364e-06,3.929602411179819e-06,2.1557568083678616e-05,9.45981357268376e-07,1.6050209378623955e-06,1.6186277519092048e-06,1.3537717921289233e-06,1.2328930445981711e-06,1.56748468374158e-06
211,2.464455723607501e-06,2.176287345939335e-06,1.0391491933572749e-06,1.373684899386377e-06,1.6368817015547602e-06,1.2157418495221024e-06,2.1793202854067353e-06,1.7379270278449192e-06,4.08443677696779e-06,2.242451842906259e-05,9.751873876963389e-07,1.5658391701319899e-06,1.6465595887387652e-06,1.3633931821608547e-06,1.1955896283755042e-06,1.5772701733531094e-06
212,2.4608045522453827e-06,2.1424843039948696e-06,1.0577225528149566e-06,1.3551665151165917e-06,1.6323679302568362e-06,1.2028209131172614e-06,2.159976402276492e-06,1.7893667905328561e-06,4.236544023206429e-06,2.3179175096113938e-05,1.0045607635008643e-06,1.5291000466563964e-06,1.6743327506320384e-06,1.3704387875591953e-06,1.1563476654011225e-06,1.5909882300342781e-06
213,2.4597038757482063e-06,2.1086142943486942e-06,1.0786503703693253e-06,1.3384773592227255e-06,1.6277173787688012e-06,1.1920010877751165e-06,2.140209661554158e-06,1.8439840480605188e-06,4.3845768790857985e-06,2.3805923810120954e-05,1.0333000782095837e-06,1.4948777463303715e-06,1.7014118662516617e-06,1.374587019026088e-06,1.1158140115086525e-06,1.6084296324648028e-06
214,2.4617807858577174e-06,2.0749961052457643e-06,1.1018959882511557e-06,1.3236305508107094e-06,1.623175324242458e-06,1.1835050037316393e-06,2.1203898507280586e-06,1.9010856577573754e-06,4.527284870071223e-06,2.4290062911788815e-05,1.0607101724241972e-06,1.4634757113825185e-06,1.727537415533299e-06,1.3755206649198087e-06,1.0746444183291263e-06,1.6290685506452217e-06
215,2.467191612859091e-06,2.0420745403622344e-06,1.1272420423553303e-06,1.3105941385961737e-06,1.618971852603142e-06,1.177610774507526e-06,2.100894647804884e-06,1.9597965894103795e-06,4.6632963848127056e-06,2.461538186788932e-05,1.0863567521850355e-06,1.4351661740932439e-06,1.7526627541300898e-06,1.3729903210853527e-06,1.0333862330545304e-06,1.6520988942865214e-06
216,2.475716578698521e-06,2.0105998731338284e-06,1.1543624658197587e-06,1.299242172938731e-06,1.6152032351704722e-06,1.1745062924714284e-06,2.0822579691238886e-06,2.0193698439600285e-06,4.790901694048021e-06,2.476386092065573e-05,1.110078380243297e-06,1.4100088031134623e-06,1.7768083812049679e-06,1.3669611172566074e-06,9.924080901545997e-07,1.676561167617894e-06
217,2.486935650373154e-06,1.9816441449122963e-06,1.1829273054909862e-06,1.2893456160486688e-06,1.6118423089933974e-06,1.1742217458273415e-06,2.065355944617937e-06,2.0795564072221423e-06,4.908247150280425e-06,2.471946588578089e-05,1.1319056416878506e-06,1.3878122685022445e-06,1.7999560950473936e-06,1.357690570159265e-06,9.519298153835508e-07,1.7014282573662158e-06
218,2.500375039537974e-06,1.9564095714672315e-06,1.2126570237263942e-06,1.280724992351491e-06,1.6087857053356324e-06,1.1766708747828722e-06,2.0513603289104393e-06,2.140731267199271e-06,5.013784358577714e-06,2.4474423781027587e-05,1.1520176981188118e-06,1.3681582790513756e-06,1.8220577510435098e-06,1.3456767142603806e-06,9.120921536155939e-07,1.7256237604320769e-06
219,2.515557499662382e-06,1.9359806690759562e-06,1.243314787086404e-06,1.2734956123599138e-06,1.60587891349487e-06,1.181747445759409e-06,2.0414877445714367e-06,2.2036815284452853e-06,5.106300132226472e-06,2.4033629859781344e-05,1.1707111198573363e-06,1.3504597836151583e-06,1.8430718315823345e-06,1.3315497227305215e-06,8.729815807018561e-07,1.7481386176253715e-06
220,2.531961366312913e-06,1.9211764688781657e-06,1.2747445226627023e-06,1.2681872239839058e-06,1.603010817420307e-06,1.18941057785481e-06,2.0367389312893835e-06,2.2692604942278168e-06,5.184383194595449e-06,2.3413996045209352e-05,1.1882956741440755e-06,1.3340891684399889e-06,1.8629225220498815e-06,1.3159629385630503e-06,8.346235901989391e-07,1.7682896429004053e-06
221,2.5488966902204974e-06,1.9125015909890913e-06,1.3069434345252065e-06,1.2656234616833937e-06,1.6002673494864815e-06,1.1997056235711354e-06,2.037754192294166e-06,2.338135182336571e-06,5.246049650402204e-06,2.2639272473023325e-05,1.204981067699506e-06,1.318553631448864e-06,1.8814934076044357e-06,1.2995022383810133e-06,7.970002611024584e-07,1.7859152911562323e-06
222,2.5653585427482094e-06,1.9101566286425217e-06,1.3400142675169748e-06,1.2666814283979442e-06,1.5979571559300283e-06,1.2127039391965176e-06,2.0447822932168014e-06,2.4106775944776375e-06,5.289120641754499e-06,2.1734321364769525e-05,1.2208713531876627e-06,1.3036511946014835e-06,1.8987289471197948e-06,1.2826284786290657e-06,7.600789013885594e-07,1.801370578691312e-06
223,2.5799917005446196e-06,1.914126492566749e-06,1.3740063972610351e-06,1.272103282915795e-06,1.5964335707363932e-06,1.228430362953963e-06,2.0577142716584216e-06,2.4869535918440704e-06,5.311993969315158e-06,2.072236491829356e-05,1.2360281552731201e-06,1.2895692443193671e-06,1.914647246419005e-06,1.265652398030318e-06,7.23846982848274e-07,1.8154120854490377e-06
224,2.5912346000939046e-06,1.92429161119286e-06,1.4088095348189305e-06,1.2824024678039532e-06,1.59587300928034e-06,1.2468480359453971e-06,2.07613955451938e-06,2.5667459196705013e-06,5.314052373638067e-06,1.9625029285885026e-05,1.2504884564641431e-06,1.2768736439663708e-06,1.9291929098642837e-06,1.2487258653202074e-06,6.883573940036121e-07,1.8291067267041097e-06
225,2.597577775290171e-06,1.940442179105597e-06,1.4441478827601148e-06,1.2978292259935859e-06,1.5961992221435054e-06,1.2678640128890414e-06,2.0994033126741026e-06,2.6495271521476116e-06,5.295515694259366e-06,1.8463441481160022e-05,1.2642307459884029e-06,1.2663365051695923e-06,1.9421797774194567e-06,1.2318495748736241e-06,6.537196226449361e-07,1.843734834986607e-06
226,2.5978093490489596e-06,1.9621745646225244e-06,1.4796077216827907e-06,1.318377294814258e-06,1.5971819952341182e-06,1.291349502274511e-06,2.1266441571386967e-06,2.734389350774833e-06,5.257043702714411e-06,1.7259620672838658e-05,1.2771432809340062e-06,1.258691617137843e-06,1.953448067333295e-06,1.2149212165237928e-06,6.200342274082741e-07,1.860579438430842e-06
227,2.5911512874527318e-06,1.9887653183999674e-06,1.514654605644046e-06,1.3438359830397709e-06,1.5986041194412475e-06,1.3172011482986217e-06,2.1567928189066796e-06,2.8200971934599078e-06,5.1993145373327315e-06,1.6037599788076497e-05,1.2890290480573926e-06,1.2544959786737696e-06,1.9630330611639018e-06,1.1978224682119687e-06,5.873522844008779e-07,1.8806679152529736e-06
228,2.5773006736044436e-06,2.0191241808719644e-06,1.5486174733908488e-06,1.3738687637824822e-06,1.6003749709596606e-06,1.345346082851651e-06,2.1886294208494805e-06,2.9053716595631447e-06,5.12278152575439e-06,1.4823456436298707e-05,1.2996823000556354e-06,1.254131574474032e-06,1.9711729636469237e-06,1.1804861197834003e-06,5.556748082286777e-07,1.9046263583205472e-06
229,2.5564462996307318e-06,2.051845773944361e-06,1.5806331878672315e-06,1.4080543884916303e-06,1.6025526763597918e-06,1.3756607587952453e-06,2.220938578287351e-06,2.9892528762114407e-06,5.027970111055545e-06,1.3644080633517512e-05,1.3089935609288748e-06,1.257831115997024e-06,1.978196534122504e-06,1.1628732255902728e-06,5.249801513420441e-07,1.9326780685485222e-06
230,2.529234042581734e-06,2.0853198830217984e-06,1.6096291139943903e-06,1.4458471210391394e-06,1.60532173882942e-06,1.4079270220579418e-06,2.2525563436530878e-06,3.071285649331207e-06,4.916275670300748e-06,1.2525420645368892e-05,1.3169662373859388e-06,1.2656680195031837e-06,1.9843796083204395e-06,1.144887669475884e-06,4.952742533080895e-07,1.9647451771651874e-06
231,2.496574643000656e-06,2.1178708341565422e-06,1.6344372883790393e-06,1.4865062344096688e-06,1.6089396816707449e-06,1.4418513509646632e-06,2.2822850626381855e-06,3.1514007676371546e-06,4.790566538598659e-06,1.1491195337124496e-05,1.3236348606301923e-06,1.2775560236197387e-06,1.989871309562969e-06,1.126374298606769e-06,4.666285185644324e-07,2.000585861670405e-06
232,2.4593365022498285e-06,2.147908025267624e-06,1.6540157093020885e-06,1.5290813885285853e-06,1.6136320834350807e-06,1.477091478487553e-06,2.3089595973681596e-06,3.2295672607039274e-06,4.655043797735633e-06,1.0562443566600498e-05,1.3289970601868426e-06,1.2932685948804956e-06,1.994750077538953e-06,1.1072448307126107e-06,4.39228350849914e-07,2.039841168798894e-06
233,2.4181673608973147e-06,2.174065478931914e-06,1.6676862672077534e-06,1.57248093445023e-06,1.6195287843799268e-06,1.5133056462441982e-06,2.3316903788836837e-06,3.3054720156432535e-06,4.514500912692223e-06,9.757576113642625e-06,1.333034586065601e-06,1.3124443533702199e-06,1.999083269216808e-06,1.0875647800344718e-06,4.134387018251174e-07,2.0819545804673328e-06
234,2.3735657303528007e-06,2.195332532285152e-06,1.6753140111475e-06,1.6156095357901793e-06,1.6267168512819517e-06,1.5502360566183748e-06,2.349948158467901e-06,3.3784609951479716e-06,4.373488430454906e-06,9.09256622481039e-06,1.3357657597907016e-06,1.334598049097059e-06,2.0028779108346807e-06,1.067514847507711e-06,3.8980151293871075e-07,2.126094097510648e-06
235,2.326052600131535e-06,2.2111741472661886e-06,1.6773469260418606e-06,1.657548489995978e-06,1.6352770841668224e-06,1.587748670072621e-06,2.363369219144618e-06,3.4477313488666797e-06,4.2357899161181895e-06,8.581149097916894e-06,1.337225986239381e-06,1.3591412742684754e-06,2.006023336389237e-06,1.047337638073761e-06,3.6900240489033583e-07,2.171150404160612e-06
236,2.276299874921062e-06,2.2215324771246623e-06,1.6746657218326837e-06,1.697700320871094e-06,1.6452291846003796e-06,1.6257435412954036e-06,2.3716291815487903e-06,3.512620041797113e-06,4.104315061246344e-06,8.23498647311988e-06,1.3374126165391237e-06,1.3853677009951841e-06,2.0083050225630585e-06,1.0273244489006413e-06,3.519075697129953e-07,2.215763335352166e-06
237,2.225186932734044e-06,2.226612321799744e-06,1.6683052938747703e-06,1.7357921362650769e-06,1.6564941550566568e-06,1.6639718410126567e-06,2.3746247802244733e-06,3.5728347505105533e-06,3.981255398453139e-06,8.063809199356914e-06,1.3362945446445513e-06,1.4124371018279442e-06,2.0094238907678568e-06,1.0078020995629949e-06,3.3959967103950167e-07,2.2584280170156885e-06
238,2.1737285513311776e-06,2.2266417379369193e-06,1.659186897566971e-06,1.7717067002290346e-06,1.6688904134982467e-06,1.7019141570661581e-06,2.372671578301566e-06,3.628457890114148e-06,3.8682769723406315e-06,8.075537447245928e-06,1.3338303877361034e-06,1.4394250474963321e-06,2.0090202934232746e-06,9.89112359082341e-07,3.3332940841958963e-07,2.2977480226726813e-06
239,2.1228468092755603e-06,2.2218560430323886e-06,1.647962125173245e-06,1.805244820363603e-06,1.6821028009573007e-06,1.7388515045695524e-06,2.36641437814407e-06,3.6796488750496906e-06,3.766625675139067e-06,8.276429039427085e-06,1.3299135239781428e-06,1.465385137154425e-06,2.006753830753473e-06,9.715844659052354e-07,3.344363520088108e-07,2.3326861581656836e-06
240,2.0731411135717926e-06,2.21261049147538e-06,1.6350066206813265e-06,1.8359662296354688e-06,1.6956474904095546e-06,1.7741038172908403e-06,2.3565544893925024e-06,3.7262192740541714e-06,3.6771256327666797e-06,8.671341880463315e-06,1.324333912522185e-06,1.4893592389798308e-06,2.0023246288591907e-06,9.554910604890014e-07,3.4429839496337057e-07,2.3626327176369743e-06
241,2.0248629728753702e-06,2.1994242674124404e-06,1.6205472761333892e-06,1.8631353021194282e-06,1.7088792715278158e-06,1.8072445732547486e-06,2.343609674536787e-06,3.767410132602845e-06,3.6001665112329006e-06,9.263911982619183e-06,1.3168220500465574e-06,1.5104146144905225e-06,1.9953391438045034e-06,9.410173614396667e-07,3.642984806617143e-07,2.387340952454457e-06
242,1.978105657835088e-06,2.1829324204605587e-06,1.6048249021109401e-06,1.8857250954913457e-06,1.721014723143591e-06,1.8380991029629566e-06,2.327794873597697e-06,3.8020587174519247e-06,3.5358809178571766e-06,1.0056417431348498e-05,1.3070801565850011e-06,1.5277914296282455e-06,1.985226099976333e-06,9.283070773411233e-07,3.957887956231844e-07,2.4068851947481423e-06
243,1.933028938965221e-06,2.163765069669894e-06,1.5881862516026664e-06,1.9025118646004183e-06,1.7311000738677717e-06,1.866540016391821e-06,2.3090476435292414e-06,3.829021224459604e-06,3.4844856409961144e-06,1.1049581817520318e-05,1.2947918294007867e-06,1.5410823131897157e-06,1.9714150027745683e-06,9.175569814263998e-07,4.400677102890276e-07,2.4216864655919426e-06
244,1.8899612971229617e-06,2.142383881822633e-06,1.571078958697258e-06,1.9122959043374514e-06,1.7379800089984357e-06,1.892269180781764e-06,2.28717366833715e-06,3.847570890771681e-06,3.446464718550307e-06,1.2242546529165808e-05,1.279713630257097e-06,1.5502995880069577e-06,1.9536462263313796e-06,9.09021943744846e-07,4.983903344882258e-07,2.4325684712308024e-06
245,1.8493822822756342e-06,2.1189944892917188e-06,1.553966973749197e-06,1.914183389809258e-06,1.7404381489366916e-06,1.914707519638424e-06,2.2620391279617177e-06,3.857636747899467e-06,3.4224339584084217e-06,1.3632728708759856e-05,1.2617811271881533e-06,1.5557621222486379e-06,1.9321516268223055e-06,9.029096510119142e-07,5.720149383246473e-07,2.440791350278413e-06
246,1.8118691904767783e-06,2.093641395005345e-06,1.5372338296931513e-06,1.9078134542963744e-06,1.7375477471777316e-06,1.9329876287988016e-06,2.2337231246328805e-06,3.859893564552397e-06,3.412819916384367e-06,1.5215373139560653e-05,1.2410846326989007e-06,1.5578693483934145e-06,1.9075919523641354e-06,8.992909595643481e-07,6.622567925931016e-07,2.4479649262936068e-06
247,1.7780154683470476e-06,2.0664098022352588e-06,1.521193059468619e-06,1.8933951063328346e-06,1.7290452049482648e-06,1.9460888022164992e-06,2.2025187317916353e-06,3.855682198082998e-06,3.417564236300298e-06,1.6982983480474855e-05,1.2178004747790923e-06,1.5569573958297488e-06,1.8807989184574282e-06,8.981006299645109e-07,7.705438293956001e-07,2.455789481019704e-06
248,1.7482834615088496e-06,2.0375134171324563e-06,1.506210416938082e-06,1.871501436608313e-06,1.715458421769123e-06,1.9531476326479124e-06,2.1687718761357243e-06,3.846748337670313e-06,3.4360540453782668e-06,1.892476624438412e-05,1.1922456337203611e-06,1.5533336013983427e-06,1.8524943142320396e-06,8.992157647822149e-07,8.985183510009932e-07,2.465760297530894e-06
249,1.7228572152624303e-06,2.0071671716472e-06,1.492768708325452e-06,1.8428348009679164e-06,1.6978854851746786e-06,1.9537851605549796e-06,2.132773038046049e-06,3.834934618205489e-06,3.4673760194912088e-06,2.1026079080299758e-05,1.1649933748858935e-06,1.5473548494956225e-06,1.8231590257444379e-06,9.025296134194236e-07,1.0481242437537815e-06,2.4790641199798e-06
250,1.7016017452117708e-06,1.9754199262347355e-06,1.481366919862355e-06,1.8082204248336904e-06,1.6775910462995712e-06,1.9482330849278835e-06,2.0948739051776712e-06,3.8220012479479035e-06,3.5107468133836877e-06,2.3267899967949013e-05,1.136873157959627e-06,1.5394267694533638e-06,1.7930858087082612e-06,9.079355884852345e-07,1.221534582918e-06,2.4966920189684223e-06
251,1.6841093824021736e-06,1.9421741324214247e-06,1.4723589883405568e-06,1.7687129619309049e-06,1.6557022165910472e-06,1.9372112198804653e-06,2.0556444371098653e-06,3.8095860348155486e-06,3.565737163309381e-06,2.5626349044117457e-05,1.1088257000738356e-06,1.5299689567947871e-06,1.7625206747849288e-06,9.152658307295972e-07,1.420949549282798e-06,2.5195383826176275e-06
252,1.6697714948709043e-06,1.907360454252879e-06,1.4658601795948084e-06,1.7255281830044807e-06,1.6331318723007523e-06,1.921658208012411e-06,2.0158056028514287e-06,3.799178014983718e-06,3.6320380128278357e-06,2.807231785554861e-05,1.0817276346049107e-06,1.5194371479402652e-06,1.7317355186547225e-06,9.242861775855948e-07,1.6484340291673727e-06,2.548361254860564e-06
253,1.6579187468860787e-06,1.8710551916817228e-06,1.461709943078328e-06,1.6798133814992344e-06,1.6106314503227592e-06,1.9024476417022275e-06,1.9760676318753624e-06,3.7920223294376165e-06,3.7090088367779496e-06,3.057129382735251e-05,1.0562874431465903e-06,1.5083700699527456e-06,1.7009609756797462e-06,9.347798772493741e-07,1.9058499444325977e-06,2.5837514575686256e-06
254,1.6480420630746507e-06,1.8334689150253929e-06,1.4594813919111583e-06,1.6325020616820752e-06,1.5888245213558551e-06,1.880191201562194e-06,1.9371602950307443e-06,3.7889862737530357e-06,3.79537933535775e-06,3.308333780602715e-05,1.0330142767033901e-06,1.4973431278388249e-06,1.6703010335871098e-06,9.466811803079332e-07,2.194822390112706e-06,2.6262336289326696e-06
255,1.6399539234166233e-06,1.7949172140809947e-06,1.45861483911774e-06,1.5843552345608506e-06,1.5681846796201783e-06,1.8551904343128557e-06,1.8999768747659892e-06,3.7904732543708028e-06,3.889135554601431e-06,3.5563258844877666e-05,1.0122340923044794e-06,1.486864302506431e-06,1.6397640479265296e-06,9.601366280238556e-07,2.516686281273281e-06,2.6764040961435123e-06
256,1.633784018375102e-06,1.7558277063431886e-06,1.4586801593615897e-06,1.5360689677555337e-06,1.5490496426040412e-06,1.8275542181772756e-06,1.8655628588078623e-06,3.796446494976213e-06,3.987493690561847e-06,3.79617976493371e-05,9.941388116748885e-07,1.4773260489105054e-06,1.6093854762174889e-06,9.753955551324223e-07,2.872389069717126e-06,2.734978732951634e-06
257,1.6298591594735228e-06,1.7167211603245823e-06,1.4595972358900745e-06,1.4883312202001312e-06,1.531691539363244e-06,1.7974158921402708e-06,1.8349324882317058e-06,3.806509146752852e-06,4.086937226475642e-06,4.022891094804848e-05,9.788198382919234e-07,1.4689656912527635e-06,1.5793149429371573e-06,9.926302033550216e-07,3.2623762681434224e-06,2.802757800955953e-06
258,1.6285426089979733e-06,1.6781479212525428e-06,1.4616209161681402e-06,1.441843917671211e-06,1.516308044095703e-06,1.7650742977100466e-06,1.8089018217371767e-06,3.819886680917691e-06,4.183311681823557e-06,4.231843728600185e-05,9.662854768498686e-07,1.4617948329077822e-06,1.5497763685238194e-06,1.0118401585350283e-06,3.6865199621882e-06,2.8805538324744577e-06
259,1.6300690345042497e-06,1.640606680002252e-06,1.4651066482276375e-06,1.3973431069650569e-06,1.502919944743255e-06,1.7309377154825718e-06,1.788022213030432e-06,3.835272342079959e-06,4.272029603187625e-06,4.4190951269929787e-05,9.56509050577528e-07,1.4556150691459118e-06,1.5209788571701899e-06,1.0328479268452623e-06,4.144075522190456e-06,2.9690947903258816e-06
260,1.6344343726476206e-06,1.6044545542224075e-06,1.470267191508252e-06,1.3555839850173343e-06,1.49130541965491e-06,1.6954301471047984e-06,1.7725437358547682e-06,3.8507150044877055e-06,4.348401582785431e-06,4.58118348868619e-05,9.494569110771003e-07,1.450172328308692e-06,1.4931026742560628e-06,1.055365083533734e-06,4.633583281983868e-06,3.068927039554674e-06
261,1.6413829381687698e-06,1.5698803316165366e-06,1.4770713794177e-06,1.3172672676017803e-06,1.4810359461456908e-06,1.659063521404281e-06,1.7623731679992058e-06,3.863682190397201e-06,4.408021447241115e-06,4.7145861089256245e-05,9.450365315447546e-07,1.4453350371673448e-06,1.4663012563975324e-06,1.079151807184982e-06,5.152711169834952e-06,3.1803332653994134e-06
262,1.6504489759789967e-06,1.5369861898418538e-06,1.4852935337932272e-06,1.2829581914295534e-06,1.4716363618761549e-06,1.6225626487809542e-06,1.7570973501628328e-06,3.871236404207386e-06,4.447139169884961e-06,4.8154494394469665e-05,9.430488531036384e-07,1.4411850544150663e-06,1.4406308335766757e-06,1.104199557857222e-06,5.698166934055864e-06,3.303237339668729e-06
263,1.6610125663340398e-06,1.5058697855280448e-06,1.4946646251442666e-06,1.2530893443187616e-06,1.4628220527737264e-06,1.5868496518367595e-06,1.7561737794870294e-06,3.8703098232400735e-06,4.4628510747038635e-06,4.8800728791048425e-05,9.432321086102049e-07,1.4379980801924817e-06,1.415968176370005e-06,1.130785151787983e-06,6.265774912047152e-06,3.437077633834243e-06
264,1.6723726937453765e-06,1.4766568305982118e-06,1.5049950978095434e-06,1.2280441253637918e-06,1.454641905833532e-06,1.5529170418214325e-06,1.7592723819253737e-06,3.858162767618201e-06,4.452915616574031e-06,4.905917943037209e-05,9.453235425915836e-07,1.4361384477798646e-06,1.3919948109659265e-06,1.159339822507629e-06,6.850603023102836e-06,3.580677695964575e-06
265,1.6837873526578326e-06,1.4495590663355557e-06,1.5161489723100811e-06,1.2081940206164088e-06,1.4474005895709485e-06,1.5216961505244023e-06,1.7665286796324097e-06,3.832936634262124e-06,4.415531952262152e-06,4.892478990413357e-05,9.490410163830632e-07,1.4359716513494713e-06,1.3682404916551754e-06,1.190256590441029e-06,7.4469437302137715e-06,3.7321660057364814e-06
266,1.6944460517588948e-06,1.4249271499011967e-06,1.5279499608780445e-06,1.1938520532569787e-06,1.4414230321807875e-06,1.493970509256595e-06,1.7784669142752885e-06,3.793989762231202e-06,4.349810466833765e-06,4.841436717293021e-05,9.54027446100864e-07,1.4378929077361803e-06,1.3441513196604878e-06,1.2238333745813773e-06,8.048122721211702e-06,3.888956997826476e-06
267,1.7034762914790032e-06,1.4031862433205195e-06,1.540172274292906e-06,1.1852377242001894e-06,1.4368594376296679e-06,1.4703577081264062e-06,1.795666880213398e-06,3.7418033051382446e-06,4.256779544977075e-06,4.755943275256471e-05,9.598456176203156e-07,1.4423853493971048e-06,1.3192195188168774e-06,1.2604292943621913e-06,8.646237502071436e-06,4.047743488442087e-06
268,1.7100130748019775e-06,1.384676939560872e-06,1.55257955038991e-06,1.1824671419528323e-06,1.4336945519106146e-06,1.4513331503719533e-06,1.818459175311674e-06,3.6775919172877116e-06,4.139722464644113e-06,4.6395517701622225e-05,9.6601778598708e-07,1.4499559295796445e-06,1.293188825211885e-06,1.3006799100059632e-06,9.231865260048029e-06,4.2044845050601395e-06
269,1.7132023952271428e-06,1.3695422163730575e-06,1.5648952497859236e-06,1.185512182350403e-06,1.431925664005258e-06,1.4372395174677315e-06,1.8467883797035993e-06,3.602969475323547e-06,4.003335984165537e-06,4.4955840241904055e-05,9.720566722190016e-07,1.4609687657659098e-06,1.2661637329445226e-06,1.3455336971405048e-06,9.793778437251666e-06,4.354406303351241e-06
270,1.7121960544550803e-06,1.3577166315461554e-06,1.5767557841935142e-06,1.1941595162188916e-06,1.4316884156311757e-06,1.4282745034295201e-06,1.8801829726328938e-06,3.519895722834725e-06,3.852583991864924e-06,4.327124304623106e-05,9.775054700676994e-07,1.4755265508914692e-06,1.238496578899497e-06,1.3961233453935486e-06,1.0318888074423736e-05,4.492028519735908e-06
271,1.7063127956812925e-06,1.3489515114706025e-06,1.587723726027046e-06,1.208015768410515e-06,1.4332192976689226e-06,1.4244614436161452e-06,1.9177909546962866e-06,3.43079089544836e-06,3.6920971743988156e-06,4.137189721175932e-05,9.82024301197102e-07,1.4934883825381575e-06,1.2106152062540711e-06,1.4536878172141413e-06,1.0792765882657783e-05,4.611437469848626e-06
272,1.695235342544646e-06,1.3428424945360648e-06,1.5972945568565933e-06,1.2265239249757188e-06,1.436841714806256e-06,1.4256217789817946e-06,1.9585226492329983e-06,3.338480498570643e-06,3.5260537944311744e-06,3.9288485969802425e-05,9.854610366724053e-07,1.5145512880806803e-06,1.1829517027813276e-06,1.5195532320572838e-06,1.1200960263711423e-05,4.70710104979185e-06
273,1.6789857830287218e-06,1.3388963558856312e-06,1.6048668452809814e-06,1.2489770384443325e-06,1.4430849580859805e-06,1.4314106825544754e-06,2.0012499377347183e-06,3.2458180060996503e-06,3.358151159391723e-06,3.705408052428409e-05,9.878305234580322e-07,1.5382679536936216e-06,1.1559352550325935e-06,1.5950286766349603e-06,1.153090558050083e-05,4.774951661089109e-06
274,1.6577023084955142e-06,1.3366152917923702e-06,1.6097381441065566e-06,1.2745932542074463e-06,1.4527067874745646e-06,1.4413901297643807e-06,2.044894348255851e-06,3.155230303759159e-06,3.191551931631471e-06,3.470602541195452e-05,9.892167653302536e-07,1.5640172435117127e-06,1.130017168261162e-06,1.6812465004097651e-06,1.1773683580107338e-05,4.812979891098745e-06
275,1.6314645242343037e-06,1.3355181463016794e-06,1.611141678120161e-06,1.3026539400491415e-06,1.4665000440771639e-06,1.455042118559715e-06,2.0884134596012913e-06,3.0684678943904476e-06,3.0289433671898745e-06,3.228556615903974e-05,9.896878860950226e-07,1.5910202424479456e-06,1.1056976272399249e-06,1.7790761927402713e-06,1.1924528113884358e-05,4.820881822782053e-06
276,1.6003456951085087e-06,1.3351439585194664e-06,1.6083186324879174e-06,1.3325844701125325e-06,1.4851021878053623e-06,1.471766910368157e-06,2.1308584038184043e-06,2.9865645851538967e-06,2.872754974979616e-06,2.983512072085648e-05,9.893250598401393e-07,1.6184065915479745e-06,1.0834693851198595e-06,1.8891669289315697e-06,1.1981578453096188e-05,4.799079444411787e-06
277,1.5646287460842134e-06,1.3351508803828905e-06,1.6006543631130458e-06,1.363889480014673e-06,1.5089677587613122e-06,1.4909861994188887e-06,2.1714446148806635e-06,2.9099373618947003e-06,2.725279381079649e-06,2.7395083673617e-05,9.883358358460415e-07,1.6453396215048342e-06,1.0637102019052801e-06,2.0120437275908587e-06,1.194427458953575e-05,4.748098873369607e-06
278,1.5249886909322829e-06,1.3354233857558566e-06,1.587844282531434e-06,1.3959968619298834e-06,1.5384023471986965e-06,1.5122964960002995e-06,2.209439997950074e-06,2.8386322782514737e-06,2.5885270522665652e-06,2.500153907718067e-05,9.870933477655036e-07,1.6712311903498507e-06,1.0466524728683443e-06,2.148095772216439e-06,1.181342352519042e-05,4.668896953675319e-06
279,1.4825322290877616e-06,1.3360321131520332e-06,1.5699624318100053e-06,1.4281425886737625e-06,1.5735282365336841e-06,1.53551014386693e-06,2.243931317380592e-06,2.7726622204936338e-06,2.464021695308225e-06,2.2685075350517062e-05,9.860323146297881e-07,1.6959726353832533e-06,1.032439184230942e-06,2.2974331092678203e-06,1.1592709795179152e-05,4.56353184611558e-06
280,1.4386930238698405e-06,1.3371191480767434e-06,1.5473602531285132e-06,1.4593566213150033e-06,1.6142081957557043e-06,1.5605348382876243e-06,2.2737228776170527e-06,2.7122877727883195e-06,2.3527785154260333e-06,2.0470513581139987e-05,9.854966204178009e-07,1.7200371702640102e-06,1.0211485672983629e-06,2.459768586614144e-06,1.1289650272058085e-05,4.435346684338869e-06
281,1.3950228041343398e-06,1.3388458968212518e-06,1.5204631254313725e-06,1.4885031488708456e-06,1.6600030482551314e-06,1.5871897197859262e-06,2.297486881018943e-06,2.6581123405083382e-06,2.2554714325986354e-06,1.8377354812021493e-05,9.856618502695058e-07,1.7443684841044387e-06,1.0127389533002236e-06,2.634419976199945e-06,1.091503085158112e-05,4.288600351137183e-06
282,1.3529780055718874e-06,1.341378006362493e-06,1.4896105908102374e-06,1.5143588885814564e-06,1.710164775904679e-06,1.6150914024132785e-06,2.3140586028579584e-06,2.6109773741161493e-06,2.172645689479549e-06,1.6420682018709017e-05,9.865629209329303e-07,1.770102815060714e-06,1.007010628511002e-06,2.820380475713653e-06,1.0481401940656055e-05,4.12793000557427e-06
283,1.3137992582544545e-06,1.3448961534205783e-06,1.4550812677137895e-06,1.5357705654430997e-06,1.7636422057338884e-06,1.643647408352563e-06,2.3227158345935595e-06,2.571749265717154e-06,2.104830122960529e-06,1.461214666824455e-05,9.881513322318435e-07,1.7982783088304018e-06,1.003665840659654e-06,3.0163946275543726e-06,1.0001480136607406e-05,3.957932039944928e-06
284,1.2784787393226545e-06,1.3496858646068815e-06,1.4172963335629816e-06,1.5518682320511357e-06,1.8191209094626166e-06,1.6721283891572085e-06,2.3233521395373096e-06,2.541103975232989e-06,2.052519271547068e-06,1.296070127044181e-05,9.903084774719678e-07,1.8296607857571384e-06,1.00238806258552e-06,3.2209980236769922e-06,9.48693107306753e-06,3.7829031304030186e-06
285,1.2477609988929662e-06,1.3561918283865884e-06,1.3769911918310958e-06,1.5621965954766003e-06,1.8751398169869944e-06,1.6998242315307906e-06,2.316500465957622e-06,2.519367433180173e-06,2.0161379446787568e-06,1.1473029548356546e-05,9.92830354523943e-07,1.864684937860014e-06,1.0028228178572997e-06,3.4324547247156304e-06,8.947759324984208e-06,3.606689461046146e-06
286,1.2221641158159713e-06,1.3648922584650098e-06,1.3351693801404442e-06,1.5666469973964924e-06,1.930270603416681e-06,1.7262319843948953e-06,2.3032017954540296e-06,2.506425003480121e-06,1.9960767177114594e-06,1.0153808861776077e-05,9.954221787869303e-07,1.9034501408706246e-06,1.004498301077685e-06,3.6486048101051405e-06,8.392382831919581e-06,3.4326370340214243e-06
287,1.2020429082661122e-06,1.3760988277765803e-06,1.2928865935131348e-06,1.5653281686112092e-06,1.9832984055560693e-06,1.7511356631863317e-06,2.284784040653965e-06,2.50168927999682e-06,1.992710747960233e-06,9.00582538077625e-06,9.97692076946624e-07,1.9457412659365253e-06,1.0068195514082524e-06,3.866797769984274e-06,7.828166269343036e-06,3.263600297582686e-06
288,1.187664108456554e-06,1.3898467343084775e-06,1.2510486000445134e-06,1.5586207032194324e-06,2.033355046348915e-06,1.7745474979856242e-06,2.2626621362985074e-06,2.5041226659005792e-06,2.0062992608808232e-06,8.030002777699324e-06,9.991309447309332e-07,1.991041851780026e-06,1.0091969999263758e-06,4.08405512203781e-06,7.261963454776858e-06,3.1019051271346977e-06
289,1.1792059238616867e-06,1.4058774528797751e-06,1.2103274001024297e-06,1.5473328499035765e-06,2.079964878526205e-06,1.7966292434189982e-06,2.23821203327765e-06,2.512356750792085e-06,2.0368418921692665e-06,7.225539590121862e-06,9.991319150497117e-07,2.0385100421640473e-06,1.0112335077029821e-06,4.297305359733243e-06,6.700356015693309e-06,2.949261007865554e-06
290,1.1766851041417047e-06,1.4236669422343102e-06,1.171181257276307e-06,1.5326585528295446e-06,2.1229458840897635e-06,1.8176612566232263e-06,2.212671751408473e-06,2.524958384154734e-06,2.0839917789920953e-06,6.590130862052059e-06,9.971173944521343e-07,2.0869649101833323e-06,1.0128079538586106e-06,4.503377953625193e-06,6.149533662324166e-06,2.8067369920828115e-06
291,1.1799119589767356e-06,1.4424714739084235e-06,1.133929420904472e-06,1.515900429248161e-06,2.16217732312084e-06,1.8379847208122663e-06,2.1870170497021106e-06,2.5407684593506483e-06,2.1470008881702225e-06,6.12007614129958e-06,9.92742965663959e-07,2.1349630295339415e-06,1.0140266763373156e-06,4.698796249281669e-06,5.614964235107615e-06,2.674837600428921e-06
292,1.1885165014777587e-06,1.4613851697704025e-06,1.0988265668928585e-06,1.4981982010137285e-06,2.197444067823994e-06,1.8578670268475296e-06,2.161833517135793e-06,2.559081906683534e-06,2.224675554152585e-06,5.810316635989611e-06,9.86056110907857e-07,2.1809692124923736e-06,1.01517915994152e-06,4.8798366341985055e-06,5.1011865538180324e-06,2.553607903015869e-06
293,1.2020049148543578e-06,1.4794706287982012e-06,1.066098888015837e-06,1.4804194467738485e-06,2.2285234314838844e-06,1.8774317696504994e-06,2.1372493059596626e-06,2.5794922946798374e-06,2.315393332048172e-06,5.654548621345407e-06,9.774975664339532e-07,2.223560870422779e-06,1.0167132135857043e-06,5.043095608060618e-06,4.611918876195914e-06,2.4427953204651944e-06
294,1.2197840738517002e-06,1.495971757416655e-06,1.035931586772807e-06,1.463173634149681e-06,2.255339506467841e-06,1.8967826609416071e-06,2.1129643078913837e-06,2.6015138445865837e-06,2.4171916274834654e-06,5.645406020307468e-06,9.677433484766474e-07,2.2616168447430556e-06,1.0191459254859584e-06,5.186212441362458e-06,4.1502490662331005e-06,2.3420882947009753e-06
295,1.2411447747626279e-06,1.510464591894373e-06,1.0084258270894007e-06,1.4468631688313284e-06,2.277958338182124e-06,1.916188069794455e-06,2.088381039562809e-06,2.6242988674437125e-06,2.5278494332306503e-06,5.77471460676725e-06,9.575053401228183e-07,2.2944890422643785e-06,1.0229524926405367e-06,5.308299450262409e-06,3.718642133599084e-06,2.251205024015233e-06
296,1.265301029364398e-06,1.5228181979059717e-06,9.835787747376813e-07,1.4317063592574458e-06,2.2964749440667565e-06,1.9361227835442353e-06,2.0628372262704137e-06,2.6466597581507176e-06,2.644984715782767e-06,6.033702220030444e-06,9.474047667821997e-07,2.322153218073265e-06,1.028505298479528e-06,5.410015880241693e-06,3.31884345949922e-06,2.1697315294603926e-06
297,1.2915293477663466e-06,1.5330245340666963e-06,9.613043429112737e-07,1.4177418228530758e-06,2.310985926777446e-06,1.957128995344153e-06,2.035878169234212e-06,2.667352628646795e-06,2.7662704530007373e-06,6.4128682044987376e-06,9.379386004056043e-07,2.3452577391005372e-06,1.036076545455377e-06,5.493417353563892e-06,2.951867700683827e-06,2.0970337771270838e-06
298,1.3192608258444138e-06,1.5410725008090953e-06,9.414719313215003e-07,1.4049005226191265e-06,2.321725483921838e-06,1.979595921840619e-06,2.0074430292995394e-06,2.6854466736765836e-06,2.8896490923168327e-06,6.901582038639661e-06,9.294859395418188e-07,2.3649540508520264e-06,1.045910488219213e-06,5.561513640569443e-06,2.618097562761246e-06,2.0324815146392648e-06
299,1.3480279488472477e-06,1.546963490061327e-06,9.239868761796283e-07,1.3931550703344814e-06,2.3292294811689163e-06,2.003592974628388e-06,1.9778823182625893e-06,2.700620492327821e-06,3.013339795663182e-06,7.487768511123273e-06,9.22306960541398e-07,2.3825243237388794e-06,1.0583320447193144e-06,5.617509133118783e-06,2.3173844436574844e-06,1.975761565742466e-06
300,1.3773850619194228e-06,1.5507897713506173e-06,9.089007652987304e-07,1.3826402347079302e-06,2.334309365639715e-06,2.0288267669159313e-06,1.9478111328611246e-06,2.71329523261026e-06,3.1356439226219174e-06,8.157761821706666e-06,9.165387848448536e-07,2.399061131599898e-06,1.0738299137978853e-06,5.664237723746177e-06,2.0490875324205884e-06,1.9269628820355743e-06
301,1.4069087085039982e-06,1.552724323832127e-06,8.964272337564884e-07,1.3736409647422114e-06,2.337812256346178e-06,2.0547399422196147e-06,1.9179147062974573e-06,2.7245585218545033e-06,3.2546786339100325e-06,8.896248122109482e-06,9.122164809243208e-07,2.4154452740014576e-06,1.0930670969628478e-06,5.704294253049136e-06,1.8120974158953492e-06,1.8864080750549526e-06
302,1.436200988480194e-06,1.55290163960658e-06,8.868198310981774e-07,1.366456213905123e-06,2.340431715342819e-06,2.0807164709259566e-06,1.8888550798496757e-06,2.7358639018733928e-06,3.3682170891498993e-06,9.686342803814029e-06,9.093139109856305e-07,2.432534115952072e-06,1.1168045530811508e-06,5.740688982762988e-06,1.6049036719248092e-06,1.854409404852443e-06
303,1.4647933167444778e-06,1.551308228176951e-06,8.802596256530271e-07,1.3612949546476716e-06,2.342745473998593e-06,2.1062081490501216e-06,1.8612399553993572e-06,2.748613161418175e-06,3.4738782352996737e-06,1.050986370632113e-05,9.077434778208688e-07,2.4512780761344023e-06,1.1458005447707625e-06,5.77761306991409e-06,1.425686530119398e-06,1.8310849070598176e-06
304,1.4920219071610782e-06,1.5477345861827972e-06,8.768707045173385e-07,1.358332915891876e-06,2.3452732944445573e-06,2.130635159066508e-06,1.8355444707001521e-06,2.763878845946006e-06,3.569717253431129e-06,1.1347633213586639e-05,9.073099002091848e-07,2.472624151395508e-06,1.1807569793464645e-06,5.821040098916253e-06,1.272380117399954e-06,1.8162720259210276e-06
305,1.517039161054785e-06,1.5417643423730812e-06,8.767908201752582e-07,1.3578476708314703e-06,2.3483644386359115e-06,2.1532246920166037e-06,1.8120633329152025e-06,2.7823890340625615e-06,3.654774859731954e-06,1.2179864671347014e-05,9.077092979648404e-07,2.497330811511868e-06,1.2222820338929727e-06,5.8789704018856226e-06,1.1427360634307069e-06,1.8095365559178332e-06
306,1.5389774082921095e-06,1.5328432483890483e-06,8.801712704324096e-07,1.3602779628033754e-06,2.3520939744657015e-06,2.1730555269913684e-06,1.7909651262161135e-06,2.8045786716979162e-06,3.7290383686520935e-06,1.2987133306766345e-05,9.08586774556154e-07,2.5259156515811188e-06,1.2708296970511883e-06,5.961254515105366e-06,1.0344339917682902e-06,1.8102557384693232e-06
307,1.5571180015425746e-06,1.5204552030869809e-06,8.871108619543486e-07,1.3661590254802531e-06,2.356359801365631e-06,2.189325258198941e-06,1.7723289069542315e-06,2.8305351958158796e-06,3.792965809192941e-06,1.3751604595779282e-05,9.095699845389197e-07,2.5587430430415496e-06,1.3266524436108119e-06,6.078953002486901e-06,9.451969220736586e-07,1.8177233149451309e-06
308,1.5709700660546888e-06,1.5043159096230935e-06,8.976463857408909e-07,1.3759857434965596e-06,2.3610573566060796e-06,2.2016122802906635e-06,1.7560830166950376e-06,2.859927420207869e-06,3.847174641292788e-06,1.445738810783922e-05,9.102765210088423e-07,2.596066744710293e-06,1.3897893166709e-06,6.243344724635493e-06,8.72878481972734e-07,1.831193331271393e-06
309,1.5803004720699664e-06,1.4844921623924554e-06,9.118316684342963e-07,1.3901215656334055e-06,2.3661361245197164e-06,2.2098874688994512e-06,1.7419498884423351e-06,2.891994983607148e-06,3.8923620735414135e-06,1.5090014802519363e-05,9.103552532835698e-07,2.637979359179532e-06,1.4600631165575292e-06,6.46513684135124e-06,8.155113665784853e-07,1.8498248950054964e-06
310,1.5851319213361481e-06,1.461439543087309e-06,9.297786718370572e-07,1.4088328178447065e-06,2.3715274048022532e-06,2.214247960846982e-06,1.7294639125593734e-06,2.925566053263535e-06,3.929146470760402e-06,1.5636173608026664e-05,9.095666699435146e-07,2.6843867098309123e-06,1.537057236353246e-06,6.7541804730108525e-06,7.7126679171508e-07,1.8726395193291851e-06
311,1.5856567453338634e-06,1.4359735695223943e-06,9.516149801504439e-07,1.4323766317073266e-06,2.3770474377478372e-06,2.214610995825256e-06,1.7180173159711963e-06,2.9591713061638097e-06,3.957831255562025e-06,1.6084257064875484e-05,9.078683728626311e-07,2.7350069562907757e-06,1.620094575147763e-06,7.119285299091438e-06,7.3836587844274e-07,1.898575548739224e-06
312,1.5821533380874434e-06,1.4091611851595974e-06,9.774342121901843e-07,1.4610153470499446e-06,2.3823414314285475e-06,2.2106034800147045e-06,1.7069755907762357e-06,2.9913175505465298e-06,3.978220260445599e-06,1.6425145162025507e-05,9.054513425702855e-07,2.7892870590810673e-06,1.7083070281701199e-06,7.56789245638435e-06,7.150786529758223e-07,1.9265189889087223e-06
313,1.5750450368059456e-06,1.3821410469601405e-06,1.0072419930823134e-06,1.4949330998419073e-06,2.386839300393591e-06,2.2016507795418786e-06,1.6958996965747782e-06,3.0207943450843332e-06,3.989463911161505e-06,1.6652060839733624e-05,9.026846774841082e-07,2.8463047948411613e-06,1.8008357573384735e-06,8.105809020656077e-06,6.998433403753728e-07,1.9552707432173105e-06
314,1.5649866869104567e-06,1.3559441190911542e-06,1.040878096156332e-06,1.5341426600752028e-06,2.3897186787210427e-06,2.187156552281107e-06,1.6847248810897532e-06,3.046860985911927e-06,3.989984748731094e-06,1.6759348852454106e-05,9.000062836371158e-07,2.9048297906806977e-06,1.8970056493988664e-06,8.737078476661575e-06,6.913652626979184e-07,1.9835983239810123e-06
315,1.5527880561576975e-06,1.331388712085688e-06,1.0779609244303775e-06,1.5784712162814561e-06,2.390002927640593e-06,2.1667388103187384e-06,1.673736863354726e-06,3.069288554722677e-06,3.97771012149173e-06,1.6742536585665115e-05,8.978497197116086e-07,2.963548672314565e-06,1.996265749282344e-06,9.463881149093771e-06,6.885418274029753e-07,2.0103905319618033e-06
316,1.5392115132627898e-06,1.3090506614451566e-06,1.117884962367028e-06,1.6275879694455041e-06,2.3868394984764286e-06,2.140493202261085e-06,1.6633619337082624e-06,3.088311808865667e-06,3.950687232720575e-06,1.6601113710506017e-05,8.966472660904275e-07,3.0213473340776837e-06,2.097978464738211e-06,1.028636922500357e-05,6.902936160672194e-07,2.0348001225417633e-06
317,1.5247907679609958e-06,1.2892618335051277e-06,1.1598597619336371e-06,1.680978597703972e-06,2.3797544559067586e-06,2.1091317232818843e-06,1.653920941843489e-06,3.104557110985862e-06,3.907666230038295e-06,1.6341067855040507e-05,8.968374909775085e-07,3.077566927110977e-06,2.2012781265409606e-06,1.1202449027611297e-05,6.955157534108902e-07,2.056338967219478e-06
318,1.5097570883378905e-06,1.272129154847811e-06,1.2029746555651434e-06,1.7378846275272684e-06,2.368688423243409e-06,2.073829557328167e-06,1.645476623097039e-06,3.118991830903994e-06,3.848114895079553e-06,1.597428774066343e-05,8.988007269834219e-07,3.132127499996803e-06,2.3050076649379626e-06,1.2207639589004853e-05,7.031731559519564e-07,2.07490784922721e-06
319,1.4940938952296302e-06,1.257615437025911e-06,1.2463059824248562e-06,1.7972839777628094e-06,2.3538349379442323e-06,2.0358362081017665e-06,1.6377929623615294e-06,3.1329127061459466e-06,3.771811880070239e-06,1.5516121474765958e-05,9.027745553832388e-07,3.185422548836071e-06,2.4077176040328905e-06,1.3295057648544732e-05,7.124006948515803e-07,2.090712690368888e-06
320,1.4776761515797276e-06,1.2456783504737873e-06,1.2890915248030997e-06,1.8579637341569624e-06,2.335404692343266e-06,1.99611937502326e-06,1.630419274321516e-06,3.147933749817323e-06,3.678776282382982e-06,1.4983361755092238e-05,9.088386506669973e-07,3.238019225951805e-06,2.5078056367204177e-06,1.4455393970960942e-05,7.22523636355417e-07,2.1041201874667075e-06
321,1.4604106214599026e-06,1.236358847058191e-06,1.3309004572486958e-06,1.918703371859433e-06,2.313433185072449e-06,1.955214163299209e-06,1.6229126588979935e-06,3.1658595446282666e-06,3.569764177626395e-06,1.4392810985676536e-05,9.169607579964337e-07,3.290310581736699e-06,2.6037385225732e-06,1.567671409747478e-05,7.330062914381142e-07,2.1155498259055813e-06
322,1.4423292012374315e-06,1.2297350032461318e-06,1.3716404372466026e-06,1.9784741753253646e-06,2.2877213576785183e-06,1.913240737374061e-06,1.6150361146544803e-06,3.1883933312639184e-06,3.446657503549033e-06,1.3759792162233862e-05,9.270591661364027e-07,3.3422982003076394e-06,2.6942270762711606e-06,1.6944049873509574e-05,7.433972746165407e-07,2.1253684072620833e-06
323,1.4236432901351853e-06,1.2258456358419031e-06,1.4113543777841276e-06,2.0365376944036583e-06,2.257917641528329e-06,1.8700260546948183e-06,1.6067106870206724e-06,3.2168444072319025e-06,3.3122080130984853e-06,1.3096989839976668e-05,9.390658158657037e-07,3.3936631819759094e-06,2.7783292432962185e-06,1.823895692469697e-05,7.533401217077451e-07,2.133735378927393e-06
324,1.404753547888998e-06,1.2247155953713831e-06,1.4499644705280466e-06,2.092451031296285e-06,2.223627447295618e-06,1.8252710929605797e-06,1.5977926679253098e-06,3.252038389069435e-06,3.1694385092423424e-06,1.2414310212007625e-05,9.52963350788669e-07,3.444078223341939e-06,2.855429344855861e-06,1.953951495077616e-05,7.626174150321755e-07,2.1405137980961848e-06
325,1.3861738260774212e-06,1.226408971147011e-06,1.4871242001154718e-06,2.1460374259752644e-06,2.1844228141971323e-06,1.7786806374799445e-06,1.5879799099019878e-06,3.294375350731635e-06,3.0213054494785422e-06,1.1719448709822871e-05,9.687784214959337e-07,3.4934657725247416e-06,2.925055458107142e-06,2.082133080220436e-05,7.71150542837478e-07,2.1453790940506657e-06
326,1.3683845956958077e-06,1.2309815657581825e-06,1.5221823571273883e-06,2.1973404086036733e-06,2.1398325146278685e-06,1.7300713206203575e-06,1.5769875625888864e-06,3.3438226310834168e-06,2.8707331583821877e-06,1.1018544171467878e-05,9.86542296152882e-07,3.5419943939291897e-06,2.9867985706289203e-06,2.2059578969657248e-05,7.789434373802332e-07,2.148073176427525e-06
327,1.3517120199700687e-06,1.2383564691448014e-06,1.5542296659780952e-06,2.2465352887722456e-06,2.0895294126544397e-06,1.6795179785493902e-06,1.5648273856862788e-06,3.399798232076092e-06,2.720664448215229e-06,1.0317074702197554e-05,1.0062313229030836e-06,3.589845766921325e-06,3.0405603680823074e-06,2.323143379211636e-05,7.859970244338933e-07,2.1486020824100527e-06
