,EMG1,EMG2,EMG3,EMG4,EMG5,EMG6,EMG7,EMG8,EMG9,EMG10,EMG11,EMG12,EMG13,EMG14,EMG15,EMG16
0,3.3280685185554874e-07,2.0890626421499992e-07,-2.89329176968215e-07,1.419445925038006e-07,1.734244970601505e-07,1.7636728138307409e-07,4.815298803177865e-07,3.5501162173570805e-07,2.587395023965007e-07,-3.1009088537260536e-08,1.0024628708585327e-07,8.544468761526748e-07,-5.335377839909576e-08,4.214647192243606e-07,2.2003149726265118e-06,3.5468274851050783e-07
1,4.931429084966118e-07,2.5602876467906844e-07,1.2252727330988164e-08,2.422590292537873e-07,4.2266492895862275e-07,3.0962416729194025e-07,6.429094391551765e-07,4.0694471374980014e-07,4.2908720697275123e-07,5.107211110092535e-07,1.5272819532352692e-07,1.1637631873161902e-06,7.760680269607133e-08,6.724118071548292e-07,2.520279474226028e-06,6.94068694707301e-07
2,6.493834535004266e-07,3.045708706256282e-07,3.0172935652598404e-07,3.4275038251103317e-07,6.68410967234176e-07,4.424186997793017e-07,8.04578617532949e-07,4.6121306346244275e-07,5.92341536303091e-07,1.025415994479502e-06,2.0534893294923527e-07,1.4682603065113762e-06,2.0663806071602904e-07,9.147395343316694e-07,2.8743651191825154e-06,1.0338451334811893e-06
3,7.990444326849424e-07,3.538897955540848e-07,5.736911833141226e-07,4.42723032408486e-07,9.091793207072042e-07,5.73224246799176e-07,9.643174233466832e-07,5.170671328078372e-07,7.476767790616143e-07,1.5034230591274147e-06,2.5682719308748705e-07,1.7649552345631895e-06,3.3210050599593196e-07,1.1438786508654064e-06,3.2628575518044454e-06,1.3716436833884918e-06
4,9.403688380230172e-07,4.0347260017011805e-07,8.238509612765709e-07,5.416077502326786e-07,1.1438617378754776e-06,7.007849564253231e-07,1.120192907296248e-06,5.740418665611595e-07,8.946878222012989e-07,1.935591634047006e-06,3.062822508116028e-07,2.0510076277586346e-06,4.524265756888661e-07,1.3562028949461017e-06,3.685617205607722e-06,1.705016888432209e-06
5,1.0723672107427934e-06,4.5288876590035885e-07,1.0492039338545949e-06,6.389348780193836e-07,1.3716362431266128e-06,8.24066612740759e-07,1.2708090032396804e-06,6.318651084508941e-07,1.033351479324458e-06,2.314088130325842e-06,3.53310850833238e-07,2.3239209096559714e-06,5.661558803950966e-07,1.5494751164287197e-06,4.142017459836322e-06,2.031410889181569e-06
6,1.1946832375149393e-06,5.017619543256989e-07,1.2479467545208405e-06,7.343282061650615e-07,1.591768964697519e-06,9.422624043926187e-07,1.4153817055093608e-06,6.903303365175427e-07,1.1638012998627875e-06,2.633294413241905e-06,3.978971720480048e-07,2.581684878009675e-06,6.72060709563321e-07,1.7227451570070137e-06,4.630841004610546e-06,2.3483346790603394e-06
7,1.3073983590410418e-06,5.49783886637708e-07,1.4193405810992787e-06,8.274799055171453e-07,1.8034349391518018e-06,1.0548654535560447e-06,1.553539333490219e-06,7.492801407535521e-07,1.2860926647092157e-06,2.890289277912969e-06,4.4026538740072356e-07,2.8227558121885196e-06,7.693327720780379e-07,1.875821926985985e-06,5.1501381573101134e-06,2.6536454646058937e-06
8,1.4108389628906246e-06,5.967713319340438e-07,1.5636132747575668e-06,9.180840807953595e-07,2.0056642369199904e-06,1.1617136286886297e-06,1.6849881883764844e-06,8.086507025565656e-07,1.4001205384308843e-06,3.0848706678145428e-06,4.807629154527744e-07,3.0459625926474876e-06,8.577063465124973e-07,2.0088883907732297e-06,5.697128471964561e-06,2.945692818614146e-06
9,1.5054510873941256e-06,6.42717007050712e-07,1.6818712548982059e-06,1.0058145418283956e-06,2.1974656291932733e-06,1.2629722967541608e-06,1.8092951160598048e-06,8.684620355875589e-07,1.5057692990370286e-06,3.219268259573451e-06,5.197689246394629e-07,3.2504671763889706e-06,9.374292431831471e-07,2.1225598563413495e-06,6.268115632918989e-06,3.2232389765994933e-06
10,1.591780645948076e-06,6.877371641358469e-07,1.775946062481205e-06,1.0903538316241903e-06,2.378055873724098e-06,1.3590451267761988e-06,1.9258802541257715e-06,9.287328996889088e-07,1.6032003278721515e-06,3.297582849143588e-06,5.576170584208174e-07,3.435787693240407e-06,1.0091164353142268e-06,2.2179901043015783e-06,6.858310160361518e-06,3.485327513350413e-06
11,1.6704610625032362e-06,7.319453511197941e-07,1.8481334854269387e-06,1.171379348721559e-06,2.547033277442536e-06,1.450417750851295e-06,2.034127028403113e-06,9.893734877647548e-07,1.692970622770747e-06,3.325033105047208e-06,5.94553509219185e-07,3.6018055857417122e-06,1.0735861701074798e-06,2.2966330797031517e-06,7.461567219465981e-06,3.7311870043071556e-06
12,1.742112506441971e-06,7.753866537964425e-07,1.900884780736502e-06,1.2485145498944335e-06,2.7043697517822916e-06,1.5375373525938286e-06,2.1334720174517117e-06,1.0501166171088602e-06,1.7758359483087998e-06,3.307208163939757e-06,6.307400486186407e-07,3.748680818710718e-06,1.1317641781935203e-06,2.3598849139226373e-06,8.070135390867094e-06,3.960045461629181e-06
13,1.8072349380528122e-06,8.180561045622931e-07,1.936565611503217e-06,1.321303313581719e-06,2.850219984419823e-06,1.620810722404492e-06,2.2233723605254983e-06,1.1105018071802877e-06,1.8524652329593895e-06,3.2495086045453146e-06,6.662777366667633e-07,3.876690895548275e-06,1.1846291569465476e-06,2.4089646288323553e-06,8.67447449887443e-06,4.170789361489254e-06
14,1.8661688014466371e-06,8.599390031827664e-07,1.9573403736249224e-06,1.3891750730050541e-06,2.984653267676814e-06,1.7006217112780787e-06,2.3031927486185545e-06,1.1698808295620183e-06,1.9233157087019736e-06,3.156874193217771e-06,7.01210940470305e-07,3.986108016035106e-06,1.2331084566455842e-06,2.4449779727042075e-06,9.263173729550037e-06,4.361623384992225e-06
15,1.9190504563709084e-06,9.010841765564558e-07,1.96515923987198e-06,1.4514349489460857e-06,3.107466656381621e-06,1.7772429178998237e-06,2.372225816576054e-06,1.22742548073062e-06,1.9886378688040728e-06,3.033799069548157e-06,7.355032871029352e-07,4.077165075512588e-06,1.2779698681971806e-06,2.4689098094952865e-06,9.82304781407091e-06,4.529909794164355e-06
16,1.965758212571096e-06,9.416933993503939e-07,1.9618052499734567e-06,1.507390693230705e-06,3.21822428815713e-06,1.8506961884284198e-06,2.429936285886049e-06,1.2821917818227342e-06,2.048447396809416e-06,2.8844787970318803e-06,7.690130175992179e-07,4.149982735001395e-06,1.319834373453091e-06,2.481543099434913e-06,1.0339560478459326e-05,4.67228363354878e-06
17,2.0059940703983785e-06,9.821094618045568e-07,1.9489776393393407e-06,1.5565619097179505e-06,3.316522657385431e-06,1.920670344704698e-06,2.476231774618031e-06,1.3333184778277545e-06,2.102460361302331e-06,2.712870262092278e-06,8.014845992819697e-07,4.204390097479201e-06,1.3592629521160972e-06,2.4834378649130756e-06,1.0797787368528299e-05,4.785130121884425e-06
18,2.039566601682194e-06,1.0227035012160077e-06,1.928389826097272e-06,1.5987939461128787e-06,3.4023378371580677e-06,1.9865306944508076e-06,2.511574222261107e-06,1.3802844970676126e-06,2.1501155718394344e-06,2.5226725393565158e-06,8.325559612627419e-07,4.239877568478185e-06,1.3967706531731984e-06,2.4749314505941125e-06,1.1183986406661578e-05,4.865308527797541e-06
19,2.0666901921541215e-06,1.0637817420476892e-06,1.9018281220873254e-06,1.6342091127221443e-06,3.476283774456997e-06,2.047449792132213e-06,2.536925775825229e-06,1.4229942714466742e-06,2.190721629106036e-06,2.3174223641887607e-06,8.617896992343226e-07,4.255852732978488e-06,1.4327727522697268e-06,2.456174970017304e-06,1.1487383261732157e-05,4.910734104400011e-06
20,2.088032515140873e-06,1.1055356312815553e-06,1.8710974263353305e-06,1.6630516188955032e-06,3.5396297386726183e-06,2.1026056633142953e-06,2.5535608232555345e-06,1.4615897120402545e-06,2.2236697835907065e-06,2.100748555376686e-06,8.887334286606618e-07,4.2519810290235134e-06,1.4675545770338074e-06,2.4273403685785743e-06,1.1701333590257218e-05,4.92045926902634e-06
21,2.10448585238199e-06,1.1479981892744384e-06,1.8378566457297172e-06,1.6855207654110145e-06,3.5940172684053567e-06,2.151254231177987e-06,2.5627768684053546e-06,1.4961925041800895e-06,2.2486321453513607e-06,1.8767176878844899e-06,9.1300858638438e-07,4.2284201111413036e-06,1.5012760268797487e-06,2.3889164334859508e-06,1.1822979355873889e-05,4.894240317558183e-06
22,2.1168687566579898e-06,1.1910013898096203e-06,1.8034602439132454e-06,1.7017237427400341e-06,3.6410143539394703e-06,2.1926155806811667e-06,2.5656109378355864e-06,1.526865768770135e-06,2.2656771860120937e-06,1.650256758249445e-06,9.344112721463653e-07,4.1859999741937956e-06,1.5339653936250798e-06,2.3418869427457043e-06,1.1851485011571413e-05,4.832145246745799e-06
23,2.125712058084849e-06,1.2341608777841063e-06,1.7688888520670263e-06,1.711782184559585e-06,3.681809672224759e-06,2.225768929852678e-06,2.5627113532029817e-06,1.5538175398694239e-06,2.2752788426418233e-06,1.427524395540865e-06,9.52946869979216e-07,4.126312171432713e-06,1.5654760797017825e-06,2.2876869196015063e-06,1.178668049054168e-05,4.734837884292008e-06
24,2.1311683104247756e-06,1.2769526859840452e-06,1.734742601414962e-06,1.7159127935263517e-06,3.7172391475715422e-06,2.2496955403649617e-06,2.554397724866977e-06,1.5775596452721663e-06,2.2782184088439027e-06,1.2159264959636867e-06,9.687989485470958e-07,4.051534131037705e-06,1.595445620119429e-06,2.2279296237203557e-06,1.1629715483509999e-05,4.604306893178716e-06
25,2.133041889371542e-06,1.318892709811347e-06,1.7012754427088816e-06,1.7143412945715523e-06,3.7480145645230304e-06,2.2634338075874e-06,2.54079780128852e-06,1.5988093424766316e-06,2.2753975808643713e-06,1.023697664785814e-06,9.82322702537067e-07,3.96401449946476e-06,1.6233224263962475e-06,2.1640941989210713e-06,1.1384720432978407e-05,4.444235844842573e-06
26,2.1308825576233095e-06,1.3597084823339954e-06,1.668486788540766e-06,1.7071676704818408e-06,3.774904018178916e-06,2.2663476299507226e-06,2.522006013796154e-06,1.6182986961097214e-06,2.267638112047311e-06,8.594373893530301e-07,9.940119125418785e-07,3.865934730562845e-06,1.648435472044983e-06,2.097485455851056e-06,1.105950780356641e-05,4.259715537489813e-06
27,2.1240816951694167e-06,1.3994024689573246e-06,1.6362265937898035e-06,1.6944000254527965e-06,3.798732855664576e-06,2.2584901443275327e-06,2.498297261776798e-06,1.6367023587189546e-06,2.2555445524042567e-06,7.319326946356617e-07,1.0043972331850884e-06,3.7593010412939963e-06,1.6700242029795972e-06,2.0294675364113363e-06,1.0664936287074508e-05,4.0565936509192695e-06
28,2.1119995419044095e-06,1.4382160591297487e-06,1.6042241364298179e-06,1.6762041954815889e-06,3.820217540697934e-06,2.240823235490209e-06,2.470317129046801e-06,1.6545970771216323e-06,2.239485833218169e-06,6.501476327004504e-07,1.0139690359950924e-06,3.646200132687205e-06,1.6872860421460686e-06,1.961586693105259e-06,1.021369745908012e-05,3.840795569573927e-06
29,2.0941820888914823e-06,1.4765328902692466e-06,1.5720760165068944e-06,1.653164487980039e-06,3.839795412519767e-06,2.215040807750274e-06,2.439045179051653e-06,1.6723586250861553e-06,2.2197756324724644e-06,6.232301005423227e-07,1.0231271178581458e-06,3.529074346679181e-06,1.6995508329450539e-06,1.8953775757441792e-06,9.719100543397223e-06,3.617815046132817e-06
30,2.070564531084496e-06,1.5147327007985004e-06,1.5393308625152482e-06,1.6262975608515862e-06,3.857641508526284e-06,2.1831194401994323e-06,2.4054823656081095e-06,1.6900887455543863e-06,2.196983891851994e-06,6.605526569189448e-07,1.0321225261955712e-06,3.410809814843996e-06,1.7064474296649148e-06,1.832105020965265e-06,9.194067519308672e-06,3.392462198201295e-06
31,2.0414416010419405e-06,1.5530348837871297e-06,1.5056659945432341e-06,1.5968075852955647e-06,3.873878516586659e-06,2.146952734216546e-06,2.370322425895999e-06,1.7076737224610124e-06,2.172095243943684e-06,7.7177502340329e-07,1.0410411884323135e-06,3.2945419217504008e-06,1.7078463349304042e-06,1.772685880963531e-06,8.65044415020991e-06,3.1688020624469506e-06
32,2.0072579320243777e-06,1.5913948957056222e-06,1.471001238009641e-06,1.5658241948681336e-06,3.888812574790926e-06,2.1081979989120937e-06,2.3338926703828315e-06,1.72496918629649e-06,2.1463784251237035e-06,9.669019518632634e-07,1.0498201811461157e-06,3.183270438308603e-06,1.7036500066493878e-06,1.7177485824176763e-06,8.098630139272133e-06,2.950179673347441e-06
33,1.9685346003560385e-06,1.6294594855773592e-06,1.4354770061261805e-06,1.5342789661620503e-06,3.90302701721535e-06,2.068236383857615e-06,2.29634652355379e-06,1.7419865372065168e-06,2.1211738437513477e-06,1.2562470198644023e-06,1.0582401926269083e-06,3.0795574782359917e-06,1.693728644109661e-06,1.667728815132508e-06,7.547427326348594e-06,2.7392915424195746e-06
34,1.925992056589022e-06,1.6665362722421181e-06,1.3993835932618733e-06,1.5028708742381976e-06,3.91727809409668e-06,2.0282014072079873e-06,2.257901344612853e-06,1.7589754560873337e-06,2.097841093351747e-06,1.6502203072715011e-06,1.0659143162611494e-06,2.9854394930017337e-06,1.6781258009812248e-06,1.622942003647724e-06,7.004008607010138e-06,2.5382668190441134e-06
35,1.880601214608318e-06,1.7015743450428024e-06,1.3631404723034694e-06,1.4720603281683433e-06,3.932285155559067e-06,1.9890873984277842e-06,2.2189970386145147e-06,1.7764115358671473e-06,2.0778047204602455e-06,2.159055944763682e-06,1.0723076556961262e-06,2.902405219147643e-06,1.6572932819687095e-06,1.5835807923431732e-06,6.473971034716977e-06,2.3487404351946053e-06
36,1.83344256642053e-06,1.7332289876205196e-06,1.3272922943195686e-06,1.4420849727906977e-06,3.948588747896801e-06,1.951834406306059e-06,2.1803307384777215e-06,1.7948902932437875e-06,2.0624791537020436e-06,2.7926266065139867e-06,1.0767922890499882e-06,2.8313552835498593e-06,1.6320663520156306e-06,1.5496575026753849e-06,5.961516144747277e-06,2.171923887933795e-06
37,1.7855882642966905e-06,1.760069432417292e-06,1.292431015850745e-06,1.4130364600271442e-06,3.966563257568926e-06,1.9172569132806687e-06,2.1427238421724535e-06,1.814926431231024e-06,2.053096373126339e-06,3.560361653833103e-06,1.0787764972390625e-06,2.772624863711173e-06,1.6033973804737038e-06,1.5209807250043266e-06,5.469752991443358e-06,2.008645014311273e-06
38,1.7381379295445304e-06,1.7808440981282711e-06,1.259078311220541e-06,1.385014666910621e-06,3.986506254775743e-06,1.8858867975911255e-06,2.1068825086767075e-06,1.8367669547986264e-06,2.0506229015227416e-06,4.471191239645188e-06,1.077891242023015e-06,2.726107839767509e-06,1.5721286738014949e-06,1.4971992547169828e-06,5.000977288917396e-06,1.8593394026176223e-06
39,1.6922210086909689e-06,1.7946365499910083e-06,1.227627646191908e-06,1.3582228148564686e-06,4.0086711593053625e-06,1.8579007486617402e-06,2.0732514222346017e-06,1.8603162252318224e-06,2.055837456258819e-06,5.5334238979142975e-06,1.0740682346704988e-06,2.6914001753749727e-06,1.5390299419199516e-06,1.4778355019694633e-06,4.556848916899227e-06,1.7240361609632819e-06
40,1.6488603611947669e-06,1.8008938020968681e-06,1.1983666892819313e-06,1.332893013475248e-06,4.033177265422875e-06,1.8331857170017642e-06,2.0420682127661347e-06,1.885149334285279e-06,2.0695031294445738e-06,6.754597452658773e-06,1.0674346640705726e-06,2.6678171792647904e-06,1.5050169094597288e-06,1.462253388310639e-06,4.1385433055891454e-06,1.6023952141348511e-06
41,1.6088318964380164e-06,1.7994584090506942e-06,1.1715673282208848e-06,1.3091755983875621e-06,4.059803473203003e-06,1.8114867106564033e-06,2.0135014928764493e-06,1.910583471957921e-06,2.092439271678468e-06,8.141371185228222e-06,1.0581769781228787e-06,2.6542950788061656e-06,1.4712703272808588e-06,1.4496393204803617e-06,3.746898279211752e-06,1.4938473010083212e-06
42,1.5726197210358833e-06,1.7906422857760889e-06,1.1475801705471016e-06,1.287134582769239e-06,4.087748697833291e-06,1.7925154115904572e-06,1.987691491263264e-06,1.9358102139660363e-06,2.1253891366632323e-06,9.699347249253001e-06,1.0464757233863768e-06,2.649393865847046e-06,1.4391185306357177e-06,1.4391117264579133e-06,3.382494828718999e-06,1.3978535603514965e-06
43,1.5404837049893579e-06,1.7752315806355724e-06,1.1268200852864647e-06,1.2667843398351003e-06,4.115514928123419e-06,1.7759364235296915e-06,1.964650542238692e-06,1.960058547575828e-06,2.1688448341296194e-06,1.1432707842167264e-05,1.0324624837927382e-06,2.6515153835435736e-06,1.4098272621011447e-06,1.4299252904209223e-06,3.045685523748576e-06,1.3141730583236739e-06
44,1.5125905099526492e-06,1.7543473871999884e-06,1.1096614988977595e-06,1.2480738508331623e-06,4.140996865731655e-06,1.761309385653921e-06,1.94416670258502e-06,1.982702775345235e-06,2.222981813148429e-06,1.3343708301558426e-05,1.016215396398383e-06,2.6592128953105335e-06,1.3844717503953457e-06,1.4215863731399966e-06,2.7366633494291504e-06,1.2429513416608655e-06
45,1.4890742998549522e-06,1.7292076024663515e-06,1.0963612623939219e-06,1.2308193155718648e-06,4.161725415580617e-06,1.7481058590881228e-06,1.9258018735333645e-06,2.00322022521587e-06,2.2876851121371655e-06,1.5432088853019076e-05,9.97850781633483e-07,2.671428593960493e-06,1.3638767109805423e-06,1.413794124838409e-06,2.455589928139315e-06,1.184586220123804e-06
46,1.4700246531620068e-06,1.7008963593100282e-06,1.0870367827534296e-06,1.2146316985409483e-06,4.175187440218935e-06,1.7357940890506708e-06,1.908902450617322e-06,2.021061796488007e-06,2.362590977378337e-06,1.7694476933438855e-05,9.776310450212178e-07,2.6876048506231333e-06,1.348576809843162e-06,1.4062994288472496e-06,2.2026608294953345e-06,1.1395240840081503e-06
47,1.4555136540975617e-06,1.6702626673324572e-06,1.0816808976744282e-06,1.1989127045024962e-06,4.179139917856336e-06,1.7239124870452038e-06,1.8926612003876713e-06,2.035652907391139e-06,2.447067449920604e-06,2.0123893908354676e-05,9.559736317058484e-07,2.7076858468944435e-06,1.3388374734617427e-06,1.3988068985687037e-06,1.9780068045116863e-06,1.1081374089157102e-06
48,1.4456102766154185e-06,1.6379976783432077e-06,1.0802017712403797e-06,1.1829859287094046e-06,4.171822131671636e-06,1.712083777354925e-06,1.8763665901625845e-06,2.046568762451161e-06,2.540132183477123e-06,2.2709347685000164e-05,9.333716163422105e-07,2.7320380821088972e-06,1.3347295016122935e-06,1.3909766499980805e-06,1.781524228391821e-06,1.090687461712949e-06
49,1.4402922292128688e-06,1.6048007359403898e-06,1.0824441352602258e-06,1.1663658643811017e-06,4.152053409330626e-06,1.6999584481404671e-06,1.859730532255382e-06,2.0536609967950695e-06,2.6404373000559986e-06,2.543530310984043e-05,9.10301126133562e-07,2.761338889511509e-06,1.3361645235370472e-06,1.3824654726588025e-06,1.6127785194445887e-06,1.0873111299951352e-06
50,1.439346447851562e-06,1.5714931419388474e-06,1.0881851290062267e-06,1.1490480476872119e-06,4.1193326943443146e-06,1.6871558428060273e-06,1.8430426924771752e-06,2.056966532140269e-06,2.746473793800169e-06,2.8280969851000573e-05,8.871522609027843e-07,2.7964667297369756e-06,1.3428591755473168e-06,1.3729402580299692e-06,1.4709838231499831e-06,1.0980165788763182e-06
51,1.4423871654431063e-06,1.53898590471659e-06,1.09713640108267e-06,1.1316179349322954e-06,4.074057920033279e-06,1.6733428340840518e-06,1.8270531717654894e-06,2.056488914442327e-06,2.8570025535091483e-06,3.1219792619566505e-05,8.641970022112046e-07,2.8383519832183602e-06,1.3543017114889102e-06,1.3621111414597948e-06,1.3550147299433934e-06,1.12272635717907e-06
52,1.4489611706541684e-06,1.5081357669688453e-06,1.1089342157430448e-06,1.1150902680718775e-06,4.017772561022286e-06,1.6584122873619394e-06,1.8126766447504536e-06,2.0520840601847574e-06,2.971517050673362e-06,3.421974024500408e-05,8.416202384436003e-07,2.8877547020471246e-06,1.3697759045574746e-06,1.349822585517397e-06,1.2634489893831916e-06,1.1613731938158497e-06
53,1.4585851015529964e-06,1.479666623493142e-06,1.1231165357153907e-06,1.100623687743287e-06,3.95313210701979e-06,1.6425050493491747e-06,1.8006965712523054e-06,2.0435768448125393e-06,3.0904734970490205e-06,3.7244673097819816e-05,8.196094648939294e-07,2.945059260789636e-06,1.3884103459920527e-06,1.336125573015423e-06,1.1946346775906967e-06,1.2139411456439579e-06
54,1.4706882773407161e-06,1.45425298579697e-06,1.1391843906870343e-06,1.0893046779811723e-06,3.883410726385795e-06,1.6257995293010491e-06,1.7915930738044233e-06,2.0309859609122037e-06,3.215151802523388e-06,4.0256456518119025e-05,7.984374441880964e-07,3.0102505249633207e-06,1.4092145777374038e-06,1.3212351159468644e-06,1.1467409822226242e-06,1.2803679705432284e-06
55,1.4846179370356456e-06,1.4326254188623424e-06,1.1567884698430602e-06,1.0820464644926494e-06,3.811773652810524e-06,1.6083214241066615e-06,1.7854881346543125e-06,2.0146156898929186e-06,3.347199491174118e-06,4.321680465797361e-05,7.784665926853388e-07,3.083147522935327e-06,1.4311680054147171e-06,1.305395098400815e-06,1.1177944996261653e-06,1.3604030814116163e-06
56,1.4997325144925846e-06,1.4155336965847732e-06,1.1758879212066224e-06,1.0795582149743162e-06,3.7407362230458315e-06,1.5900073589737366e-06,1.7821591056887033e-06,1.9949189895746554e-06,3.488073673802594e-06,4.608712609794187e-05,7.600666609690943e-07,3.1637582742119333e-06,1.4533960128902715e-06,1.2887840591705142e-06,1.1057961241949482e-06,1.4535799565291937e-06
57,1.5154215226647697e-06,1.4036055570937925e-06,1.1967213424849666e-06,1.0823419814225213e-06,3.6720000657515697e-06,1.5709452501694363e-06,1.7811243185281825e-06,1.9722861074571706e-06,3.6386623352022006e-06,4.882589202628464e-05,7.435104961765942e-07,3.2524806996060806e-06,1.4752686161608145e-06,1.2715058955961584e-06,1.1088831297094547e-06,1.5593736174515774e-06
58,1.5310413643683007e-06,1.3972429185039573e-06,1.2196234602396632e-06,1.0906807620871822e-06,3.606548228554571e-06,1.551504195144554e-06,1.7817612236333645e-06,1.947000523531487e-06,3.799226848545816e-06,5.1387082510240266e-05,7.289267048607542e-07,3.3499715651733828e-06,1.4963038979652398e-06,1.2535895893052588e-06,1.1253621270095397e-06,1.6775126268118545e-06
59,1.5459196103392023e-06,1.39661167968552e-06,1.2448327030546799e-06,1.1046169637396586e-06,3.5447818071471094e-06,1.532208404671386e-06,1.7833449738122052e-06,1.919409811823913e-06,3.969550815268281e-06,5.372367451876091e-05,7.163347804922268e-07,3.456762817350363e-06,1.5160334494160847e-06,1.2350183852974823e-06,1.1536721194188799e-06,1.8083312977322854e-06
60,1.5594422616829368e-06,1.4016878953844376e-06,1.2723931221550747e-06,1.1239664079023442e-06,3.4865670858281193e-06,1.5135067009521524e-06,1.7850541392167562e-06,1.8900992250356296e-06,4.149060182588263e-06,5.5794726093976734e-05,7.057257286221963e-07,3.5728892439127383e-06,1.5340586878477665e-06,1.2158423103847438e-06,1.1924204114999382e-06,1.9530100068933532e-06
61,1.5711290587149403e-06,1.412295127982657e-06,1.3021476719319861e-06,1.1484011843731912e-06,3.4312969041475335e-06,1.4956466493138408e-06,1.7860725366252848e-06,1.859857921687377e-06,4.3368059192899204e-06,5.757158707390134e-05,6.971294937747885e-07,3.697709699359209e-06,1.5502569560492964e-06,1.1962933302405686e-06,1.2404138417791862e-06,2.113601545632322e-06
62,1.5806785041577405e-06,1.4280988101360058e-06,1.3337690721673698e-06,1.177548033500056e-06,3.3781506018832677e-06,1.4787034660722862e-06,1.7856818683282259e-06,1.829482383416372e-06,4.531370491390229e-06,5.9040482141562064e-05,6.906277049834123e-07,3.829910392995206e-06,1.5648379210825064e-06,1.176800277923308e-06,1.2966440039431723e-06,2.2928510529393816e-06
63,1.5879868714768378e-06,1.4485980851141075e-06,1.3668233856737355e-06,1.21100769874862e-06,3.326448916592845e-06,1.4627216952724922e-06,1.7832432866445038e-06,1.7996128295888075e-06,4.730783914194574e-06,6.0200731373647266e-05,6.863117140798936e-07,3.967655324749073e-06,1.5781326719671435e-06,1.1578852780980622e-06,1.3602788298535918e-06,2.4939131024675294e-06
64,1.5931219063906928e-06,1.4731462403191401e-06,1.4008456200312825e-06,1.248332502921813e-06,3.2758139560003636e-06,1.4479025698433662e-06,1.7782491512857964e-06,1.7706931071807519e-06,4.932476442548004e-06,6.105885482448223e-05,6.842375214245939e-07,4.10884668665431e-06,1.5903554366476083e-06,1.1400184350457825e-06,1.4306228132733417e-06,2.7200875365660362e-06
65,1.5962918906913873e-06,1.5009972922831102e-06,1.4353474797985134e-06,1.2890712395859656e-06,3.226055347840995e-06,1.4347093873183184e-06,1.7705294939473248e-06,1.7430390730646428e-06,5.133323100412676e-06,6.16210973237076e-05,6.844143921469039e-07,4.251345657508568e-06,1.6015710154153539e-06,1.1235514699997318e-06,1.5070060339064766e-06,2.9746479429409358e-06
66,1.5978644288783625e-06,1.5314026899882287e-06,1.4697695084091275e-06,1.3328471405074294e-06,3.176971405956237e-06,1.4237900664060072e-06,1.760383529446388e-06,1.7169629466309801e-06,5.329941433801763e-06,6.18905918132437e-05,6.868169783570215e-07,4.393034868441946e-06,1.611799755377574e-06,1.1087437159995139e-06,1.5886431601883348e-06,3.260788602230743e-06
67,1.5983617864808635e-06,1.5636878381533914e-06,1.5034776356874578e-06,1.3793649202387709e-06,3.1282889213917054e-06,1.415800503914594e-06,1.7484644282544815e-06,1.692846564404779e-06,5.519208725101026e-06,6.18719118112676e-05,6.914094791587152e-07,4.531775803019247e-06,1.62108535515712e-06,1.0957748583744072e-06,1.674561117998264e-06,3.581707419251658e-06
68,1.598354549073711e-06,1.5971822048884363e-06,1.5357893313421443e-06,1.4283375482454176e-06,3.0797893651854985e-06,1.4112968021977716e-06,1.7355133217827695e-06,1.6710910147313952e-06,5.698490661241425e-06,6.157626242094674e-05,6.981509005778605e-07,4.66539389402748e-06,1.6294969064882567e-06,1.0846903232728817e-06,1.763675910382425e-06,3.940820663210193e-06
69,1.5983918497652237e-06,1.6310920806294778e-06,1.5659452593464166e-06,1.4794237160832767e-06,3.031460071576599e-06,1.4107156751796115e-06,1.722152688777278e-06,1.651992267265778e-06,5.865234905099874e-06,6.1020470807238954e-05,7.069663506628105e-07,4.791784724684141e-06,1.6370707847393046e-06,1.0753462340190304e-06,1.8549686632537037e-06,4.342010402744133e-06
70,1.599086431916043e-06,1.6645095218895417e-06,1.593099221507591e-06,1.5322786358661922e-06,2.9834532346900408e-06,1.4143743871452019e-06,1.708856028302854e-06,1.6356830199670217e-06,6.016445912153957e-06,6.022141664621272e-05,7.177469065881149e-07,4.909116390214478e-06,1.64371803608596e-06,1.0674616663059924e-06,1.947634878508689e-06,4.789753738457172e-06
71,1.6011849818189041e-06,1.6965459898558699e-06,1.616429064479789e-06,1.5866718316100598e-06,2.9358401525710746e-06,1.4224961971474792e-06,1.6960198645904074e-06,1.6221969348745664e-06,6.14865183783688e-06,5.91915381836856e-05,7.304098518991025e-07,5.01600368443621e-06,1.6492377547009977e-06,1.0608383566564697e-06,2.041170552260198e-06,5.289065846892907e-06
72,1.6054613244433364e-06,1.726440030329923e-06,1.6352747928442935e-06,1.642490138331866e-06,2.8883832024257226e-06,1.4352564901280216e-06,1.6840116603734395e-06,1.6115233054552704e-06,6.258174673679127e-06,5.793891547590964e-05,7.449354631126648e-07,5.111563611739107e-06,1.6535140176614832e-06,1.0556464460841125e-06,2.1354452368241123e-06,5.845260551948922e-06
73,1.612534932406123e-06,1.7535738926360576e-06,1.6491926526264087e-06,1.6995713710708043e-06,2.8404873414436177e-06,1.4527742143549582e-06,1.6731659541940068e-06,1.6035451965549246e-06,6.34133320128733e-06,5.6471561816924155e-05,7.613074474695442e-07,5.195320933735061e-06,1.6567218880810851e-06,1.0525271763389913e-06,2.2307597833345338e-06,6.463519141198128e-06
74,1.6228226279954214e-06,1.777453165449564e-06,1.657957191288048e-06,1.757522912359619e-06,2.7913984081418478e-06,1.4750483037612309e-06,1.6637436330735682e-06,1.5979335079519042e-06,6.394681329939245e-06,5.4802496161891556e-05,7.794201558955524e-07,5.266913865932092e-06,1.6592749271999925e-06,1.052435805744968e-06,2.327829151637795e-06,7.148312560298045e-06
75,1.6366986478904506e-06,1.7977160736184301e-06,1.661553653780063e-06,1.8156487953798414e-06,2.7406027836593526e-06,1.501923734509451e-06,1.6558650560062252e-06,1.5941359061883743e-06,6.415483582202438e-06,5.295166954552174e-05,7.990587368558336e-07,5.32568983272479e-06,1.6615525932072632e-06,1.0564689452205389e-06,2.427647592059491e-06,7.902840801351484e-06
76,1.6546848589123758e-06,1.8141515088959646e-06,1.660140044435868e-06,1.872965842897237e-06,2.6880444358142874e-06,1.5330828895317085e-06,1.6494822304338833e-06,1.5915146824828414e-06,6.40222743375952e-06,5.0943056632715034e-05,8.199429818660008e-07,5.37053733725895e-06,1.6637005061679175e-06,1.0658756575314695e-06,2.531223034754894e-06,8.728629014219756e-06
77,1.677425154400259e-06,1.8266487168710664e-06,1.6539675181923096e-06,1.928284372599541e-06,2.6339020692084286e-06,1.5679935076863427e-06,1.6444681563860405e-06,1.5895390370259046e-06,6.354615843730135e-06,4.8798981485012454e-05,8.417455956309294e-07,5.400069912459279e-06,1.6656369304302062e-06,1.0821228407893843e-06,2.639269327394607e-06,9.625261778635864e-06
78,1.7054676016054546e-06,1.8351234951991447e-06,1.6433022468704901e-06,1.980344252655326e-06,2.5782857130627733e-06,1.605833173164387e-06,1.6407693644106802e-06,1.5879011737034882e-06,6.272871321647111e-06,4.653689087945964e-05,8.640635461465235e-07,5.41284252645972e-06,1.6671521488642652e-06,1.1068336164616113e-06,2.752017432352211e-06,1.05901746645175e-05
79,1.7390827873652454e-06,1.8395878292709173e-06,1.628391136390647e-06,2.0279667208715277e-06,2.521238579798488e-06,1.64545886458425e-06,1.63846292812674e-06,1.5865325684070327e-06,6.157143785075571e-06,4.4172058515107524e-05,8.863956465347568e-07,5.407468141389942e-06,1.6679537630354967e-06,1.1416867149742555e-06,2.8691862750287803e-06,1.1618532179539526e-05
80,1.7782139939384642e-06,1.8403213149127557e-06,1.609436996040001e-06,2.0702091070003005e-06,2.4628954454428657e-06,1.685461788556425e-06,1.637663204006086e-06,1.585563233802728e-06,6.007868777049571e-06,4.1723420351288825e-05,9.081673407037577e-07,5.382853761525248e-06,1.6677249555473602e-06,1.1884165295452504e-06,2.99006832555911e-06,1.2703309575178418e-05
81,1.8224772489636935e-06,1.8378681044876192e-06,1.5865275455069774e-06,2.106507572232275e-06,2.403491849713128e-06,1.7243297260092305e-06,1.6383830613727258e-06,1.5852442932957428e-06,5.826803349164075e-06,3.9216846858719935e-05,9.288082821892838e-07,5.338620330219401e-06,1.6662873785162155e-06,1.2488175015079626e-06,3.113698893474268e-06,1.3835553650478728e-05
82,1.8711522204645705e-06,1.8328082650117895e-06,1.5595763170557634e-06,2.1367369260282826e-06,2.3432303123399894e-06,1.7606908486270112e-06,1.6404454209861708e-06,1.585851754506809e-06,5.617762694644079e-06,3.6683601173729024e-05,9.478495623126173e-07,5.275462939737633e-06,1.6636698054233046e-06,1.3246360411186765e-06,3.2390556711990005e-06,1.5004575398823546e-05
83,1.9232298419296866e-06,1.8255479078282343e-06,1.5283930455809557e-06,2.1611372944345066e-06,2.282218698656769e-06,1.7935522808362767e-06,1.6434670471788896e-06,1.587616401281148e-06,5.386402951635979e-06,3.415627123410029e-05,9.649916706151462e-07,5.195224035342018e-06,1.6599610004828104e-06,1.4174552452843068e-06,3.3652838938285046e-06,1.619794655940191e-05
84,1.9775913176601246e-06,1.816258186710364e-06,1.4928834926310224e-06,2.1801237805915923e-06,2.22057539974028e-06,1.8224254180722557e-06,1.646957197741366e-06,1.5906841216558912e-06,5.139179696695168e-06,3.166563274931398e-05,9.80128994659657e-07,5.1007134637880815e-06,1.6551426700271258e-06,1.5286898441728816e-06,3.4919453589348787e-06,1.740153631340812e-05
85,2.033250928418174e-06,1.8048993916378485e-06,1.4532691158372334e-06,2.1940305365429086e-06,2.1585673838408038e-06,1.8472478601939179e-06,1.6505141749108764e-06,1.5950645676728045e-06,4.882249793168892e-06,2.9239671598167116e-05,9.93329086799536e-07,4.995410462078701e-06,1.649018183024759e-06,1.6596204628705183e-06,3.6191163208741114e-06,1.8599727323942717e-05
86,2.0895353171490792e-06,1.7912865439109809e-06,1.410214197027416e-06,2.2028909247990543e-06,2.096594995259111e-06,1.8681225211432816e-06,1.6539389649203742e-06,1.6006139096559948e-06,4.620971738106345e-06,2.6903602379547647e-05,1.0047531148206564e-06,4.883092534037033e-06,1.6412092595615118e-06,1.811416491901976e-06,3.747148347342285e-06,1.9775361057396386e-05
87,2.1461516661533897e-06,1.7751788847171839e-06,1.3647714063979254e-06,2.2063906909115325e-06,2.035022043201028e-06,1.8850645345358687e-06,1.657135369723977e-06,1.6071398007930395e-06,4.360034056853044e-06,2.4679533379081362e-05,1.0145437230665032e-06,4.767417856013293e-06,1.6312610917183785e-06,1.9851968307957296e-06,3.876224828646628e-06,2.0908909321534507e-05
88,2.2031324020298026e-06,1.7563431348032492e-06,1.318157800765716e-06,2.2040303826356985e-06,1.9740652932115783e-06,1.8979503412395983e-06,1.6598911792782284e-06,1.6145676386674436e-06,4.103831431230053e-06,2.25856050303349e-05,1.0227681935756846e-06,4.651529948453657e-06,1.6188284666629333e-06,2.182066617534617e-06,4.006034336807802e-06,2.197737758760466e-05
89,2.2606441330517663e-06,1.7345554672656776e-06,1.2715398676096385e-06,2.195350773692673e-06,1.913881186205316e-06,1.9066453901922273e-06,1.6617332610404435e-06,1.6230185151582098e-06,3.8566415140772215e-06,2.0635345682737794e-05,1.02948338400193e-06,4.537796698822247e-06,1.6038126874143884e-06,2.403025077025688e-06,4.135638784718264e-06,2.295438292484019e-05
90,2.3187615967296966e-06,1.709558274933542e-06,1.2259558935912898e-06,2.180050685234632e-06,1.8547208825676793e-06,1.911151486051939e-06,1.6619975809467106e-06,1.6327365798501366e-06,3.622435308702738e-06,1.8837980470321966e-05,1.0348601612642152e-06,4.427810548274578e-06,1.586414277277842e-06,2.648785413616898e-06,4.263425485190218e-06,2.381228487101754e-05
91,2.377417724640013e-06,1.6810850475306187e-06,1.1823118008107356e-06,2.158007068129647e-06,1.797003828283098e-06,1.9116994922224293e-06,1.6601282949852507e-06,1.6439420986213843e-06,3.404617539875845e-06,1.7199658828973093e-05,1.0392171204181933e-06,4.322657884330663e-06,1.5671028096728293e-06,2.919621658339891e-06,4.38711787653576e-06,2.452562486568486e-05
92,2.436548306234104e-06,1.6490591566410005e-06,1.1414005184836446e-06,2.1293203691542982e-06,1.741284886662877e-06,1.9087608671034184e-06,1.6560392208039315e-06,1.6567392274058538e-06,3.2060100965925814e-06,1.5724817219957186e-05,1.0429165943264707e-06,4.2233095964798945e-06,1.5464879368178982e-06,3.2152753359300248e-06,4.50381014140458e-06,2.5074067643297296e-05
93,2.496150874966064e-06,1.6138164770193416e-06,1.1039538872286403e-06,2.094413709064921e-06,1.6881550846659563e-06,1.902920563052638e-06,1.6502604663213421e-06,1.6710896347564634e-06,3.0289637504044296e-06,1.441677215179185e-05,1.0462480321443992e-06,4.130934345943433e-06,1.5252142658040484e-06,3.534894509908485e-06,4.6100265765165755e-06,2.544304992043141e-05
94,2.5561057723805293e-06,1.5760859423614043e-06,1.070681583260346e-06,2.054099641034263e-06,1.6382036175266168e-06,1.8946759296007633e-06,1.643749609278125e-06,1.6867930914683424e-06,2.8753551198332674e-06,1.3277378527192536e-05,1.0494240117072685e-06,4.046952893035442e-06,1.503991595361206e-06,3.877008469938269e-06,4.7019874315586e-06,2.5621727476271484e-05
95,2.6159458153408987e-06,1.536755754605733e-06,1.0422548688288204e-06,2.0095328574503683e-06,1.5920769671187555e-06,1.8843656535286268e-06,1.6375846016627736e-06,1.7034924100962796e-06,2.746506590156339e-06,1.230678493253039e-05,1.052663858470949e-06,3.972777430266308e-06,1.4836453094081642e-06,4.239516474204466e-06,4.776141875087594e-06,2.560091289634089e-05
96,2.67475898403835e-06,1.4966852549533467e-06,1.0192505226279386e-06,1.962042566511588e-06,1.5504700065029553e-06,1.8722841525784784e-06,1.6327983063450347e-06,1.7207112760967184e-06,2.64316746039975e-06,1.1504139265827969e-05,1.0562506067542798e-06,3.909436729763789e-06,1.4650807883569214e-06,4.619709117711436e-06,4.829723468919294e-06,2.5374764530514957e-05
97,2.731257662544421e-06,1.456650007206517e-06,1.0021023885321873e-06,1.9129133045086512e-06,1.5139837891155234e-06,1.8587773220942697e-06,1.6303165237996425e-06,1.7379069202012146e-06,2.565549500460561e-06,1.0868490760959769e-05,1.0604898008007815e-06,3.857396602048819e-06,1.4492213100518855e-06,5.014495516542559e-06,4.8609921274526e-06,2.4945643491027203e-05
98,2.7839892119690094e-06,1.4173340459486148e-06,9.910888210462469e-07,1.863207769574236e-06,1.4829746225093468e-06,1.8441611459040766e-06,1.6308742343560919e-06,1.7545710571152313e-06,2.513393190924161e-06,1.0398798542307372e-05,1.0655963594936875e-06,3.8166522923442015e-06,1.4369546296503938e-06,5.420896211814778e-06,4.8689650115087235e-06,2.4327443031090786e-05
99,2.8315665753938416e-06,1.3793203519919822e-06,9.863335131122625e-07,1.813715077671654e-06,1.4574817513132743e-06,1.8286050431188505e-06,1.6349471686651682e-06,1.77037177644305e-06,2.4860969847628623e-06,1.0093160348921178e-05,1.0716025947891532e-06,3.7868843978479784e-06,1.4290472631851237e-06,5.836510699920563e-06,4.852907724993772e-06,2.354448017690205e-05
100,2.8727950028324387e-06,1.3430380703016135e-06,9.877966823570866e-07,1.7650790720467308e-06,1.4372407643849274e-06,1.8121724214838784e-06,1.6427818875227894e-06,1.7852557746789526e-06,2.482910197998977e-06,9.9481390025867e-06,1.0783658000766787e-06,3.767510974867218e-06,1.4260485778657076e-06,6.259556540448015e-06,4.812209148333522e-06,2.262705972328044e-05
101,2.9066937284408728e-06,1.3086664764529259e-06,9.952583273329699e-07,1.718038209310059e-06,1.4217827334341571e-06,1.7949435529507769e-06,1.65451499564647e-06,1.7994598305202807e-06,2.503096717884153e-06,9.958860622666496e-06,1.0856853988597941e-06,3.7577161295540154e-06,1.4282716786434479e-06,6.688393632198787e-06,4.746768875318024e-06,2.1606426503284058e-05
102,2.9324137493787972e-06,1.2760872811675642e-06,1.0083109198300112e-06,1.6735701674589837e-06,1.4105715997669467e-06,1.7770478345240919e-06,1.67025358966593e-06,1.8134132427868435e-06,2.54592827051633e-06,1.0119834453190003e-05,1.0934488453425922e-06,3.756572418617743e-06,1.4358800044225161e-06,7.120993991426136e-06,4.657416450631163e-06,2.0511204842384056e-05
103,2.9490945614313083e-06,1.2449679277196906e-06,1.0263993053482522e-06,1.632807204255479e-06,1.4030647092169539e-06,1.7586024818339562e-06,1.690006212721319e-06,1.8275428063151904e-06,2.610559268448646e-06,1.0425803286311144e-05,1.1016701120876569e-06,3.763180046913982e-06,1.4490284454431608e-06,7.554974502708657e-06,4.546054999810666e-06,1.936602038420241e-05
104,2.95590280120968e-06,1.214999536122213e-06,1.048910595864611e-06,1.5968151605929432e-06,1.398653915570915e-06,1.7396778929339433e-06,1.7135455169990334e-06,1.842083594885478e-06,2.6960252258560966e-06,1.0871961670421879e-05,1.110387790886237e-06,3.776680187900702e-06,1.4679518681086657e-06,7.988340219143845e-06,4.415574632706944e-06,1.8191649862450496e-05
105,2.9523258897455193e-06,1.1861872914938976e-06,1.0752455915759585e-06,1.5664230280578035e-06,1.3966278531976065e-06,1.7203529088936877e-06,1.7403650947695878e-06,1.8569844568822485e-06,2.801393447936372e-06,1.1453416231605792e-05,1.1195539886650467e-06,3.796160169555759e-06,1.4929112097066834e-06,8.42061831775887e-06,4.269588770897389e-06,1.700557196721292e-05
106,2.938388102287567e-06,1.1589668699959765e-06,1.1048117305234877e-06,1.5421758017121375e-06,1.3963166024684956e-06,1.700786712011397e-06,1.7697463799624856e-06,1.8718642792678534e-06,2.9258315716979694e-06,1.2164209752941565e-05,1.129034393309482e-06,3.820564778968261e-06,1.524063493005407e-06,8.853735038553332e-06,4.112010425974133e-06,1.5822349876070565e-05
107,2.9146051676109693e-06,1.1340435485376547e-06,1.1369785505688582e-06,1.5243429022710761e-06,1.3973548238727498e-06,1.6811875361626149e-06,1.8008196858224986e-06,1.8859851896781055e-06,3.0684886536499603e-06,1.2996353400631349e-05,1.1386684620986712e-06,3.848593771915213e-06,1.5613757560288713e-06,9.291791407857528e-06,3.946560238051162e-06,1.4653933645764623e-05
108,2.8818071293597633e-06,1.112118935319182e-06,1.17109373723894e-06,1.5129067711756338e-06,1.3998202086052565e-06,1.661668817944325e-06,1.8325927479516238e-06,1.8983270064158227e-06,3.228296768482118e-06,1.3939186553275235e-05,1.1482679315709293e-06,3.878524440140547e-06,1.6045844898313374e-06,9.739732572387203e-06,3.776368195424448e-06,1.3510080627162556e-05
109,2.8409089715105383e-06,1.0937221334571326e-06,1.206549073979449e-06,1.5075373130037294e-06,1.4041096834340645e-06,1.6421325444968247e-06,1.864071289677003e-06,1.9078266637141737e-06,3.403788064238427e-06,1.4979287803171782e-05,1.1575737163278035e-06,3.908118194156736e-06,1.6531668671254406e-06,1.0202173769842608e-05,3.603794023506212e-06,1.2398877584970424e-05
110,2.7927623906023145e-06,1.0792092952582594e-06,1.242772589530428e-06,1.5075829455798413e-06,1.4106682481382702e-06,1.6223159018283695e-06,1.894497744186992e-06,1.913705836650487e-06,3.592974142938499e-06,1.6101209975764312e-05,1.1662682135702138e-06,3.934707833452186e-06,1.7063428641476047e-06,1.0683046132511474e-05,3.4304668438095773e-06,1.1327193086389263e-05
111,2.7382704407405957e-06,1.068880185402551e-06,1.279122503599801e-06,1.5120841307744637e-06,1.4197760515480223e-06,1.6019834001906572e-06,1.9235323656823383e-06,1.9157316416702055e-06,3.793306665535296e-06,1.7288926476030244e-05,1.1740564940227452e-06,3.9552810767560705e-06,1.7631537430833005e-06,1.118534077528222e-05,3.257463107213979e-06,1.0300911876098082e-05
112,2.6785590627997545e-06,1.0630923414536616e-06,1.3148046253390792e-06,1.5198364222342398e-06,1.4314727946048033e-06,1.5811392624704503e-06,1.951245429382488e-06,1.9142834256130443e-06,4.001681718627552e-06,1.8526880394121658e-05,1.1807642325903134e-06,3.966577123687771e-06,1.8226340505902214e-06,1.1710686607508816e-05,3.0855595164421167e-06,9.324914041886065e-06
113,2.6148594855817948e-06,1.0622520039824225e-06,1.3489062833851564e-06,1.5295349806486072e-06,1.44557449053344e-06,1.5601454158893247e-06,1.977969757685283e-06,1.9101937188545498e-06,4.214473768985461e-06,1.9799579795955246e-05,1.186352221775753e-06,3.965443225920843e-06,1.8839881625174369e-06,1.2259124579002935e-05,2.9155209671112694e-06,8.402925706464596e-06
114,2.548264055754203e-06,1.0666972895686783e-06,1.3805348072259879e-06,1.5399332713450058e-06,1.4617189702056138e-06,1.5396895416805803e-06,2.0041055944472607e-06,1.9044517032175722e-06,4.427683524578645e-06,2.109051709755075e-05,1.1908262826533529e-06,3.949383039148178e-06,1.946617343628529e-06,1.2828986437656862e-05,2.748351306693496e-06,7.537482863661205e-06
115,2.4797181741411447e-06,1.0765924356168024e-06,1.408974106788557e-06,1.5498740821562301e-06,1.479384942924854e-06,1.5206226777419084e-06,2.0299324411294974e-06,1.8979186199329176e-06,4.637286580526835e-06,2.2381632713059474e-05,1.1941930016396482e-06,3.916972923093563e-06,2.010021991086065e-06,1.3416878791620635e-05,2.5854415686539512e-06,6.73011603534317e-06
116,2.4101956683424463e-06,1.091893746688377e-06,1.433718351112605e-06,1.5581746954064873e-06,1.4978725739879346e-06,1.5037702533829621e-06,2.055529942880361e-06,1.8911647342072221e-06,4.839569447792566e-06,2.3653132623245555e-05,1.1965353389464098e-06,3.868007299078403e-06,2.0737539439302364e-06,1.401787120830247e-05,2.4285920135284106e-06,5.981613417037495e-06
117,2.340797372236816e-06,1.11235834725152e-06,1.4543351762439587e-06,1.5635579094754365e-06,1.5163348736104208e-06,1.4898464011004206e-06,2.0808886840991603e-06,1.884444969679123e-06,5.0310401572909106e-06,2.4883834839792063e-05,1.1980858815450182e-06,3.803475477573443e-06,2.1373935823662336e-06,1.462546350742909e-05,2.279873375472652e-06,5.292178267955394e-06
118,2.2726687760035407e-06,1.1375515881136312e-06,1.4703370487670816e-06,1.5648031607415721e-06,1.5339348540184006e-06,1.4794982755785108e-06,2.1060952089113054e-06,1.877744456423087e-06,5.207992266462471e-06,2.605239440028736e-05,1.1991816446117014e-06,3.7254858582813436e-06,2.200466411106813e-06,1.5231028534570794e-05,2.1413504562442756e-06,4.661452103594433e-06
119,2.2068114693313773e-06,1.1668495770220715e-06,1.4812098369484224e-06,1.5610249059640762e-06,1.5500470797844696e-06,1.4733744982437625e-06,2.1313939637766414e-06,1.8708353136354442e-06,5.366337592260726e-06,2.7137799086403263e-05,1.2001218925070356e-06,3.6370937474903984e-06,2.2624463764934816e-06,1.582308225369834e-05,2.01484090154294e-06,4.088497248640243e-06
120,2.143974175119162e-06,1.1994504184135383e-06,1.4865001076329597e-06,1.5518308991621455e-06,1.564365763489375e-06,1.4721161209063757e-06,2.157071263432848e-06,1.8634137624343375e-06,5.502024481288449e-06,2.8117858448289262e-05,1.2010461735268364e-06,3.541893083771977e-06,2.3229057816361835e-06,1.638705690031095e-05,1.9018429979478984e-06,3.5718475453273086e-06
121,2.08467644974208e-06,1.2343678603717946e-06,1.4858717253313494e-06,1.537264906698872e-06,1.5768584801723621e-06,1.4762691408903104e-06,2.183295119372643e-06,1.8553600635939655e-06,5.611731858806037e-06,2.8967286108397864e-05,1.201910633465681e-06,3.4434284791516392e-06,2.3815947841944833e-06,1.6906199170565667e-05,1.803555466047561e-06,3.1096663834636326e-06
122,2.0292299335796734e-06,1.2703908014241036e-06,1.4791967853399326e-06,1.5176671668538e-06,1.5876042815736832e-06,1.4861819698660456e-06,2.2101049583627772e-06,1.84694387108372e-06,5.693352769429037e-06,2.9658015609992096e-05,1.2025446453306747e-06,3.344734792902903e-06,2.438326375804753e-06,1.7363642227851235e-05,1.7208833697913279e-06,2.6999458890442106e-06
123,1.9777618811761045e-06,1.3060552423531674e-06,1.4667036319866587e-06,1.493584742991191e-06,1.5966137847041289e-06,1.5019609233503235e-06,2.237524007365071e-06,1.838803206091894e-06,5.745882514276469e-06,3.0162715754879547e-05,1.2027376788244964e-06,3.248168411851339e-06,2.492791942721621e-06,1.7744751391733283e-05,1.654441757711281e-06,2.3406699780079765e-06
124,1.9303148099277715e-06,1.3396632618280335e-06,1.449088913651814e-06,1.4657004209828221e-06,1.603713582820469e-06,1.5234966153792874e-06,2.2655708036375236e-06,1.8317473695683356e-06,5.768758812378762e-06,3.0460232035956916e-05,1.202286006792861e-06,3.155408993215195e-06,2.5444440083020034e-06,1.8038499547673944e-05,1.6045994915054627e-06,2.029927620994591e-06
125,1.8868897576426622e-06,1.3693676608820234e-06,1.4274879858132927e-06,1.4347710363290695e-06,1.6085788987434733e-06,1.5505015827746064e-06,2.2941717895319715e-06,1.8265230170606664e-06,5.7615076354642694e-06,3.054028772218199e-05,1.2009823906716142e-06,3.0675549282694666e-06,2.592525239221063e-06,1.8237179220573524e-05,1.5715604645895121e-06,1.7659480052525e-06
126,1.8473609962618546e-06,1.3934017479702938e-06,1.4032839934323244e-06,1.401663776498921e-06,1.6109405349278545e-06,1.5825184296641415e-06,2.3231417519247264e-06,1.823651484581937e-06,5.7242685457131265e-06,3.0404554930034398e-05,1.1986389732827007e-06,2.985321753209791e-06,2.6363201483501934e-06,1.833464293255131e-05,1.5554113826124556e-06,1.5470121315401644e-06
127,1.8114329342463555e-06,1.4104490936588127e-06,1.3778700631232008e-06,1.3674202547513915e-06,1.6107961218976825e-06,1.6189006070550572e-06,2.3521716404640107e-06,1.823415848431465e-06,5.658451996409804e-06,3.0062934445993363e-05,1.1951407312332776e-06,2.909243528851807e-06,2.6755284201509627e-06,1.8324530152184444e-05,1.5560891445325508e-06,1.3713133679729323e-06
128,1.7787218827169513e-06,1.4199061061099774e-06,1.352509423249854e-06,1.3331776388332905e-06,1.6084274119147974e-06,1.6587915030183415e-06,2.380748023764494e-06,1.8259873990098062e-06,5.566730464586977e-06,2.9527735804057546e-05,1.1904169360712182e-06,2.8397937488265454e-06,2.710470296593728e-06,1.8200748042853912e-05,1.573338675304614e-06,1.2369030946103744e-06
129,1.7488327868484693e-06,1.4217961472414639e-06,1.328293519955482e-06,1.2999903804105125e-06,1.604230628114132e-06,1.7011222556682976e-06,2.40818787148911e-06,1.8315444158949598e-06,5.4525330284649074e-06,2.881092898287002e-05,1.184372183248384e-06,2.7774514150893507e-06,2.7419878540322063e-06,1.7960757033170398e-05,1.6067224118463273e-06,1.1417288615018471e-06
130,1.7213737368535646e-06,1.4164386595199565e-06,1.306116291824771e-06,1.2687050890277462e-06,1.598523179333534e-06,1.744623744572997e-06,2.433900453661288e-06,1.8402442737887818e-06,5.3194285633494305e-06,2.7926108183971188e-05,1.176901354663994e-06,2.722744728411462e-06,2.7711609146244294e-06,1.7609218004748734e-05,1.655642716190124e-06,1.0836725422211768e-06
131,1.6960278297657584e-06,1.404211597933883e-06,1.2866721725617886e-06,1.2399211831215336e-06,1.5915213093921373e-06,1.7878820892515838e-06,2.4576475953406863e-06,1.8520894792620147e-06,5.170629640229607e-06,2.689108968312308e-05,1.1679472322780302e-06,2.6763032442819993e-06,2.7989834888345566e-06,1.7159004770565924e-05,1.7193412580430002e-06,1.0605360220645846e-06
132,1.6727497935838236e-06,1.3855360009492466e-06,1.2705073358505797e-06,1.2140323510122429e-06,1.5835353233201438e-06,1.8294749509617214e-06,2.4795172150651686e-06,1.8668306860067115e-06,5.008920796452023e-06,2.5727430415421596e-05,1.157509567415936e-06,2.6388998476869647e-06,2.826096796907949e-06,1.6628792468772553e-05,1.7968824127948697e-06,1.070002520900193e-06
133,1.6519601407377653e-06,1.3609180489893266e-06,1.2580591591528054e-06,1.1913335879693838e-06,1.5751590283656383e-06,1.8681711650289544e-06,2.4996331358164976e-06,1.8839599463080075e-06,4.837058115489366e-06,2.4457820494792205e-05,1.1456334252768105e-06,2.6113830564175784e-06,2.8526807429029338e-06,1.603894261058157e-05,1.8871335534262756e-06,1.1096233714640914e-06
134,1.6345547677706578e-06,1.3309550144185968e-06,1.2496260926089647e-06,1.1720891644585625e-06,1.567218914149869e-06,1.9031291005735818e-06,2.5178459970817913e-06,1.9027322554139236e-06,4.658198968004459e-06,2.3104322081654808e-05,1.1324244425665796e-06,2.594497353350207e-06,2.878485190928764e-06,1.5408235017595932e-05,1.9887784195998476e-06,1.1768238476021209e-06
135,1.621696920074947e-06,1.2963625967684165e-06,1.2453226090327244e-06,1.1565066071790928e-06,1.5605409291139097e-06,1.9339781627018945e-06,2.533566175143471e-06,1.922197521127687e-06,4.475900160880073e-06,2.1688744862996088e-05,1.1180624462572963e-06,2.5887475494687403e-06,2.9028430939423575e-06,1.4752708855932965e-05,2.100364641085703e-06,1.2689134888102538e-06
136,1.614527079505044e-06,1.2579908733946465e-06,1.2450904671860817e-06,1.144702158876965e-06,1.5557561053553565e-06,1.9607093300617304e-06,2.545788601960316e-06,1.941347121694067e-06,4.29368759255356e-06,2.023391510364904e-05,1.1027720907308048e-06,2.5944046818805496e-06,2.924654656408503e-06,1.4086182876933122e-05,2.220281881420333e-06,1.3831131976458985e-06
137,1.613944130379452e-06,1.2167537268132999e-06,1.2487875763090595e-06,1.1367234145499826e-06,1.5532435900973198e-06,1.983464193909239e-06,2.5533052475828826e-06,1.959396072422114e-06,4.1146429020127414e-06,1.8763846091970127e-05,1.0867614917332166e-06,2.611556001102717e-06,2.942461060261283e-06,1.3421544553400115e-05,2.3466501328424177e-06,1.5166030102814256e-06
138,1.620510048585755e-06,1.1735685298176298e-06,1.2563358033896302e-06,1.1326206310931973e-06,1.553188450347491e-06,2.0023634501940445e-06,2.554966579727866e-06,1.9759886753157403e-06,3.941282438616125e-06,1.73022762963488e-05,1.0701731793031475e-06,2.640056943753965e-06,2.954587573522559e-06,1.2772049713950215e-05,2.4772782180124543e-06,1.6666040168000968e-06
139,1.6344459197099978e-06,1.1294005066396315e-06,1.267805617409173e-06,1.1325305298684585e-06,1.5557023572485014e-06,2.0173997223627194e-06,2.5498231473867103e-06,1.9911109783085247e-06,3.775537447883783e-06,1.587069880164982e-05,1.0531105320197363e-06,2.6794182794544815e-06,2.959294919593357e-06,1.2151918198848856e-05,2.609740555666522e-06,1.830504662302569e-06
140,1.6556600889851242e-06,1.085302474891345e-06,1.28334302525904e-06,1.136683817935849e-06,1.5608906751615242e-06,2.0283983765969884e-06,2.537179524716813e-06,2.00477441841747e-06,3.618708953709953e-06,1.4487175005438967e-05,1.035741782312222e-06,2.7287456513497106e-06,2.954977072302106e-06,1.1575868888874543e-05,2.741406545807676e-06,2.0060353406613695e-06
141,1.6837571488305885e-06,1.0423641243370876e-06,1.3030347243968426e-06,1.1452939934789918e-06,1.5687904848836234e-06,2.0351147366531046e-06,2.5167392010155166e-06,2.016769346461051e-06,3.471529054056108e-06,1.3166305314335583e-05,1.0183487386954077e-06,2.7867275882579775e-06,2.940425082018819e-06,1.1057962560406174e-05,2.86936121856218e-06,2.191425445199981e-06
142,1.7180221234187627e-06,1.0016197323183398e-06,1.3268183843316622e-06,1.1584337114365843e-06,1.5792759943715747e-06,2.037412046176577e-06,2.4888596271015777e-06,2.026685616091483e-06,3.334349464870331e-06,1.1919935364213964e-05,1.0012425000861255e-06,2.8516422566787808e-06,2.915072223370455e-06,1.061051490869081e-05,2.990373660262921e-06,2.3853459204500404e-06
143,1.757409834834868e-06,9.639590952022132e-07,1.3544625442242983e-06,1.1759956151485619e-06,1.5920871607122035e-06,2.0353247512567847e-06,2.454666279657525e-06,2.0340963949212326e-06,3.207246519500395e-06,1.0757963456497787e-05,9.846564562568791e-07,2.921421730988703e-06,2.8790346093082967e-06,1.0243658529064284e-05,3.1010236928380006e-06,2.586584135334727e-06
144,1.8005657354220846e-06,9.300673687581075e-07,1.3856254618396708e-06,1.1977117800248172e-06,1.607012702150189e-06,2.0289633023375135e-06,2.41581123505794e-06,2.038670397018799e-06,3.0899284812369466e-06,9.688769700992151e-06,9.687354806440297e-07,2.9938165195040104e-06,2.8328428082611653e-06,9.965645830013294e-06,3.197938713077475e-06,2.7936827224652403e-06
145,1.8458723535733858e-06,9.004146984960878e-07,1.4199442583607657e-06,1.2232117724732923e-06,1.624064919494244e-06,2.0184134217618705e-06,2.374027024845502e-06,2.040094630474908e-06,2.9816573944809292e-06,8.719166894953331e-06,9.536138376050955e-07,3.066658251853892e-06,2.7771479359922906e-06,9.783482709224998e-06,3.278090547750769e-06,3.004723888699312e-06
146,1.8914757456761324e-06,8.75295018551003e-07,1.4570972992479403e-06,1.2520968228805148e-06,1.643460444277383e-06,2.0037413925438568e-06,2.330827683724362e-06,2.037905601212783e-06,2.8813470629245666e-06,7.854207026330588e-06,9.394908040882224e-07,3.1381281999315435e-06,2.712795856410269e-06,9.703351564674384e-06,3.3391259183105944e-06,3.2172208984032987e-06
147,1.935316100683687e-06,8.548902302431027e-07,1.4968218964368524e-06,1.2839476944955006e-06,1.665461921547735e-06,1.9850958467754466e-06,2.2874421851715673e-06,2.031441555286916e-06,2.7876935045602832e-06,7.097226769153828e-06,9.266220746108901e-07,3.2068924170745885e-06,2.641123773545211e-06,9.730599623901986e-06,3.3795956086748222e-06,3.4280333918374104e-06
148,1.975281485733479e-06,8.393096657767119e-07,1.5388587187928999e-06,1.318307968637646e-06,1.6903148497748614e-06,1.962857587525518e-06,2.244783393306156e-06,2.0199879088183493e-06,2.699278191973029e-06,6.45015054678996e-06,9.152540547568849e-07,3.2720386352102592e-06,2.563976594680997e-06,9.869393956515566e-06,3.3988547805980663e-06,3.6333197315572207e-06
149,2.0095098334962063e-06,8.285882882004216e-07,1.5828551303105576e-06,1.3547290331946972e-06,1.7183357628225105e-06,1.9377434828841123e-06,2.2033742456575995e-06,2.002984281044162e-06,2.6147963675694145e-06,5.913873200606256e-06,9.055894397779958e-07,3.332901851660832e-06,2.4833451832516612e-06,1.012224971682202e-05,3.3966484655399184e-06,3.828614853874164e-06
150,2.036719300652915e-06,8.226763674139068e-07,1.628303857253994e-06,1.3927838940422704e-06,1.7499445323217511e-06,1.910736846074537e-06,2.163316699844335e-06,1.9801878167564127e-06,2.5333540579051295e-06,5.488747833739663e-06,8.977743013301102e-07,3.3889727917707167e-06,2.401025714244997e-06,1.048964971122642e-05,3.3728939093828917e-06,4.009091278415705e-06
151,2.0564201441809615e-06,8.214254527399771e-07,1.6744936296634403e-06,1.432015076766513e-06,1.7855247484985268e-06,1.8828810335091705e-06,2.124361954113982e-06,1.951823828944556e-06,2.454504870523924e-06,5.175323040699211e-06,8.918522828825033e-07,3.439965016559153e-06,2.3185338828284925e-06,1.0969862973537464e-05,3.3280216351881633e-06,4.1699948345895345e-06
152,2.0689077314971105e-06,8.245679850171349e-07,1.7204353797091258e-06,1.4719698426492843e-06,1.8252696988433502e-06,1.8551471287645848e-06,2.0860778579849916e-06,1.918708910987457e-06,2.377948793825698e-06,4.975141820428519e-06,8.877234501411704e-07,3.4858615240130377e-06,2.2370916636092463e-06,1.1558837620799954e-05,3.2634127763628923e-06,4.307204286989038e-06
153,2.0750362389366317e-06,8.317144341924725e-07,1.7648371668714554e-06,1.5123515241832554e-06,1.8691408209200416e-06,1.8284263406448424e-06,2.04803004568645e-06,1.882189037940276e-06,2.30327386194782e-06,4.891014785534269e-06,8.851586556313045e-07,3.5267769981854948e-06,2.157595889736713e-06,1.225001108778227e-05,3.1813749733051943e-06,4.417779074230619e-06
154,2.075872505063918e-06,8.423636760781469e-07,1.8062148331987964e-06,1.5530875759775238e-06,1.9168789195518984e-06,1.8034959404196287e-06,2.009904769442371e-06,1.843836734233844e-06,2.2300314152336553e-06,4.926472733086022e-06,8.83840536542727e-07,3.562774038233329e-06,2.080688619342843e-06,1.3034071800846794e-05,3.0847806385743984e-06,4.500198300571324e-06
155,2.072376717266571e-06,8.559271380356571e-07,1.843127924195231e-06,1.5942054656322465e-06,1.9680779547186686e-06,1.7809259319523193e-06,1.971600408380105e-06,1.8051304013842658e-06,2.1579658507127345e-06,5.084914308055691e-06,8.833932094713588e-07,3.5938144395120693e-06,2.0069044754107416e-06,1.3898760546889754e-05,2.976723234273333e-06,4.554022489955466e-06
156,2.065251802801801e-06,8.718069953471947e-07,1.8744227425756882e-06,1.6356791407130603e-06,2.0223594599278233e-06,1.761042849682161e-06,1.933272639892994e-06,1.7673321246680158e-06,2.0871297412968267e-06,5.369079749256627e-06,8.834103373090842e-07,3.619723485420105e-06,1.936747699762851e-06,1.4828740412317775e-05,2.860263081091495e-06,4.579241778984715e-06
157,2.05497398455138e-06,8.895043197082633e-07,1.8993492015853182e-06,1.6773687879584868e-06,2.0794613591109874e-06,1.7440062375334576e-06,1.8952452935517977e-06,1.7314904137180475e-06,2.0179004664512513e-06,5.780902787967925e-06,8.834967434321405e-07,3.6400236425023103e-06,1.8706329668096577e-06,1.5805550933218702e-05,2.738219203341184e-06,4.575987648789798e-06
158,2.0418712544146192e-06,9.08668786601369e-07,1.917531325484223e-06,1.718954906322606e-06,2.139075507778537e-06,1.7299431403386748e-06,1.8578078179820501e-06,1.6984097068456465e-06,1.951022415897621e-06,6.321513787775086e-06,8.83303044049975e-07,3.653820474529194e-06,1.8087591532834527e-06,1.6807630111131096e-05,2.613050630616958e-06,4.544812828622966e-06
159,2.026180808403531e-06,9.290830961507691e-07,1.9288804019781827e-06,1.7598503865777778e-06,2.2006007429521583e-06,1.7190324816984097e-06,1.82105941336371e-06,1.6685945096772404e-06,1.8876237015976282e-06,6.9912197887423035e-06,8.825247610393345e-07,3.6599586362359076e-06,1.751078922760386e-06,1.7810298916926805e-05,2.4868374783205997e-06,4.487113277462454e-06
160,2.0081304001543926e-06,9.506280585298072e-07,1.9334869044607014e-06,1.7992522170906258e-06,2.2630913317616647e-06,1.7114534549260708e-06,1.7849275072334793e-06,1.6422350524463629e-06,1.8290909652835385e-06,7.789457661099777e-06,8.809186670027441e-07,3.657413256164365e-06,1.6974147327053338e-06,1.878568587068234e-05,2.3613280161658657e-06,4.405308603648075e-06
161,1.988016190730377e-06,9.73215716742798e-07,1.9314623220243623e-06,1.8363534536675233e-06,2.3254536509829464e-06,1.7072336914814407e-06,1.7493395868422842e-06,1.6192507663592962e-06,1.776843844587552e-06,8.714847666289423e-06,8.783789237673248e-07,3.6457574126401278e-06,1.6475975398274957e-06,1.9703266884559805e-05,2.238036902676092e-06,4.302753596513263e-06
162,1.9661714969107153e-06,9.966974466544494e-07,1.922843513748569e-06,1.870475184868306e-06,2.386724918019166e-06,1.7061461114368775e-06,1.7144148772565346e-06,1.5993896755261311e-06,1.7321350572845547e-06,9.765330637350668e-06,8.749652505302721e-07,3.6254693746038904e-06,1.6015585061206383e-06,2.0532152379235345e-05,2.11834905673164e-06,4.183556379974316e-06
163,1.9428661864158106e-06,1.0208004773159174e-06,1.9076763850715812e-06,1.9009764845624772e-06,2.4462211374307348e-06,1.7077561324112526e-06,1.6805304824487315e-06,1.5823422487220605e-06,1.6959710013696516e-06,1.0938172007013575e-05,8.708545355617799e-07,3.597867830982172e-06,1.559366440930657e-06,2.124498277368367e-05,2.0035797884047176e-06,4.052404227274605e-06
164,1.9182953100097392e-06,1.0451010219144967e-06,1.8861204426246833e-06,1.9271726453220387e-06,2.503435324011916e-06,1.7115285931485093e-06,1.6482081926055854e-06,1.5678260240942303e-06,1.6691868112069936e-06,1.2229617266803122e-05,8.663350049713105e-07,3.564765647720891e-06,1.5212028157804507e-06,2.182140318606847e-05,1.8949623820728224e-06,3.914301793472538e-06
165,1.8926431386749903e-06,1.0690446559667775e-06,1.8584296469868633e-06,1.948486080779303e-06,2.5577941651464048e-06,1.716855004553897e-06,1.6179252382630756e-06,1.5556462633208772e-06,1.6525707263896097e-06,1.363424519857334e-05,8.618173369888638e-07,3.5281130560976575e-06,1.487334975465388e-06,2.2249045107817248e-05,1.7936253423062455e-06,3.774154186597317e-06
166,1.866128745085275e-06,1.0920491291328708e-06,1.824951523632072e-06,1.9646682532337497e-06,2.608477867345369e-06,1.723093331895118e-06,1.589992621439053e-06,1.5457085259768151e-06,1.6468715175343331e-06,1.5144321303778874e-05,8.57757997192379e-07,3.4897241038160134e-06,1.4580737986582002e-06,2.252181355823364e-05,1.7006355282067512e-06,3.636344710080407e-06
167,1.8390788768065561e-06,1.1136412385020092e-06,1.7862588982131945e-06,1.9758312744434513e-06,2.6543450363297055e-06,1.7297589315938058e-06,1.5645132614997684e-06,1.537942513679554e-06,1.6526855528550111e-06,1.6749343666512987e-05,8.545379727406971e-07,3.451044286734677e-06,1.433657456031337e-06,2.263671566732165e-05,1.6170005148153252e-06,3.5045082838810614e-06
168,1.8119840318396531e-06,1.1334973675319086e-06,1.7432535354899861e-06,1.9822663710577653e-06,2.6939832677796074e-06,1.736737211114021e-06,1.5413968135949675e-06,1.532207344603503e-06,1.6703833091788782e-06,1.8435728609283074e-05,8.52400920895061e-07,3.41298250877716e-06,1.4141706626341584e-06,2.2590837043046216e-05,1.543575220786931e-06,3.3815178482673605e-06
169,1.785401532082006e-06,1.1513270366092898e-06,1.6970583314832392e-06,1.9842338341096235e-06,2.7260096268538467e-06,1.7443290911173527e-06,1.5204427423202785e-06,1.5283199554043506e-06,1.7001597195180025e-06,2.0186547884115276e-05,8.514871313095769e-07,3.375877225940092e-06,1.3995878802046605e-06,2.2380920275993976e-05,1.4809932371013215e-06,3.269545548121323e-06
170,1.7598022265526787e-06,1.1667041209882764e-06,1.6487915590356973e-06,1.9819479205990774e-06,2.7495594042804115e-06,1.7531051985244097e-06,1.5014125387436537e-06,1.526215477837412e-06,1.7421244623220127e-06,2.1981634870343896e-05,8.519174904628945e-07,3.3396373117035757e-06,1.389842539908038e-06,2.2007187331775324e-05,1.4296602224891122e-06,3.1700838634805433e-06
171,1.7355099783132458e-06,1.1789992678149751e-06,1.5994363898988985e-06,1.975759269760736e-06,2.764648144366643e-06,1.763667361163809e-06,1.4840405722249621e-06,1.5260464459642497e-06,1.7963263536622085e-06,2.3799033094010504e-05,8.538371015111624e-07,3.304016894841913e-06,1.384845654707055e-06,2.1478763971155292e-05,1.389752467098193e-06,3.083936997798027e-06
172,1.7126825357180404e-06,1.1874867897668267e-06,1.549824079764399e-06,1.966265387460963e-06,2.772155598566007e-06,1.7764941134691476e-06,1.4680705328192952e-06,1.528077237304904e-06,1.8627304051734112e-06,2.5618134428565838e-05,8.573882568486776e-07,3.26888492075607e-06,1.3844946432168845e-06,2.081582789927054e-05,1.361204319992774e-06,3.0112751420893985e-06
173,1.6913166230417975e-06,1.191601042071086e-06,1.5006597641400495e-06,1.9541690417305453e-06,2.7734467499259502e-06,1.7919221302419022e-06,1.4533248256244902e-06,1.532512207240921e-06,1.941274379910304e-06,2.742280879753703e-05,8.626728526669636e-07,3.2343647008123154e-06,1.3886930406872955e-06,2.0046847512998923e-05,1.3437063227468768e-06,2.9517535352875575e-06
174,1.6713048838359963e-06,1.1911798579957055e-06,1.4526210108260467e-06,1.94000946199479e-06,2.7698930463415943e-06,1.8101247564075713e-06,1.4396994099357394e-06,1.5394262552858837e-06,2.0320055210310075e-06,2.920214152520664e-05,8.697478027364974e-07,3.200853095118493e-06,1.397351851055816e-06,1.9203390313629377e-05,1.3367145482291835e-06,2.904565474484851e-06
175,1.652452038492993e-06,1.1864968535649453e-06,1.4064928072067286e-06,1.92400060998283e-06,2.762581456084141e-06,1.8310651562757653e-06,1.4270493981202678e-06,1.5487573238202015e-06,2.135093137156e-06,3.0948008471778864e-05,8.786437575705359e-07,3.1689951073361965e-06,1.4103925130127046e-06,1.8315721146456326e-05,1.3394622583172767e-06,2.8683784461132605e-06
176,1.6344885550809764e-06,1.1780688374903583e-06,1.3631771799273614e-06,1.9060994730776155e-06,2.752240393872083e-06,1.8544936071805868e-06,1.4150545043662347e-06,1.5603140111445606e-06,2.250636512885327e-06,3.2651054988911106e-05,8.893972264310755e-07,3.1395978685685606e-06,1.4277980853539281e-06,1.741053319595143e-05,1.3509839900119222e-06,2.8412485040456544e-06
177,1.6172147058603378e-06,1.1664143031125259e-06,1.3235546409358976e-06,1.8862265379569633e-06,2.7392406425016267e-06,1.879922960251011e-06,1.4032124526575638e-06,1.57378672089556e-06,2.3784548369438656e-06,3.429815005296153e-05,9.020710096821728e-07,3.1134163520027856e-06,1.4496548539155447e-06,1.651040025508502e-05,1.370137668889236e-06,2.820596206368722e-06
178,1.6006560808393837e-06,1.1519623929411583e-06,1.2883857507904084e-06,1.8643998384210882e-06,2.723620296573684e-06,1.9065618931878724e-06,1.3910209800254266e-06,1.588721277127304e-06,2.5180032714947155e-06,3.587305156759968e-05,9.167212457105087e-07,3.0909014385721376e-06,1.476092291079543e-06,1.5634116664086672e-05,1.395618694976628e-06,2.8033055821967213e-06
179,1.5850650354012105e-06,1.1351672377293775e-06,1.2583658122452361e-06,1.8406748994316233e-06,2.7051509388140152e-06,1.933324408255296e-06,1.3782011615802954e-06,1.6045520288846214e-06,2.6683463324809354e-06,3.735925206047584e-05,9.333293876261438e-07,3.072130616781627e-06,1.5071879275503926e-06,1.4797302450185964e-05,1.4260100120624986e-06,2.786042425460721e-06
180,1.5708025506149057e-06,1.1166860931833414e-06,1.2342058854632983e-06,1.8150905438073271e-06,2.683441840755528e-06,1.958964370443233e-06,1.3647498605936914e-06,1.6207898280553351e-06,2.82809790646571e-06,3.874332580741625e-05,9.517586002905854e-07,3.056978727534718e-06,1.5429324987790685e-06,1.4012904416903188e-05,1.4598740171685637e-06,2.765787876009154e-06
181,1.5582122440189408e-06,1.0974410833496888e-06,1.2165987433211387e-06,1.7877701233047063e-06,2.6580764282971833e-06,1.982262346958448e-06,1.350806982521705e-06,1.6371710944189994e-06,2.995372120501039e-06,4.001703269974903e-05,9.717501648369884e-07,3.0453504304083695e-06,1.5832364544200958e-06,1.3291523317626316e-05,1.495827928487345e-06,2.740361943481679e-06
182,1.5476045161677418e-06,1.0785205110046874e-06,1.2061167931437127e-06,1.7590298883268112e-06,2.6287412112520347e-06,2.0021934481367696e-06,1.3365029155437735e-06,1.6535781109088318e-06,3.1678804179073737e-06,4.1175996639223384e-05,9.929447809338387e-07,3.03727347779694e-06,1.627965863057514e-06,1.2641625751140252e-05,1.5325497292918653e-06,2.7086046899144747e-06
183,1.5393302452343763e-06,1.0610188918664725e-06,1.203155886490187e-06,1.7293496474545483e-06,2.5952735344371227e-06,2.018081235621683e-06,1.3218925000657311e-06,1.6698613785410645e-06,3.3432067032061385e-06,4.221560662744327e-05,1.0149164865396304e-06,3.0328086477134035e-06,1.676960773052614e-06,1.2069626010320766e-05,1.5686964225407505e-06,2.670086576829345e-06
184,1.533745039667711e-06,1.0459297462775542e-06,1.2079394049140423e-06,1.6992391333034349e-06,2.557633278911544e-06,2.029736719102319e-06,1.3069728745044558e-06,1.6857441615501314e-06,3.5190200935872755e-06,4.312903905148101e-05,1.03721120105977e-06,3.0319240750187397e-06,1.7299835129350158e-06,1.1579869006124744e-05,1.6027907372171787e-06,2.6246860176758243e-06
185,1.5310578330732934e-06,1.0341059681402026e-06,1.2205362272966136e-06,1.669104907528427e-06,2.51588991817109e-06,2.037480732776236e-06,1.2917684661557982e-06,1.7008740161558078e-06,3.693029599758519e-06,4.391042594581515e-05,1.0593931245710809e-06,3.0344983489972435e-06,1.7867133099425815e-06,1.1174629144476212e-05,1.6332251118079926e-06,2.5725011004460383e-06
186,1.5313103953977402e-06,1.0262468687657906e-06,1.2408731349048436e-06,1.6392350451192185e-06,2.4702296965128075e-06,2.0419700066267742e-06,1.2764211185272796e-06,1.7150158826162456e-06,3.8629360806817365e-06,4.4560066222728974e-05,1.081089628752832e-06,3.0404041983282163e-06,1.846825476659341e-06,1.0854142179138662e-05,1.6584749932139564e-06,2.514021695760511e-06
187,1.5345415221385235e-06,1.022884492763279e-06,1.2687315737719097e-06,1.6099172665158803e-06,2.4208687090570852e-06,2.0439098499472497e-06,1.2611715667518024e-06,1.7281942119195154e-06,4.02661843552411e-06,4.5087131584478926e-05,1.1019874678872816e-06,3.049528379359457e-06,1.9099693840880464e-06,1.0616587869420025e-05,1.6773826268028033e-06,2.450114444673326e-06
188,1.5408928168275043e-06,1.0243555151712078e-06,1.3037324959047434e-06,1.5815559714305272e-06,2.3678806423185535e-06,2.04381211724432e-06,1.2462325055742133e-06,1.7405891638513508e-06,4.182325976244612e-06,4.5507995806987776e-05,1.1217680773185074e-06,3.061742113779109e-06,1.9756291653949253e-06,1.0458008655899557e-05,1.689266634056664e-06,2.3817539657459e-06
189,1.5505132475359587e-06,1.0307715870137123e-06,1.345355337102017e-06,1.5546734770127137e-06,2.31115618882192e-06,2.0419022562128043e-06,1.2317236977724577e-06,1.7522823598707895e-06,4.328676123820149e-06,4.584135905722488e-05,1.1400891479352468e-06,3.076895039280667e-06,2.043076435302151e-06,1.037223895071665e-05,1.6938399826224627e-06,2.3098213813916437e-06
190,1.5634041204807277e-06,1.0420175922527415e-06,1.3929867728788671e-06,1.5298069192589718e-06,2.2506306287128246e-06,2.038149553120364e-06,1.2177632801872061e-06,1.7630701936319991e-06,4.46452829225612e-06,4.6105135629482844e-05,1.156674185397401e-06,3.094809132358653e-06,2.1114983845433993e-06,1.0350970293845957e-05,1.6911380554178867e-06,2.235087981349031e-06
191,1.579371779704311e-06,1.0578085871884915e-06,1.4459098551158485e-06,1.5073814809543538e-06,2.1866554333187188e-06,2.032285068988536e-06,1.204565726228252e-06,1.772422520744864e-06,4.588769457755367e-06,4.631919598780309e-05,1.171375224302255e-06,3.115279835477632e-06,2.1801631320057196e-06,1.0384153425471964e-05,1.6815038494185222e-06,2.1582657822299977e-06
192,1.5981127738467255e-06,1.0778090674811107e-06,1.5032314963526344e-06,1.4876246037217751e-06,2.120254590323137e-06,2.023758334587932e-06,1.192388426145563e-06,1.7795514214900085e-06,4.700032394624398e-06,4.6510433792495773e-05,1.1841235589164142e-06,3.138143221129572e-06,2.2484253383153687e-06,1.0460801949083439e-05,1.6655126625659438e-06,2.080124491417628e-06
193,1.6193504764958989e-06,1.1017204557076263e-06,1.563895922419737e-06,1.4705291482728727e-06,2.0530407235544704e-06,2.01171570593921e-06,1.1813825862088652e-06,1.7835666337596803e-06,4.7965792946795995e-06,4.671362442536348e-05,1.1948526786880833e-06,3.1633750777372856e-06,2.3155822053996382e-06,1.0569865152599473e-05,1.6438453127935493e-06,2.0016495950270166e-06
194,1.6428884689418387e-06,1.1292357953272163e-06,1.6268682567815527e-06,1.4558649382937372e-06,1.986827654551064e-06,1.995090392514969e-06,1.1714981350758794e-06,1.7836953204317155e-06,4.876551236630274e-06,4.696731012900542e-05,1.203427844953839e-06,3.1911402944310255e-06,2.3808067666130637e-06,1.0700668001094134e-05,1.617176631193515e-06,1.924043293925642e-06
195,1.6685463173850002e-06,1.1599272355259665e-06,1.6913611805479331e-06,1.443244907624097e-06,1.9232538217853113e-06,1.972852769005636e-06,1.1625240667657495e-06,1.779513306194021e-06,4.938393940914587e-06,4.7308672624027075e-05,1.2095870658224027e-06,3.221770887575184e-06,2.443282679194691e-06,1.0842664597755298e-05,1.5861116326079304e-06,1.848516936152337e-06
196,1.6960903979001652e-06,1.1931961973272746e-06,1.7569153807271769e-06,1.4321902381554307e-06,1.863621677842951e-06,1.9443632341586347e-06,1.1542179588472454e-06,1.7711414256411124e-06,4.981200196549604e-06,4.777010645782316e-05,1.2129957653094862e-06,3.2556615672694425e-06,2.502426926034111e-06,1.0984631416787269e-05,1.551258145303788e-06,1.7760717121286994e-06
197,1.7252469953938232e-06,1.2282909489259535e-06,1.8232792724969413e-06,1.422143767662861e-06,1.8089189992413427e-06,1.909674842350405e-06,1.1463865520912414e-06,1.7593455323175156e-06,5.004956522774559e-06,4.8377271678673706e-05,1.213438138247619e-06,3.2930623251826422e-06,2.557993722821994e-06,1.1113807983153056e-05,1.5134117944332387e-06,1.7074551775021718e-06
198,1.7557623111260651e-06,1.2643534378645495e-06,1.890183621012224e-06,1.4125041639439547e-06,1.75993017926236e-06,1.8696300551035251e-06,1.1388930200208327e-06,1.7454410608037107e-06,5.01066043449125e-06,4.914759330018006e-05,1.2109677142740536e-06,3.3338242318789742e-06,2.609944309685812e-06,1.1215836682049845e-05,1.4736358186375258e-06,1.6432956800060192e-06
199,1.787415346999607e-06,1.300533403541713e-06,1.957177486870333e-06,1.4027565331994067e-06,1.7173023645053184e-06,1.8256751719194602e-06,1.1316928191739986e-06,1.7309932615960334e-06,5.000134800357628e-06,5.008889825403803e-05,1.205856807345611e-06,3.377233297006099e-06,2.658158568678199e-06,1.1276150886049964e-05,1.4331317091204979e-06,1.5842561153635385e-06
200,1.819948934166372e-06,1.3361254236467906e-06,2.0236218866334815e-06,1.392616375307143e-06,1.6814754180175832e-06,1.7794912379716863e-06,1.124867437533004e-06,1.7174938084626342e-06,4.975499368166091e-06,5.119831861171575e-05,1.1984102238803086e-06,3.422063964442187e-06,2.702188376696623e-06,1.1282467953178246e-05,1.3930512167882744e-06,1.5310425974525029e-06
201,1.8529622314188207e-06,1.3705755107792802e-06,2.0887627410934846e-06,1.3820426497053558e-06,1.6525660006228445e-06,1.732667145177814e-06,1.1185430542672843e-06,1.7062019031917334e-06,4.93863848702187e-06,5.2461685130110175e-05,1.188853657942269e-06,3.4668629344525064e-06,2.741168637185491e-06,1.122715227486201e-05,1.3544150142989515e-06,1.4842696500833505e-06
202,1.8858204071414226e-06,1.4034251587166208e-06,2.1517654069442236e-06,1.3711064596309611e-06,1.630357876894247e-06,1.686563716152586e-06,1.1127504647210642e-06,1.6981388728143185e-06,4.891216726806285e-06,5.385374602816574e-05,1.177400122588084e-06,3.5102579229056456e-06,2.7738182828745205e-06,1.1108251332327037e-05,1.318110583193876e-06,1.4443286311272308e-06
203,1.9176718941646257e-06,1.4343740003999123e-06,2.2117149463295006e-06,1.3598669558183848e-06,1.614471910170934e-06,1.6423140598455822e-06,1.1073881048023522e-06,1.6941067063806723e-06,4.835300166601148e-06,5.533886735859565e-05,1.164386611259172e-06,3.5510476702607535e-06,2.798462571371385e-06,1.0928755932579078e-05,1.2848702348354716e-06,1.4113429152606762e-06
204,1.9476329712796687e-06,1.4633531611724373e-06,2.267632158577095e-06,1.3484118855826112e-06,1.6046648352293665e-06,1.6008366134356436e-06,1.1023218968442342e-06,1.6946528195931908e-06,4.773844871925967e-06,5.6871683048935926e-05,1.1503207641767435e-06,3.58810377804609e-06,2.8131847516089547e-06,1.0694499764282266e-05,1.2552473528339413e-06,1.3851822595157203e-06
205,1.9750029034659585e-06,1.4904420491766056e-06,2.3185000410956905e-06,1.336995155634328e-06,1.6010672021955302e-06,1.5628411847672937e-06,1.0974752366198712e-06,1.70002137516367e-06,4.7104238332142114e-06,5.8399004789746495e-05,1.1357886007837438e-06,3.6203545232109675e-06,2.816237628333995e-06,1.0411869919073494e-05,1.2296505670620574e-06,1.3655129485954333e-06
206,1.999304051342425e-06,1.5157133552679432e-06,2.3633102485357875e-06,1.3260384817483015e-06,1.6041851804965532e-06,1.5288379720453177e-06,1.0927893832716437e-06,1.710186722425877e-06,4.648470981457138e-06,5.986381819785704e-05,1.1213033221516443e-06,3.6470022886620463e-06,2.8066143392392453e-06,1.0086669084142372e-05,1.208399154411213e-06,1.351889632386393e-06
207,2.0201563063053044e-06,1.539151574600241e-06,2.40119607234079e-06,1.3159528655965784e-06,1.614688635227124e-06,1.499139673773802e-06,1.0881269969444512e-06,1.724941960278329e-06,4.590689740233108e-06,6.1208236872275e-05,1.107218369915206e-06,3.667828847566395e-06,2.7844696342091527e-06,9.7243293610065e-06,1.1917274510805557e-06,1.3438577776375558e-06
208,2.0372024702139377e-06,1.5606705096680223e-06,2.431620410094493e-06,1.3069817033035063e-06,1.6331546883764605e-06,1.4738715826530222e-06,1.0832287065042648e-06,1.7439134827791974e-06,4.538827280402709e-06,6.237240308064982e-05,1.0937487117314953e-06,3.6833491273152635e-06,2.7511016052062187e-06,9.330439674944438e-06,1.1797514059895536e-06,1.3409853053623905e-06
209,2.050210890576436e-06,1.580175143965941e-06,2.45441034956153e-06,1.2992285986964438e-06,1.659913828957862e-06,1.453000329828175e-06,1.0777499278016354e-06,1.7665049522712785e-06,4.493618248805975e-06,6.329270412462731e-05,1.08104586132778e-06,3.694733066354501e-06,2.708476552455761e-06,8.91090745495935e-06,1.1724491847459056e-06,1.3428172645898354e-06
210,2.0591973651618076e-06,1.5975792219352735e-06,2.4695278764668546e-06,1.2928238974826952e-06,1.695008505739103e-06,1.436417916538553e-06,1.0713951011453192e-06,1.7918800530146034e-06,4.45476112389825e-06,6.390666232092107e-05,1.069258591067953e-06,3.7035977461770588e-06,2.6586622601650384e-06,8.472015786523513e-06,1.169642176047366e-06,1.3488350266981893e-06
211,2.0643563657433803e-06,1.6127349071446357e-06,2.4768102531124347e-06,1.2880341039012705e-06,1.7381775135856686e-06,1.4240671561810771e-06,1.0641066115231653e-06,1.8190422465645047e-06,4.42098271669928e-06,6.416580567417201e-05,1.0585520938961605e-06,3.7118169739418365e-06,2.603558042694146e-06,8.020709039509244e-06,1.1709679582387827e-06,1.3584223114119944e-06
212,2.0658723285649896e-06,1.6253828801057217e-06,2.4759584794043197e-06,1.2851878326410435e-06,1.7888389090468036e-06,1.4159658549084323e-06,1.0561596976141736e-06,1.846980983626328e-06,4.390247217658183e-06,6.40480038199313e-05,1.049092230538603e-06,3.7213977806846284e-06,2.544906778785599e-06,7.564944948848356e-06,1.1758878521576271e-06,1.370819005701806e-06
213,2.063849658201765e-06,1.635226015278906e-06,2.4667258397936964e-06,1.284519146991771e-06,1.8460928590275758e-06,1.4121101627859301e-06,1.0480692173437768e-06,1.8747331706125186e-06,4.3600842789414965e-06,6.355989851819564e-05,1.0410061340301572e-06,3.7343595020978065e-06,2.4843571426694115e-06,7.113671977404771e-06,1.1837182681100853e-06,1.3851561607974433e-06
214,2.0583972502820336e-06,1.6420200584609801e-06,2.4491070978098548e-06,1.2861159623552432e-06,1.9087217923768855e-06,1.412387944222455e-06,1.0404089410753014e-06,1.9012862555446792e-06,4.328039851861453e-06,6.272811036805472e-05,1.0343313646384494e-06,3.752532692391931e-06,2.423446648042488e-06,6.67629272271964e-06,1.1936494875139012e-06,1.4006320235229486e-06
215,2.0496667530970056e-06,1.6455649233958097e-06,2.423447344519793e-06,1.290002362867898e-06,1.9751852282072613e-06,1.416515459837698e-06,1.0336881963605738e-06,1.92552018777647e-06,4.292175355328732e-06,6.158534943391114e-05,1.0289740173431573e-06,3.7772698641595537e-06,2.363479845507193e-06,6.261972704865191e-06,1.2047663495549028e-06,1.416673339187924e-06
216,2.0377627519618066e-06,1.6456681295232278e-06,2.390475902274433e-06,1.2962124861727157e-06,2.043648525325489e-06,1.4239672105364763e-06,1.028294782472858e-06,1.946319389397479e-06,4.251287882707328e-06,6.015958266596096e-05,1.0246940770352219e-06,3.8091861038223605e-06,2.3054189797301398e-06,5.879206737669626e-06,1.2161166472341595e-06,1.432858024306154e-06
217,2.022707803041334e-06,1.64218352859846e-06,2.3512670803993462e-06,1.3047512940393552e-06,2.1120653028815248e-06,1.433957244789214e-06,1.0244910010606998e-06,1.962665933267791e-06,4.204629717192429e-06,5.84715215078482e-05,1.0211460391726216e-06,3.848062338183731e-06,2.2499717732567146e-06,5.535716812674199e-06,1.2268885056954528e-06,1.4486861976462042e-06
218,2.0045599867874604e-06,1.6351011580555687e-06,2.3071100325536363e-06,1.3154979707769124e-06,2.178354266203974e-06,1.4454928288315094e-06,1.0224704958221295e-06,1.973631818081818e-06,4.151490773888607e-06,5.654039674804708e-05,1.0179776261729825e-06,3.892865839482616e-06,2.197809444614403e-06,5.238464405809118e-06,1.236593402530515e-06,1.4635162845228866e-06
219,1.9835014822452967e-06,1.6245626400991332e-06,2.25930426799144e-06,1.3281535113197628e-06,2.240696782142174e-06,1.4574516354189427e-06,1.0223961308020467e-06,1.9785026565800216e-06,4.091162504344841e-06,5.439318690523343e-05,1.0149032983236252e-06,3.941798052353665e-06,2.14966026254307e-06,4.993547112206575e-06,1.2450271557213765e-06,1.476703910801412e-06
220,1.959757297161599e-06,1.6107577949542246e-06,2.2089755897000704e-06,1.3422628207561498e-06,2.2978251673892207e-06,1.4686700188138857e-06,1.0243571658954314e-06,1.9770550495964747e-06,4.023239005929055e-06,5.2070426929446786e-05,1.0116857994990951e-06,3.992497993810959e-06,2.1062140229261535e-06,4.806012951419421e-06,1.2521093480614407e-06,1.4877236118064492e-06
221,1.9334601092850323e-06,1.5938821543973499e-06,2.1569979220792125e-06,1.3572756859117648e-06,2.349111389049513e-06,1.4780896789093038e-06,1.0283379727065426e-06,1.96966380220358e-06,3.947952943487934e-06,4.962469158835222e-05,1.008099311744614e-06,4.042546225769597e-06,2.0679876801130363e-06,4.679806996226748e-06,1.2578559854335118e-06,1.4962229017921036e-06
222,1.9046369708329898e-06,1.5742786351365788e-06,2.104013478664521e-06,1.3725632777627429e-06,2.3944265608663822e-06,1.484968251390422e-06,1.0343025140973817e-06,1.9571191648578016e-06,3.866455903757887e-06,4.711409847337428e-05,1.0039722602082615e-06,4.090092689909908e-06,2.0352678277207544e-06,4.6178917258105875e-06,1.262420585549585e-06,1.5020815811773968e-06
223,1.8733262840935925e-06,1.552558754629608e-06,2.0505077119132237e-06,1.3873480114811537e-06,2.4338834038522123e-06,1.4890409593515133e-06,1.0423168615242804e-06,1.9403724236897564e-06,3.7809163169630286e-06,4.459600947494025e-05,9.992755872363706e-07,4.134275738917128e-06,2.0081037842402986e-06,4.622383165350112e-06,1.2660789111553739e-06,1.5053941308143414e-06
224,1.8397048389459148e-06,1.5295029573197816e-06,1.996895406007116e-06,1.400639684563132e-06,2.467570813135209e-06,1.4905058149912667e-06,1.0525486458303689e-06,1.920390975447469e-06,3.694225714399809e-06,4.2123408833063415e-05,9.94143628625113e-07,4.175318189134856e-06,1.9863193321001423e-06,4.694635496555222e-06,1.2692086059713287e-06,1.5063007413099543e-06
225,1.8041466957666899e-06,1.5058564268865898e-06,1.9435318340242545e-06,1.4113347036039728e-06,2.4953375386505138e-06,1.4898487183782117e-06,1.0651360949097698e-06,1.8981339354520562e-06,3.609386160271266e-06,3.974314266553312e-05,9.88788660785582e-07,4.214425069962867e-06,1.9696194621863407e-06,4.835405603084466e-06,1.2722922511437091e-06,1.5048204917315884e-06
226,1.7672006940330472e-06,1.4822344567384713e-06,1.89061077652423e-06,1.4185240419422826e-06,2.5166697832127067e-06,1.487643517079441e-06,1.0800610234423257e-06,1.8745771782714264e-06,3.5289533359146556e-06,3.74947235673643e-05,9.834072816240014e-07,4.2536184015896065e-06,1.9577829138764558e-06,5.045178208808235e-06,1.275901807587453e-06,1.5008360253562113e-06
227,1.7294791882616476e-06,1.4591611261970999e-06,1.8380872869527302e-06,1.4218279021017463e-06,2.5307264990407807e-06,1.4844256653719141e-06,1.0971076082086843e-06,1.850687110060391e-06,3.454842366535019e-06,3.5409421386390265e-05,9.781630080791987e-07,4.295537734826007e-06,1.9507405024917704e-06,5.3244611283435685e-06,1.2806504340819609e-06,1.4941868061387237e-06
228,1.6915214082803725e-06,1.4371004706654416e-06,1.785759617244461e-06,1.4214911335226293e-06,2.536543362116646e-06,1.4806604683579017e-06,1.115876693280258e-06,1.827334659788507e-06,3.388441887062022e-06,3.3509889965518246e-05,9.731901843932e-07,4.343164875803209e-06,1.948447074503055e-06,5.673759698461925e-06,1.2871327240834993e-06,1.4848013167845688e-06
229,1.6537744005610285e-06,1.4164054486138981e-06,1.7334232765248461e-06,1.418188005105778e-06,2.533321324660754e-06,1.476810019299605e-06,1.1358195667019424e-06,1.805255791844144e-06,3.330722395557692e-06,3.181037913429041e-05,9.685937088637718e-07,4.39945967291942e-06,1.9507135392824574e-06,6.093176175377793e-06,1.2958682898994582e-06,1.472836545496188e-06
230,1.6167160659262552e-06,1.3972813322816247e-06,1.6809371660095545e-06,1.4127361228968806e-06,2.5206995248201666e-06,1.4734496488120476e-06,1.1563309179315642e-06,1.7850690757298856e-06,3.282204777538074e-06,3.0317218127112294e-05,9.644973113227582e-07,4.4669887678830795e-06,1.9571871879515008e-06,6.581926647233091e-06,1.3072713764742524e-06,1.458743900281633e-06
231,1.5809726107083941e-06,1.3798369766472268e-06,1.6281747761748826e-06,1.4059315746023323e-06,2.498914095808235e-06,1.4712940570781036e-06,1.176884608662473e-06,1.7672465648658963e-06,3.242970601301897e-06,2.9029227073834846e-05,9.61089918709804e-07,4.547649487650449e-06,1.967456517163738e-06,7.138104801963136e-06,1.3216599560810767e-06,1.4432074797679907e-06
232,1.5473190829107694e-06,1.3641261146348396e-06,1.5749639134130768e-06,1.3985567951158969e-06,2.468750539980032e-06,1.4710872967963754e-06,1.1970850484883034e-06,1.7520296371522797e-06,3.2128326708498397e-06,2.7938103706494976e-05,9.585784999039435e-07,4.642507184798942e-06,1.9811104721840194e-06,7.758775658465757e-06,1.3392667516262746e-06,1.4270402438689207e-06
233,1.516590687039248e-06,1.3501204815815087e-06,1.5211409049374106e-06,1.3914494340675347e-06,2.431331113088961e-06,1.4735348099454543e-06,1.2166759356365205e-06,1.739380402033192e-06,3.191548715737186e-06,2.7028912127814125e-05,9.57096668048821e-07,4.7516984025724135e-06,1.9977057923377834e-06,8.440319688994912e-06,1.3602405103077166e-06,1.4111378620450967e-06
234,1.4895856687560851e-06,1.337732372823809e-06,1.4667401308411496e-06,1.3854862438793084e-06,2.387925849931922e-06,1.4794056368335008e-06,1.2356393210940383e-06,1.7290355312271974e-06,3.1789240021245674e-06,2.6280509697118983e-05,9.566810350658517e-07,4.8743808243991365e-06,2.01675481549385e-06,9.17876460266118e-06,1.3846591880661093e-06,1.396441982030226e-06
235,1.4670052790196682e-06,1.3269263667095664e-06,1.4122061374822151e-06,1.3814851073907288e-06,2.3398802788120514e-06,1.4896581227134866e-06,1.2542450696528224e-06,1.7206820305739014e-06,3.1747632958838395e-06,2.566602968463066e-05,9.573217271338705e-07,5.0088111382442764e-06,2.0377895081839873e-06,9.969732949484524e-06,1.4125629569898289e-06,1.383836613517499e-06
236,1.4494182361893935e-06,1.3177591092163234e-06,1.3584735045828027e-06,1.3801278192396344e-06,2.2885450577079112e-06,1.505402141800213e-06,1.2729036277040661e-06,1.7141886500747752e-06,3.1787486702216616e-06,2.5153599685141068e-05,9.590092479785929e-07,5.152641293643753e-06,2.0604334702457106e-06,1.0807955235696874e-05,1.4440149450225615e-06,1.3740377748566933e-06
237,1.4372165300996098e-06,1.310263434889914e-06,1.306830353506365e-06,1.38192017651583e-06,2.235149056725455e-06,1.527710600381275e-06,1.2919681728009718e-06,1.709703633911411e-06,3.1903000166903554e-06,2.47071487363729e-05,9.61753427807747e-07,5.303385107870665e-06,2.0843776150013228e-06,1.168665870911887e-05,1.4791252629111107e-06,1.3675687243358307e-06
238,1.430558364162585e-06,1.3043153018510177e-06,1.258636993577546e-06,1.3871765055524957e-06,2.1807296980258172e-06,1.5574249118210504e-06,1.311624429123127e-06,1.7075129525174867e-06,3.208399427508063e-06,2.4288434697111367e-05,9.65633866940593e-07,5.458916395663155e-06,2.10925906795916e-06,1.2597280596832534e-05,1.5179656759012547e-06,1.364783958106538e-06
239,1.4293403482569208e-06,1.299626602662234e-06,1.215086944809034e-06,1.3960370515606489e-06,2.1261319758038765e-06,1.595056435758545e-06,1.3318489086670713e-06,1.7078500749426887e-06,3.2314567896245557e-06,2.386179490619946e-05,9.708853309195856e-07,5.617853704571325e-06,2.134651691688701e-06,1.3530108544685466e-05,1.560436820771288e-06,1.3658460630679304e-06
240,1.433235921134268e-06,1.2958559975453866e-06,1.1771241995965726e-06,1.4084679971061046e-06,2.0719643179781836e-06,1.6407784535803661e-06,1.352437601830613e-06,1.7108359410550318e-06,3.257409961435887e-06,2.339984713842256e-05,9.779064538905825e-07,5.779693237753304e-06,2.1602902744574583e-06,1.4476068983595171e-05,1.6061747302858505e-06,1.3706605002258723e-06
241,1.441761221026736e-06,1.292751901434477e-06,1.1454606040722982e-06,1.4242107219631606e-06,2.018536943018598e-06,1.6944863932744324e-06,1.3731293837766085e-06,1.7164476654604511e-06,3.284067381565962e-06,2.2886416337412375e-05,9.871414518363012e-07,5.9446303624261326e-06,2.1862768454997176e-06,1.5428765205371694e-05,1.6544992908520912e-06,1.378841962485748e-06
242,1.4543224368052315e-06,1.2902294077725428e-06,1.120602573836392e-06,1.4427299301256532e-06,1.965921212998348e-06,1.7559053313958468e-06,1.393738237883515e-06,1.7244478134357405e-06,3.309456609948585e-06,2.2314983078033675e-05,9.989345327713457e-07,6.1131336081257995e-06,2.213017718864284e-06,1.6385375881244648e-05,1.7043950743000056e-06,1.3897236009797495e-06
243,1.470243104080699e-06,1.2883192257908035e-06,1.1028912668670855e-06,1.4632288620617412e-06,1.914172274995499e-06,1.8246445894467732e-06,1.414151207408135e-06,1.7343461628815493e-06,3.3320685971375422e-06,2.1684013599415686e-05,1.013473161938713e-06,6.285409768057291e-06,2.240986601745669e-06,1.7345897605725195e-05,1.7545633578390817e-06,1.4023702665299752e-06
244,1.4887531208569375e-06,1.2870749236348155e-06,1.0925609655118865e-06,1.4847732280510454e-06,1.8635314872629358e-06,1.9001279534855293e-06,1.4342143684370512e-06,1.7454310950671444e-06,3.3510455312005743e-06,2.0993004534275425e-05,1.0308697034350728e-06,6.46092321366347e-06,2.270531686139404e-06,1.8311353349565632e-05,1.8035632095672129e-06,1.4155818706062854e-06
245,1.5089772716240343e-06,1.286578385354893e-06,1.089756068785826e-06,1.506497497614199e-06,1.8143945339548093e-06,1.9814826761866944e-06,1.453684472799431e-06,1.7568998871527499e-06,3.366203702699229e-06,2.024205877400577e-05,1.051338296836707e-06,6.638150998317045e-06,2.3017751097348874e-06,1.928184652243505e-05,1.849976946495243e-06,1.4279407498464299e-06
246,1.5299742479803577e-06,1.2869868797072785e-06,1.0945260766765032e-06,1.5277892312066932e-06,1.767184985278643e-06,2.067493105024165e-06,1.4722995682479731e-06,1.7680757702060355e-06,3.377883510257296e-06,1.9433839845570033e-05,1.0752993806973347e-06,6.8146993137488395e-06,2.334566814533722e-06,2.025519720328675e-05,1.8925431706999169e-06,1.4380615999332933e-06
247,1.5507669875990465e-06,1.288498186181234e-06,1.106851665522904e-06,1.5483574516919817e-06,1.72236692139891e-06,2.1566475145011115e-06,1.489830018970468e-06,1.7786104503177517e-06,3.3869217370995248e-06,1.8575417021964867e-05,1.1032887170047876e-06,6.987675866931574e-06,2.3685919912210162e-06,2.1227045263516068e-05,1.930280361727072e-06,1.4450827846061198e-06
248,1.570388428317744e-06,1.2913096663840182e-06,1.1266356644224549e-06,1.5681957752072189e-06,1.6804972794368772e-06,2.2472307881843835e-06,1.505998217717291e-06,1.7885643257986826e-06,3.3947168105292805e-06,1.7678499232396277e-05,1.135791486836862e-06,7.154055167407272e-06,2.403668769564716e-06,2.219272995884659e-05,1.962619998133854e-06,1.4490439139584747e-06
249,1.5880425463154466e-06,1.295638032552522e-06,1.1536227919781255e-06,1.587496749010689e-06,1.6421784892220426e-06,2.3373330292861577e-06,1.520340250523169e-06,1.798292609362302e-06,3.4030384603592945e-06,1.675770369182271e-05,1.1731893878755117e-06,7.310920800943413e-06,2.439976275913365e-06,2.3149717720379258e-05,1.9894565366376947e-06,1.4507768497613197e-06
250,1.6033082785454184e-06,1.3017025378493735e-06,1.1873254225697365e-06,1.6065314359005409e-06,1.6079495556255133e-06,2.4247295259110954e-06,1.5321850367954618e-06,1.8081713710463862e-06,3.4136674901277042e-06,1.5828212349481293e-05,1.2158167924549096e-06,7.455650772030101e-06,2.477989489948437e-06,2.4098725138172973e-05,2.010989575954031e-06,1.4514391559316164e-06
251,1.6162257514760768e-06,1.3096718859875308e-06,1.2269904537350214e-06,1.6255634176993815e-06,1.5781730839066904e-06,2.506784653716123e-06,1.5408122005193349e-06,1.8183330099282782e-06,3.428191898051634e-06,1.4904414949187856e-05,1.2639980776356542e-06,7.586098446118839e-06,2.518221838017603e-06,2.5042710003255304e-05,2.02744271883594e-06,1.4521023276274188e-06
252,1.6271997536675642e-06,1.3196424679985862e-06,1.2715896238805337e-06,1.6448787793570425e-06,1.5529758307261205e-06,2.580576368828392e-06,1.5456239641725016e-06,1.8285444965162911e-06,3.4479457414879506e-06,1.3999537323216394e-05,1.3180084948497102e-06,7.70073698373525e-06,2.5610073810728115e-06,2.5984328513390377e-05,2.0389131127940635e-06,1.4535919415690683e-06
253,1.6367785583282338e-06,1.3316009298381795e-06,1.3198521098097837e-06,1.664822299787295e-06,1.5322794656537253e-06,2.6433056401858224e-06,1.5461494001856145e-06,1.83823213565599e-06,3.473908851925178e-06,1.3125463762163328e-05,1.3780441333029035e-06,7.798703699008577e-06,2.6064205486090922e-06,2.692316367499755e-05,2.0454472377475867e-06,1.4564817599168468e-06
254,1.6454575998703418e-06,1.345381622837953e-06,1.3703428243874256e-06,1.6857310826524615e-06,1.5158971374579353e-06,2.6928473155702917e-06,1.5420043954590493e-06,1.8466046657031228e-06,3.506536615589877e-06,1.2292468837446593e-05,1.4443305076144096e-06,7.87964377887628e-06,2.6542552987029954e-06,2.7853808145037238e-05,2.0471970535208857e-06,1.4610858216854313e-06
255,1.6536682079095528e-06,1.3607327689341497e-06,1.4215233063328544e-06,1.7078750986604848e-06,1.5036692828181142e-06,2.7281852442488573e-06,1.5330251370256306e-06,1.8527894930181142e-06,3.545634411312823e-06,1.1509044469672544e-05,1.5173809018883287e-06,7.943224766767681e-06,2.703981033299822e-06,2.8765088659143127e-05,2.0444535106433713e-06,1.4674255862041847e-06
256,1.6619333824987973e-06,1.3774974525575827e-06,1.4718040717331897e-06,1.7314683462666254e-06,1.49560556080079e-06,2.7495543848756656e-06,1.5194553641179378e-06,1.855911158619625e-06,3.590444506615223e-06,1.0781988181274116e-05,1.5982582020505922e-06,7.988487399615407e-06,2.754690265147185e-06,2.964033901856346e-05,2.0375042122946836e-06,1.4752550767001756e-06
257,1.6709551507795605e-06,1.395783168698383e-06,1.5197207130982695e-06,1.7566561599161838e-06,1.4919301640192882e-06,2.7582674667331043e-06,1.5019442129334043e-06,1.8551210613693948e-06,3.640014382964753e-06,1.0116683232721937e-05,1.6886229922527686e-06,8.013657572053172e-06,2.8050614795081983e-06,3.045880964132763e-05,2.0265053388312664e-06,1.4841701231233613e-06
258,1.6815122896423118e-06,1.416014735025677e-06,1.5642301648442222e-06,1.7834443971143894e-06,1.4929513138411724e-06,2.7562943369712994e-06,1.4813709234532657e-06,1.8495984506683271e-06,3.6936828687811867e-06,9.517261187907698e-06,1.7905319926116197e-06,8.016795218485924e-06,2.853348018957067e-06,3.119732755474327e-05,2.011591196371246e-06,1.4937476647352535e-06
259,1.6943025795831622e-06,1.4388584362323379e-06,1.6048806685960925e-06,1.8116254642136564e-06,1.4988598616397972e-06,2.7457331458273006e-06,1.4586449236564422e-06,1.838547110000227e-06,3.7514253165454584e-06,8.986446176992628e-06,1.9062698740284813e-06,7.99686057449863e-06,2.897468254007038e-06,3.1830576491257406e-05,1.9931631489465428e-06,1.5036986359900186e-06
260,1.709840038613305e-06,1.4650580490067641e-06,1.6416760383295265e-06,1.8407748720449863e-06,1.509629865652426e-06,2.7283984959171217e-06,1.4345615786398137e-06,1.8212676818940418e-06,3.813906899150507e-06,8.525406120199072e-06,2.0383845560155246e-06,7.954568386327649e-06,2.9352957160211417e-06,3.233100692464214e-05,1.9720820669102814e-06,1.5140120620234534e-06
261,1.728392641410096e-06,1.4952556469323816e-06,1.674756255639846e-06,1.8703341612849131e-06,1.5250649922059828e-06,2.705637890271042e-06,1.4097750533390144e-06,1.7973558701365715e-06,3.882236458959237e-06,8.133930018538418e-06,2.1897166514331815e-06,7.892775768018016e-06,2.965065620026476e-06,3.267115213312511e-05,1.949609236460295e-06,1.5249766697619847e-06
262,1.7499870808465532e-06,1.5298835371021831e-06,1.7041608378613944e-06,1.8996587725585197e-06,1.5449241073013224e-06,2.6782827065630097e-06,1.3848773170154466e-06,1.7669447798512233e-06,3.9575397874443935e-06,7.810615922463381e-06,2.363273216676928e-06,7.816406482895392e-06,2.985587577861976e-06,3.2828005952027796e-05,1.9271788828652435e-06,1.5370282883084146e-06
263,1.7744985091706512e-06,1.569130799125955e-06,1.7297886146155589e-06,1.9279776912657994e-06,1.5690302721396303e-06,2.6466999584182772e-06,1.3604276881882742e-06,1.7308192283483079e-06,4.04052820019378e-06,7.552881108612123e-06,2.5620534800156983e-06,7.731962902912521e-06,2.9960631523891652e-06,3.2786588560962195e-05,1.9061966157149258e-06,1.5505373995615173e-06
264,1.8017009115542728e-06,1.6129076147828271e-06,1.7514326135638217e-06,1.9544281376776863e-06,1.5973196334158871e-06,2.6109874632553114e-06,1.3368640550287983e-06,1.690274331897803e-06,4.131210416418528e-06,7.357313932066061e-06,2.7889293001209293e-06,7.646741168072837e-06,2.995728888241233e-06,3.254103461237e-05,1.8879675206610824e-06,1.5656665199891688e-06
265,1.8312145653125077e-06,1.6607950428852098e-06,1.7687800444059816e-06,1.9782831988065e-06,1.629838013818195e-06,2.5712228402715332e-06,1.314414792365635e-06,1.6467724800743654e-06,4.228846255723618e-06,7.220773231532276e-06,3.046605573054668e-06,7.567957757527056e-06,2.9837832115461506e-06,3.20928528937867e-05,1.8736551365512364e-06,1.5823462008775223e-06
266,1.8624838592565254e-06,1.7120479339501082e-06,1.7814762202443041e-06,1.9992511605844954e-06,1.666667370259381e-06,2.5276510964426438e-06,1.2931193090140015e-06,1.6016311169613278e-06,4.332144541966624e-06,7.141896568665204e-06,3.337648203508484e-06,7.501981299015231e-06,2.959708123210948e-06,3.144703507720596e-05,1.864167769371832e-06,1.6003428452367146e-06
267,1.8948714097225333e-06,1.7656913102355924e-06,1.7893276707094256e-06,2.0176007342259743e-06,1.707794369758599e-06,2.4808208786880887e-06,1.2729146497819302e-06,1.555931051250631e-06,4.439597631311751e-06,7.122313481703498e-06,3.6644787384476666e-06,7.453808734331889e-06,2.923621491445685e-06,3.060935965714278e-05,1.8600348929152931e-06,1.6193317010400806e-06
268,1.9277734071100094e-06,1.8206795571278978e-06,1.7924848317088678e-06,2.0339735692801643e-06,1.7530161246636675e-06,2.4316813285602085e-06,1.2536746131291663e-06,1.5106229628490568e-06,4.549821283058736e-06,7.167035250571027e-06,4.02921642505786e-06,7.42690959391729e-06,2.876408999119124e-06,2.9588499538704657e-05,1.8613488354643287e-06,1.6389488957255804e-06
269,1.9606406639440264e-06,1.876027325139096e-06,1.7914245698164176e-06,2.0490333943956313e-06,1.8019541601972837e-06,2.38156866910769e-06,1.2352501316791376e-06,1.4666526742624205e-06,4.661786302205913e-06,7.283866813856323e-06,4.433399816985024e-06,7.423461738052913e-06,2.819672230705308e-06,2.8401062388723343e-05,1.8677559574330068e-06,1.6588806161591834e-06
270,1.9929128760663906e-06,1.9308185124185275e-06,1.7867490195612648e-06,2.063228539455226e-06,1.8541362363745325e-06,2.3320739041015286e-06,1.2176102788075862e-06,1.42495144081865e-06,4.7748621802544235e-06,7.482070740519754e-06,4.877745525416547e-06,7.444828724301301e-06,2.7554678428205472e-06,2.7073783960518603e-05,1.8784789886452018e-06,1.678981302030947e-06
271,2.0239685290040934e-06,1.9841121071482665e-06,1.778978586796516e-06,2.0767368269393e-06,1.9090330841591287e-06,2.2848867305214024e-06,1.2009369033669903e-06,1.38634886707112e-06,4.888674828063532e-06,7.770848526144729e-06,5.362042384780864e-06,7.492045138326469e-06,2.6858617600599477e-06,2.5640614357904703e-05,1.8923823462575516e-06,1.6993061340623056e-06
272,2.0531522972781383e-06,2.034914385577716e-06,1.7684735597887795e-06,2.08948848510415e-06,1.965999636607821e-06,2.2416428057982252e-06,1.1855437529720296e-06,1.3515739687348298e-06,5.002827938330483e-06,8.15829725030051e-06,5.885133874565727e-06,7.566142498641458e-06,2.612580069616184e-06,2.4137518268980367e-05,1.9080822484421736e-06,1.7199803738074044e-06
273,2.0798225730907634e-06,2.082366952545626e-06,1.7554279750654542e-06,2.1012019187401885e-06,2.0241981391122574e-06,2.203738908516258e-06,1.1717926749325992e-06,1.3213424101965365e-06,5.116597779948561e-06,8.651116766765445e-06,6.4448836091191e-06,7.668314266476678e-06,2.5369430728485104e-06,2.2598345371304638e-05,1.924091690976329e-06,1.7410173247432715e-06
274,2.1033114024702036e-06,2.1260671304400042e-06,1.7398821966497756e-06,2.111408077263971e-06,2.0825539113385446e-06,2.1721691804596057e-06,1.1601286883266816e-06,1.2963901673309324e-06,5.2288017373892875e-06,9.254826115929936e-06,7.038138409776336e-06,7.800000362205315e-06,2.4599587129283946e-06,2.1052716999682853e-05,1.9389830403370385e-06,1.7622715918324714e-06
275,2.1227806820653548e-06,2.166254694536202e-06,1.7218138840041146e-06,2.119471865583961e-06,2.139715312729482e-06,2.1474540244899195e-06,1.1510851338572308e-06,1.2773939833197064e-06,5.337880923314818e-06,9.974069819751583e-06,7.66080377159564e-06,7.962824035467946e-06,2.3824571609290707e-06,1.952529660617035e-05,1.9515380678191867e-06,1.7835127413546943e-06
276,2.137113183293297e-06,2.2036742499094278e-06,1.7012333463803692e-06,2.124688793972393e-06,2.194016660273535e-06,2.129652023215023e-06,1.1451696187414947e-06,1.264863710761153e-06,5.44195554529646e-06,1.0812711503892938e-05,8.308020698711693e-06,8.158232949042421e-06,2.3052553800294315e-06,1.803581881353854e-05,1.9608053244466737e-06,1.8044723237699143e-06
277,2.1449911490937083e-06,2.239187839623017e-06,1.6781436521747084e-06,2.126482213292432e-06,2.2434724001586887e-06,2.1184061554464256e-06,1.142746688647754e-06,1.2591194214635885e-06,5.538725014957831e-06,1.1773763619969914e-05,8.974299364608309e-06,8.386957319649237e-06,2.22929023351152e-06,1.6599583822493433e-05,1.9660038200002077e-06,1.8248624476384324e-06
278,2.14515055940359e-06,2.2734117056108993e-06,1.65250983060998e-06,2.1245689200460624e-06,2.285893510571849e-06,2.1129849355160112e-06,1.1440203176968048e-06,1.260349023665501e-06,5.625421257451889e-06,1.2859455708439993e-05,9.653498677027044e-06,8.648592381995778e-06,2.1556565966731693e-06,1.522819686902941e-05,1.9664692064841933e-06,1.8444294942284377e-06
279,2.136682348875542e-06,2.3065570670258174e-06,1.6244361712878786e-06,2.1189766499905075e-06,2.3192022901646893e-06,2.112372674664179e-06,1.1490745454565207e-06,1.268645397925459e-06,5.698986602623228e-06,1.4071468978826417e-05,1.03386233380782e-05,8.941402458576573e-06,2.0855169691187233e-06,1.3930307986053489e-05,1.9618486085842547e-06,1.8629595386777485e-06
280,2.119282995758278e-06,2.338450992825334e-06,1.594403606301758e-06,2.1100000062317854e-06,2.3418139169529373e-06,2.115462406835927e-06,1.1578760686511428e-06,1.2839742082062243e-06,5.756330188232571e-06,1.541099897391277e-05,1.10214748884961e-05,9.262164411524456e-06,2.0198928957970683e-06,1.271212954516423e-05,1.952306816397621e-06,1.8801709871724052e-06
281,2.093407434373293e-06,2.3686216512644983e-06,1.5633243921831568e-06,2.0982325468097895e-06,2.3528707148776856e-06,2.121216642214016e-06,1.1702517292948498e-06,1.306131025188507e-06,5.79437208205805e-06,1.6878345112986166e-05,1.1692218113907602e-05,9.605888573635594e-06,1.9594861354283114e-06,1.1577694805001105e-05,1.938431524656254e-06,1.8956480734026573e-06
282,2.0602679477888234e-06,2.396338669783451e-06,1.5323950750265962e-06,2.084633423214809e-06,2.352264277644331e-06,2.128680956395319e-06,1.1859121908227033e-06,1.3347535589413952e-06,5.809808850918542e-06,1.8471972320633225e-05,1.2339017082822356e-05,9.965540022430592e-06,1.904675426858781e-06,1.052904392636459e-05,1.920952625260348e-06,1.908943250274967e-06
283,2.0216197307551862e-06,2.420692810616359e-06,1.5028668957975113e-06,2.070488945191937e-06,2.3405066174878093e-06,2.1369845713143992e-06,1.2044950733983675e-06,1.3693560521642998e-06,5.799090106959964e-06,2.0187336483881866e-05,1.2948143332305492e-05,1.033211256966978e-05,1.8556355980775283e-06,9.566523312684186e-06,1.9006115936764277e-06,1.91974615328993e-06
284,1.9793850014876417e-06,2.440876205999243e-06,1.4758819338371692e-06,2.0572357134362307e-06,2.318540697438065e-06,2.1454796117687352e-06,1.22556929271881e-06,1.4093086349831723e-06,5.7591974384510544e-06,2.201602204271083e-05,1.3504885744436526e-05,1.069528518540296e-05,1.8124202183930388e-06,8.68922350504207e-06,1.8782735262730205e-06,1.9279924184189313e-06
285,1.9353164452329092e-06,2.456524328741107e-06,1.4524502076216713e-06,2.0462280380585993e-06,2.2875859253856016e-06,2.1539215580969394e-06,1.24864371646116e-06,1.4537696984380062e-06,5.688954928400081e-06,2.3945346209486334e-05,1.3995043432532279e-05,1.1044489521416756e-05,1.7749601994109805e-06,7.895451057916354e-06,1.8550425945878116e-06,1.9338978632661447e-06
286,1.8908430528566127e-06,2.467849857179919e-06,1.4334713668020492e-06,2.038542788118186e-06,2.249057975231916e-06,2.162467481762499e-06,1.2732541462319912e-06,1.5016383799585981e-06,5.589916888419888e-06,2.595796547597524e-05,1.4406498819055615e-05,1.13699610774214e-05,1.7430921303312106e-06,7.183046696579287e-06,1.83218092045131e-06,1.9379487191376716e-06
287,1.8470504178809182e-06,2.4755258033244826e-06,1.4196865400171122e-06,2.03487909086267e-06,2.20447878811763e-06,2.171430102656899e-06,1.2990530191622438e-06,1.5515666644931992e-06,5.466231273414711e-06,2.8031163013627563e-05,1.4730518098075719e-05,1.166343053788367e-05,1.716672363498324e-06,6.549403809583253e-06,1.8108932728278704e-06,1.9408824846027824e-06
288,1.8047220792894282e-06,2.4804410744834065e-06,1.4115976266144593e-06,2.0355776167268192e-06,2.155322520768055e-06,2.180956276011668e-06,1.3257811782409317e-06,1.6020569123693547e-06,5.323623583895482e-06,3.0136183792002146e-05,1.4962491190631038e-05,1.1918201272733184e-05,1.695628085554486e-06,5.991265959064495e-06,1.792128193410717e-06,1.9436257058205093e-06
289,1.7644249732244507e-06,2.483455127954509e-06,1.409424054210392e-06,2.0407282462930962e-06,2.1029393660832456e-06,2.1908587933629676e-06,1.353208094549218e-06,1.6516520134676794e-06,5.168129144378405e-06,3.223855670304922e-05,1.510169138995283e-05,1.2128415408004297e-05,1.6798433085598898e-06,5.504515617453326e-06,1.7764678844855473e-06,1.9471227491336857e-06
290,1.7265720294957754e-06,2.485209575066198e-06,1.4131065987518718e-06,2.0502505618804783e-06,2.048638755953806e-06,2.2006712521703195e-06,1.3811351149930433e-06,1.6991770515119173e-06,5.005219738585974e-06,3.430026146627119e-05,1.5149728054485513e-05,1.228796594224112e-05,1.6689978202941432e-06,5.084068487643761e-06,1.7640962987363631e-06,1.952153786205589e-06
291,1.6913927847487025e-06,2.4859831181281882e-06,1.4223793579285123e-06,2.063858766086068e-06,1.9937605492596467e-06,2.2097901019038964e-06,1.4093597237975359e-06,1.7439529887220914e-06,4.839503528797523e-06,3.6283433946635534e-05,1.5108316425852536e-05,1.2390243740996197e-05,1.6624900629709603e-06,4.723921625259497e-06,1.7548042256684709e-06,1.959306969821721e-06
292,1.6588731021354312e-06,2.485632265387226e-06,1.436875135200584e-06,2.08099398039245e-06,1.9396312469861675e-06,2.217563795309995e-06,1.4375816354541522e-06,1.7858768728231528e-06,4.674724921560541e-06,3.815391358802757e-05,1.4978026965785151e-05,1.242916858991441e-05,1.6594958773045343e-06,4.417431991522349e-06,1.7480176948847088e-06,1.9690692288729747e-06
293,1.6287463312528948e-06,2.483727984078285e-06,1.4561587154297508e-06,2.1008286235504605e-06,1.8875093228990614e-06,2.2233478198886446e-06,1.4653544179439487e-06,1.825288078122416e-06,4.513827167746284e-06,3.9882657228962465e-05,1.4758853676690368e-05,1.240064630086661e-05,1.6591825745484126e-06,4.157780468323416e-06,1.742886767768648e-06,1.981893168223457e-06
294,1.6005262485965495e-06,2.479838164217997e-06,1.479726342528592e-06,2.1223077963847146e-06,1.838566528920655e-06,2.226606155223054e-06,1.4920791356262653e-06,1.8626813204347318e-06,4.359032177777342e-06,4.1443960554147144e-05,1.4451736139539272e-05,1.230366117211302e-05,1.6609616614315379e-06,3.9383526019443254e-06,1.7384563736922489e-06,1.998199257455766e-06
295,1.5736140575453005e-06,2.4737248865286485e-06,1.5070627839639186e-06,2.1441938545149766e-06,1.7938326652908223e-06,2.2270278408602808e-06,1.51704934719392e-06,1.8985052606015132e-06,4.211925148277982e-06,4.2811115586378495e-05,1.4060032955791293e-05,1.2140847100733782e-05,1.6645606442557807e-06,3.7527914981112347e-06,1.7338453015159516e-06,2.0183610717356942e-06
296,1.547507210263366e-06,2.4653366300805495e-06,1.5376577468841556e-06,2.165130939404716e-06,1.7540970966829442e-06,2.224529888695634e-06,1.539614147576962e-06,1.93322206260509e-06,4.073512483619447e-06,4.3952031354329305e-05,1.3590539654142433e-05,1.1918436783145544e-05,1.6698473831612153e-06,3.5947394173849424e-06,1.7283158348996694e-06,2.0426940471600177e-06
297,1.5219492578308905e-06,2.4546729139871227e-06,1.5709171250903005e-06,2.1837150311026353e-06,1.7198514401372666e-06,2.219101606700602e-06,1.5593637105432032e-06,1.9674931836222687e-06,3.944188376625667e-06,4.4828083766378164e-05,1.3053703096434696e-05,1.164550882752225e-05,1.676584121759078e-06,3.4575188095662876e-06,1.721197246768615e-06,2.071391525455507e-06
298,1.4968582629655911e-06,2.441617814280517e-06,1.6060943726800886e-06,2.198591357447218e-06,1.6912924135761236e-06,2.2106094787950246e-06,1.5761589039988396e-06,2.002238796311605e-06,3.8236197257921355e-06,4.5398414172224635e-05,1.2462849915628436e-05,1.1332701483122833e-05,1.6843269070998053e-06,3.334194000706656e-06,1.7117802600537544e-06,2.1043802072922217e-06
299,1.4721104528846334e-06,2.4258289103120463e-06,1.6423038961883834e-06,2.208655320933313e-06,1.6683248396665503e-06,2.1987239710692695e-06,1.589993524037147e-06,2.038497847058046e-06,3.710745666995798e-06,4.562918398986275e-05,1.1832676360315856e-05,1.0990731584986277e-05,1.692488494395541e-06,3.2183142737200955e-06,1.6993615401852423e-06,2.1411957289170793e-06
300,1.4473865743309365e-06,2.4067811334396987e-06,1.6785487426193792e-06,2.21331892727554e-06,1.6505707023560263e-06,2.1830262311178816e-06,1.6008700895641837e-06,2.0771965659652088e-06,3.6041250098290046e-06,4.550329038627479e-05,1.1177546580311002e-05,1.0629093620615186e-05,1.7004038676928022e-06,3.1048387927994725e-06,1.6834136072710672e-06,2.1810191648722017e-06
301,1.4222333466676307e-06,2.3839166904237883e-06,1.713703427041359e-06,2.2126440553332643e-06,1.6374634037994063e-06,2.1632065704195327e-06,1.6088465545980576e-06,2.118997801355193e-06,3.5025616058449582e-06,4.5024284337565796e-05,1.0510177544382458e-05,1.025522936341423e-05,1.7073061128812038e-06,2.9903614163572704e-06,1.6636265486774171e-06,2.2228832368922934e-06
302,1.3963372192460524e-06,2.3567346148874604e-06,1.7464498211019352e-06,2.2072284207450904e-06,1.6284287373534943e-06,2.1391928763155394e-06,1.6141556680365637e-06,2.1642963710937444e-06,3.4055364312094123e-06,4.421174898713762e-05,9.841031308110085e-06,9.874264368882067e-06,1.7123130108503345e-06,2.872781552037994e-06,1.639724106412357e-06,2.26588052417309e-06
303,1.36981580135677e-06,2.3247941209372504e-06,1.775253980606101e-06,2.1979522595097373e-06,1.623022487619357e-06,2.1111275006952084e-06,1.6171899457527603e-06,2.2132721167181655e-06,3.31310295748069e-06,4.3091720519943213e-05,9.178351469288204e-06,9.489242687365113e-06,1.7145477417733105e-06,2.751230712450589e-06,1.6112880380105944e-06,2.3092101739043146e-06
304,1.3432970941597654e-06,2.287717073623652e-06,1.7984972465257423e-06,2.1857216232538035e-06,1.6209034078154342e-06,2.079239289140241e-06,1.6183596091749821e-06,2.265976816153118e-06,3.2254614959448014e-06,4.168990443477113e-05,8.52850636393024e-06,9.101709307730156e-06,1.713358957651389e-06,2.62616248314227e-06,1.5778151929820993e-06,2.352103746654935e-06
305,1.317738827651453e-06,2.245225197279027e-06,1.8147488539266865e-06,2.171263637351313e-06,1.6216977396877093e-06,2.0436872077470342e-06,1.6179951127428016e-06,2.322501510247712e-06,3.1426432580003763e-06,4.003260128702027e-05,7.89632882079078e-06,8.712448210537464e-06,1.7084753280311758e-06,2.4990604217892694e-06,1.538967320436595e-06,2.393778103449024e-06
306,1.2941311869406685e-06,2.197237041361973e-06,1.8230571539846223e-06,2.1550376780222543e-06,1.6249563492590206e-06,2.0044734258829582e-06,1.6163643300100772e-06,2.3831376349896674e-06,3.0645042036748673e-06,3.815214465932627e-05,7.28540262859492e-06,8.322179837996033e-06,1.6999690065446734e-06,2.3718566955019537e-06,1.4948283427172952e-06,2.433416415301169e-06
307,1.2732661944513586e-06,2.1440249735312324e-06,1.8231406973182672e-06,2.1372936937183447e-06,1.6302846360672157e-06,1.961526197912611e-06,1.6137223835132538e-06,2.4483778920612528e-06,2.990968236584384e-06,3.6089984362877715e-05,6.6983775931585184e-06,7.932053383344215e-06,1.6880987387697351e-06,2.2464342214820496e-06,1.4459980039653523e-06,2.4700829814335397e-06
308,1.255659498077152e-06,2.0863114922375817e-06,1.8154112659154964e-06,2.118177644052679e-06,1.6374566546899764e-06,1.914897355812144e-06,1.610316755757538e-06,2.518732518443192e-06,2.9222933849365013e-06,3.389449472177866e-05,6.1372943866932e-06,7.543848301502872e-06,1.673247082042664e-06,2.124397135463301e-06,1.3934635232880223e-06,2.502658851376384e-06
309,1.241599317716687e-06,2.025167314524685e-06,1.8008038225862636e-06,2.0977487778104967e-06,1.6463519485699373e-06,1.8649034466341364e-06,1.6063805268227875e-06,2.5944848139985114e-06,2.8591144108899447e-06,3.1615694991707455e-05,5.6038251265920145e-06,7.159892688560363e-06,1.656012238947972e-06,2.0070820078459757e-06,1.338352978421813e-06,2.5299542748508724e-06
310,1.2312431201186093e-06,1.9617420908485333e-06,1.780470336453382e-06,2.0759367260960408e-06,1.656850700399487e-06,1.8121332521498477e-06,1.6021824543341102e-06,2.6755245951938376e-06,2.802210295650186e-06,2.9300492113694186e-05,5.099386946309677e-06,6.782778678918636e-06,1.6372380986261842e-06,1.8956063518848877e-06,1.2817348442403673e-06,2.5508997244783867e-06
311,1.2246738074053943e-06,1.8970140543004478e-06,1.755544703972497e-06,2.052610615519532e-06,1.6688237608467208e-06,1.7573527365636606e-06,1.5981152436072135e-06,2.761277453947832e-06,2.7521790199205964e-06,2.6990248109085818e-05,4.625146578313905e-06,6.415046916137166e-06,1.6178348193130841e-06,1.7908293929609807e-06,1.2245336349252983e-06,2.564625592051694e-06
312,1.2218902107956364e-06,1.831737688458295e-06,1.7271285518198706e-06,2.027779009667204e-06,1.682118425999024e-06,1.701360055249796e-06,1.5947180115336576e-06,2.8506712397891146e-06,2.7092823833822763e-06,2.4720294736148208e-05,4.181966473317192e-06,6.059030316056357e-06,1.5985417107918175e-06,1.6933139935536582e-06,1.167553121740342e-06,2.5704584361134493e-06
313,1.222772564654827e-06,1.7665957629502958e-06,1.696357484084886e-06,2.0017157369312824e-06,1.6965102197129962e-06,1.6448602265255478e-06,1.5925711749979745e-06,2.9421739799247958e-06,2.6735259523388407e-06,2.252030680209984e-05,3.7703578110368784e-06,5.716870401539943e-06,1.5798336583109585e-06,1.603408267758429e-06,1.1115663078250767e-06,2.567965331035797e-06
314,1.227048199815769e-06,1.702379068078958e-06,1.6643514267391719e-06,1.974893940866543e-06,1.7117762316502299e-06,1.5884296133716671e-06,1.5921537566944911e-06,3.033982879729178e-06,2.6447424969785105e-06,2.0414782352248535e-05,3.390470507905263e-06,5.390530546372034e-06,1.562025960455715e-06,1.5213813190514056e-06,1.0573551414537084e-06,2.557043134650905e-06
315,1.2342681513823631e-06,1.6400332804748462e-06,1.632064587551942e-06,1.9478094296135636e-06,1.7278709622076945e-06,1.532571573203997e-06,1.5938250248133816e-06,3.1243043520010503e-06,2.6225317546728856e-06,1.8423369010177056e-05,3.0421015997032792e-06,5.0816735441934e-06,1.5455009073405852e-06,1.4474240916763676e-06,1.0056440266157025e-06,2.5379073999481692e-06
316,1.2438136791858005e-06,1.5805580996646376e-06,1.6001743786877706e-06,1.920806633783972e-06,1.7449470217695532e-06,1.4777851086461083e-06,1.5979694791398739e-06,3.2115692417855934e-06,2.606171259543269e-06,1.6561142696950406e-05,2.724709649888102e-06,4.791474884579809e-06,1.5308781219861818e-06,1.3815224582513254e-06,9.570321403218564e-07,2.5108923645343755e-06
317,1.2549596598661422e-06,1.5248341190313434e-06,1.5690830293601143e-06,1.8940064476632878e-06,1.763158440119171e-06,1.4245705395457669e-06,1.6051807528977515e-06,3.2945038192329353e-06,2.5945847446043388e-06,1.4839025993405243e-05,2.4374333172921207e-06,4.520537312473444e-06,1.5189992402564896e-06,1.3234083443582828e-06,9.119917701823047e-07,2.476219680177522e-06
318,1.267032152897261e-06,1.4734703556860127e-06,1.5389751742178494e-06,1.8673880069982546e-06,1.7825008205336482e-06,1.3733593633281898e-06,1.6163217724817653e-06,3.372114053544982e-06,2.5864005788643913e-06,1.3264298863635861e-05,2.179089915076227e-06,4.268911760773033e-06,1.5107727520994538e-06,1.2726885332716455e-06,8.708765573078524e-07,2.4339733109314854e-06
319,1.2795952400158847e-06,1.426728310673938e-06,1.5098413410194191e-06,1.8408951166361434e-06,1.8028525405675027e-06,1.3244190766274438e-06,1.6323968377254902e-06,3.4436951031655482e-06,2.5801274355084914e-06,1.1841000883312924e-05,1.9481922308863846e-06,4.036081320475199e-06,1.5070017455267073e-06,1.2290318768730631e-06,8.339091213528991e-07,2.384273804396379e-06
320,1.2924927927019038e-06,1.3845267631287156e-06,1.4814620459244712e-06,1.814419458111793e-06,1.8240601605871702e-06,1.2778269575861802e-06,1.6543258760451765e-06,3.508893030283285e-06,2.574316734559822e-06,1.0570212257146504e-05,1.7430980777338412e-06,3.820946533755029e-06,1.5082673307080091e-06,1.192237102512935e-06,8.012011811172132e-07,2.3274934047012827e-06
321,1.3057346217546055e-06,1.3465351716259603e-06,1.453418231983752e-06,1.7878083313512837e-06,1.845866693358495e-06,1.2335505059483136e-06,1.6827618712375818e-06,3.5677490199547224e-06,2.5675727790851563e-06,9.45041124150008e-06,1.5622244595271969e-06,3.6219869012907653e-06,1.5148737145415273e-06,1.1622201818147213e-06,7.728358718559513e-07,2.2644342743133555e-06
322,1.3194020189337811e-06,1.3123617185349013e-06,1.4251576174153632e-06,1.7610568401889427e-06,1.867751369324667e-06,1.1915461491953872e-06,1.7180015322561717e-06,3.620680980664199e-06,2.5584711063506434e-06,8.478001171817777e-06,1.4040757663411305e-06,3.43752870555121e-06,1.5268253299739973e-06,1.1390331274360198e-06,7.489423339144679e-07,2.196391804592063e-06
323,1.3335999576530425e-06,1.2817413230398718e-06,1.3960997426872207e-06,1.7344633443719865e-06,1.8888620367564895e-06,1.1517890441434878e-06,1.7599571211710694e-06,3.6684218096346493e-06,2.545542666833296e-06,7.64787798270337e-06,1.2670933035516512e-06,3.2659211442171424e-06,1.5438134141038199e-06,1.1228158761824929e-06,7.296794568549745e-07,2.125001630857103e-06
324,1.348352419077209e-06,1.2545700657657597e-06,1.3657944745774812e-06,1.7085202823257838e-06,1.9080498510388702e-06,1.1142527079205448e-06,1.8081618652301708e-06,3.711905992704208e-06,2.5274398733749987e-06,6.953845271159759e-06,1.1496069440449664e-06,3.1056172105994214e-06,1.5652306705020673e-06,1.1136522314975089e-06,7.15160241612071e-07,2.0519361087686183e-06
325,1.3634908923148544e-06,1.2307962370490074e-06,1.3341352934277161e-06,1.6836747914294368e-06,1.923971329864821e-06,1.0788837923863612e-06,1.8618369242032443e-06,3.752047689704582e-06,2.503265368237721e-06,6.388769041990681e-06,1.0499644932028343e-06,2.955256519435277e-06,1.5902661072809301e-06,1.111502200401784e-06,7.054037316203888e-07,1.9786423139437803e-06
326,1.378646167050198e-06,1.2103562985719124e-06,1.3015260230338792e-06,1.6601710600453561e-06,1.935358970513447e-06,1.0455775001991884e-06,1.920052779563625e-06,3.7894841913851283e-06,2.4728447125587206e-06,5.94462177262903e-06,9.666324500570248e-07,2.8137908531005265e-06,1.6180900586668294e-06,1.1162663071310477e-06,7.003248964718903e-07,1.9062078645640841e-06
327,1.3933022579604738e-06,1.1932485736282718e-06,1.2688656336798953e-06,1.6380330478520973e-06,1.9414496576074253e-06,1.0141851023142354e-06,1.9818929855668157e-06,3.824539728299656e-06,2.436679686822521e-06,5.6127372673529004e-06,8.981527917734985e-07,2.6806557260842443e-06,1.6480024123242952e-06,1.1278591250351511e-06,6.997414362719614e-07,1.83532729871235e-06
