,EMG1,EMG2,EMG3,EMG4,EMG5,EMG6,EMG7,EMG8,EMG9,EMG10,EMG11,EMG12,EMG13,EMG14,EMG15,EMG16
0,7.777947799538264e-08,7.931275140675822e-09,2.4776563968377604e-07,2.423185367551852e-07,6.243295374580954e-07,2.585338792275807e-07,2.77658779398011e-07,7.310245192127193e-07,5.485382779798964e-07,3.093943699850578e-08,1.744991399707622e-07,9.040822614990931e-07,9.755331923048154e-08,8.291172739278506e-07,2.9881678499794987e-07,-1.8970556894418798e-07
1,1.7378552728421206e-07,1.1140026281689824e-07,3.149870222531556e-07,3.975942072693846e-07,8.370987735740086e-07,3.491383566985638e-07,4.3633262806101146e-07,7.923612315126441e-07,6.923493874298413e-07,2.082950501033895e-07,3.660861404128615e-07,1.1541732867225369e-06,2.9257818746830994e-07,3.0495089861598702e-06,3.21976988655475e-07,-1.3704261195323765e-09
2,2.691337927782918e-07,2.1307065348634972e-07,3.8280335901747373e-07,5.474408268111038e-07,1.0418711582421762e-06,4.398692710498971e-07,5.888893084193122e-07,8.558527568942714e-07,8.372598387403115e-07,3.8266811802506945e-07,5.823670709533518e-07,1.4125823585840794e-06,4.815749895058958e-07,5.2396462397610704e-06,3.4779080647439634e-07,1.8037656799944686e-07
3,3.6273042748810256e-07,3.11191439365434e-07,4.5041279598984624e-07,6.90936278501774e-07,1.2345976847954614e-06,5.301466893907805e-07,7.340209228953181e-07,9.209485441334271e-07,9.817475095126257e-07,5.517800138497547e-07,8.255028828671751e-07,1.6787578882306014e-06,6.631273393712172e-07,7.375196347829707e-06,3.761653120513496e-07,3.539014485437619e-07
4,4.536797191447715e-07,4.042883873504374e-07,5.17161755466931e-07,8.273358751686909e-07,1.4125119697119127e-06,6.193853699183577e-07,8.707114283015338e-07,9.870246454067842e-07,1.1243709293485243e-06,7.142569959588164e-07,1.0976363724347453e-06,1.95245287681785e-06,8.360583653053061e-07,9.434205471287333e-06,4.0703679785339273e-07,5.177220975933436e-07
5,5.413765252306321e-07,4.910629716094854e-07,5.824969934859248e-07,9.55993530159658e-07,1.5740461993570962e-06,7.069751310248056e-07,9.981404622226429e-07,1.0534609221126406e-06,1.2640223952067947e-06,8.696113184765353e-07,1.4007757025015836e-06,2.233935052652649e-06,9.99453550128677e-07,1.139931442644447e-05,4.4034108752762594e-07,6.705042973660245e-07
6,6.254932012069145e-07,5.703835099629953e-07,6.458699641253355e-07,1.076243398039623e-06,1.7184469153316468e-06,7.922778386364394e-07,1.115563352200279e-06,1.1197441839864337e-06,1.4000738650107066e-06,1.0178783532314462e-06,1.7367545244976567e-06,2.5240373857486233e-06,1.1526393990565323e-06,1.3259185208884807e-05,4.759826840164641e-07,8.110956810318631e-07
7,7.058880512681143e-07,6.414823735772215e-07,7.067332883132662e-07,1.1873668042998655e-06,1.845476159595438e-06,8.746891539684026e-07,1.2223017211448792e-06,1.1855217439421386e-06,1.5323081280642851e-06,1.1592252353708014e-06,2.107276544245334e-06,2.823971071982237e-06,1.2951389674247833e-06,1.5008656640612904e-05,5.138247741253888e-07,9.386346319531327e-07
8,7.825069946752956e-07,7.04182869936377e-07,7.646323200138434e-07,1.2886648054588652e-06,1.95528489130156e-06,9.537176060525419e-07,1.3178140823018524e-06,1.2505514245855752e-06,1.660743959868779e-06,1.2937708420437648e-06,2.513926366459675e-06,3.1349859951143386e-06,1.4265657639268392e-06,1.6648099126126304e-05,5.536789512627011e-07,1.052678455577382e-06
9,8.552989203314749e-07,7.589169274248541e-07,8.19247109150339e-07,1.3795794698298738e-06,2.0483483757986286e-06,1.0290110041166383e-06,1.4017951501643367e-06,1.3145780297289889e-06,1.7854939280466718e-06,1.421603923438202e-06,2.958052799697561e-06,3.458140233217341e-06,1.546561058692802e-06,1.8182522877926252e-05,5.952760709011878e-07,1.1532942560755985e-06
10,9.241959081567326e-07,8.065109497288006e-07,8.703474675019344e-07,1.4598459426776041e-06,2.125409056068048e-06,1.1003262578686832e-06,1.4742856828629768e-06,1.3772333993637492e-06,1.90668263344747e-06,1.5428829087160538e-06,3.4406511613221835e-06,3.7943754332471394e-06,1.6549132093303606e-06,1.9620697849611595e-05,6.382481696360526e-07,1.2410944879532618e-06
11,9.892167635590724e-07,8.479349934199444e-07,9.177913087104988e-07,1.5296529771573583e-06,2.1873673586017834e-06,1.167461643803708e-06,1.5357192565337764e-06,1.4380072737831885e-06,2.0243578944206853e-06,1.6578644835846618e-06,3.962419086761412e-06,4.1447345594865594e-06,1.7517189420069283e-06,2.097420525341012e-05,6.821674100606223e-07,1.3172178414054347e-06
12,1.05061370509897e-06,8.841687909534289e-07,9.615922811953371e-07,1.589700719284191e-06,2.235076410618678e-06,1.230203373559331e-06,1.5868212981442107e-06,1.4962609630599466e-06,2.1383954411714763e-06,1.7667742731107753e-06,4.523930160368599e-06,4.510442004419694e-06,1.8373380008477404e-06,2.2256194762941084e-05,7.266074732221899e-07,1.3832597281927034e-06
13,1.1089099912844858e-06,9.16149619531468e-07,1.0019105676522545e-06,1.6410486302907649e-06,2.2691962951221096e-06,1.288376012428548e-06,1.6284245609121747e-06,1.551233688062782e-06,2.248485983789992e-06,1.8696193195945804e-06,5.125724371619651e-06,4.892752194643002e-06,1.9121756372082783e-06,2.3479924350156767e-05,7.711667478510118e-07,1.441139491667542e-06
14,1.1647822367467326e-06,9.447226155898334e-07,1.0389278571995e-06,1.6848249435500885e-06,2.2902872374680743e-06,1.341949291961439e-06,1.6613713218175036e-06,1.6020300580605881e-06,2.3542142576681567e-06,1.96609859764371e-06,5.768188990900305e-06,5.292618947786525e-06,1.9765383987753505e-06,2.4657419537288822e-05,8.155171142336943e-07,1.4929220415504665e-06
15,1.2188867297173271e-06,9.705885853901862e-07,1.0727238592040917e-06,1.7220165044537995e-06,2.29905021454031e-06,1.3910221538902845e-06,1.6864972326149582e-06,1.6476159882282473e-06,2.4551699077120612e-06,2.055654140093859e-06,6.4512690015903244e-06,5.7103074502581595e-06,2.030670108880921e-06,2.579829964166127e-05,8.595079604683598e-07,1.5406822656541456e-06
16,1.2717389010003488e-06,9.942641382241974e-07,1.1032113907245936e-06,1.7534336804053724e-06,2.296495575058927e-06,1.4357002940855093e-06,1.7045607794683094e-06,1.6868473710260847e-06,2.551034326066182e-06,2.137571197861514e-06,7.174147874650166e-06,6.145111178838417e-06,2.0748343421003267e-06,2.6908520420841204e-05,9.031749043692577e-07,1.58646181097172e-06
17,1.3236509756200074e-06,1.016062848839915e-06,1.130115584406474e-06,1.7797353918159026e-06,2.283963553064915e-06,1.476073662675821e-06,1.7161518009999351e-06,1.7185952919019248e-06,2.6416082272349777e-06,2.2110044645633707e-06,7.934974067299263e-06,6.595323261236813e-06,2.1092867804151937e-06,2.7989170835269368e-05,9.466093728487433e-07,1.6322407328304008e-06
18,1.3747118834190856e-06,1.036096167565853e-06,1.153015135922237e-06,1.8014268781594115e-06,2.2630641451687894e-06,1.5123359879870235e-06,1.7216757760175945e-06,1.7420003538893002e-06,2.726838146483559e-06,2.2749496494699004e-06,8.730606371133892e-06,7.058456126978172e-06,2.1342129098118323e-06,2.9036123303477395e-05,9.898601548990453e-07,1.6798529361246864e-06
19,1.4248113917209062e-06,1.0542728796912411e-06,1.1714708081794324e-06,1.8188740404874382e-06,2.2355571358313453e-06,1.5448713158830018e-06,1.7213785906806604e-06,1.7567519147812571e-06,2.806891069337127e-06,2.328330810134562e-06,9.556368752217353e-06,7.5314858217888426e-06,2.149837181726648e-06,3.0041124515302887e-05,1.0329410580297522e-06,1.73090633695808e-06
20,1.4736609303131994e-06,1.070309345741302e-06,1.1852239718747611e-06,1.8323849429761708e-06,2.2031294802597214e-06,1.5741841844641642e-06,1.715345820837604e-06,1.7632403538924192e-06,2.882140207789348e-06,2.3702515340077653e-06,1.0405844541858584e-05,8.010865937845014e-06,2.156626838904988e-06,3.099396649118162e-05,1.075849749498799e-06,1.786767947675776e-06
21,1.5207800184003593e-06,1.083790693475352e-06,1.1943865093691563e-06,1.8423387802770393e-06,2.167162035599488e-06,1.6007948516417787e-06,1.703475148201921e-06,1.762478507141436e-06,2.9529517598060014e-06,2.4002193541376742e-06,1.1270685649561911e-05,8.49221467804282e-06,2.1552695040309915e-06,3.1884993904760456e-05,1.1185898939757947e-06,1.848568152355038e-06
22,1.5654789622252049e-06,1.0942750896771385e-06,1.1994869542023052e-06,1.8492801953165255e-06,2.128644645188015e-06,1.6252431570321674e-06,1.6855374514524573e-06,1.7558144628722732e-06,3.019447969344265e-06,2.41819288234135e-06,1.2140362848676993e-05,8.9698139485578e-06,2.1464117139636778e-06,3.270740366459623e-05,1.1612382236876936e-06,1.9172200457941207e-06
23,1.6068629298804362e-06,1.1013763796409792e-06,1.2013157960098253e-06,1.8538932305024516e-06,2.0882694040626275e-06,1.6480966459340414e-06,1.6614428236080588e-06,1.7446024823457433e-06,3.0814135013153084e-06,2.4245075368938735e-06,1.3001860391606199e-05,9.436218547432788e-06,2.130512650760586e-06,3.345880363353126e-05,1.2039677576611178e-06,1.9935228001516237e-06
24,1.6439001556299228e-06,1.104768016652655e-06,1.200727690085904e-06,1.8568628470431868e-06,2.046607331567822e-06,1.669883091283061e-06,1.6315792357040831e-06,1.7300016663870693e-06,3.1382607164514494e-06,2.4197536130923942e-06,1.3839513265170882e-05,9.882236614386799e-06,2.107974921057679e-06,3.414136122711644e-05,1.247022095438934e-06,2.078273117348353e-06
25,1.6755910979683756e-06,1.1041614059186024e-06,1.1985757608102063e-06,1.8587467922123956e-06,2.004210227254639e-06,1.6910626558439726e-06,1.5969447010575245e-06,1.7129732948728866e-06,3.189047765686895e-06,2.4045832805826335e-06,1.4635368976891605e-05,1.0297435780258175e-05,2.079315478232272e-06,3.4759853408117845e-05,1.2907425805579928e-06,2.1722152387113867e-06
26,1.7011733727275857e-06,1.0993949594384643e-06,1.1957258594204023e-06,1.8599666348749019e-06,1.9616193693029945e-06,1.7120417480863327e-06,1.5589563684181333e-06,1.6943922032545806e-06,3.232665532500985e-06,2.379474383285753e-06,1.5370363161158586e-05,1.0671151628614914e-05,2.045218648826968e-06,3.531799245779786e-05,1.3355645135433906e-06,2.2758830025275944e-06
27,1.7202595473961857e-06,1.0906199463426887e-06,1.1930413214618783e-06,1.860882360803069e-06,1.9194444822501034e-06,1.733103342172045e-06,1.5190903813084876e-06,1.6750869253665912e-06,3.2681059258372526e-06,2.3445692664514627e-06,1.6026201252769697e-05,1.0993759590513586e-05,2.006556438039837e-06,3.581555834809972e-05,1.3818970703294825e-06,2.38951019502606e-06
28,1.7328491374975558e-06,1.0783715709862391e-06,1.1913609262494972e-06,1.8618327467538357e-06,1.8784955675692868e-06,1.7542727959629591e-06,1.478625919862748e-06,1.6557935665377912e-06,3.294609074570757e-06,2.2996697085994245e-06,1.65874938198693e-05,1.125793081556527e-05,1.9643539201689025e-06,3.624832310368745e-05,1.4300395495720099e-06,2.5129969111752836e-06
29,1.7391947039210126e-06,1.0634388986559084e-06,1.1915026645390662e-06,1.8630817486023296e-06,1.8397573398930189e-06,1.7752528392178354e-06,1.4386188990489087e-06,1.6371326793678954e-06,3.3116295374054997e-06,2.244402050619672e-06,1.7043490758984025e-05,1.1459527063352386e-05,1.9196908041898647e-06,3.6609121836273005e-05,1.4802482376577552e-06,2.645834939536157e-06
30,1.739609578720615e-06,1.0467178406387785e-06,1.1942459485585564e-06,1.8647080559935275e-06,1.804210140500121e-06,1.795472246951342e-06,1.3999931504206961e-06,1.6195832456834006e-06,3.3187614213218764e-06,2.178467282715109e-06,1.738862093646423e-05,1.1597596700489667e-05,1.8736237462383984e-06,3.688766222742039e-05,1.5328224991889478e-06,2.7870292917082625e-06
31,1.7344117047508428e-06,1.0291556625687974e-06,1.2002648346471894e-06,1.8665388201852807e-06,1.7726905651388323e-06,1.814163183099024e-06,1.3635707838235248e-06,1.6034513154620267e-06,3.3157790480724525e-06,2.1018132842902674e-06,1.76212654914133e-05,1.1673124998036273e-05,1.8270883360103673e-06,3.7069975041331075e-05,1.5880521838622249e-06,2.9351244951800166e-06
32,1.7240572531936141e-06,1.0116841317375994e-06,1.2100666577642481e-06,1.8681576290623815e-06,1.7458259104022598e-06,1.8304188831742521e-06,1.329999299988619e-06,1.5889293241155963e-06,3.3027263282177327e-06,2.014663840438632e-06,1.7741174396521192e-05,1.1687135880850586e-05,1.780828901767756e-06,3.713997657287912e-05,1.6461005043818646e-06,3.08832499497352e-06
33,1.709293936505389e-06,9.951379960455248e-07,1.224002016019138e-06,1.8688870440201107e-06,1.7239956829580812e-06,1.8433238076394267e-06,1.29966367857822e-06,1.5761925530631328e-06,3.2799132702453564e-06,1.9174812384008357e-06,1.7747263806141945e-05,1.1639614726045493e-05,1.7354781236664499e-06,3.708261799288309e-05,1.7070142438828417e-06,3.244573439475371e-06
34,1.6911821467052147e-06,9.802424576902538e-07,1.2423443161536617e-06,1.8677452024355253e-06,1.7074048124650273e-06,1.8521910816580495e-06,1.2726545978949897e-06,1.5654354519386747e-06,3.2478179687637925e-06,1.8109427953336465e-06,1.7637441705235048e-05,1.1530015988301172e-05,1.6916688673089827e-06,3.688506408441316e-05,1.7708553668430247e-06,3.401514893101596e-06
35,1.6709578230338629e-06,9.676343091893653e-07,1.2653491763151126e-06,1.8635680347248928e-06,1.6962350454345054e-06,1.8567729231497701e-06,1.248806998337858e-06,1.5569236093449578e-06,3.2069295974270544e-06,1.6959090538784207e-06,1.741024964760341e-05,1.1358581578140107e-05,1.6499945980789583e-06,3.653459002745509e-05,1.837749880997496e-06,3.5564321267874702e-06
36,1.6497974013938399e-06,9.57868569707883e-07,1.2932188577192568e-06,1.855362218105461e-06,1.6906713399097418e-06,1.8573329563920074e-06,1.227813234113526e-06,1.5510930377083039e-06,3.1575374746803267e-06,1.5733412291050753e-06,1.7066950682628237e-05,1.1127466009393186e-05,1.6108663875230797e-06,3.601741775974642e-05,1.9077661200174795e-06,3.70629934392236e-06
37,1.6286272784892503e-06,9.514165725819191e-07,1.3260244698269689e-06,1.8426368380521213e-06,1.6908484740097162e-06,1.8545670416885946e-06,1.2093695141246817e-06,1.548578534629569e-06,3.099557843436367e-06,1.4442349024412875e-06,1.661313539443146e-05,1.0841311064643346e-05,1.5744465373585857e-06,3.532286893624732e-05,1.9807828913046664e-06,3.8480070662678685e-06
38,1.608099117401339e-06,9.486627454710042e-07,1.3636719881643312e-06,1.8254670529322098e-06,1.6968681460695089e-06,1.8493867338179027e-06,1.193247581767992e-06,1.5501405633523774e-06,3.0326104259485714e-06,1.309671658961991e-06,1.605941721424649e-05,1.0507158244203673e-05,1.5407191023470488e-06,3.445050301496951e-05,2.056521163894402e-06,3.9786764246620475e-06
39,1.5886838938889942e-06,9.499041945378331e-07,1.405931371599343e-06,1.8043474047191092e-06,1.7087877319356128e-06,1.8426561027059522e-06,1.179262243934071e-06,1.556555667850234e-06,2.95640806427003e-06,1.1709625915011892e-06,1.542093522039604e-05,1.0133763379440648e-05,1.5096256363123228e-06,3.341425172109882e-05,2.134699271300552e-06,4.095953662640764e-06
40,1.570719358222953e-06,9.553297363181706e-07,1.4524845441500196e-06,1.7799983379142102e-06,1.7265660864507557e-06,1.8350486249106316e-06,1.167267108424148e-06,1.5684878443819547e-06,2.87117327904866e-06,1.0297142140587739e-06,1.4715736086116084e-05,9.730696914125077e-06,1.4811755007507168e-06,3.2240781651474743e-05,2.215131362685429e-06,4.198205148584202e-06
41,1.5543639778393817e-06,9.649789600746365e-07,1.5029127163689985e-06,1.753172625324515e-06,1.750094519113463e-06,1.827046183227144e-06,1.1572662495124318e-06,1.5863551903289417e-06,2.7777638253405363e-06,8.877280236685488e-07,1.3962571166930637e-05,9.307632963631418e-06,1.4554623426179282e-06,3.0963714501997676e-05,2.2976575332631325e-06,4.284533780739631e-06
42,1.5395916583678703e-06,9.787249494116602e-07,1.5566139536594e-06,1.72451655054401e-06,1.7792215494847163e-06,1.818949415201433e-06,1.1495137044774857e-06,1.6102390445998764e-06,2.677494225852408e-06,7.469054634493368e-07,1.317889919863487e-05,8.873914362979412e-06,1.432610417514934e-06,2.961713537700345e-05,2.3819520130226167e-06,4.3545720132522394e-06
43,1.526309280618968e-06,9.962849327756214e-07,1.6127380075816052e-06,1.6945949492363574e-06,1.8136650816609772e-06,1.810937512295858e-06,1.1444466862034352e-06,1.6398593052667769e-06,2.5718563049987545e-06,6.093300482784548e-07,1.2379800778338693e-05,8.438245296434736e-06,1.4127574375838974e-06,2.823102022783314e-05,2.4673268782909066e-06,4.408106942420762e-06
44,1.5144833907286279e-06,1.0172600982944336e-06,1.6702466935888188e-06,1.664040027682125e-06,1.8529175421353306e-06,1.803271802937711e-06,1.14251615138022e-06,1.6746186806023734e-06,2.462345852710626e-06,4.77449941351683e-07,1.1577908275637745e-05,8.008420357979126e-06,1.396066047181042e-06,2.6829417809248943e-05,2.552606849096217e-06,4.444678841490681e-06
45,1.504130973265442e-06,1.0411975192644904e-06,1.7281374768875978e-06,1.6336245857978759e-06,1.8962051741225522e-06,1.796434383451022e-06,1.1440953386728533e-06,1.7137318462452653e-06,2.350465018554394e-06,3.5424182227774826e-07,1.0783760505187621e-05,7.591139204394345e-06,1.3826657016278366e-06,2.5430788473614245e-05,2.6361099127178134e-06,4.463375131055995e-06
46,1.4952152880424472e-06,1.0676198701443262e-06,1.7856984397420992e-06,1.604151862986002e-06,1.9424392999582265e-06,1.7910179165670418e-06,1.1494904923707603e-06,1.7564247219233276e-06,2.237778110765683e-06,2.433570833910205e-07,1.0006041204570941e-05,7.191952285629352e-06,1.3725649925134395e-06,2.404921751267252e-05,2.715753919918078e-06,4.463022235673441e-06
47,1.487623284679091e-06,1.0960463674297821e-06,1.842593612185185e-06,1.5762646637356042e-06,1.9901801354040403e-06,1.787613455130632e-06,1.1589389496159786e-06,1.8020903367008492e-06,2.1258631251419507e-06,1.4925749315473663e-07,9.251658872537106e-06,6.815279174943012e-06,1.3656363888678538e-06,2.2695484978615317e-05,2.789273398956025e-06,4.442683637410998e-06
48,1.48126459859112e-06,1.1260352917457646e-06,1.8987158966327006e-06,1.5503452030189701e-06,2.0377483431396098e-06,1.786932204514389e-06,1.1725885788085106e-06,1.8502612810412075e-06,2.016219464056763e-06,7.724400219738554e-08,8.52581849639214e-06,6.464409631761427e-06,1.361649845238122e-06,2.1377720163678477e-05,2.8545124115142347e-06,4.402128642301873e-06
49,1.476134049292375e-06,1.1571738867719317e-06,1.9539220983515927e-06,1.5265612802374772e-06,2.0835358930295565e-06,1.7899427500577986e-06,1.1905106318751716e-06,1.9004151682630093e-06,1.9102855512591404e-06,3.3282020279352816e-08,7.832176426203506e-06,6.141470554109492e-06,1.3602831541392344e-06,2.010184661256258e-05,2.9097691054570227e-06,4.342090970822521e-06
50,1.47225324140437e-06,1.1890265968481221e-06,2.0078398257228757e-06,1.5049801062286718e-06,2.126361124250311e-06,1.7977513453895375e-06,1.2126913886684822e-06,1.9518109293680966e-06,1.8095142569350427e-06,2.374149789228672e-08,7.173122332910548e-06,5.847389127782311e-06,1.3611517308442875e-06,1.8872037865440653e-05,2.9541081570879814e-06,4.264374997136414e-06
51,1.4696241966805139e-06,1.2211169330383017e-06,2.0598282467592925e-06,1.485675847079632e-06,2.165656957458671e-06,1.8113206298159097e-06,1.2389858447555991e-06,2.003526514119892e-06,1.715446479598983e-06,5.524113561441851e-08,6.550165523791141e-06,5.5818745044159505e-06,1.3639192390365812e-06,1.769112619249188e-05,2.987450516725155e-06,4.171829074308677e-06
52,1.4683273906182894e-06,1.2529455103391133e-06,2.1090005984472485e-06,1.4688463741048223e-06,2.2014215912041763e-06,1.8312639238886064e-06,1.2691022981494714e-06,2.054673318944485e-06,1.629812201405349e-06,1.3460198381574802e-07,5.964291135047553e-06,5.34349227267209e-06,1.3683653851641387e-06,1.6560804376255237e-05,3.01029675946206e-06,4.068057212976482e-06
53,1.4686783475408175e-06,1.284046075605172e-06,2.1542684348807833e-06,1.4549274557514836e-06,2.233993745947471e-06,1.8577737884571515e-06,1.3026530869930245e-06,2.1046190156418703e-06,1.554523654389295e-06,2.688738297539454e-07,5.416128937320963e-06,5.129933457735404e-06,1.3742740430949516e-06,1.5481791496267764e-05,3.023229039818661e-06,3.956841770542495e-06
54,1.4712517276304902e-06,1.314029314940958e-06,2.194502891858629e-06,1.4445880316844096e-06,2.263757184831446e-06,1.8906082863075282e-06,1.3392656375707846e-06,2.1530527348820066e-06,1.4915187242812403e-06,4.654095783151993e-07,4.905890922696835e-06,4.938396089320835e-06,1.3812417825570084e-06,1.4454382964668733e-05,3.026582507006106e-06,3.841530940699615e-06
55,1.4767236783840628e-06,1.342534254634804e-06,2.228787238335565e-06,1.4385825579435536e-06,2.290874136566536e-06,1.9290841013906996e-06,1.3786534562885259e-06,2.199836034896721e-06,1.4426389769632163e-06,7.318633897870944e-07,4.433221699554294e-06,4.7658484595554816e-06,1.3885943385703968e-06,1.3479406372869605e-05,3.020453046328492e-06,3.7246753967594385e-06
56,1.4856543505543736e-06,1.3691459235785745e-06,2.2565586320690404e-06,1.4376226841554684e-06,2.315132203477237e-06,1.972070036143161e-06,1.420545156436478e-06,2.2447595346437675e-06,1.409572468683857e-06,1.0760785372027184e-06,3.9971939874296515e-06,4.609117033513184e-06,1.3954909738815218e-06,1.2558949985816299e-05,3.004793510547146e-06,3.6079345912081944e-06
57,1.49834581168614e-06,1.3933633451130355e-06,2.2775035578359426e-06,1.4423393243512759e-06,2.3359843955201943e-06,2.0180109263685707e-06,1.464578012727585e-06,2.2874329077115085e-06,1.3938046156615353e-06,1.5060356329656772e-06,3.59646250319364e-06,4.464940468126273e-06,1.4011621382781649e-06,1.1696319414785177e-05,2.979425648057653e-06,3.4921390489313324e-06
58,1.5148126271944212e-06,1.4146199221783358e-06,2.2913096718560966e-06,1.453231763906125e-06,2.352800745055067e-06,2.0650628483573575e-06,1.5102756502651918e-06,2.3273758505370284e-06,1.396610471331211e-06,2.029947835402795e-06,3.2293728270418067e-06,4.330103469758507e-06,1.4051229031764358e-06,1.0895454466705435e-05,2.9441305216933142e-06,3.3775322445477706e-06
59,1.5348449646096377e-06,1.4324115006971338e-06,2.2975296431906985e-06,1.4706035774058617e-06,2.3651757677646714e-06,2.1113725318782684e-06,1.5570298452052209e-06,2.3641466836164037e-06,1.4190722858064703e-06,2.6563343465463254e-06,2.8940034663373984e-06,4.201695334335887e-06,1.4072625892261118e-06,1.0160366347626913e-05,2.8989537996720613e-06,3.2642324677483017e-06
60,1.5581421142149112e-06,1.4465485473236808e-06,2.2956665577451806e-06,1.4945679791861897e-06,2.37302935214532e-06,2.1553826570437783e-06,1.6040491669284562e-06,2.397386482854837e-06,1.4620839388936485e-06,3.3938970565075054e-06,2.588329205167496e-06,4.077466643833052e-06,1.4078530083833755e-06,9.494839080331081e-06,2.844556466262542e-06,3.1527256454468608e-06
61,1.5844178713286894e-06,1.4573347851694336e-06,2.285363326183697e-06,1.5250650256888033e-06,2.376471803100243e-06,2.1960000025509344e-06,1.6503944250218292e-06,2.426800649880491e-06,1.5263732748266935e-06,4.251271757400686e-06,2.3105250422619205e-06,3.95611900405622e-06,1.4074997735287986e-06,8.902349213604962e-06,2.782305149333803e-06,3.044100600150589e-06
62,1.613378804486156e-06,1.465476864078713e-06,2.26658115802306e-06,1.5618186587462607e-06,2.375707298821643e-06,2.2325945948681365e-06,1.6950945185024365e-06,2.452133948854237e-06,1.6125476302475562e-06,5.236905113006766e-06,2.059196804277573e-06,3.837343304418836e-06,1.406987841612155e-06,8.386046875094007e-06,2.7140271971230905e-06,2.9398862782715965e-06
63,1.6446705803956407e-06,1.4717962312976408e-06,2.239727676427852e-06,1.6043063410303177e-06,2.3710602723174446e-06,2.2649107796959938e-06,1.73718163260831e-06,2.473204421981927e-06,1.7210834425579698e-06,6.3591821544594115e-06,1.8333644696189467e-06,3.7216089893254974e-06,1.4070710361474085e-06,7.948638226839163e-06,2.6416821673820308e-06,2.8416404397363193e-06
64,1.6778930595934558e-06,1.4769946673838658e-06,2.2057001557560457e-06,1.6518171344760741e-06,2.362897217106068e-06,2.292946480359166e-06,1.7756893364127992e-06,2.4900190506278426e-06,1.8522324634909913e-06,7.626591529894443e-06,1.6322241811952031e-06,3.609865336868283e-06,1.4083517323750962e-06,7.592122234064157e-06,2.5671734176659045e-06,2.7506605660043195e-06
65,1.7126449741966006e-06,1.4816023868781122e-06,2.1658284131345738e-06,1.7035455514647583e-06,2.3514234732080245e-06,2.316793015740623e-06,1.8098037209249193e-06,2.5028671774510913e-06,2.0059280621828664e-06,9.047635108502381e-06,1.454876596719859e-06,3.50328408361301e-06,1.411298649463496e-06,7.3174579067121915e-06,2.492246220892871e-06,2.6679919115110875e-06
66,1.7486245510863166e-06,1.4860145236551492e-06,2.1217196538268723e-06,1.7586245929042238e-06,2.336596284759082e-06,2.3364404732222694e-06,1.839100831576976e-06,2.5122336872345377e-06,2.1817332208487635e-06,1.0630498260894293e-05,1.3001865840770591e-06,3.4030708894700858e-06,1.4163216470179895e-06,7.1243353488446244e-06,2.418400519451755e-06,2.594574478905727e-06
67,1.7857536414560518e-06,1.4905307523906466e-06,2.075016424186862e-06,1.8160730458714176e-06,2.318222994955358e-06,2.3516498027938766e-06,1.8636452619308274e-06,2.518541390445792e-06,2.3787948196446945e-06,1.2382700548768885e-05,1.16677317570885e-06,3.310337687629218e-06,1.423797031039279e-06,7.01123947573523e-06,2.3468827226190067e-06,2.53136852946388e-06
68,1.8241252396969218e-06,1.4954223082230603e-06,2.027140107244925e-06,1.8747184254703627e-06,2.2961177302618353e-06,2.3620191692346946e-06,1.883867274876322e-06,2.521977833705818e-06,2.5958110923622677e-06,1.4310829876034538e-05,1.0530858623568534e-06,3.2260474284677437e-06,1.4340186210296208e-06,6.975778976867004e-06,2.2787146726296455e-06,2.47939255834074e-06
69,1.8637840388340737e-06,1.5009985353137653e-06,1.979151899664911e-06,1.933237270070745e-06,2.270254977396599e-06,2.367189620228247e-06,1.9002963460948312e-06,2.5225779594359513e-06,2.8310549056294027e-06,1.6420240673910345e-05,9.575727093026575e-07,3.151051390156616e-06,1.4471408222309208e-06,7.014939551446596e-06,2.2146351395595966e-06,2.439624039373343e-06
70,1.9045880384078097e-06,1.5075833332936671e-06,1.9318129567875114e-06,1.990383224751739e-06,2.240905251746047e-06,2.366968549591224e-06,1.913348291836915e-06,2.520419643263771e-06,3.082454332033735e-06,1.8714523172037966e-05,8.788448441932781e-07,3.086160810561635e-06,1.4631427332159605e-06,7.1249596155082275e-06,2.154999708123481e-06,2.4128025585026316e-06
71,1.946231797764159e-06,1.5154273210246157e-06,1.8857565035072578e-06,2.0452325375788586e-06,2.2086614848698365e-06,2.3612752889778164e-06,1.9233244170562775e-06,2.5157681728332368e-06,3.3476938756502033e-06,2.119496607863381e-05,8.156817659551766e-07,3.0321126075626893e-06,1.4817891307733605e-06,7.300981046226444e-06,2.0997404602401557e-06,2.399257578904353e-06
72,1.988305888746883e-06,1.524656068078218e-06,1.841573058811458e-06,2.097247468806981e-06,2.174287105717649e-06,2.350043425210585e-06,1.930546220652111e-06,2.5091528753288545e-06,3.6243102552127287e-06,2.3860362450051057e-05,7.669273218011033e-07,2.989442509926142e-06,1.5026227495569545e-06,7.5368507716788326e-06,2.0483759149168922e-06,2.39885575637942e-06
73,2.030334700232775e-06,1.5352705996131173e-06,1.7997673169951734e-06,2.1461584864199596e-06,2.1384791949636356e-06,2.3332283341216602e-06,1.9354383503108083e-06,2.501311874277919e-06,3.9098395344065155e-06,2.670662604574493e-05,7.314405270999294e-07,2.95847861174558e-06,1.5250634690016737e-06,7.825129325729305e-06,2.0000749503585373e-06,2.4110722575145976e-06
74,2.071832673955852e-06,1.547168277352732e-06,1.760748078266101e-06,2.1917708479351504e-06,2.101743653155288e-06,2.3109066008455705e-06,1.938487834952607e-06,2.4929606553251956e-06,4.202058694321638e-06,2.9725705343619968e-05,7.080900435807953e-07,2.9395036089302954e-06,1.5485568060640428e-06,8.157115844570661e-06,1.9538242271631522e-06,2.4350813219685365e-06
75,2.1123345690478934e-06,1.5601436690929072e-06,1.724906357312115e-06,2.2337718853535178e-06,2.064471828418286e-06,2.2833618076198126e-06,1.940121566318316e-06,2.484589605398344e-06,4.499103632957182e-06,3.2904903698651266e-05,6.957077444092249e-07,2.932872170841827e-06,1.5725971418614764e-06,8.522901368860176e-06,1.9086842626355537e-06,2.4697457830964398e-06
76,2.151299049184447e-06,1.573866537323718e-06,1.6926610719925829e-06,2.271590177760939e-06,2.0270691766990495e-06,2.2511000242179314e-06,1.9405770784774824e-06,2.476476578473928e-06,4.79929560047126e-06,3.622798336788104e-05,6.930331052169735e-07,2.9389545794177984e-06,1.5966544083401205e-06,8.911694781210847e-06,1.8640583958340736e-06,2.5135279087639206e-06
77,2.187932474375089e-06,1.5878989788763816e-06,1.664401116560142e-06,2.3044046460226302e-06,1.9899241029752582e-06,2.214812772009059e-06,1.939880777557519e-06,2.468769877244507e-06,5.1010230699295125e-06,3.967692156003111e-05,6.987039782251401e-07,2.9579918598768296e-06,1.620218584058376e-06,9.312583653532167e-06,1.819873093530122e-06,2.5644544398573275e-06
78,2.2211070729251108e-06,1.6017619490283172e-06,1.6403744426821233e-06,2.3313336154392354e-06,1.9532235226607325e-06,2.1753182141763044e-06,1.9380138349463165e-06,2.461469416222232e-06,5.402894583400052e-06,4.323179312073823e-05,7.113070056889261e-07,2.9899619217905227e-06,1.642939602674355e-06,9.715660369063322e-06,1.776574453187632e-06,2.620186820048336e-06
79,2.2494607531893437e-06,1.6150358991868429e-06,1.6206458510462177e-06,2.3516383789184537e-06,1.9168114605454495e-06,2.1334640480675814e-06,1.935162293625078e-06,2.454363898272451e-06,5.70374180063344e-06,4.6869413318331805e-05,7.294731364217794e-07,3.034454911177205e-06,1.6646333721291463e-06,1.011323154061166e-05,1.7349558273012262e-06,2.678122386261676e-06
80,2.271644884906615e-06,1.6275086461900686e-06,1.6051840299049667e-06,2.364811612152766e-06,1.8802616848715996e-06,2.0899815423289885e-06,1.9318448472917508e-06,2.447031744222837e-06,6.002306955101648e-06,5.056354278450206e-05,7.519430877411705e-07,3.0905394922054385e-06,1.685161731158789e-06,1.050061387099134e-05,1.6959244266364273e-06,2.7354259280477842e-06
81,2.286677782171198e-06,1.6392889428644905e-06,1.5939611980671292e-06,2.3706045955515854e-06,1.843158622460437e-06,2.0454113811226898e-06,1.9288224355566428e-06,2.4389094904781547e-06,6.2971090516855945e-06,5.4285977999986944e-05,7.775647800936369e-07,3.15666812794621e-06,1.7044222870555313e-06,1.0875971802346199e-05,1.6602887358804786e-06,2.7889789122639275e-06
82,2.2942806106873193e-06,1.650760064969877e-06,1.5869396550163322e-06,2.369052035884401e-06,1.805340455232655e-06,2.0002183315593535e-06,1.926856434687165e-06,2.4293492766807695e-06,6.586749726504209e-06,5.800557313734128e-05,8.053126422609853e-07,3.2306545697822494e-06,1.7224905930332855e-06,1.1239084454388993e-05,1.628616165871181e-06,2.835457176362198e-06
83,2.2949132314481203e-06,1.6624555150872258e-06,1.5839726375053978e-06,2.3604719782725882e-06,1.7668623817864788e-06,1.9549678672877285e-06,1.926470286041812e-06,2.4176194184698194e-06,6.870146615554184e-06,6.168496832029031e-05,8.343693303501084e-07,3.309715243501487e-06,1.7397122848942107e-06,1.1589873037649193e-05,1.6011705116638194e-06,2.8717435846652776e-06
84,2.289422386773035e-06,1.675071199288862e-06,1.5847239181007717e-06,2.3454046307727398e-06,1.7277676228525193e-06,1.9103473355875444e-06,1.927861716032092e-06,2.4029419766765156e-06,7.146176283979624e-06,6.52777256583859e-05,8.641527455941228e-07,3.3906656441314336e-06,1.75661920290158e-06,1.1927967006369537e-05,1.5779242047149128e-06,2.895427635604248e-06
85,2.2786764918560685e-06,1.6895592065504597e-06,1.588700248865982e-06,2.324513860385175e-06,1.687926255705857e-06,1.867009551776822e-06,1.9310116453213927e-06,2.384687364316867e-06,7.413117468890876e-06,6.872944643424736e-05,8.942143494727165e-07,3.4703282365939907e-06,1.7737316607384244e-06,1.2253495727871822e-05,1.5587015480509373e-06,2.904894738936749e-06
86,2.2634813039627885e-06,1.707041630378362e-06,1.595393688789027e-06,2.2985449059950996e-06,1.647086194221093e-06,1.8253989143113526e-06,1.935881050796679e-06,2.3625916865208907e-06,7.668484698688453e-06,7.198407834472996e-05,9.24098032602895e-07,3.5459009570326686e-06,1.791359824528415e-06,1.256794980244373e-05,1.5434231892786241e-06,2.898945187265973e-06
87,2.244579454115448e-06,1.7285497360214742e-06,1.6044092591946554e-06,2.2683597447928608e-06,1.605100979571172e-06,1.7856973661161247e-06,1.9425025889132448e-06,2.33672926345135e-06,7.90901531966618e-06,7.49917014402807e-05,9.532581382096732e-07,3.6150138170587106e-06,1.8095022405021576e-06,1.2873975903062468e-05,1.5322473042991328e-06,2.876491512497066e-06
88,2.222547539794389e-06,1.7548353609237272e-06,1.615491712662381e-06,2.2349198734666893e-06,1.5621077651670704e-06,1.7478562339786733e-06,1.9508842931240775e-06,2.307346228905171e-06,8.130534106654392e-06,7.771221782067512e-05,9.810598132144216e-07,3.6756329452377054e-06,1.8279298879735877e-06,1.3174019114618267e-05,1.5255110636540437e-06,2.836778918059213e-06
89,2.1977057264160736e-06,1.7863424245458798e-06,1.6284859673021531e-06,2.1991344176958148e-06,1.5184743681991903e-06,1.7116348773946998e-06,1.96086303960369e-06,2.274877000326375e-06,8.328236506251829e-06,8.011183355423618e-05,1.0068688907823767e-06,3.7261659237991673e-06,1.846411226583478e-06,1.3468812979427236e-05,1.5236160547079085e-06,2.779883288628846e-06
90,2.170109955384967e-06,1.8232176009237105e-06,1.6432861530527291e-06,2.161665654792818e-06,1.4746519086576572e-06,1.676728400726561e-06,1.972108640141196e-06,2.240050537335609e-06,8.497893770673323e-06,8.215489141243435e-05,1.030194250000473e-06,3.765763648308205e-06,1.8648438594852496e-06,1.3756600309830605e-05,1.5269724455285831e-06,2.706991006575718e-06
91,2.1396024214526002e-06,1.8652817628423479e-06,1.6597947006642924e-06,2.1228180969788603e-06,1.4311382695043532e-06,1.6430339264414173e-06,1.9842838697869152e-06,2.203778550285068e-06,8.637355165415761e-06,8.380029946167297e-05,1.050782184750412e-06,3.794467266114132e-06,1.8831583429079358e-06,1.4033028222781523e-05,1.5359441357202068e-06,2.6202851533146418e-06
92,2.1059678827076774e-06,1.912041929212005e-06,1.6779107822713898e-06,2.082608169390443e-06,1.3884847234494675e-06,1.6108243975564276e-06,1.9971470352250384e-06,2.1668831237888785e-06,8.746963287657834e-06,8.500909713862559e-05,1.0685814526564343e-06,3.8129806709570745e-06,1.9011690471918936e-06,1.4291618535647147e-05,1.5507479045035632e-06,2.5225732979592904e-06
93,2.069125223429526e-06,1.9628507697040787e-06,1.6975642651190055e-06,2.0410292532991904e-06,1.347218029796724e-06,1.5806172925547625e-06,2.010462457544606e-06,2.129962780990584e-06,8.828447869515841e-06,8.575780107900292e-05,1.0836162979879416e-06,3.8222220748630536e-06,1.9185388108155164e-06,1.4524792196404447e-05,1.5713716291609121e-06,2.4168863450840058e-06
94,2.0291322606989545e-06,2.0171615726410255e-06,1.718771510234932e-06,1.9983018487201113e-06,1.3077714647850302e-06,1.552898833758787e-06,2.0238945677925917e-06,2.093488325348895e-06,8.883687114557068e-06,8.60468586935417e-05,1.095921694483849e-06,3.822926929877667e-06,1.9347732718321893e-06,1.4724586387083972e-05,1.5975464709553472e-06,2.30618200036209e-06
95,1.9860028878783237e-06,2.074672864613163e-06,1.7416548496728978e-06,1.954852906974546e-06,1.2705131180063526e-06,1.5280229985206714e-06,2.0370823688208282e-06,2.0579265468167386e-06,8.914747567871193e-06,8.589810692990801e-05,1.1056113124631176e-06,3.8154040667114976e-06,1.9491855958819212e-06,1.4882447036204321e-05,1.6287174783819175e-06,2.1931515658583052e-06
96,1.939588903642571e-06,2.1352293063613503e-06,1.7663771785630653e-06,1.911069905297796e-06,1.2357667289420295e-06,1.5063198958936203e-06,2.0497660530680077e-06,2.0236846203276123e-06,8.92470935358157e-06,8.534319312758722e-05,1.1129663912048474e-06,3.7994889596057637e-06,1.9609553250620337e-06,1.4989468550395785e-05,1.6640062210487536e-06,2.080115079628182e-06
97,1.88960478517192e-06,2.1985816718456194e-06,1.7929997218682295e-06,1.8671195733397297e-06,1.2037475874141764e-06,1.4881641315536322e-06,2.0617510121394403e-06,1.990925673004959e-06,8.917878196558422e-06,8.441344046979603e-05,1.1184249205215158e-06,3.7747794316199242e-06,1.9693773218532107e-06,1.5038424686066176e-05,1.7022682054768564e-06,1.9689988468215508e-06
98,1.8356510747814068e-06,2.264210602951206e-06,1.8213485843256226e-06,1.8230105387716757e-06,1.174493854155542e-06,1.4738841824133514e-06,2.0727339293670747e-06,1.959469362669311e-06,8.898949672445428e-06,8.314105099745959e-05,1.1224650564913557e-06,3.7410706884496225e-06,1.9741927485628013e-06,1.5026195389502847e-05,1.742315274583393e-06,1.86134707110288e-06
99,1.7773013215800985e-06,2.331254198416136e-06,1.8509573487625338e-06,1.7788112719419192e-06,1.1478752185924097e-06,1.4636308233529167e-06,2.0822031501383196e-06,1.9288486217988187e-06,8.871827057857145e-06,8.156798415717013e-05,1.1254591394348237e-06,3.6987357174699696e-06,1.9757653566565974e-06,1.4954420432650066e-05,1.7831955875131204e-06,1.758343460073417e-06
100,1.7144318999894298e-06,2.39843875873399e-06,1.8810743798465188e-06,1.734831226036824e-06,1.123645131471334e-06,1.4573043125401597e-06,2.089596314017564e-06,1.898401616235104e-06,8.838955643216061e-06,7.974956713660532e-05,1.1275886336127538e-06,3.6488881731158437e-06,1.9749865352576824e-06,1.4828120514688336e-05,1.8243024602176194e-06,1.6608478888787517e-06
101,1.6475750933608647e-06,2.464024312159714e-06,1.910761339179382e-06,1.6916624469091526e-06,1.101498018682469e-06,1.454548650217057e-06,2.094645975105237e-06,1.8673736185246883e-06,8.801376502803184e-06,7.774708508534593e-05,1.1288539159534803e-06,3.593309874870176e-06,1.9729960788581913e-06,1.4653367646652161e-05,1.8652062060646534e-06,1.5694348474636913e-06
102,1.5779053920814742e-06,2.525879408138812e-06,1.9391072506174998e-06,1.6500950463732757e-06,1.0811827348679838e-06,1.454771994380579e-06,2.097590992919594e-06,1.8351279324334527e-06,8.759097590167062e-06,7.5615816622535e-05,1.1291368663637128e-06,3.534167182340057e-06,1.9708899587241203e-06,1.4435252836589318e-05,1.905362132589348e-06,1.4844623955898481e-06
103,1.5069159830263654e-06,2.581711824376344e-06,1.9654070857380897e-06,1.610991562148012e-06,1.0626520806599355e-06,1.4571333023970322e-06,2.099031132598183e-06,1.8013462616493668e-06,8.711269738195506e-06,7.339748225244199e-05,1.1282484336217451e-06,3.473591259956384e-06,1.969569994420683e-06,1.4177409790919548e-05,1.9439344128613567e-06,1.4061747383745235e-06
104,1.4361533232294175e-06,2.629403381698029e-06,1.9891244040498036e-06,1.575204605691838e-06,1.0461007688880836e-06,1.460516829312251e-06,2.0995880514246796e-06,1.765969086427223e-06,8.65601275111335e-06,7.111931155286694e-05,1.1259348868323456e-06,3.4132858121928726e-06,1.9697309045714476e-06,1.3883683453008813e-05,1.9798195275779715e-06,1.3347330300953317e-06
105,1.3671200979922468e-06,2.6673912630829083e-06,2.0097125694810713e-06,1.5435254718645126e-06,1.0318591543158904e-06,1.4635841039851955e-06,2.0996945881666133e-06,1.7289665977710502e-06,8.590423398138873e-06,6.879572770636927e-05,1.121883521246665e-06,3.3543002229707993e-06,1.971839406888963e-06,1.3560737046824718e-05,2.0117649626396485e-06,1.2701420648205067e-06
106,1.3012056165260015e-06,2.694944450123375e-06,2.0265153603094557e-06,1.5165984857086044e-06,1.0202769139046003e-06,1.4649458463672947e-06,2.0995735761505254e-06,1.690289509921591e-06,8.511276046141693e-06,6.642946150164714e-05,1.1157771793346378e-06,3.296962273215219e-06,1.9761002249116455e-06,1.3219335562629058e-05,2.038469270570395e-06,1.2122134323519026e-06
107,1.2396131423400784e-06,2.7121234449006067e-06,2.0387839408975517e-06,1.4948241744100822e-06,1.0116716564959192e-06,1.4634160535958213e-06,2.099239189617235e-06,1.6500921333879468e-06,8.41606676589084e-06,6.401377280478288e-05,1.1073852541269246e-06,3.2409533930755835e-06,1.9825060684241383e-06,1.2873207819201969e-05,2.058704240987502e-06,1.1606843332585235e-06
108,1.1833409917359743e-06,2.719452488412805e-06,2.0457104271762883e-06,1.4783135624934002e-06,1.0062942335348542e-06,1.458239609720733e-06,2.0984507715359674e-06,1.6089414676556013e-06,8.30380436789228e-06,6.15379489704005e-05,1.0966226044426732e-06,3.1856036431550615e-06,1.9908916167339248e-06,1.2536665809205808e-05,2.071546521496349e-06,1.1154069313228667e-06
109,1.133187356149236e-06,2.717581503140194e-06,2.0464820976053435e-06,1.466880992963346e-06,1.0042882440189507e-06,1.4491374411609272e-06,2.096709752115193e-06,1.5677332839299183e-06,8.175225156509868e-06,5.899432583983404e-05,1.0835204094051048e-06,3.1303714515335257e-06,2.000890726722872e-06,1.2223055773835123e-05,2.0766070608254145e-06,1.0764087187565563e-06
110,1.0897316532844212e-06,2.7070746845031994e-06,2.0403971012913365e-06,1.4600635988824083e-06,1.0056966583573313e-06,1.436128574377509e-06,2.0933934839661397e-06,1.5273904291395683e-06,8.032207930416744e-06,5.63820238985467e-05,1.0681610719931867e-06,3.075204848931268e-06,2.0119484468643145e-06,1.1944528680546554e-05,2.074015613812234e-06,1.0437728499718769e-06
111,1.0533167950659106e-06,2.688291064145497e-06,2.0269998073094377e-06,1.4571972308387669e-06,1.0105194174033799e-06,1.4193503031878386e-06,2.0880057396597763e-06,1.4886240270490028e-06,7.876650072281955e-06,5.3704681829032205e-05,1.0506872633209806e-06,3.020466349454204e-06,2.0235355113747434e-06,1.171206248745661e-05,2.0641217627597113e-06,1.0174884450286267e-06
112,1.0240792765032317e-06,2.661388387215018e-06,2.006179455029655e-06,1.4575391615048997e-06,1.018747916632574e-06,1.3990703426311396e-06,2.080387204924237e-06,1.4518657308484187e-06,7.709548161663756e-06,5.0968499735867803e-05,1.031372997739222e-06,2.9665293347482242e-06,2.035352734716331e-06,1.1535238578597178e-05,2.0471537403893543e-06,9.973860610004482e-07
113,1.0020224645967458e-06,2.626425659611072e-06,1.978209826679715e-06,1.4603821577580631e-06,1.030360490755035e-06,1.3757461484139487e-06,2.070697790184239e-06,1.4172954746425345e-06,7.5306389309521395e-06,4.8186507909213354e-05,1.0106547746514706e-06,2.913507737301857e-06,2.0472300725634415e-06,1.142205810548101e-05,2.02311060975993e-06,9.831418642048068e-07
114,9.870665555270025e-07,2.5834264106169678e-06,1.9437365976239044e-06,1.4650949475739471e-06,1.0453308694319949e-06,1.3499455287587081e-06,2.059189251271793e-06,1.3849087750645139e-06,7.338437129951593e-06,4.538168447861685e-05,9.890918924172095e-07,2.861319211038293e-06,2.0588503491497703e-06,1.1378858816483317e-05,1.9919420762138526e-06,9.743456993983194e-07
115,9.790389545053326e-07,2.5324182603442556e-06,1.9037393018628179e-06,1.4711001231967837e-06,1.0636559266124354e-06,1.3222220646196351e-06,2.0460671937196545e-06,1.3545774785629846e-06,7.130730143423294e-06,4.258200768752805e-05,9.67298346827319e-07,2.809872475724641e-06,2.069654821727687e-06,1.1410511357003466e-05,1.953812490554954e-06,9.706364904711878e-07
116,9.776460057478686e-07,2.473586094104021e-06,1.8594690383014856e-06,1.4779154181668279e-06,1.0853934616668543e-06,1.293109752125484e-06,2.0315996549452125e-06,1.3260655555677615e-06,6.9057630433716915e-06,3.9813111854060803e-05,9.458870417882605e-07,2.7591995585217038e-06,2.0789567219077677e-06,1.1521179907372271e-05,1.909239194397191e-06,9.718261467337128e-07
117,9.824629454694566e-07,2.4075053596913e-06,1.8123251456670177e-06,1.4852597493318857e-06,1.1107362177796002e-06,1.263186815703393e-06,2.0162112367153383e-06,1.2990576763564505e-06,6.663567359127204e-06,3.709516221230735e-05,9.254240813931471e-07,2.7095344844702797e-06,2.0860028277627716e-06,1.1715142595337023e-05,1.8590653591757254e-06,9.77917088913705e-07
118,9.929526555523315e-07,2.3352616027717984e-06,1.7636701196285398e-06,1.493035860092042e-06,1.1400758669420582e-06,1.233080594025426e-06,2.0003570885182386e-06,1.2732211137874302e-06,6.4063583164616425e-06,3.4443338560607726e-05,9.063751664099349e-07,2.6613465300391827e-06,2.089911957437009e-06,1.1996974984276938e-05,1.8043296194002644e-06,9.890003683418263e-07
119,1.008493367001512e-06,2.2583684218081617e-06,1.714674511171722e-06,1.5011692212396715e-06,1.1739519647206043e-06,1.2034617485658292e-06,1.984375899897313e-06,1.2482032430201907e-06,6.137823091491554e-06,3.186935432667254e-05,8.890636288865308e-07,2.6152935729449683e-06,2.0897504152378914e-06,1.237126346625759e-05,1.746139111371246e-06,1.0051282331222545e-06
120,1.0283567902146573e-06,2.1785871619356704e-06,1.6662952177364614e-06,1.5094766331043965e-06,1.2129214072374332e-06,1.1750677815602586e-06,1.968555153471061e-06,1.2235749366936744e-06,5.862106197993278e-06,2.9383204552853022e-05,8.736783560136487e-07,2.5720638371661115e-06,2.08492035157158e-06,1.2842372606084708e-05,1.6856049351137614e-06,1.0262528268544743e-06
121,1.051641161464242e-06,2.097748976579658e-06,1.619355411097471e-06,1.5176193990639587e-06,1.2574652638274802e-06,1.1486425718774065e-06,1.9532819505670275e-06,1.1988730251594425e-06,5.583111440133845e-06,2.6994537797672456e-05,8.603276429044996e-07,2.5321311875143316e-06,2.0756323706106065e-06,1.3414376490916719e-05,1.6237885905383315e-06,1.0522176872616486e-06
122,1.0772494866506352e-06,2.0175792174197356e-06,1.5745786384172613e-06,1.525132916852784e-06,1.307935240949465e-06,1.1248020229544157e-06,1.9390295189163077e-06,1.1737598845979346e-06,5.304159534871947e-06,2.4712817867761525e-05,8.490759554146392e-07,2.4955682907127327e-06,2.0631195929245565e-06,1.409097036402425e-05,1.5616584052234897e-06,1.082760341098018e-06
123,1.1040017666069963e-06,1.9395619245319786e-06,1.5325061015601672e-06,1.5315587707105758e-06,1.364521541024314e-06,1.1039674579451201e-06,1.9262731452167773e-06,1.1481170342827729e-06,5.027863640414058e-06,2.2546357445702175e-05,8.399274805954141e-07,2.4620794518624665e-06,2.0494813143404105e-06,1.4875230514292446e-05,1.5001325975558298e-06,1.1175408145955293e-06
124,1.1308515684628412e-06,1.8649219479966296e-06,1.4933926713041216e-06,1.5365884650012716e-06,1.4272664715060875e-06,1.0863839903095482e-06,1.9155527450639344e-06,1.1219614393518768e-06,4.756117979650679e-06,2.050100403945109e-05,8.328263328652838e-07,2.4312235570337593e-06,2.0372707338902676e-06,1.5769173786872375e-05,1.440169313522424e-06,1.1562345573971108e-06
125,1.1570114085010335e-06,1.7946908195206972e-06,1.4572206535442554e-06,1.5401053442561716e-06,1.4960835629580909e-06,1.0721731298437612e-06,1.9075596068912345e-06,1.0953214454089211e-06,4.490230242257686e-06,1.85791269629434e-05,8.277229693285869e-07,2.402613856436536e-06,2.029051265385746e-06,1.677303881844632e-05,1.382784795112171e-06,1.1986319925271968e-06
126,1.1818918303416815e-06,1.7297566119236263e-06,1.4238660841572208e-06,1.542164444867702e-06,1.5707330965189956e-06,1.061415852808063e-06,1.9030395154314478e-06,1.0682485894065165e-06,4.2312956731754e-06,1.6779446516617507e-05,8.246121163487561e-07,2.375910786502625e-06,2.0271070570300584e-06,1.788432342059841e-05,1.328971591510774e-06,1.2446082005737225e-06
127,1.2049934316409277e-06,1.6708514175423052e-06,1.3933306722259426e-06,1.5429728128964649e-06,1.650768346265334e-06,1.0542193597726315e-06,1.9025757480603883e-06,1.040926604043043e-06,3.98057541851431e-06,1.5098012842789014e-05,8.234671237024644e-07,2.350645452982526e-06,2.033332815216826e-06,1.90969017212512e-05,1.2795776558611517e-06,1.293980857897146e-06
128,1.2258306770308457e-06,1.6184951399148622e-06,1.36589399232821e-06,1.5428295479842879e-06,1.7354920800726701e-06,1.0506897989829966e-06,1.9064349983706408e-06,1.0137291678739059e-06,3.7394671222943968e-06,1.352984862320797e-05,8.241485650047387e-07,2.3261177032795827e-06,2.049219912292824e-06,2.0400452754157846e-05,1.2352203858096252e-06,1.3464423833036578e-06
129,1.243866378023399e-06,1.5729606220810862e-06,1.342074302471994e-06,1.5419876862079697e-06,1.82399498952815e-06,1.0508335044867839e-06,1.9145656099860034e-06,9.871798480921415e-07,3.509128305907975e-06,1.2070402509663778e-05,8.263858343165432e-07,2.3015017295629213e-06,2.0758619231272827e-06,2.178007873073303e-05,1.196278430778172e-06,1.4016451327831015e-06
130,1.2585141300467028e-06,1.534289063899631e-06,1.3224262228016825e-06,1.5405118298280147e-06,1.9152862606964794e-06,1.0544849021504768e-06,1.9266892543746332e-06,9.618546260790288e-07,3.290214010120063e-06,1.0716369822440845e-05,8.298474259614103e-07,2.276006745035187e-06,2.11394923583324e-06,2.321603454254355e-05,1.162965270448283e-06,1.4593016276250462e-06
131,1.2692503205522387e-06,1.5023391876782544e-06,1.307329724098974e-06,1.538224355840439e-06,2.008370967406431e-06,1.0613204511595353e-06,1.942340257002618e-06,9.382775916384167e-07,3.0829308701230283e-06,9.465812092649116e-06,8.342295919048335e-07,2.2489396848428267e-06,2.163752676888858e-06,2.4683743594792194e-05,1.1354271528656488e-06,1.5191454997799138e-06
132,1.2757877846879873e-06,1.4768893616144733e-06,1.2968860433274523e-06,1.5347340916293552e-06,2.1021833831711434e-06,1.0709177475191307e-06,1.9608023615728597e-06,9.168711507698159e-07,2.887187775577242e-06,8.317675043260397e-06,8.39266305035983e-07,2.219718973157509e-06,2.2250953809111744e-06,2.6154477657024875e-05,1.113787752124245e-06,1.5807940065043692e-06
133,1.2782162427134196e-06,1.4577795065639404e-06,1.2909230547865211e-06,1.52951478806593e-06,2.195455392622919e-06,1.082778787715655e-06,1.981056247109386e-06,8.97980524215576e-07,2.7027260443389847e-06,7.270983635890019e-06,8.446773209869122e-07,2.187951627992585e-06,2.297341902356288e-06,2.759730108790843e-05,1.0981513593734854e-06,1.6436471825177373e-06
134,1.276990894756228e-06,1.445002196348097e-06,1.2890780480825424e-06,1.5220530052009405e-06,2.286599904171627e-06,1.0963506822251956e-06,2.0018238889276013e-06,8.819059656216325e-07,2.5293638296062247e-06,6.324081478597316e-06,8.50152129629023e-07,2.153588804052943e-06,2.3794529699346545e-06,2.898257607398818e-05,1.0885882855829965e-06,1.7068802699940633e-06
135,1.2727468414548608e-06,1.4386673943176748e-06,1.290918985327396e-06,1.5120551955986663e-06,2.373643978554841e-06,1.1110937128900136e-06,2.021656680417629e-06,8.68906448271708e-07,2.3672527709991746e-06,5.474257582862523e-06,8.55386918805585e-07,2.11701527665793e-06,2.470048251285145e-06,3.0285997305574948e-05,1.0850790356865747e-06,1.769543883647247e-06
136,1.2660958029874452e-06,1.4388632589267883e-06,1.2960411024794433e-06,1.4995988556486328e-06,2.4542464034274882e-06,1.1265139189182928e-06,2.039045539284546e-06,8.59213978046298e-07,2.216859081111227e-06,4.717949336194933e-06,8.601143509297091e-07,2.0789277010541827e-06,2.5673769215347004e-06,3.149100995196105e-05,1.08747947463787e-06,1.8307535791390057e-06
137,1.2575894020283654e-06,1.4455559884308873e-06,1.304091540206432e-06,1.4850864009858684e-06,2.525888036884755e-06,1.142168667812654e-06,2.052661618031192e-06,8.530450255620179e-07,2.078690291791605e-06,4.0513020941730775e-06,8.641075753614144e-07,2.0401407649532346e-06,2.6692869012975087e-06,3.258820942355645e-05,1.095574613000871e-06,1.889911326429577e-06
138,1.2478216057216181e-06,1.4585989522485954e-06,1.31472828162789e-06,1.4690122308705556e-06,2.5863325098649458e-06,1.1577650588265964e-06,2.061758356312361e-06,8.505646142356955e-07,1.953029480865487e-06,3.470576172650193e-06,8.67208218492258e-07,2.0015367962425465e-06,2.7734108431542134e-06,3.3571993808571015e-05,1.109137711360067e-06,1.9468830617985333e-06
139,1.237469198792122e-06,1.4777225317829203e-06,1.327552297333633e-06,1.4517371828042398e-06,2.6341673826018573e-06,1.173265789996731e-06,2.066498759222075e-06,8.51834707695343e-07,1.839853039111065e-06,2.97214955910066e-06,8.693783113455429e-07,1.9640520774296868e-06,2.877632605426259e-06,3.4436320889410394e-05,1.1279265487188934e-06,2.0019844844629722e-06
140,1.2272120458211352e-06,1.502454989630174e-06,1.3420453559560147e-06,1.4334025560813667e-06,2.669013192709554e-06,1.1888183270796802e-06,2.067908260786181e-06,8.567949425707681e-07,1.7389288577120048e-06,2.552282796307054e-06,8.707098213600957e-07,1.9285501993930567e-06,2.980628852132814e-06,3.5173263420738676e-05,1.1516836311563406e-06,2.055732257987686e-06
141,1.2176464758166735e-06,1.5321187703664858e-06,1.3575593974269016e-06,1.4139319542160806e-06,2.6912751415102348e-06,1.2045633151262226e-06,2.0674573564993933e-06,8.652675566093533e-07,1.6499516607851482e-06,2.2069317854230828e-06,8.713730707438154e-07,1.8956846507197505e-06,3.082096540806153e-06,3.577686929823578e-05,1.180180702296143e-06,2.1085995895432015e-06
142,1.2092404794981017e-06,1.5659615704621927e-06,1.3734235051561612e-06,1.393069503600258e-06,2.7016855441822285e-06,1.220534747633844e-06,2.0665857071101733e-06,8.769664076289467e-07,1.5725776857217198e-06,1.93179948223236e-06,8.715444439750437e-07,1.8658608346965042e-06,3.182441091491091e-06,3.624925740816821e-05,1.2132574808099124e-06,2.160924636322473e-06
143,1.2023415218990175e-06,1.6032768333143408e-06,1.3891325476823975e-06,1.3704722258777675e-06,2.700895956731229e-06,1.236719137424022e-06,2.066434052029393e-06,8.915415015523825e-07,1.5063671340924345e-06,1.7226260007418563e-06,8.713628113702757e-07,1.839314855545469e-06,3.282212204121287e-06,3.660320045016196e-05,1.2508063620746396e-06,2.212823805675322e-06
144,1.1972591522724452e-06,1.6433651731014542e-06,1.4044539803781473e-06,1.3458433313641611e-06,2.689228890631658e-06,1.2531492489492671e-06,2.06780553388648e-06,9.086770437904425e-07,1.4507767149494468e-06,1.5755793760262211e-06,8.70920757839859e-07,1.8162356105994927e-06,3.3817557327148207e-06,3.685924130218083e-05,1.2927006784139048e-06,2.264062382536524e-06
145,1.1943413695641614e-06,1.6853844188191662e-06,1.4193623443960623e-06,1.319046642990366e-06,2.666678029117124e-06,1.2699082014870131e-06,2.0712676832430605e-06,9.281497904964827e-07,1.4052729814784775e-06,1.487626006113761e-06,8.702638360865636e-07,1.7967755866392592e-06,3.4811389478896962e-06,3.703982222926254e-05,1.3387287385900222e-06,2.314041858190683e-06
146,1.1939380818829839e-06,1.7282552228820068e-06,1.4338736743002297e-06,1.290138132531636e-06,2.633191335836439e-06,1.2870699831771768e-06,2.07729825658858e-06,9.497718551955322e-07,1.3694159286505608e-06,1.4567088276400974e-06,8.694412140375129e-07,1.7809992423270688e-06,3.580164665046551e-06,3.716403112592581e-05,1.3886209951619929e-06,2.3619616689309865e-06
147,1.1962848439234004e-06,1.7707134258105787e-06,1.4478863883314668e-06,1.259295709424835e-06,2.589032934572723e-06,1.30468082088237e-06,2.086342856279383e-06,9.7331354572738e-07,1.3427794324050967e-06,1.4815604979682638e-06,8.68635515204274e-07,1.768959972645408e-06,3.678501751864655e-06,3.724552811909813e-05,1.4421395132182406e-06,2.4069927042219855e-06
148,1.2014251171917736e-06,1.8114965649786167e-06,1.4610786352877055e-06,1.2267347741752998e-06,2.5349489250920077e-06,1.3227649802736978e-06,2.0987216194591127e-06,9.985321716734335e-07,1.3248189496171728e-06,1.5613152217038694e-06,8.682300926693269e-07,1.760830336548451e-06,3.775990769703443e-06,3.7293882292043716e-05,1.4990821722354825e-06,2.4482598206418285e-06
149,1.2092111811764099e-06,1.849564356644111e-06,1.4728889113329862e-06,1.1927183047514691e-06,2.4721107805992916e-06,1.341264018667577e-06,2.114486447313165e-06,1.0252716912700164e-06,1.3148320944716521e-06,1.6953349662366448e-06,8.687054202082605e-07,1.756865687118594e-06,3.872868273508355e-06,3.7317255089177925e-05,1.5591554143349845e-06,2.4846633169230732e-06
150,1.2193456596665063e-06,1.8841895890516634e-06,1.4826218401059437e-06,1.1576107535706614e-06,2.4019948013724465e-06,1.359964206222678e-06,2.1333537524112956e-06,1.0535016218309107e-06,1.3119844279985426e-06,1.8834030549431112e-06,8.704866127533163e-07,1.7572054269616739e-06,3.969610844878093e-06,3.7324371198554394e-05,1.6218340408096073e-06,2.5147972065777356e-06
151,1.2314460196574925e-06,1.9148757184624684e-06,1.4896764812700276e-06,1.1218622271408392e-06,2.3262832768181868e-06,1.3785365022470747e-06,2.154722576185727e-06,1.0832358908642726e-06,1.3153384000255564e-06,2.126049059315561e-06,8.738946982442452e-07,1.7616893617138553e-06,4.066569435795979e-06,3.732514428307598e-05,1.6863225073584566e-06,2.537124736795335e-06
152,1.2451214943140118e-06,1.941253197582446e-06,1.4937954065812847e-06,1.085947782543659e-06,2.2467600404385743e-06,1.3966553688264231e-06,2.177727842634521e-06,1.1144067990191303e-06,1.3238808011635202e-06,2.4246922084484556e-06,8.792016468386332e-07,1.769798612916655e-06,4.163820150685826e-06,3.732995882933678e-05,1.7516155382582213e-06,2.550290317266556e-06
153,1.2600183080655006e-06,1.963061630274144e-06,1.495189231885463e-06,1.0503169187699664e-06,2.165196385947017e-06,1.4140590067018162e-06,2.201303455242093e-06,1.146836206255858e-06,1.3365380442208691e-06,2.781476996306034e-06,8.866949960949644e-07,1.7807236714597423e-06,4.261313471932457e-06,3.7347568283188465e-05,1.8165589542765614e-06,2.5533430723054737e-06
154,1.275809235827993e-06,1.980120078592719e-06,1.494444365433334e-06,1.0153409750335331e-06,2.0832811780241893e-06,1.430533117506308e-06,2.224242869343272e-06,1.1803544997802298e-06,1.3522190488942961e-06,3.1989650768937385e-06,8.966693768672256e-07,1.7935284254687831e-06,4.35911160568158e-06,3.7382082479563044e-05,1.8798326332237955e-06,2.5457997468605876e-06
155,1.292215003829882e-06,1.992216380652073e-06,1.492284653756518e-06,9.813079997063242e-07,2.002600971333604e-06,1.4459050558875506e-06,2.2452412038896635e-06,1.214930321979309e-06,1.369907614091113e-06,3.679960131270938e-06,9.093481214733169e-07,1.8073264972276404e-06,4.4575096669486975e-06,3.7430534983032e-05,1.9399021691533943e-06,2.527640055422098e-06
156,1.309147148075498e-06,1.999077866235917e-06,1.4893762654431658e-06,9.48524088739408e-07,1.924604763932124e-06,1.4600405095318838e-06,2.2629378530461556e-06,1.2506566506870481e-06,1.3887105275512604e-06,4.227509525699099e-06,9.248073613587302e-07,1.8213691480121597e-06,4.556877392910779e-06,3.748220196956889e-05,1.995033057147718e-06,2.4993202912981373e-06
157,1.3268550350425429e-06,2.000530344865139e-06,1.4862454965129137e-06,9.174145244869271e-07,1.8505341332612162e-06,1.4727611873107078e-06,2.2760106370221887e-06,1.2876715639756098e-06,1.4078702559432213e-06,4.84490482625868e-06,9.429459092783617e-07,1.8350436686302832e-06,4.657305393093407e-06,3.751910445294448e-05,2.043407643347605e-06,2.461788787981319e-06
158,1.345909189882994e-06,1.996641916629409e-06,1.4832523607096796e-06,8.884849410889585e-07,1.781375191148129e-06,1.4837079614981825e-06,2.2833248693160815e-06,1.3261629462588992e-06,1.4268484539231464e-06,5.535570838692026e-06,9.634833078828786e-07,1.8478489114609121e-06,4.758415919976707e-06,3.751712623369743e-05,2.083357689664841e-06,2.4164188605571665e-06
159,1.3670445394370977e-06,1.9876494860535227e-06,1.4806084838276291e-06,8.62190311685566e-07,1.7178449507004013e-06,1.4922585913634474e-06,2.2840548291034983e-06,1.3663802054110594e-06,1.4454214527737505e-06,6.3028751283467615e-06,9.859735608094886e-07,1.8593789483510636e-06,4.8594571136167615e-06,3.7448898000928234e-05,2.1136635905338464e-06,2.364803588251596e-06
160,1.3909756601288681e-06,1.9737908674302865e-06,1.4784204114887487e-06,8.388589538050582e-07,1.6603718198285682e-06,1.4975691740782803e-06,2.27769175106646e-06,1.4085372021126736e-06,1.4637323698910726e-06,7.149910791818609e-06,1.0098702102110446e-06,1.8693137045561517e-06,4.959447144460745e-06,3.72887472818784e-05,2.1337509404996924e-06,2.3084787382422656e-06
161,1.4182467992922015e-06,1.955290224948711e-06,1.476685748976875e-06,8.187095144486736e-07,1.6090869301789908e-06,1.4987628382604752e-06,2.2639690841530876e-06,1.4526935076260325e-06,1.4823786749071447e-06,8.079225730487689e-06,1.0346692792283093e-06,1.8774066504435172e-06,5.057180554090674e-06,3.7017260795059506e-05,2.1436241228350374e-06,2.248744683927459e-06
162,1.4491424954424285e-06,1.9324830076610664e-06,1.4752554338482678e-06,8.018886390859461e-07,1.563865881418442e-06,1.495219335056659e-06,2.24283044824766e-06,1.4987248186847533e-06,1.5024329206595685e-06,9.092431274125694e-06,1.0600683650509216e-06,1.8834413961346739e-06,5.151079358906206e-06,3.6623105472176076e-05,2.1435506645878124e-06,2.186712542325781e-06
163,1.4836589824001555e-06,1.9058669721104566e-06,1.4738321235681022e-06,7.884718779840308e-07,1.52441397655608e-06,1.4868042903726354e-06,2.2144395927176995e-06,1.546345945743885e-06,1.5252379582138397e-06,1.0189779611500043e-05,1.086021684945767e-06,1.8871489885869633e-06,5.2390868453829165e-06,3.610187288412814e-05,2.1337114336691377e-06,2.1234832702732005e-06
164,1.5214969229035135e-06,1.8760591591645883e-06,1.4719788818515324e-06,7.784279178341048e-07,1.4903905644360301e-06,1.4738747112361492e-06,2.179093360030533e-06,1.5951280442486995e-06,1.5521457789683543e-06,1.1369888138063492e-05,1.1126384436487603e-06,1.8881665384942862e-06,5.318776245771127e-06,3.545266333662444e-05,2.1141064694744675e-06,2.060244191370726e-06
165,1.5620519673946144e-06,1.8437850917601535e-06,1.4691098055707432e-06,7.715928280668316e-07,1.4615344679631977e-06,1.457062765616624e-06,2.137099549582535e-06,1.6445675843909676e-06,1.5843875785073427e-06,1.2629603804706479e-05,1.1400164784286325e-06,1.886133712561873e-06,5.387404318352792e-06,3.467439665000168e-05,2.0848151541920796e-06,1.998214294018512e-06
166,1.6044523755587766e-06,1.8098457502992554e-06,1.4645214009067585e-06,7.677030033900635e-07,1.4376801241056544e-06,1.4370249644424596e-06,2.0888064952031246e-06,1.6942765229850972e-06,1.6229962182797292e-06,1.3963904208423884e-05,1.1681812172184132e-06,1.8808467020522988e-06,5.441703441255094e-06,3.376518402045964e-05,2.046389447793239e-06,1.9385039432921973e-06
167,1.647651995506612e-06,1.774975083380188e-06,1.457480470482695e-06,7.664558716635118e-07,1.4186613037454847e-06,1.4143530281534716e-06,2.034738859632668e-06,1.7441970171201957e-06,1.6687212217199615e-06,1.5365720808675303e-05,1.1971779900343183e-06,1.872301506168171e-06,5.477818193877563e-06,3.272539947723437e-05,2.0000518784181737e-06,1.8819672678738078e-06
168,1.6905425475673662e-06,1.7397322290378697e-06,1.4473229101063782e-06,7.675447779669363e-07,1.4042561383493538e-06,1.3896336907495185e-06,1.975721157052819e-06,1.7946422377467446e-06,1.7219970730750832e-06,1.6825492596919417e-05,1.2271498560174094e-06,1.860641618843519e-06,5.491765128190334e-06,3.1561137591007955e-05,1.9475706883328926e-06,1.8291343675971792e-06
169,1.7321769752312143e-06,1.7045712402570277e-06,1.4335440103439076e-06,7.707072448207335e-07,1.3942158609450455e-06,1.363478361643032e-06,1.912947510564029e-06,1.846119217023921e-06,1.7829899175452201e-06,1.833045409524126e-05,1.2582545532740495e-06,1.8461256523095807e-06,5.480174016133174e-06,3.0285332300943427e-05,1.8909527396790572e-06,1.7802457233326744e-06
170,1.7721057698355658e-06,1.6699856174582767e-06,1.4158851499392e-06,7.758204654155639e-07,1.3882501457252182e-06,1.336462519998177e-06,1.8479242839493425e-06,1.8991428317949298e-06,1.8516659938183323e-06,1.986398910059324e-05,1.2905005290217538e-06,1.829119900226824e-06,5.440786073262111e-06,2.891622546106051e-05,1.832154567845166e-06,1.7353340713095378e-06
171,1.8105060750128615e-06,1.6365649715897378e-06,1.3944105522835999e-06,7.829654756002876e-07,1.3859320941324979e-06,1.3090852334166163e-06,1.78227988479753e-06,1.95425294308706e-06,1.927855822026841e-06,2.140544392023512e-05,1.3236564107913028e-06,1.810072992108746e-06,5.372366022434704e-06,2.7473954739772602e-05,1.7728907142497883e-06,1.6942939890964717e-06
172,1.8479503442361344e-06,1.604948507006701e-06,1.3695335711405307e-06,7.923804672620344e-07,1.3866187858600394e-06,1.2817780859237855e-06,1.7175537384717016e-06,2.012145516401913e-06,2.0113810423270093e-06,2.293075456940378e-05,1.3572725294989489e-06,1.789465983080049e-06,5.2743115946975824e-06,2.5977446137257778e-05,1.714546726404463e-06,1.656877319979867e-06
173,1.885147314642371e-06,1.5757515826515927e-06,1.3419500892358313e-06,8.043310890452933e-07,1.3894641497632697e-06,1.2548881430384904e-06,1.6550673008382196e-06,2.0736640301290615e-06,2.1022533291172914e-06,2.44139715618817e-05,1.3907396477442013e-06,1.7677254562128152e-06,5.14680177326266e-06,2.4443829953233678e-05,1.6582029874919269e-06,1.6226144975213495e-06
174,1.9228847989347554e-06,1.5495066143624107e-06,1.3124901747801788e-06,8.190023218794285e-07,1.3935537519741098e-06,1.228661949667167e-06,1.5958971805124824e-06,2.1395983258408513e-06,2.2008654569027622e-06,2.5829159086001794e-05,1.4233131280451642e-06,1.7451121949886795e-06,4.991586631577006e-06,2.2889679150029096e-05,1.604742693029226e-06,1.590772903658306e-06
175,1.9619898916245334e-06,1.5266101167670866e-06,1.2819597531729414e-06,8.36481021937829e-07,1.3980885827618302e-06,1.2033178530100169e-06,1.540888952006811e-06,2.210454807273663e-06,2.308067898092089e-06,2.715171849952261e-05,1.454152270757752e-06,1.7216550892720759e-06,4.812397546766763e-06,2.133179096888535e-05,1.5549547570970067e-06,1.5604249947147926e-06
176,2.0031885856245302e-06,1.5072826702442112e-06,1.2510532186708726e-06,8.56790339104254e-07,1.4024518405696332e-06,1.17916430876946e-06,1.4906764127841915e-06,2.28636033352543e-06,2.425017039054896e-06,2.835821197134597e-05,1.482466726060681e-06,1.697195696725254e-06,4.614356138327918e-06,1.978663943733715e-05,1.5095352574255716e-06,1.530571269909449e-06
177,2.0469676956080577e-06,1.4915776818752568e-06,1.2203251713212279e-06,8.799247701946134e-07,1.4061778292760645e-06,1.1566266366144527e-06,1.4457248020475638e-06,2.367127098838646e-06,2.5528971689473297e-06,2.942548337028315e-05,1.5077017791072934e-06,1.6715593968553134e-06,4.402885864322356e-06,1.826902382563778e-05,1.4690170804162084e-06,1.5002617838753427e-06
178,2.0934907502776757e-06,1.4794473344544833e-06,1.1901566710426751e-06,9.058806111358364e-07,1.4090157901704062e-06,1.136147749019423e-06,1.406350692494314e-06,2.4523483255999548e-06,2.692853189973176e-06,3.033238603612073e-05,1.52957384156331e-06,1.6447529212803202e-06,4.1828787481784146e-06,1.6790959557466213e-05,1.4337345908933657e-06,1.4687276656565832e-06
179,2.1425618728492676e-06,1.4708144207365845e-06,1.1607538665766968e-06,9.346517728953355e-07,1.411046937891656e-06,1.118074116937781e-06,1.3726681685780777e-06,2.54137826339504e-06,2.8462444392704313e-06,3.106484728976968e-05,1.5479187867913437e-06,1.6170174076688285e-06,3.9584123156383486e-06,1.5361610352268114e-05,1.4038263046762435e-06,1.435526202284717e-06
180,2.1936324639017976e-06,1.465587336699434e-06,1.132247393295588e-06,9.661954656339907e-07,1.412622953696486e-06,1.1026110664369838e-06,1.3445208594921456e-06,2.633232729670003e-06,3.0149084370834392e-06,3.1619124415059753e-05,1.5625613223684455e-06,1.5887207121369715e-06,3.732888831666593e-06,1.3988011053929167e-05,1.3792228962137542e-06,1.4006340436225202e-06
181,2.2457995478892308e-06,1.4636114120135622e-06,1.1048346472540663e-06,1.0004268029543578e-06,1.4141289748153747e-06,1.0898188406093638e-06,1.3214681137558723e-06,2.7265943533818903e-06,3.2010929169357277e-06,3.199902093868244e-05,1.573375196776128e-06,1.5602285509085135e-06,3.5092532879126984e-06,1.267586686306035e-05,1.3596273683877031e-06,1.3643952480106387e-06
182,2.2977717625099385e-06,1.4645931774121923e-06,1.0788488321961113e-06,1.037224583427548e-06,1.4158144316769424e-06,1.0795957686646703e-06,1.3028415265285148e-06,2.820010546084724e-06,3.40711758002472e-06,3.2209878243004934e-05,1.580424461149178e-06,1.5318268103266171e-06,3.2899992020449784e-06,1.1430113520609709e-05,1.3445183544240451e-06,1.3273448521023496e-06
183,2.3478684847651715e-06,1.468028582288371e-06,1.0547132879269792e-06,1.0764043825277526e-06,1.4178469527763657e-06,1.0716519977578307e-06,1.287869299237294e-06,2.9121780376263234e-06,3.635108602792828e-06,3.225562308274326e-05,1.5840019206543617e-06,1.5036859413197611e-06,3.077013987502858e-06,1.0255175285345183e-05,1.3331963653272265e-06,1.2900961457305602e-06
184,2.3941828203192893e-06,1.4731778998787633e-06,1.0328283058695672e-06,1.1176847449568049e-06,1.4204747031913926e-06,1.0655378419590636e-06,1.2757894907735348e-06,3.0021549130369523e-06,3.8868749057135125e-06,3.214133797621871e-05,1.584592018238378e-06,1.4758733534319518e-06,2.8715025456934034e-06,9.154911757146803e-06,1.3248784229992523e-06,1.2534090333282655e-06
185,2.4349610832303027e-06,1.479145351953362e-06,1.013473780727422e-06,1.160662321102322e-06,1.4240596409630773e-06,1.0607624477675045e-06,1.2658681008960767e-06,3.089411055277245e-06,4.1637266504972324e-06,3.1877840443179345e-05,1.582896755843187e-06,1.4483833737469038e-06,2.6740623353035175e-06,8.132326493532708e-06,1.3188123158589548e-06,1.21827720934253e-06
186,2.4689407381492904e-06,1.4850732590037272e-06,9.96773479445007e-07,1.2047931917047747e-06,1.4289441188902256e-06,1.0569178956903069e-06,1.2574106121388662e-06,3.1737131658564477e-06,4.466248872925836e-06,3.1483119669761984e-05,1.5798836362879497e-06,1.4211764328045527e-06,2.4848671735970358e-06,7.189201895758725e-06,1.3143714983800188e-06,1.1858409825144139e-06
187,2.4953317545179258e-06,1.490388638343396e-06,9.82701147830675e-07,1.24944272617643e-06,1.4353138089834058e-06,1.0536975302539628e-06,1.2498565586211755e-06,3.254909530599379e-06,4.794184799697122e-06,3.097924949746794e-05,1.5766842803518478e-06,1.39430726997726e-06,2.3039430496759364e-06,6.325971028054684e-06,1.3110927897917713e-06,1.157204886964694e-06
188,2.5136109626221704e-06,1.4949780456251744e-06,9.711261616057743e-07,1.2940518378094794e-06,1.4431544771242546e-06,1.0508800071778544e-06,1.2428517636922701e-06,3.3326921337139217e-06,5.146433859147735e-06,3.038861047678592e-05,1.5743583548266722e-06,1.3680973333383696e-06,2.1314575766585077e-06,5.541944252596137e-06,1.3086069184587994e-06,1.133332099870097e-06
189,2.52351375992118e-06,1.4991449071722538e-06,9.619164002488022e-07,1.3383294376515014e-06,1.4523143549026773e-06,1.0484233379596088e-06,1.2362193785257497e-06,3.4064321608180724e-06,5.5210493769017595e-06,2.9733021273041615e-05,1.5737112317563448e-06,1.3431877150823317e-06,1.967847362082597e-06,4.835540300075487e-06,1.3064905189147115e-06,1.1150227224407173e-06
190,2.5251545116415443e-06,1.503355939415777e-06,9.550331027289606e-07,1.382336574559775e-06,1.4626582115509061e-06,1.0465744674500749e-06,1.2299122079170804e-06,3.475244769819142e-06,5.915155383174171e-06,2.9033872021499665e-05,1.5752596880348114e-06,1.320434143076317e-06,1.8137108067195862e-06,4.204283032436029e-06,1.3041547347857019e-06,1.102911317820846e-06
191,2.518975794327703e-06,1.5080051146650893e-06,9.50535548678446e-07,1.4264157453165003e-06,1.474224385923663e-06,1.045810285328278e-06,1.2239987354628497e-06,3.5382895611161958e-06,6.324856458810128e-06,2.8310519737923257e-05,1.5792746301945914e-06,1.3007129738022925e-06,1.6696535790678301e-06,3.6447695414137063e-06,1.300833211430405e-06,1.0974760039776365e-06
192,2.5055299903340526e-06,1.5133363448302917e-06,9.485101397291579e-07,1.4710135155874194e-06,1.4872928657006525e-06,1.0466693273083466e-06,1.2186381727714785e-06,3.595043871599504e-06,6.745230161403133e-06,2.7578521312060867e-05,1.5858009942874594e-06,1.284745944646139e-06,1.5362546688545121e-06,3.1528089866399964e-06,1.2956850102802216e-06,1.0990695572387218e-06
193,2.4852653356303974e-06,1.5194204559432457e-06,9.489832330014026e-07,1.5165299118425638e-06,1.5023661919444245e-06,1.0496464389143788e-06,1.214070986420783e-06,3.64535277212443e-06,7.1703336631943e-06,2.6849369131101133e-05,1.594646402381403e-06,1.2730563863404504e-06,1.4140493479282989e-06,2.7236703854980587e-06,1.28798213112112e-06,1.107952660231724e-06
194,2.458452266724687e-06,1.526116776348799e-06,9.518632263368869e-07,1.5633067071849012e-06,1.5201074955632107e-06,1.05520649829811e-06,1.210663866399507e-06,3.6893170456944254e-06,7.593106903861814e-06,2.613053232800256e-05,1.6053614269931505e-06,1.2660291327113618e-06,1.3034610813110973e-06,2.3523134147913724e-06,1.2772605708315508e-06,1.1243159755018577e-06
195,2.4253874263088164e-06,1.5330867958560742e-06,9.569403601267887e-07,1.6116863200787828e-06,1.541241369487642e-06,1.063852526187993e-06,1.208903399351966e-06,3.7271333968962586e-06,8.005156252430486e-06,2.542552160563068e-05,1.6172121963492297e-06,1.2639308495686e-06,1.2047768157966014e-06,2.0336798021413972e-06,1.2633837309116164e-06,1.1482948501725322e-06
196,2.3868006141268725e-06,1.5399326240432148e-06,9.63936162314541e-07,1.6619864948739452e-06,1.566427327966018e-06,1.0761260699296985e-06,1.2093244482371448e-06,3.758939234983622e-06,8.396563354495595e-06,2.4734697562406225e-05,1.629204392516359e-06,1.2668500928529468e-06,1.1181551168718076e-06,1.7630651246237885e-06,1.2465700739737485e-06,1.1799390227051967e-06
197,2.344076738212574e-06,1.5464375254342378e-06,9.725798147517945e-07,1.7143760047014727e-06,1.5961807106564145e-06,1.0925280201033237e-06,1.212481004466288e-06,3.784718069333046e-06,8.756033113296734e-06,2.4055694597334744e-05,1.6402110673555112e-06,1.2746355764299164e-06,1.0435965711517728e-06,1.536228838686124e-06,1.2273568052245836e-06,1.2191404416764455e-06
198,2.299040669485927e-06,1.5527374965018501e-06,9.827004766221901e-07,1.7687718485008373e-06,1.6308556535166665e-06,1.113453991940437e-06,1.2189366355450417e-06,3.8042851964634327e-06,9.071753599360771e-06,2.3382700458148705e-05,1.6491096901264832e-06,1.2868812855678747e-06,9.80899350494792e-07,1.3491180968693302e-06,1.206441361292206e-06,1.265628834405343e-06
199,2.2534959116801228e-06,1.5592882298922952e-06,9.942755916423303e-07,1.824811694513562e-06,1.6706033945598854e-06,1.1391455210386337e-06,1.2292653297230463e-06,3.817245705253728e-06,9.332898419743348e-06,2.2705702759595295e-05,1.6547997936103133e-06,1.3029814607551982e-06,9.296442862667293e-07,1.1976029524336932e-06,1.184493083027823e-06,1.3190558605292566e-06
200,2.2088597696031656e-06,1.5666989617253214e-06,1.0073722913743056e-06,1.8818574863147529e-06,1.7152972497126702e-06,1.1696284026447036e-06,1.2440826245201957e-06,3.8228981250693484e-06,9.530838742672057e-06,2.201064451911558e-05,1.6561658490269028e-06,1.3222621410327484e-06,8.892172309924972e-07,1.0774967396385555e-06,1.1620947486385975e-06,1.3790306947628826e-06
201,2.16603413548298e-06,1.5755682380249498e-06,1.0220694795103654e-06,1.9390445727397184e-06,1.7644848301262768e-06,1.2046830185111684e-06,1.2640090490705928e-06,3.820306608172259e-06,9.65904205088005e-06,2.1281408340297226e-05,1.6521873296616258e-06,1.3441059718733305e-06,8.588480424311397e-07,9.846981193185125e-07,1.1398122932696471e-06,1.4450524642497778e-06
202,2.125466675836192e-06,1.5863674034953584e-06,1.038454570628418e-06,1.995404876528436e-06,1.8173953981454197e-06,1.2438795875399954e-06,1.2895823700631642e-06,3.808622333070881e-06,9.712093108958287e-06,2.0503972876440358e-05,1.6422308797963501e-06,1.3679958456656706e-06,8.376474896330556e-07,9.152744485072876e-07,1.1182433780042546e-06,1.516441451931096e-06
203,2.0873322882675114e-06,1.5993642058409796e-06,1.05661053395118e-06,2.0499884897781424e-06,1.8730396832779165e-06,1.2866601859766743e-06,1.3212363437159704e-06,3.7873731382546076e-06,9.685751913550023e-06,1.9669674363523364e-05,1.6263144381270084e-06,1.3935241604482236e-06,8.24653645515269e-07,8.655305010905856e-07,1.097964262335739e-06,1.5923414755231947e-06
204,2.0517574317455057e-06,1.6145808653676001e-06,1.0765426604977449e-06,2.101914584770167e-06,1.930374759228066e-06,1.3324082853551546e-06,1.35929688674329e-06,3.756523498303868e-06,9.57886312411994e-06,1.8774532953894497e-05,1.6051308433346452e-06,1.4203882264584494e-06,8.188976175245167e-07,8.320638152759862e-07,1.0794295788643926e-06,1.6717598050669523e-06
205,2.0190049837091915e-06,1.6317968205044978e-06,1.0981206598769537e-06,2.1503798266766295e-06,1.9883742302859674e-06,1.3804378298828369e-06,1.403914353701171e-06,3.7164228902558483e-06,9.39529780406864e-06,1.7817831698849187e-05,1.5798069397259807e-06,1.448319088143062e-06,8.194739444258191e-07,8.11756017845111e-07,1.062903793716553e-06,1.753621505261152e-06
206,1.9895627556345806e-06,1.6506491238139361e-06,1.1210675991870986e-06,2.194684754004891e-06,2.0459459334792926e-06,1.4299251490671419e-06,1.4549831636278656e-06,3.667787234015538e-06,9.14375306907365e-06,1.6803874921245657e-05,1.5515440664213445e-06,1.4770369665830056e-06,8.255949599630852e-07,8.018207774084585e-07,1.0484417627063464e-06,1.8368586125770716e-06
207,1.96408365759811e-06,1.6708362312401294e-06,1.1450068699742265e-06,2.23430686129926e-06,2.1018775312946646e-06,1.4799203534584814e-06,1.512101594060012e-06,3.611667359427728e-06,8.835509386329303e-06,1.574383340667699e-05,1.5213420467588113e-06,1.5063598594611917e-06,8.366051315997984e-07,7.999461974781375e-07,1.035890283990172e-06,1.9204616913309245e-06
208,1.9431836052096614e-06,1.692281752413667e-06,1.1695816946685475e-06,2.2689799244450733e-06,2.154944418022801e-06,1.5295035043272066e-06,1.574549850595043e-06,3.5492636700579262e-06,8.482210608005143e-06,1.465373764129973e-05,1.4899075912274773e-06,1.5363368459300332e-06,8.519322603615015e-07,8.043237808526657e-07,1.0249035284929518e-06,2.003428742925104e-06
209,1.9272453393083198e-06,1.7151198221767228e-06,1.1945770436548708e-06,2.298676317765857e-06,2.2040767972326933e-06,1.5779282909754022e-06,1.6412683911244125e-06,3.48163980648357e-06,8.09506836334143e-06,1.3550521969155099e-05,1.4576765329374033e-06,1.567245017728523e-06,8.709981332838006e-07,8.1347603609987e-07,1.0149830963422944e-06,2.084745734460816e-06
210,1.9163906390789295e-06,1.7395291459741584e-06,1.2199669968822624e-06,2.3234290134480933e-06,2.2484423988763803e-06,1.6245724420959473e-06,1.7108629415040805e-06,3.409642982698897e-06,7.68479489492995e-06,1.2449530363134153e-05,1.4248767388857769e-06,1.5995053004051774e-06,8.931563131556592e-07,8.260807702876344e-07,1.0055440086021239e-06,2.1635328781802047e-06
211,1.9105667962513657e-06,1.7655507604388253e-06,1.2459052836823287e-06,2.343083618285691e-06,2.287442419386264e-06,1.6687727650893048e-06,1.7816829848465835e-06,3.334131892288304e-06,7.261241543003929e-06,1.136395812495209e-05,1.3916469102134077e-06,1.6336086950366062e-06,9.176811880704882e-07,8.409911023944844e-07,9.960272196323006e-07,2.2392511135619927e-06
212,1.9095583773879775e-06,1.7929903770278671e-06,1.2727026182709447e-06,2.3571672415223463e-06,2.3207283434429937e-06,1.709803451116682e-06,1.8519980545945597e-06,3.2561854670727014e-06,6.832893708560431e-06,1.0305130873418399e-05,1.3581757383584934e-06,1.6700336541377445e-06,9.437776814997391e-07,8.573835285190317e-07,9.86047948206822e-07,2.3117527782177854e-06
213,1.912903517030906e-06,1.8213905303458785e-06,1.300778968659326e-06,2.3649618868471996e-06,2.348324223453456e-06,1.747108674590394e-06,1.9202290502777916e-06,3.1770238919382264e-06,6.406732272322399e-06,9.282908260268089e-06,1.3247715390529245e-06,1.7091134114064523e-06,9.706117709394474e-07,8.748094653153808e-07,9.754954132937294e-07,2.381123943800335e-06
214,1.9198344945005476e-06,1.850042586000936e-06,1.3305675803542808e-06,2.3657375945665815e-06,2.3708027757115566e-06,1.780591016747275e-06,1.9851494455918706e-06,3.0977259856759744e-06,5.9884655941292605e-06,8.305866396227584e-06,1.2918277812801919e-06,1.7508955927629892e-06,9.974132804625531e-07,8.93092261794068e-07,9.64523035005243e-07,2.447459933405091e-06
215,1.929301603753376e-06,1.8780470761845587e-06,1.3624048335308204e-06,2.3590718046958873e-06,2.3893573773545915e-06,1.8106516759607723e-06,2.0459833330469912e-06,3.0189678150407313e-06,5.582800065292945e-06,7.381146912403147e-06,1.2597255800517135e-06,1.7950641868356013e-06,1.0236232473446374e-06,9.121994984237324e-07,9.534367603266354e-07,2.510687863967004e-06
216,1.940092120907925e-06,1.904379125916555e-06,1.3964555572146417e-06,2.3451285317131683e-06,2.4056473621201812e-06,1.83792136215541e-06,2.10234530136753e-06,2.940963320854564e-06,5.193586385222888e-06,6.514234481329261e-06,1.2287625240495662e-06,1.840940453405094e-06,1.048925489327821e-06,9.321520870367314e-07,9.425309473662676e-07,2.5704630006073805e-06
217,1.9510182881759913e-06,1.92793358873585e-06,1.4326716635540335e-06,2.324731169447554e-06,2.4214486594710107e-06,1.8629180775517494e-06,2.154026905743583e-06,2.8636300378045928e-06,4.823911381244524e-06,5.7089492952768225e-06,1.1991714901740206e-06,1.887613361712202e-06,1.0731180489105384e-06,9.529408550521403e-07,9.319591899516537e-07,2.6262436686543604e-06
218,1.961100351310798e-06,1.947605488983615e-06,1.4707567662631344e-06,2.2991813272252964e-06,2.438283078375585e-06,1.8858532607908572e-06,2.2007759102597374e-06,2.7868011310217596e-06,4.476130721826866e-06,4.967652520421775e-06,1.1711977793555107e-06,1.934249472986636e-06,1.0959970444970995e-06,9.74460279797517e-07,9.217242582031036e-07,2.6776220642166325e-06
219,1.9696791955403058e-06,1.962426958073701e-06,1.5101300479784893e-06,2.269923642568245e-06,2.4571876883182e-06,1.9065985273074166e-06,2.242234333235838e-06,2.710325498147591e-06,4.1518358735690475e-06,4.29149318333819e-06,1.1451246094139828e-06,1.9804030971669598e-06,1.1174043315796962e-06,9.964829474895029e-07,9.118001196954082e-07,2.72470151681468e-06
220,1.976403063892201e-06,1.9716908323969953e-06,1.5499117526581537e-06,2.2382014842134505e-06,2.478647137551644e-06,1.924717371365188e-06,2.277992611269476e-06,2.6341218154914404e-06,3.851838481496217e-06,3.680598809060823e-06,1.121193263147485e-06,2.0260339166887457e-06,1.1373764424500358e-06,1.018678380763347e-06,9.022710199309304e-07,2.7682030563985554e-06
221,1.981072882509146e-06,1.974950907740212e-06,1.5889880491832017e-06,2.2048480542515125e-06,2.502604412072184e-06,1.9394880326178894e-06,2.3076607049975678e-06,2.558274783938485e-06,3.5761978717048785e-06,3.1342314656443605e-06,1.0995134840167266e-06,2.0712586203789865e-06,1.1561848711005618e-06,1.0406755230008723e-06,8.933437655427114e-07,2.809225870817638e-06
222,1.983423885850512e-06,1.9718543115956125e-06,1.6262001620250285e-06,2.1703199357531997e-06,2.528480453187554e-06,1.9499675972705335e-06,2.331041471370312e-06,2.483055706698171e-06,3.324357333989942e-06,2.6509397693218404e-06,1.0800631984096084e-06,2.116182867503967e-06,1.1742222565057263e-06,1.0621742731869553e-06,8.852755604083705e-07,2.8488360150403154e-06
223,1.9829896896862742e-06,1.9619304563156233e-06,1.6606068587788378e-06,2.134942311568611e-06,2.5551960380185203e-06,1.9551913776136634e-06,2.3484283642004e-06,2.408809640795096e-06,3.0954487883456093e-06,2.2287043609884854e-06,1.0627598515744615e-06,2.160985725800398e-06,1.1918820121671615e-06,1.0830618306931462e-06,8.78333942322615e-07,2.887731592860455e-06
224,1.9791815263073516e-06,1.9445692838687225e-06,1.6916995701510372e-06,2.0991622367664674e-06,2.5812063046697663e-06,1.954453908275773e-06,2.360774750899923e-06,2.3359240950017222e-06,2.8886012397812267e-06,1.8650586158359763e-06,1.0475371940604192e-06,2.2060887706195356e-06,1.2094771906525437e-06,1.1034076748214115e-06,8.727874818318598e-07,2.9261594111757524e-06
225,1.971569255913878e-06,1.9192996176701434e-06,1.7194765886734964e-06,2.063599262214528e-06,2.6046002578101523e-06,1.9475378765577756e-06,2.3695150180939275e-06,2.2649375383944634e-06,2.7030054545218226e-06,1.5571990194195859e-06,1.0343633536714967e-06,2.2521885581316433e-06,1.227178061309286e-06,1.1233109267332446e-06,8.689124989448599e-07,2.9640475096114386e-06
226,1.960178275370829e-06,1.8862135831342436e-06,1.7443510990468347e-06,2.0288852995976778e-06,2.6233444731112546e-06,1.934785434567629e-06,2.3761512712053667e-06,2.196523054938677e-06,2.537714437082384e-06,1.3020949677234863e-06,1.0231931436407322e-06,2.3000668797377835e-06,1.244997948500086e-06,1.1427540383610904e-06,8.669978365911531e-07,3.001118821216817e-06
227,1.9456224089626e-06,1.8462225832468145e-06,1.7669375750440116e-06,1.9954879320211005e-06,2.63560501044041e-06,1.9169479043601795e-06,2.381913582695981e-06,2.1312991642471326e-06,2.391419758777884e-06,1.0965324820398776e-06,1.013925283107607e-06,2.3502897508822636e-06,1.2628132203493089e-06,1.1616059495170972e-06,8.672938049143853e-07,3.0368386731109836e-06
228,1.9290196555979315e-06,1.8009350941787147e-06,1.7878171997911865e-06,1.9637070248238226e-06,2.6399766761044457e-06,1.8949067284792865e-06,2.387629270375473e-06,2.0697001293298226e-06,2.262442885616682e-06,9.37092120138046e-07,1.0063830544616856e-06,2.403027904292059e-06,1.2804007837528234e-06,1.1797313286381782e-06,8.699228025472075e-07,3.070344443249482e-06
229,1.9117322784363662e-06,1.752260976386488e-06,1.8073710498628646e-06,1.933811357925661e-06,2.6355909458065425e-06,1.869489164563969e-06,2.3936873082177207e-06,2.011961081707035e-06,2.14902007265807e-06,8.20154367043858e-07,1.000268498303013e-06,2.4581124718034445e-06,1.297493377011515e-06,1.197029460339783e-06,8.74826534604854e-07,3.1005266930297575e-06
230,1.895059326040264e-06,1.70203607559513e-06,1.8256954773925993e-06,1.9061115652393819e-06,2.622194429458202e-06,1.8414357438248142e-06,2.4000448829971114e-06,1.9581713671888534e-06,2.0497480577049696e-06,7.419464284592625e-07,9.951029121441756e-07,2.5152424749740817e-06,1.3137855319796243e-06,1.2133572691183546e-06,8.817822173087335e-07,3.1261642458393847e-06
231,1.8800427807834199e-06,1.6518222421292615e-06,1.8425919478085796e-06,1.8808869572383903e-06,2.6001924008701778e-06,1.8113818172151006e-06,2.4063803786012076e-06,1.908457359653156e-06,1.963814368609264e-06,6.986039900732193e-07,9.902107050715726e-07,2.574180514193076e-06,1.3288778149926691e-06,1.228495864501095e-06,8.904541134048772e-07,3.1460198904586086e-06
232,1.867423752732495e-06,1.6028364800561213e-06,1.857651653524156e-06,1.8582777074161936e-06,2.5705515517886666e-06,1.7798545492686821e-06,2.412370691271717e-06,1.8632226817761973e-06,1.8907877051149864e-06,6.862848007142317e-07,9.847748313657276e-07,2.6347995021011987e-06,1.342305055396273e-06,1.2422700290157806e-06,9.004475070761059e-07,3.159015433935871e-06
233,1.8576636999044647e-06,1.5559450038279284e-06,1.8704208090371283e-06,1.8382487545413905e-06,2.534567186063912e-06,1.7473373759741056e-06,2.4178605220368683e-06,1.8232208659908574e-06,1.8302638841350447e-06,7.013250280907292e-07,9.779695640969373e-07,2.69695298463689e-06,1.3537298029964658e-06,1.2547137518451598e-06,9.114003671682074e-07,3.164491547095661e-06
234,1.8509654792529937e-06,1.5117291551431728e-06,1.880576386376598e-06,1.8206041950169109e-06,2.4936765138210635e-06,1.7142629105341336e-06,2.4227651546252813e-06,1.7894080674330184e-06,1.781697868003911e-06,7.40325199394397e-07,9.691277701215546e-07,2.7602954298890715e-06,1.363137441911634e-06,1.266107204422938e-06,9.231011289081305e-07,3.162278203630883e-06
235,1.84727095162972e-06,1.4706046109446335e-06,1.8880385767760223e-06,1.8049659125761633e-06,2.449443278658338e-06,1.6809006984791295e-06,2.4268387962219746e-06,1.7627164761460752e-06,1.7443753611338014e-06,8.001460848077796e-07,9.578550894892704e-07,2.824226064383851e-06,1.3708278762085583e-06,1.2768650092051927e-06,9.355135436224017e-07,3.1524215321083307e-06
236,1.8462568339279797e-06,1.432896252599299e-06,1.8929705604231635e-06,1.7906955150721943e-06,2.4035898295032985e-06,1.6472896309041767e-06,2.429589334793325e-06,1.743872259960795e-06,1.7174773887746188e-06,8.779526795274051e-07,9.440489092604451e-07,2.887980834837195e-06,1.3772208504128432e-06,1.2873902719183973e-06,9.487173022255229e-07,3.1348779320793537e-06
237,1.8473902886855305e-06,1.3988591389158142e-06,1.8956545497229887e-06,1.776842040588805e-06,2.357883444449937e-06,1.6132854742982972e-06,2.430438209366719e-06,1.7333064548934892e-06,1.700255050957453e-06,9.71353480410506e-07,9.27848541406533e-07,2.950743328947117e-06,1.38268059793827e-06,1.2979777030968135e-06,9.62901048373324e-07,3.1095598090679414e-06
238,1.8500535447722337e-06,1.3687421675464691e-06,1.8963069401782076e-06,1.7622371352963577e-06,2.3139061694753805e-06,1.578730480108836e-06,2.428959785529594e-06,1.7311518147114697e-06,1.6921282955972966e-06,1.0785307757564314e-06,9.09546088437645e-07,3.0117039202763497e-06,1.3874674404223714e-06,1.3087955651827429e-06,9.783852366673102e-07,3.0766331488094606e-06
239,1.8537059998466403e-06,1.3428514225089866e-06,1.8949896033770139e-06,1.7457780568737527e-06,2.272882394705142e-06,1.5436624784206143e-06,2.4250295137782817e-06,1.7372682057760953e-06,1.6925939251393392e-06,1.198268265593854e-06,8.89496340655076e-07,3.0701179997228713e-06,1.3917242268197578e-06,1.3199290166319322e-06,9.955643130050766e-07,3.0367013409579327e-06
240,1.8580591805167055e-06,1.3214961091481121e-06,1.8917094867427436e-06,1.7267654619471183e-06,2.2356109940062364e-06,1.5083696910845098e-06,2.4188690599736783e-06,1.7512431229641935e-06,1.7010952154158373e-06,1.3298137473824646e-06,8.680995660876762e-07,3.12534559645106e-06,1.3954547403392962e-06,1.3313791863973613e-06,1.0148078406124024e-06,2.990757319264684e-06
241,1.8631829413168565e-06,1.3048803193389132e-06,1.886567757589269e-06,1.705099807915572e-06,2.2024549672422555e-06,1.473271223335687e-06,2.4110048494230366e-06,1.7723647936251893e-06,1.7169659028395964e-06,1.4725930681701593e-06,8.458457083221276e-07,3.1767510814621036e-06,1.3985501530043118e-06,1.343008789725769e-06,1.0364352875679667e-06,2.9400638146340552e-06
242,1.8694426957030486e-06,1.2930770329780281e-06,1.8797816486237584e-06,1.681243282061677e-06,2.1734194226267148e-06,1.4388275372881622e-06,2.4020989092342038e-06,1.7996136722161973e-06,1.7394345544203285e-06,1.6259374126939357e-06,8.233121515123459e-07,3.2234943857409603e-06,1.4008546259105823e-06,1.3546099752971965e-06,1.0607625898121443e-06,2.886127577170831e-06
243,1.8773015815249276e-06,1.2861210866177967e-06,1.871598994883375e-06,1.6559755277024884e-06,2.148337798837798e-06,1.4055336730723182e-06,2.392718205389067e-06,1.8317612546594383e-06,1.7676726238971156e-06,1.7889676276303527e-06,8.011155229069167e-07,3.2644320728699176e-06,1.402246422720425e-06,1.3660792716394275e-06,1.0881099180315494e-06,2.8307476249958865e-06
244,1.88712084632947e-06,1.2841399086275445e-06,1.8622332539517846e-06,1.6300791121085465e-06,2.1270469567304226e-06,1.3738519698113926e-06,2.383254635177517e-06,1.8676196524588007e-06,1.8008274378304657e-06,1.96065139456133e-06,7.7987897558194e-07,3.2981649688749745e-06,1.4027680400330682e-06,1.3774625078332377e-06,1.11872934019532e-06,2.7759689531086677e-06
245,1.8990230019863149e-06,1.287365159726286e-06,1.851869471240784e-06,1.6041533241536987e-06,2.1094343353993237e-06,1.3440926328022566e-06,2.374054839892948e-06,1.9063337515113368e-06,1.8379963701257395e-06,2.140015727350821e-06,7.601829093524094e-07,3.3230317717033223e-06,1.402765408592103e-06,1.3889091859237353e-06,1.1527273612965577e-06,2.7238559676862724e-06
246,1.9128294761459958e-06,1.2959998320679195e-06,1.8406642172364e-06,1.5786341906256835e-06,2.0953882680453888e-06,1.3163845540478458e-06,2.3655371071848883e-06,1.947538754067092e-06,1.8781819229764093e-06,2.3263975133562947e-06,7.424946147401392e-07,3.3370779582014287e-06,1.4028843774236083e-06,1.4007217077464362e-06,1.1900260670194998e-06,2.676233921401903e-06
247,1.9280999289925705e-06,1.3100783095524916e-06,1.8286812227800714e-06,1.553897289859512e-06,2.0847242298400655e-06,1.2907864837732106e-06,2.358097194140649e-06,1.991286457867292e-06,1.9203125266665374e-06,2.5194947724839085e-06,7.271483603734945e-07,3.3382921283728123e-06,1.4039011736301063e-06,1.4133731394816727e-06,1.2303409107136041e-06,2.6345892442766817e-06
248,1.9442122586785612e-06,1.3293905278598322e-06,1.8158501292856416e-06,1.5303090506201613e-06,2.077094820909357e-06,1.2674429317071968e-06,2.351884491164667e-06,2.0377883249698055e-06,1.963372297996229e-06,2.719166288573525e-06,7.143884195175523e-07,3.325117661421899e-06,1.4065450897254697e-06,1.4273420876511752e-06,1.273179425001942e-06,2.600096117467822e-06
249,1.9603810966095003e-06,1.3534499965515463e-06,1.8019868638117783e-06,1.5082121012216513e-06,2.071895535471954e-06,1.2466195086782465e-06,2.346643685045126e-06,2.0871850782618738e-06,2.00650728712381e-06,2.9251518195830896e-06,7.044024400780791e-07,3.2968999877573095e-06,1.4113993405766707e-06,1.4429059954518332e-06,1.317873389075133e-06,2.5736154889034666e-06
250,1.9756721502579956e-06,1.3815140864441727e-06,1.786790031983759e-06,1.4878752204520787e-06,2.068248029774522e-06,1.2286270676572872e-06,2.3417085413029654e-06,2.1395751337219555e-06,2.0490080968817316e-06,3.136870987106101e-06,6.973109282632977e-07,3.254066236773307e-06,1.418848609209789e-06,1.460069400836506e-06,1.3636391464360772e-06,2.5556304037585222e-06
251,1.989102749176866e-06,1.412695982848522e-06,1.7698622706292177e-06,1.4694331720559075e-06,2.0651411633620086e-06,1.2137802780156787e-06,2.3361666387806654e-06,2.1952678979276585e-06,2.0902989171000815e-06,3.3534372114479728e-06,6.931624841282261e-07,3.1980937377384043e-06,1.4290404626624749e-06,1.4786153368464875e-06,1.4096923177973788e-06,2.5462129501611506e-06
252,1.9997764123445098e-06,1.4461376338246413e-06,1.7508141761862301e-06,1.4528564089460807e-06,2.061694557807252e-06,1.2023704291639048e-06,2.329155207635696e-06,2.254923720121569e-06,2.1300141055486857e-06,3.5739092442870458e-06,6.919460232902459e-07,3.1313234995554298e-06,1.4418563930798708e-06,1.498167674096625e-06,1.4553982492634454e-06,2.545136929427526e-06
253,2.00700916013945e-06,1.4811196150908799e-06,1.7293123914693618e-06,1.437983213595211e-06,2.057403866441354e-06,1.194592537310665e-06,2.3201234367674e-06,2.3193841259171123e-06,2.1680446270736296e-06,3.797506139239085e-06,6.935829873677314e-07,3.056650089652528e-06,1.4569219715910617e-06,1.5182389494978128e-06,1.5003415383678427e-06,2.55212612010823e-06
254,2.0104733462298303e-06,1.5170522507191929e-06,1.7050917146201427e-06,1.4245995248870117e-06,2.0522631462823027e-06,1.1905301538453375e-06,2.3088992604700003e-06,2.3894480381642e-06,2.2044462683317745e-06,4.023491353424061e-06,6.979148123089907e-07,2.977207343732604e-06,1.473652240121169e-06,1.5383384190282732e-06,1.5442710706389888e-06,2.567063162691144e-06
255,2.010313236414688e-06,1.5534424027791294e-06,1.6781207720511104e-06,1.4125235010433118e-06,2.0467741600492472e-06,1.1902533538245577e-06,2.2955930675194498e-06,2.4658075343477767e-06,2.2392626822321893e-06,4.250789814192626e-06,7.047120382022047e-07,2.8961150839390604e-06,1.4912979518809756e-06,1.5581208434193642e-06,1.5870000737791684e-06,2.590000898925875e-06
256,2.007126071641438e-06,1.5899053730502402e-06,1.648807350609523e-06,1.4016439668557736e-06,2.0418650174473697e-06,1.193891617009064e-06,2.2804994074364927e-06,2.548972445681535e-06,2.2724055951427764e-06,4.47764357767122e-06,7.136818729453897e-07,2.8162437243860806e-06,1.509071051872579e-06,1.5774560807752722e-06,1.6283198188352863e-06,2.6209771979807402e-06
257,2.001783797392916e-06,1.6261496949762817e-06,1.6179631113766484e-06,1.3918826802394808e-06,2.0386980621407744e-06,1.201576442704351e-06,2.2640165931846746e-06,2.6391348630610882e-06,2.303674393550833e-06,4.701489111537813e-06,7.244561691119086e-07,2.7400466478062715e-06,1.5264035935806975e-06,1.5964090842151163e-06,1.6679436780901355e-06,2.659760570213422e-06
258,1.9951972254703523e-06,1.6619072214104569e-06,1.5865362064440026e-06,1.3831647043821404e-06,2.0384465581416344e-06,1.2133419799029456e-06,2.2464689093723555e-06,2.7361401565647917e-06,2.3328738354809887e-06,4.918945476538e-06,7.365896881658825e-07,2.6695202267681084e-06,1.543149980620183e-06,1.615182513341493e-06,1.705474609497712e-06,2.7057106102509237e-06
259,1.9881498184611236e-06,1.6969304500172652e-06,1.5553364429753028e-06,1.375504002618836e-06,2.042168816767144e-06,1.2290729124788483e-06,2.2279057898286003e-06,2.8395648306172024e-06,2.3598982102136197e-06,5.1257447610563615e-06,7.495973858375309e-07,2.6061970377770734e-06,1.5595541742117382e-06,1.634004613163004e-06,1.7403677280552373e-06,2.75783324091491e-06
260,1.981246324537632e-06,1.7310796062611182e-06,1.5248980235824973e-06,1.3691088427136808e-06,2.0507375496514406e-06,1.2484753036611218e-06,2.2081198158303753e-06,2.9488399587197094e-06,2.384664233554168e-06,5.3167563627177e-06,7.629979730472797e-07,2.5511081540042192e-06,1.5760683131362946e-06,1.6529894836265341e-06,1.7719264748720808e-06,2.814883782460263e-06
261,1.9749191784902206e-06,1.7643416751754784e-06,1.4954871264660782e-06,1.3643348846900071e-06,2.0647593446492533e-06,1.271070094803055e-06,2.1868741541238136e-06,3.0634260106149064e-06,2.406949437591938e-06,5.486425281797661e-06,7.763113779277144e-07,2.504747420722715e-06,1.593193774200317e-06,1.672059828387988e-06,1.7993779515264632e-06,2.875348154338313e-06
262,1.9694038931249985e-06,1.7967043351653985e-06,1.4672031859833474e-06,1.361515718981204e-06,2.0845627943712726e-06,1.2962453799695875e-06,2.164030092737762e-06,3.182994398857684e-06,2.42637642005976e-06,5.629573600520713e-06,7.890380722872211e-07,2.467062339499587e-06,1.6113926551761757e-06,1.690962919439307e-06,1.8219700334734708e-06,2.9373694917412275e-06
263,1.9646939211746903e-06,1.8279799785789988e-06,1.440113070746331e-06,1.3608576199124276e-06,2.1102923611710135e-06,1.323352412259782e-06,2.1394265600439708e-06,3.307516230310958e-06,2.442683217411839e-06,5.742093091542738e-06,8.00699660956434e-07,2.4375108894702506e-06,1.631011413318718e-06,1.709339510114332e-06,1.8390335701916305e-06,2.998840283404845e-06
264,1.9605785738817516e-06,1.8577201354310355e-06,1.4143476435428567e-06,1.362503881313861e-06,2.142031006153453e-06,1.3517738703152072e-06,2.112753775983719e-06,3.437155651979491e-06,2.4560962623499007e-06,5.821173298688128e-06,8.109413211850123e-07,2.4151951761459197e-06,1.6521834148993137e-06,1.72681614238696e-06,1.8500315457839987e-06,3.0577404441075572e-06
265,1.95679945867453e-06,1.8853061200732757e-06,1.3900948135546528e-06,1.3666489677120924e-06,2.179859100203516e-06,1.380905857867851e-06,2.083630087997457e-06,3.571954048375869e-06,2.467453165722498e-06,5.865136595016951e-06,8.196186075012718e-07,2.3989919275167687e-06,1.67474318623289e-06,1.7431130270924456e-06,1.8546883219523574e-06,3.1125525023578896e-06
266,1.953223653679249e-06,1.910182909729312e-06,1.3675165193624394e-06,1.3735190614080948e-06,2.223793512178651e-06,1.4101274466139217e-06,2.051730618435789e-06,3.7114616098292426e-06,2.477947535675936e-06,5.873026406370251e-06,8.268076191828095e-07,2.38762524860746e-06,1.6982108901371698e-06,1.7580697064357846e-06,1.8532471651000486e-06,3.1625163887508044e-06
267,1.94987456596932e-06,1.932090248903152e-06,1.3467046813498465e-06,1.3832632510107818e-06,2.2736473514309924e-06,1.4388435894366518e-06,2.0168072498091336e-06,3.854534784768116e-06,2.4887777753336337e-06,5.844069308924387e-06,8.327251425161036e-07,2.379723276004481e-06,1.7219098116941042e-06,1.771532217497922e-06,1.8466434811335662e-06,3.2076375644122385e-06
268,1.946798105724772e-06,1.9511417803199135e-06,1.3277041312774116e-06,1.395894561242262e-06,2.3289347428745987e-06,1.4665024908108034e-06,1.978689641276057e-06,3.999445535194747e-06,2.5009795881579254e-06,5.777622875216936e-06,8.376029913372658e-07,2.3738779601067765e-06,1.7451669402601774e-06,1.783238931504509e-06,1.836323639539265e-06,3.2485394860941704e-06
269,1.943922847899896e-06,1.9677112057735945e-06,1.3105392191885161e-06,1.4112679724853014e-06,2.3888882095976965e-06,1.4925355992488358e-06,1.937366675147307e-06,4.144291310755297e-06,2.5153808027259963e-06,5.67409916551387e-06,8.415971387377368e-07,2.3686534012489867e-06,1.7674280407132575e-06,1.7927704316980244e-06,1.8238154080523913e-06,3.2862512206019646e-06
270,1.940990789766491e-06,1.9822068070647934e-06,1.295245965959026e-06,1.429103539944557e-06,2.4525163436314697e-06,1.5163599157508902e-06,1.89309434819528e-06,4.287459646127356e-06,2.5325658536945016e-06,5.536037598571449e-06,8.447749390109654e-07,2.362503774065641e-06,1.7882575448700494e-06,1.7995329476696832e-06,1.8104111327050382e-06,3.321905547424567e-06
271,1.9375240540854096e-06,1.9949067877392056e-06,1.2819269884561897e-06,1.449101798295111e-06,2.51858686249344e-06,1.5374502696542961e-06,1.8464324210581812e-06,4.427853558386081e-06,2.5528467151235636e-06,5.368130276869377e-06,8.471558755605672e-07,2.3536601845088936e-06,1.8073632830495997e-06,1.8028793935435387e-06,1.7971609786543129e-06,3.356403791341429e-06
272,1.932878791202493e-06,2.0060346576938866e-06,1.2707579714570654e-06,1.4710246313356866e-06,2.5855458877480666e-06,1.5553570181567916e-06,1.7981976680028416e-06,4.564832944856878e-06,2.576269685567786e-06,5.176226166932271e-06,8.487487823627694e-07,2.3401856254188213e-06,1.8246654684410665e-06,1.802322856764431e-06,1.7850819568665838e-06,3.3903306945881447e-06
273,1.9263902812790072e-06,2.0159792069095237e-06,1.2619016166919995e-06,1.4946481337883501e-06,2.651511481644454e-06,1.5697523804154415e-06,1.7494060369336423e-06,4.698014870379087e-06,2.602658824284623e-06,4.966207836585285e-06,8.49563383086262e-07,2.3203116625507275e-06,1.8402605936828857e-06,1.7975728391213635e-06,1.7753258316538147e-06,3.424262058647866e-06
274,1.9174671323977816e-06,2.0253352117074367e-06,1.255423780569921e-06,1.5197315043613777e-06,2.714422824222851e-06,1.5805926532598164e-06,1.7012494489346167e-06,4.827000983661598e-06,2.631587003315957e-06,4.743412226044847e-06,8.496342952011137e-07,2.2927955130805833e-06,1.8542560722896625e-06,1.788470588282536e-06,1.7691434631596906e-06,3.459154986387135e-06
275,1.905573509445378e-06,2.0347908093680146e-06,1.2513170138825655e-06,1.5460981158824435e-06,2.7723369473603685e-06,1.588214742443678e-06,1.655053986315863e-06,4.951035764899656e-06,2.6623121123485856e-06,4.512618490141233e-06,8.490670336828264e-07,2.2570057580551216e-06,1.8666167249617872e-06,1.7750853088327598e-06,1.7677161295626901e-06,3.4964418869393936e-06
276,1.8901644285713375e-06,2.045115974844483e-06,1.2495808921361307e-06,1.5736899527516886e-06,2.8238726012024983e-06,1.593254834904378e-06,1.6121534962838847e-06,5.068774734286322e-06,2.693940279457565e-06,4.278151072548524e-06,8.480431048835734e-07,2.2128842717503296e-06,1.8770818401801478e-06,1.7578181674453283e-06,1.7719957098093897e-06,3.537826653710648e-06
277,1.870662289825308e-06,2.0571606947895816e-06,1.2502247126347879e-06,1.6024824000626457e-06,2.8686804560493143e-06,1.5964950967197528e-06,1.5737190934647098e-06,5.178427532489176e-06,2.725815973555291e-06,4.043798782863987e-06,8.467682761391726e-07,2.1610441421552526e-06,1.8851806015322482e-06,1.7372816936576538e-06,1.782600816486555e-06,3.5850323955761614e-06
278,1.8466000342924815e-06,2.071702440010844e-06,1.2531812562049482e-06,1.6324021959748215e-06,2.907613242450968e-06,1.5987158827403928e-06,1.540652809804255e-06,5.278282827701885e-06,2.7577725580477624e-06,3.8127102426791705e-06,8.454318417804296e-07,2.1028837831641172e-06,1.8904098805592169e-06,1.714062005557403e-06,1.7997619276768003e-06,3.6396840482333265e-06
279,1.8179095291686086e-06,2.0892533826302977e-06,1.2582718840926378e-06,1.663421646920914e-06,2.9423816873065024e-06,1.6005749161177986e-06,1.5135917907299422e-06,5.367396669823171e-06,2.790015172937557e-06,3.5874384588854426e-06,8.441948566793097e-07,2.0404488204042423e-06,1.8924306646546234e-06,1.6885698976834313e-06,1.8233257005667597e-06,3.703342007081278e-06
280,1.785052632776972e-06,2.109969626525644e-06,1.265284464579279e-06,1.6957234410046739e-06,2.9749215062958495e-06,1.602537455785964e-06,1.4929584691263648e-06,5.4462154025086545e-06,2.8227892495972728e-06,3.3700211089138234e-06,8.431742125401869e-07,1.9760700993941842e-06,1.8910413245349313e-06,1.661022179736037e-06,1.8528379107257632e-06,3.7775632572480075e-06
281,1.7488256296942028e-06,2.133656653405066e-06,1.2740297092841513e-06,1.7297037622133028e-06,3.006912539263991e-06,1.604844328898245e-06,1.4789648762250709e-06,5.516909775215605e-06,2.8561308069427826e-06,3.1619786122176255e-06,8.42442174608948e-07,1.9120160906347913e-06,1.886009548647398e-06,1.6314728121070387e-06,1.88770175261133e-06,3.863827444398783e-06
282,1.7100972867839917e-06,2.159781793439708e-06,1.2842752735137637e-06,1.7657970636611062e-06,3.039594849079835e-06,1.6074986594238042e-06,1.4715674496971327e-06,5.583248603118329e-06,2.8899041413940352e-06,2.9643343012503808e-06,8.420466103487783e-07,1.8502898011215287e-06,1.8770119870554709e-06,1.5998469652400048e-06,1.9273457662124443e-06,3.9633014576865764e-06
283,1.6697289720297482e-06,2.1874686579213456e-06,1.2956632171312111e-06,1.8043189681976408e-06,3.0737711409870895e-06,1.6102759094406196e-06,1.4704421714535105e-06,5.650045962949153e-06,2.9240957403793936e-06,2.777776893221928e-06,8.420121115824742e-07,1.7925392299111422e-06,1.8637144745092583e-06,1.5659651735246114e-06,1.9712806787968357e-06,4.076564705830794e-06
284,1.628556224316161e-06,2.21553652624033e-06,1.3077804960667582e-06,1.845416674879032e-06,3.109969757915173e-06,1.6127470231004617e-06,1.4750102456875583e-06,5.7224569490097e-06,2.9590654353703476e-06,2.6028550265765645e-06,8.42326326844924e-07,1.7400256812447414e-06,1.8459499909083997e-06,1.5295957671132366e-06,2.01898217019784e-06,4.203418169384981e-06
285,1.5872951463242031e-06,2.2426162486359862e-06,1.3203684912604517e-06,1.8890194655655398e-06,3.148697724983403e-06,1.6143374760858753e-06,1.4844692137156736e-06,5.805405015786998e-06,2.99548085201203e-06,2.4400398889121e-06,8.42940208614299e-07,1.6936498862707178e-06,1.8239692801827943e-06,1.4906340478973532e-06,2.0696979506696797e-06,4.342865308132235e-06
286,1.5464618918285516e-06,2.267296344722747e-06,1.3334299730310599e-06,1.93476413335397e-06,3.190543288329531e-06,1.6144797829777931e-06,1.4978126016531225e-06,5.903178680051568e-06,3.034004858441425e-06,2.2896950618453707e-06,8.437989193795878e-07,1.6540175075336958e-06,1.7985950198620172e-06,1.4493412983656888e-06,2.1223479110487487e-06,4.493267075442674e-06
287,1.5064079775799003e-06,2.2882416403088378e-06,1.3471038190790743e-06,1.9820051824954014e-06,3.2359998413795747e-06,1.6128049205199396e-06,1.5139283420619712e-06,6.019128136486475e-06,3.075059438199816e-06,2.1520506663595033e-06,8.448771204837018e-07,1.621482660809889e-06,1.771111780457177e-06,1.4064228360134168e-06,2.175581351375059e-06,4.652499679025683e-06
288,1.4674655801868426e-06,2.3042947311152432e-06,1.3615208424200847e-06,2.0298961131048885e-06,3.285157035245539e-06,1.6092399925934878e-06,1.5317956451247953e-06,6.155492546095117e-06,3.118855121889879e-06,2.0271658565752367e-06,8.461653563949754e-07,1.5961770961640015e-06,1.7429524136375648e-06,1.3628919884157291e-06,2.2279271908179704e-06,4.817959028197589e-06
289,1.4300655946490288e-06,2.314618360671485e-06,1.3768326669454046e-06,2.077433339969938e-06,3.337482559401293e-06,1.603974936546785e-06,1.5506026833308165e-06,6.3133506826848075e-06,3.1655537439928647e-06,1.9148827291589906e-06,8.476495348797115e-07,1.5780449368603192e-06,1.715390004920772e-06,1.31985568715492e-06,2.277903260750526e-06,4.986456784651706e-06
290,1.3946989539696362e-06,2.3188344194030587e-06,1.3932816059519049e-06,2.123566993802196e-06,3.3917785622209547e-06,1.5973562343713064e-06,1.5697240491603934e-06,6.49258390831478e-06,3.2153300331265467e-06,1.8148178658571921e-06,8.493319728553102e-07,1.5668353002442724e-06,1.6893846155773921e-06,1.2783336183894042e-06,2.32400297186125e-06,5.15412591023382e-06
291,1.3618145653989905e-06,2.316975907047848e-06,1.411140866926089e-06,2.1675258601381144e-06,3.446300680671128e-06,1.5897725012869414e-06,1.5887286273518462e-06,6.691791797587086e-06,3.2682369637950114e-06,1.7263745655025254e-06,8.512295806265736e-07,1.5620661394533085e-06,1.665587331183333e-06,1.2391572535815163e-06,2.364666612566811e-06,5.3164426766249035e-06
292,1.3317825398004794e-06,2.3092211758019476e-06,1.4305642393034156e-06,2.2091325862160116e-06,3.499045732710505e-06,1.5815577394982372e-06,1.607422410155926e-06,6.90821787413512e-06,3.3239601992976203e-06,1.648806607089976e-06,8.533488286924954e-07,1.5630316300267223e-06,1.6444346250593328e-06,1.2029511017117033e-06,2.398394394737094e-06,5.468484426430948e-06
293,1.3049079945992404e-06,2.2956757726019695e-06,1.451477645398142e-06,2.248773893457704e-06,3.5481221915241284e-06,1.5729116274725116e-06,1.6257619310103321e-06,7.137844463901128e-06,3.381686841473664e-06,1.5813868488909238e-06,8.557101040341257e-07,1.5689182752699253e-06,1.6262564934104836e-06,1.1701539842256042e-06,2.4239615525083725e-06,5.6054286755337575e-06
294,1.2814627449845033e-06,2.276351143848964e-06,1.4736033503633687e-06,2.2870544635942654e-06,3.5919114560038027e-06,1.5638671970866143e-06,1.6436907044907141e-06,7.3757750422936465e-06,3.440281778822133e-06,1.5235684166768463e-06,8.583809603349197e-07,1.5790551479599853e-06,1.6113041072099986e-06,1.1410380139947086e-06,2.4405495814839645e-06,5.723097151811258e-06
295,1.2616926774098891e-06,2.2511893886807106e-06,1.4966043886141214e-06,2.3244492118127955e-06,3.6288372813175064e-06,1.5543348257079555e-06,1.6610749519336551e-06,7.6168241271791776e-06,3.498740728648036e-06,1.4749967092935286e-06,8.614783263473432e-07,1.593110595675216e-06,1.599663447691365e-06,1.1156982770967104e-06,2.4476706402171954e-06,5.818216099282358e-06
296,1.2457888435722521e-06,2.220068157707576e-06,1.5202239069670168e-06,2.3611478622678775e-06,3.6570317539794617e-06,1.5441708206512097e-06,1.6777280914243857e-06,7.856143937337547e-06,3.5566610218435475e-06,1.4354128677879332e-06,8.652044581586146e-07,1.6109965584104947e-06,1.5911487500517102e-06,1.0940401036641184e-06,2.444945146775054e-06,5.8881627529781835e-06
297,1.2339061568777957e-06,2.182884470461553e-06,1.5443153754112088e-06,2.3970239133181552e-06,3.6742902662842204e-06,1.5332003547295423e-06,1.6934043379535864e-06,8.089768572080317e-06,3.614395479758562e-06,1.4046024456342544e-06,8.698936309993135e-07,1.6326143986619069e-06,1.585273069756353e-06,1.0758229625272247e-06,2.431992690419596e-06,5.9305471683760795e-06
298,1.2262275182973224e-06,2.1397214274006236e-06,1.5687887558673606e-06,2.431637152319614e-06,3.678331345394766e-06,1.521181216367218e-06,1.7077511627848087e-06,8.314966142641435e-06,3.6727562612590877e-06,1.3824024575464004e-06,8.759660593816784e-07,1.6577631470169285e-06,1.5813025613251193e-06,1.0607392739639685e-06,2.4086226056253e-06,5.943328982155759e-06
299,1.2229585766585542e-06,2.090996828922248e-06,1.5935300523776975e-06,2.464249506139284e-06,3.6672334637147253e-06,1.5077413287205406e-06,1.7203089668324148e-06,8.530234039596855e-06,3.73249542942097e-06,1.3686441533598985e-06,8.838187600383731e-07,1.6862202466727595e-06,1.5784065193844268e-06,1.048515715552807e-06,2.3751044631152123e-06,5.925414374753161e-06
300,1.224254433825227e-06,2.037478979435254e-06,1.618339142250545e-06,2.4938776302930682e-06,3.6399656879866236e-06,1.49239565922759e-06,1.7306028867363438e-06,8.734786977286392e-06,3.793920896506891e-06,1.3630738066230035e-06,8.937506196091238e-07,1.7177992996586816e-06,1.57586285574847e-06,1.0390419948191802e-06,2.332196236761422e-06,5.877044994105603e-06
301,1.2301710183306598e-06,1.980115282559271e-06,1.6429580149380565e-06,2.5194629568912913e-06,3.5967793867738777e-06,1.4747043426239665e-06,1.7382766100071028e-06,8.927629707120064e-06,3.856803963090335e-06,1.3653661720034665e-06,9.059281258898276e-07,1.7523647707921309e-06,1.5731332477326247e-06,1.0323987757432699e-06,2.2809787790700145e-06,5.799805563433921e-06
302,1.240656717119397e-06,1.9198157182609923e-06,1.667166837841743e-06,2.5401413434922686e-06,3.5392093759581355e-06,1.4544377160617741e-06,1.7431672227388778e-06,9.106703939915328e-06,3.920452737119618e-06,1.3751479230353842e-06,9.203842914638524e-07,1.7898614331197581e-06,1.5697799457169691e-06,1.0287280907714529e-06,2.2227248976990266e-06,5.696501580436507e-06
303,1.2555526430878267e-06,1.8573977791737615e-06,1.6908193844093935e-06,2.555481376766457e-06,3.4697160338440167e-06,1.4316309470924305e-06,1.7452505546820212e-06,9.268728815158528e-06,3.983725761207801e-06,1.3919347670315022e-06,9.370808593014656e-07,1.8302817179829776e-06,1.5654594542244715e-06,1.0280936114390904e-06,2.1588585438738338e-06,5.57091117271559e-06
304,1.2745917617811405e-06,1.7936667706970857e-06,1.7138015768369492e-06,2.5656143843573574e-06,3.391211471410565e-06,1.406596046933457e-06,1.7445337530997959e-06,9.409923432221647e-06,4.044970496124354e-06,1.4150604580112022e-06,9.559780009015173e-07,1.87353452139887e-06,1.5600399943927602e-06,1.0304292871283259e-06,2.090921035226554e-06,5.42730438878629e-06
305,1.297435939475699e-06,1.729471077703856e-06,1.7360106334704096e-06,2.5712479433209315e-06,3.3066939573090074e-06,1.3799298392874646e-06,1.7410534391488276e-06,9.527209985637557e-06,4.1021123300362815e-06,1.443683980467408e-06,9.770069799968321e-07,1.9193434646883524e-06,1.5536269441353744e-06,1.0355505021170143e-06,2.0204814623138328e-06,5.269836785836019e-06
306,1.3237489163292327e-06,1.6656941067116822e-06,1.7573655580657485e-06,2.573574977511694e-06,3.2190671631912154e-06,1.3524284854350025e-06,1.734950234651864e-06,9.619322915195787e-06,4.152976329345265e-06,1.476851458029352e-06,9.999704643374515e-07,1.967268048098445e-06,1.5464815256088968e-06,1.0431839014559072e-06,1.9490085825803615e-06,5.102104251498364e-06
307,1.3531975664953443e-06,1.603225500212525e-06,1.7777585913462668e-06,2.574085837615168e-06,3.13102600144432e-06,1.3248913903798595e-06,1.7264614174869034e-06,9.68746353985022e-06,4.195678205808671e-06,1.5135625891215746e-06,1.024471115056046e-06,2.016794454285056e-06,1.53901206661003e-06,1.0529996040674877e-06,1.8777638506404945e-06,4.927043829139749e-06
308,1.3853781511369321e-06,1.5429108151128236e-06,1.7969255775497058e-06,2.5742963070826098e-06,3.0448822179529197e-06,1.2979525327229313e-06,1.7158585437160436e-06,9.735429994271195e-06,4.228949204835872e-06,1.5528166559981031e-06,1.049911570080908e-06,2.0674072765902266e-06,1.5317935138921946e-06,1.064686211811222e-06,1.8077466024941723e-06,4.747027546474789e-06
309,1.4197692153185953e-06,1.4854929342931496e-06,1.8143669868176246e-06,2.5754877924959203e-06,2.9624240745762205e-06,1.2720377713772606e-06,1.7034544290893044e-06,9.769330946660881e-06,4.25232187608756e-06,1.5936328527972412e-06,1.07556353461751e-06,2.118583034316144e-06,1.5254564210462315e-06,1.0780755247209026e-06,1.739698797549978e-06,4.563918790481495e-06
310,1.455705562665108e-06,1.4316278583578496e-06,1.8294583944632375e-06,2.5786132676782927e-06,2.8849491957295338e-06,1.2473846037451184e-06,1.6896279993732774e-06,9.797012254005493e-06,4.2661059748875325e-06,1.635049135703961e-06,1.1006690487494794e-06,2.1696811491433877e-06,1.5205513997557275e-06,1.0932154562238025e-06,1.6741906929900122e-06,4.3791443598204715e-06
311,1.492369093675356e-06,1.3819816898784907e-06,1.841708352715643e-06,2.5843721756544055e-06,2.8134099652748055e-06,1.2240422389394948e-06,1.6747511088389028e-06,9.82733022636838e-06,4.271188469261345e-06,1.676076503008861e-06,1.1244992415853661e-06,2.21977976789576e-06,1.5175451511120166e-06,1.1103226454157205e-06,1.6117325280662037e-06,4.193889400798736e-06
312,1.5288263146617259e-06,1.3372883464328503e-06,1.8509672081597608e-06,2.593284153557152e-06,2.748508944861704e-06,1.2018839245043848e-06,1.6590779307449667e-06,9.86942855776615e-06,4.268778963803112e-06,1.7156051359765403e-06,1.1463297638456068e-06,2.2675518296413663e-06,1.5168410394104835e-06,1.1296516148457444e-06,1.5527828925865404e-06,4.009283926904211e-06
313,1.5640602847862468e-06,1.2983024865612153e-06,1.8574077069533438e-06,2.6056906191205983e-06,2.6906493042499796e-06,1.1806898597941397e-06,1.64274207740593e-06,9.932062442415363e-06,4.260147423617114e-06,1.7523639366685006e-06,1.1654040575750336e-06,2.3112793716110026e-06,1.5187176061464072e-06,1.151356210057755e-06,1.4976817269275842e-06,3.826427807589836e-06
314,1.5970151901751403e-06,1.265698931306694e-06,1.861285849192201e-06,2.621768008645092e-06,2.639796162889055e-06,1.1602590491127589e-06,1.6258550103604214e-06,1.0022922213599938e-05,4.246317721379344e-06,1.7850374665629997e-06,1.1809884242914172e-06,2.3490728624932295e-06,1.523268419571719e-06,1.1754203753883186e-06,1.4466316452479672e-06,3.64629382467528e-06
315,1.6266812996100406e-06,1.2399992488862283e-06,1.8627052824888916e-06,2.6415488666298766e-06,2.595401800357929e-06,1.1404501955933893e-06,1.608556165789612e-06,1.0148137634729313e-05,4.227752453381781e-06,1.8125042525876757e-06,1.1924817322837578e-06,2.3792443376232805e-06,1.530437264485553e-06,1.2016699338898405e-06,1.399699961579863e-06,3.4696167323276822e-06
316,1.6521380443447434e-06,1.2215810562072255e-06,1.8615788029483979e-06,2.664868822339609e-06,2.556453435046348e-06,1.1211228982704824e-06,1.5909450554115417e-06,1.0312315516477973e-05,4.204220316473006e-06,1.8340641129861511e-06,1.1994378403779683e-06,2.4006364269323158e-06,1.5401138368153695e-06,1.229799091518976e-06,1.356812564809679e-06,3.2968349608943843e-06
317,1.6726532809704273e-06,1.2107373931635082e-06,1.8577494870005875e-06,2.6913480070650925e-06,2.521583820526299e-06,1.1020729649665277e-06,1.573042519151668e-06,1.0519082715318653e-05,4.175081705447906e-06,1.849558268258605e-06,1.2014835730438385e-06,2.4126935231533347e-06,1.552161675919745e-06,1.25937570652505e-06,1.317793546063182e-06,3.1281423104282502e-06
318,1.6879650934953528e-06,1.2076816223245027e-06,1.8511462468877358e-06,2.7205690486359873e-06,2.489216467512858e-06,1.0830634868275194e-06,1.5549536039951016e-06,1.0771628358153962e-05,4.139935795785434e-06,1.8593750509803035e-06,1.1982920326736507e-06,2.4152516119658843e-06,1.5663483491497686e-06,1.2898410596946489e-06,1.2824101949077365e-06,2.963670824012783e-06
319,1.698509475761153e-06,1.2124720164472414e-06,1.8419250781027407e-06,2.752285961007111e-06,2.457752884380929e-06,1.0639318818271825e-06,1.5371378403172264e-06,1.1072783817256978e-05,4.099154668664746e-06,1.8643336093259875e-06,1.1896823766978146e-06,2.4082745642950643e-06,1.5822874412625088e-06,1.3205172218794294e-06,1.2503864943114829e-06,2.8037334663038845e-06
320,1.7053325845876808e-06,1.2249515066069791e-06,1.8305500566035806e-06,2.786376882329937e-06,2.425757295491437e-06,1.0446978507936277e-06,1.5205253930512946e-06,1.1424594644864842e-05,4.053908664935225e-06,1.865435336813062e-06,1.1757121098512476e-06,2.3917870806705755e-06,1.599494984658912e-06,1.3506721381921204e-06,1.2214515126751176e-06,2.6490030001905124e-06
321,1.7097657106277048e-06,1.2447839285523545e-06,1.8177126715111627e-06,2.8225812217228315e-06,2.392107004725867e-06,1.0256120456141014e-06,1.5063827527777492e-06,1.1827699530767573e-05,4.005754827054362e-06,1.863632890568593e-06,1.1566814538403063e-06,2.3660111736822144e-06,1.6175290149137778e-06,1.379685825865703e-06,1.1954302912156407e-06,2.5005195467160876e-06
322,1.7131115652116694e-06,1.271561623298525e-06,1.8040846449809863e-06,2.8602693111600246e-06,2.356109617381974e-06,1.0070988378117847e-06,1.4960501359727828e-06,1.2280903371696675e-05,3.95609424028356e-06,1.8598295507565753e-06,1.1330860427608143e-06,2.3315320857739555e-06,1.6360322485304664e-06,1.4072226882179767e-06,1.1722848683641354e-06,2.359484935888153e-06
323,1.7165113532822665e-06,1.304887895207643e-06,1.79008785651348e-06,2.8983392627186212e-06,2.3174986195153984e-06,9.896472353877225e-07,1.4907126581535691e-06,1.2781130669843976e-05,3.905803011247202e-06,1.855071718182833e-06,1.1055218955528205e-06,2.2893809288673697e-06,1.6546179671375862e-06,1.4332586399287974e-06,1.1520551237193644e-06,2.22695271897288e-06
324,1.7209477706561161e-06,1.3443627202982078e-06,1.7758528157331348e-06,2.9352179400543106e-06,2.276218027753277e-06,9.737461057181674e-07,1.4912995573498176e-06,1.3323712545743526e-05,3.855314505161272e-06,1.8506848579234768e-06,1.0745965998452587e-06,2.2410051043687263e-06,1.6727431948999736e-06,1.457946034581551e-06,1.134761444842866e-06,2.103631206647838e-06
325,1.727223673939803e-06,1.3895236862415725e-06,1.7613235048778483e-06,2.969031941799563e-06,2.232151167332604e-06,9.598473896876137e-07,1.4984971500117788e-06,1.390288027277064e-05,3.8051706661207713e-06,1.8482134353350994e-06,1.0409590507914798e-06,2.188095659873205e-06,1.6896550294560664e-06,1.4814723535135647e-06,1.120346677963537e-06,1.9898680686490208e-06
326,1.735895618206574e-06,1.4398435792272085e-06,1.7463296778908573e-06,2.99801393100409e-06,2.185117117949835e-06,9.483350240364263e-07,1.5127837782525911e-06,1.4512376285396223e-05,3.756536475387802e-06,1.8492433327568793e-06,1.0054066281564822e-06,2.13231440708598e-06,1.704458625630281e-06,1.5040336700317827e-06,1.1086504049953145e-06,1.8857040120169211e-06
327,1.7472470753384879e-06,1.4947536442331836e-06,1.730552415923762e-06,3.021014713311583e-06,2.135198561979905e-06,9.395268840786744e-07,1.5344405993466765e-06,1.5146090883352692e-05,3.7110943970318186e-06,1.8552429625039802e-06,9.689050675959112e-07,2.0750537827690887e-06,1.7163899667499657e-06,1.5258316411083802e-06,1.0993695452028455e-06,1.7909478270456149e-06
328,1.7612921170929442e-06,1.5536154606455297e-06,1.7135279218070796e-06,3.0378435992143144e-06,2.0830214914333657e-06,9.336799378348702e-07,1.5635486755718527e-06,1.5798528346667747e-05,3.670457629741245e-06,1.8674956837363844e-06,9.324703194433187e-07,2.0173174012351707e-06,1.7251682278520873e-06,1.547033284308959e-06,1.0920210197911868e-06,1.7052711469832267e-06
