,EMG1,EMG2,EMG3,EMG4,EMG5,EMG6,EMG7,EMG8,EMG9,EMG10,EMG11,EMG12,EMG13,EMG14,EMG15,EMG16
0,1.7935922201212662e-07,1.6656516364567984e-07,2.775993596751234e-07,2.1563258879253653e-08,2.5389271654027e-07,-3.5772854573518377e-09,1.629019438515745e-07,8.319510770457501e-07,5.764710631544236e-08,-4.498629510838746e-08,5.44008517708808e-07,1.3913986785143203e-06,3.733426664409328e-07,1.4793206936247225e-06,2.9860925923549306e-07,-1.2454189231418618e-07
1,3.3830634241214086e-07,3.2941402848262475e-07,4.934175315237e-07,2.141841959338036e-07,4.012341264006316e-07,1.7629314503145192e-07,2.8570931804064884e-07,9.299351275032329e-07,1.9318190411291432e-07,1.6020637273288827e-07,6.681504639461982e-07,1.8191666795915863e-06,6.084805691489007e-07,1.7479980540613897e-06,3.375640129204346e-07,1.1974151112947533e-07
2,4.95544527547445e-07,4.88436560160687e-07,7.060124023311e-07,4.040086401665187e-07,5.412180200646709e-07,3.492294204290914e-07,4.0536176361468796e-07,1.0300036459084446e-06,3.248811550884959e-07,3.6182416459827023e-07,7.898927552773025e-07,2.2550336613865173e-06,8.352318816921209e-07,2.0099793262236806e-06,3.76845350256807e-07,3.548537954153739e-07
3,6.495264751106504e-07,6.393394741507721e-07,9.125490478326e-07,5.878603257734227e-07,6.728938065855264e-07,5.133609492644845e-07,5.198171667933828e-07,1.131852765674562e-06,4.5051716985647873e-07,5.560527212646894e-07,9.076901624505379e-07,2.69802648252555e-06,1.0499194400755974e-06,2.2628512774504425e-06,4.156528737467876e-07,5.783081411412417e-07
4,7.991305045233101e-07,7.786193640955868e-07,1.1101880849288167e-06,7.629537763076687e-07,7.95356636033451e-07,6.674064550732335e-07,6.274668913648902e-07,1.2350820629296892e-06,5.686975757709559e-07,7.397946470019903e-07,1.0200813081870197e-06,3.14675007376687e-06,1.2493656987620168e-06,2.503920009433899e-06,4.5341755334169247e-07,7.878367931540921e-07
5,9.436026240131162e-07,9.039032073105545e-07,1.2963168626938936e-06,9.270240451851415e-07,9.078464156648456e-07,8.105165688041429e-07,7.270499833993099e-07,1.3391671995190514e-06,6.788414933445413e-07,9.109536453067838e-07,1.1257728392763717e-06,3.5994140164751468e-06,1.4309374963779552e-06,2.7301885341793582e-06,4.897661406445148e-07,9.815014389243691e-07
6,1.082355373003663e-06,1.0140071350363363e-06,1.468874805650911e-06,1.0784225993652296e-06,1.009833331545638e-06,9.420905431481092e-07,8.176157994878359e-07,1.4435339856844468e-06,7.809514685487185e-07,1.0685872930112977e-06,1.2237768931347979e-06,4.053837496462617e-06,1.592646150630809e-06,2.9385170440338503e-06,5.245237984331399e-07,1.157726246906995e-06
7,1.2147994225550027e-06,1.1087579371450847e-06,1.6265336395509576e-06,1.2162088649871115e-06,1.1010208717458925e-06,1.0616787928580176e-06,8.986259213026372e-07,1.5476505471343408e-06,8.753298902678169e-07,1.2127316100888664e-06,1.3134634686152784e-06,4.5073385026322704e-06,1.7332582209710515e-06,3.125990890935957e-06,5.576738791590397e-07,1.3152942011785215e-06
8,1.340286286819755e-06,1.1887185657802868e-06,1.7685621747348037e-06,1.3401609692923224e-06,1.181298778008802e-06,1.1688867656439018e-06,9.7007195537148e-07,1.6510152849847975e-06,9.62355403659482e-07,1.3439756303316554e-06,1.3945281109025196e-06,4.956677352387261e-06,1.8522921681178678e-06,3.290331368430171e-06,5.892559594263468e-07,1.4534167891902823e-06
9,1.4580904626554013e-06,1.2548743048830473e-06,1.894498398735533e-06,1.4506253960099754e-06,1.2508000628897088e-06,1.2633444885329807e-06,1.0324828460943714e-06,1.7530458625476391e-06,1.0424291298978645e-06,1.463128886890572e-06,1.4669694091610677e-06,5.398248195910799e-06,1.9498844138163173e-06,3.4300751897544506e-06,6.192929231476994e-07,1.571865993376914e-06
10,1.567452278538752e-06,1.3083510650730658e-06,2.003964860490318e-06,1.5482661139181455e-06,1.3100577476767979e-06,1.344857574019675e-06,1.0867809599388752e-06,1.853014449869869e-06,1.1160428736725287e-06,1.5711041257151644e-06,1.531040464544908e-06,5.828392769349069e-06,2.0266451142778024e-06,3.5444543214690143e-06,6.477716200575432e-07,1.6710488273418049e-06
11,1.667775795423933e-06,1.3502801566250782e-06,2.096814421799746e-06,1.6338476304172435e-06,1.360007433511234e-06,1.4136262842833443e-06,1.134045622902865e-06,1.950072478360572e-06,1.1837902394543917e-06,1.668839496642684e-06,1.5870963823025034e-06,6.2436403905920125e-06,2.0836061627681407e-06,3.6331321234342684e-06,6.746534025863303e-07,1.7519500070327752e-06
12,1.7588619731293155e-06,1.3817749302867242e-06,2.1734157364153364e-06,1.7081153939250068e-06,1.4018189728922462e-06,1.4703582489329889e-06,1.175306076492694e-06,2.0432309338472956e-06,1.2462814932155552e-06,1.7571871041676608e-06,1.6353970842676085e-06,6.640840724065926e-06,2.1222072386377074e-06,3.695943605555777e-06,6.99896628978467e-07,1.8159633306450417e-06
13,1.840933783718662e-06,1.4038828557069949e-06,2.2347267472714437e-06,1.771770562447716e-06,1.4368182448628511e-06,1.5162501221094298e-06,1.211447030621892e-06,2.131328353198813e-06,1.3040606166957008e-06,1.8368168701412134e-06,1.676007679999031e-06,7.017190446146406e-06,2.144189050960765e-06,3.732651138600966e-06,7.235109044444265e-07,1.8646843094997675e-06
14,1.9144182164537634e-06,1.4175229579566339e-06,2.2820264499198274e-06,1.825550362476175e-06,1.4664977544750078e-06,1.5528845266258017e-06,1.2432111495382182e-06,2.2131714224742268e-06,1.3575801933242302e-06,1.9081401487262587e-06,1.7088712110475805e-06,7.370189050301568e-06,2.151361540685813e-06,3.7427849310194352e-06,7.456431044665532e-07,1.8997325072084257e-06
15,1.9797150681357996e-06,1.4235186563259151e-06,2.316493792357953e-06,1.8704026178172248e-06,1.4924363118656717e-06,1.5820587952080658e-06,1.271209619801546e-06,2.287829019109274e-06,1.4072467172714006e-06,1.9712500662507633e-06,1.7340116881465878e-06,7.697640693610232e-06,2.1453644173431176e-06,3.725949384194239e-06,7.666033673586209e-07,1.922642381645228e-06
16,2.037119250473898e-06,1.4227063740729191e-06,2.3389002621538433e-06,1.9076314029213808e-06,1.5162042574173328e-06,1.6055754619215233e-06,1.2959025488269228e-06,2.3549269541704783e-06,1.4534832701576377e-06,2.0258650290833515e-06,1.7517611815018871e-06,7.997804489434694e-06,2.1276183871775327e-06,3.6827449458678875e-06,7.868013340909623e-07,1.934841003027675e-06
17,2.086835011651294e-06,1.4159700040404807e-06,2.3495133959342148e-06,1.938850661629047e-06,1.5393762242678515e-06,1.625116875237423e-06,1.317618434455103e-06,2.414848124070799e-06,1.4967127612333402e-06,2.071304102966241e-06,1.7628880258556347e-06,8.26969211102006e-06,2.099530107530914e-06,3.6155598721971434e-06,8.066637682393224e-07,1.937675775944372e-06
18,2.1290175417151095e-06,1.4041442085316128e-06,2.348184186239714e-06,1.965748156168336e-06,1.5635283831256075e-06,1.6422946503240155e-06,1.3366313937277276e-06,2.4687680909507734e-06,1.5373063902955084e-06,2.1066527262403366e-06,1.7685231955451939e-06,8.513414299762799e-06,2.062720797533075e-06,3.528380056085064e-06,8.26558135377146e-07,1.9323990214369492e-06
19,2.163793648274313e-06,1.3879245334819129e-06,2.3346106337782013e-06,1.9898755134571663e-06,1.5901202634285745e-06,1.6587621050025396e-06,1.3531960791701444e-06,2.518483138033483e-06,1.5755849874787522e-06,2.1312185123141135e-06,1.769915017060412e-06,8.730434229765801e-06,2.019033490068858e-06,3.4258203578391186e-06,8.467247829612254e-07,1.9201053269027238e-06
20,2.1912428550761305e-06,1.3679161346039685e-06,2.308726536718547e-06,2.012624112514663e-06,1.6203660508962814e-06,1.6762072313717348e-06,1.3675175451669858e-06,2.5660613436460083e-06,1.6118405977425857e-06,2.145001582592135e-06,1.768217080310953e-06,8.923589983916623e-06,1.9703477928063798e-06,3.3122847905736477e-06,8.672493975128293e-07,1.9017369439588623e-06
21,2.2114655900968695e-06,1.3447758362742767e-06,2.2710600420402843e-06,2.035272223168417e-06,1.6551802217684734e-06,1.69620131881453e-06,1.3797346972760725e-06,2.613441325570117e-06,1.6463480838456606e-06,2.14873605602139e-06,1.7644512900057036e-06,9.09680956753107e-06,1.9183643950071255e-06,3.1917165854921073e-06,8.88105351636114e-07,1.8781809476749284e-06
22,2.2247145027316094e-06,1.3193109371145758e-06,2.2229131925927273e-06,2.0589243355832734e-06,1.6951540748871452e-06,1.7200615661827831e-06,1.3899037100718732e-06,2.6621639942994263e-06,1.6793580032154534e-06,2.143550850570602e-06,1.7595344086077893e-06,9.254539228785336e-06,1.8645006550289787e-06,3.067661121314607e-06,9.092737862296048e-07,1.8503544900087591e-06
23,2.2313612433335354e-06,1.2924442928423021e-06,2.166289672518833e-06,2.084362016911881e-06,1.7405407766242222e-06,1.7488886764940283e-06,1.3979520769523613e-06,2.7133189977152995e-06,1.7110744452267731e-06,2.13068619617026e-06,1.7542218796940022e-06,9.40095796829912e-06,1.8099949792586298e-06,2.943261347174533e-06,9.308552995857153e-07,1.8192174470031314e-06
24,2.231721266540011e-06,1.265101242222548e-06,2.1035872499913486e-06,2.111943950217825e-06,1.7912808485902175e-06,1.7837087957021283e-06,1.4037073179210964e-06,2.7675866386413573e-06,1.7416723586867748e-06,2.1113713822311358e-06,1.7490022699547164e-06,9.539181257556907e-06,1.7561272690657968e-06,2.821151030040401e-06,9.530549484529973e-07,1.7857083073065532e-06
25,2.225953161258055e-06,1.2381567235508178e-06,2.037219988386486e-06,2.1416584166969867e-06,1.8470470706595485e-06,1.8255063830734675e-06,1.4070560749872999e-06,2.825237787529002e-06,1.771310424966107e-06,2.086693528362368e-06,1.7440231925183774e-06,9.67084928178666e-06,1.704300347221925e-06,2.703397193340699e-06,9.760831853560083e-07,1.7506501619252325e-06
26,2.2141039672741424e-06,1.2124514368473934e-06,1.9693788861674233e-06,2.1733488142588146e-06,1.907262697939992e-06,1.8751413328144157e-06,1.408089288446524e-06,2.886127580966043e-06,1.800037188660609e-06,2.0574387539346287e-06,1.7390633736896165e-06,9.796233690473054e-06,1.6559047323496704e-06,2.5915969049201913e-06,1.0000804407873893e-06,1.7147327379501983e-06
27,2.1963131190683122e-06,1.188784528704735e-06,1.9019485506857059e-06,2.2069954397468907e-06,1.971106866968039e-06,1.9333013385988465e-06,1.4070741622989413e-06,2.9497470587780605e-06,1.8276483501960192e-06,2.0240208974919405e-06,1.733582225375094e-06,9.914541910144784e-06,1.612144356404875e-06,2.487076920777058e-06,1.0250700824927987e-06,1.6785686692651171e-06
28,2.173073419465963e-06,1.1678608910218594e-06,1.8364676915268258e-06,2.2428354368412847e-06,2.0375282602873076e-06,2.0004934388770063e-06,1.4043115590734144e-06,3.0152431284806252e-06,1.853623416896281e-06,1.986584670180241e-06,1.7269084696115678e-06,1.002420858504729e-05,1.573979770759311e-06,2.390990659771152e-06,1.0509248453324757e-06,1.6426874367144415e-06
29,2.145249018123279e-06,1.1502273113486353e-06,1.7740985046223672e-06,2.2812136902549003e-06,2.1052835071168185e-06,2.077037984953059e-06,1.4000869231164175e-06,3.0813613779340527e-06,1.877169814094248e-06,1.9451870187821245e-06,1.7185274134422757e-06,1.0123213156109789e-05,1.5421566428079283e-06,2.3042524317093495e-06,1.0773581211723361e-06,1.6074310722740515e-06
30,2.113775371639543e-06,1.136229671824655e-06,1.715621952269104e-06,2.3223058443620877e-06,2.1731050279894307e-06,2.163120021622697e-06,1.3947485152595816e-06,3.14642109938548e-06,1.8973173718265507e-06,1.8999367565432312e-06,1.7082812584260449e-06,1.0209422839538789e-05,1.517233018983999e-06,2.227486576067805e-06,1.1039438647154703e-06,1.5729112235425891e-06
31,2.0793405541971495e-06,1.1260007577424354e-06,1.6614665843379727e-06,2.365917564146912e-06,2.2400501266416466e-06,2.2588478062221203e-06,1.3887250680758887e-06,3.208343611584524e-06,1.9130017290188265e-06,1.8511600237183156e-06,1.6963233604004513e-06,1.0280980653732863e-05,1.4996228339218161e-06,2.1610532127034304e-06,1.1301860497403008e-06,1.5391657206354623e-06
32,2.042301678590942e-06,1.1194518293627367e-06,1.6117883609939143e-06,2.4114070692420096e-06,2.305856469312689e-06,2.3642113043058103e-06,1.3824319757701505e-06,3.2646838363492512e-06,1.9231164274943905e-06,1.799514967562638e-06,1.6828921109518674e-06,1.0336766453940756e-05,1.4896446103166768e-06,2.105076926757685e-06,1.1556466689784364e-06,1.5064100386328557e-06
33,2.002807651856081e-06,1.1162596359227503e-06,1.5666089022987156e-06,2.45767326470928e-06,2.371078005101572e-06,2.479004241437222e-06,1.3762142705707667e-06,3.312744391693614e-06,1.9265343127959036e-06,1.7458698398270883e-06,1.6681341999588443e-06,1.0376772519171061e-05,1.487479948845738e-06,2.0594867796212647e-06,1.1800357571344376e-06,1.475168807583758e-06
34,1.9609288095905585e-06,1.115874108123534e-06,1.525962146519254e-06,2.5031708128600425e-06,2.436898606669869e-06,2.6028017431613347e-06,1.3703533904142594e-06,3.349852943766682e-06,1.922181791276889e-06,1.691113555531777e-06,1.6520822611977461e-06,1.040215523697223e-05,1.4930907542167785e-06,2.0240468596280113e-06,1.2031754424803893e-06,1.4462124334069999e-06
35,1.9166608201411622e-06,1.117578263916174e-06,1.4899392188541672e-06,2.5459820367422875e-06,2.5046931182218012e-06,2.734940411318299e-06,1.3650567166724952e-06,3.3737406493008953e-06,1.9092904987070524e-06,1.6361184185560716e-06,1.634666559292384e-06,1.0414924220433316e-05,1.5062535815603419e-06,1.9983405181597316e-06,1.2249342402064156e-06,1.4203587465961965e-06
36,1.8699269020439539e-06,1.1206471432282321e-06,1.4585937293102397e-06,2.5840177457827174e-06,2.575588850211341e-06,2.874479770375822e-06,1.3604846342214137e-06,3.382904540745473e-06,1.8877128121548156e-06,1.5817448830412326e-06,1.6156602887912495e-06,1.0417450346619078e-05,1.526663806567965e-06,1.9818208945773538e-06,1.2452107075774147e-06,1.3982617658733623e-06
37,1.8207604586318319e-06,1.124578030757198e-06,1.4318216923350002e-06,2.615365544074443e-06,2.6502434668890068e-06,3.0202561664445108e-06,1.3568824954642475e-06,3.3768237356544937e-06,1.8580247063886095e-06,1.5288019074339362e-06,1.594641418372293e-06,1.0411999983862535e-05,1.5539170535889524e-06,1.9739944087720147e-06,1.2639109397960776e-06,1.3803192109720499e-06
38,1.7695873273314798e-06,1.1292215161553169e-06,1.4093356557449467e-06,2.6386800252042435e-06,2.7288492330431582e-06,3.171047574859471e-06,1.3546925368569813e-06,3.355904730315798e-06,1.8213520949617664e-06,1.4780327075401697e-06,1.571065191809604e-06,1.0400439471999352e-05,1.5873739751710644e-06,1.97456925594106e-06,1.2809386758985157e-06,1.3667343495912785e-06
39,1.7173867100655222e-06,1.134693696865676e-06,1.390776888292695e-06,2.6534124543255397e-06,2.811265950716346e-06,3.325657719678951e-06,1.354498435129751e-06,3.321174401569099e-06,1.7790624877116093e-06,1.4301048608096436e-06,1.5444108846757884e-06,1.0384196689173696e-05,1.6260790757127121e-06,1.9833890042475863e-06,1.2962346592519627e-06,1.35764845769098e-06
40,1.665611974764525e-06,1.1411653826710284e-06,1.3759327134955787e-06,2.659728934186145e-06,2.897151679994305e-06,3.482769146350902e-06,1.3568493325606616e-06,3.2739142400897847e-06,1.7324741240215935e-06,1.3855494564011785e-06,1.5143307312219822e-06,1.0364459404085724e-05,1.668842259111434e-06,2.0002184159881164e-06,1.3097876513196102e-06,1.3532077938451286e-06
41,1.6159059097702388e-06,1.1486975431443547e-06,1.3648916368871493e-06,2.6581536139335358e-06,2.9859720709700768e-06,3.6407083233319733e-06,1.3621187292348328e-06,3.2153987108637614e-06,1.6827302373903118e-06,1.3446886382875364e-06,1.4807580827205325e-06,1.0342453948897319e-05,1.7145195147179988e-06,2.024619435148243e-06,1.3215860210832326e-06,1.3535027666287268e-06
42,1.5697877663450095e-06,1.1571933642534265e-06,1.3579822275162807e-06,2.6491327214032866e-06,3.076868322011621e-06,3.797391193785322e-06,1.370474744699298e-06,3.146708249640381e-06,1.6308854528149398e-06,1.3075895447140688e-06,1.4439443111400831e-06,1.0319599998310371e-05,1.762410041896617e-06,2.0560161723283092e-06,1.3315919783818166e-06,1.358472846603801e-06
43,1.5284789338225573e-06,1.1664311493166565e-06,1.3555829902507649e-06,2.632748420526932e-06,3.1684840361568408e-06,3.950479383865525e-06,1.3819151671455026e-06,3.0685534332930477e-06,1.578026166669784e-06,1.2740438268098437e-06,1.404433173700954e-06,1.0297435196200979e-05,1.8124862679974195e-06,2.093784057929117e-06,1.3397847220383377e-06,1.3678710100916114e-06
44,1.492882398230323e-06,1.1760926199723155e-06,1.3580181196187679e-06,2.6087314375264764e-06,3.258887182443607e-06,4.097549805171952e-06,1.3963059460964178e-06,2.981257235982503e-06,1.525230792417663e-06,1.2436047213885064e-06,1.3630044259082006e-06,1.0277361574033155e-05,1.8652294864424123e-06,2.1372041007899155e-06,1.3462394551943231e-06,1.381251551512082e-06
45,1.4636500081664335e-06,1.185752291802009e-06,1.365588123706278e-06,2.5767713079126135e-06,3.345623976474174e-06,4.236153565485397e-06,1.4134184022040385e-06,2.8850726548233633e-06,1.4734234045428852e-06,1.215708084369875e-06,1.3205758354142531e-06,1.0260343433974271e-05,1.921223495806343e-06,2.1853611120198653e-06,1.3511879342583604e-06,1.397942872609101e-06
46,1.4412624519733985e-06,1.1948877446159162e-06,1.3786057737670907e-06,2.5369583672002677e-06,3.4258424972266925e-06,4.363803335961931e-06,1.432946033591665e-06,2.780682684790716e-06,1.4233235404609314e-06,1.1898314468924858e-06,1.2780490973386599e-06,1.0246640058963277e-05,1.980825024374266e-06,2.23712485015388e-06,1.3549974715752897e-06,1.4170415788030472e-06
47,1.4260460160340182e-06,1.2029535340816556e-06,1.3973512221948123e-06,2.490087437429732e-06,3.496474444132148e-06,4.477987613038482e-06,1.4544925710136955e-06,2.669523777219762e-06,1.3755705669242478e-06,1.1656357431833058e-06,1.2361656998489283e-06,1.0235516890593105e-05,2.0440110305876433e-06,2.2911751188880216e-06,1.3580833676768955e-06,1.4374962007361673e-06
48,1.4181122810832316e-06,1.2094843562112503e-06,1.4219707704663555e-06,2.4376126604291094e-06,3.5545404983750367e-06,4.576304897262422e-06,1.4776028825129768e-06,2.553755370251219e-06,1.3308658318147134e-06,1.143066291033228e-06,1.195454668355527e-06,1.022486065576011e-05,2.110369887717664e-06,2.346015498711351e-06,1.3608727222337365e-06,1.4583137835272482e-06
49,1.4172996267569524e-06,1.214204055061764e-06,1.4523722249181897e-06,2.381283977617172e-06,3.597574131650345e-06,4.656751587679225e-06,1.5018320595212464e-06,2.4359716874108795e-06,1.2899505552288177e-06,1.1223666281644084e-06,1.1562776608159959e-06,1.0210938518571624e-05,2.179240182444452e-06,2.400137116675777e-06,1.36382637698333e-06,1.4787882969791657e-06
50,1.4232061928660634e-06,1.2171466114633894e-06,1.4881576868420035e-06,2.322732942959634e-06,3.6240254776612082e-06,4.718071402074324e-06,1.5267525575006252e-06,2.318849147698864e-06,1.2534796563012081e-06,1.1040048509757192e-06,1.1189247009429908e-06,1.018866327011584e-05,2.249887711091881e-06,2.4523787021461048e-06,1.367394469472547e-06,1.4985705727771914e-06
51,1.4353220793112365e-06,1.2187166594708002e-06,1.5286201359869314e-06,2.2632650031433872e-06,3.6334717371820027e-06,4.75995277831075e-06,1.5519720240022138e-06,2.2048572693905903e-06,1.2219388829547346e-06,1.088605680608469e-06,1.0836953671913036e-06,1.015225629546919e-05,2.3215301115366887e-06,2.5021006751761826e-06,1.371907368159652e-06,1.5175323196437147e-06
52,1.4531509387232952e-06,1.219589424652738e-06,1.5728286962348724e-06,2.2038717295454723e-06,3.6264865772583597e-06,4.7828503045431325e-06,1.577279966448915e-06,2.0960802881696876e-06,1.1956112513403375e-06,1.0769097024843407e-06,1.0509128706540685e-06,1.0095896910046334e-05,2.3932556468337623e-06,2.548901635071368e-06,1.3775097020608868e-06,1.5356143263285324e-06
53,1.4761838485147593e-06,1.220529402088491e-06,1.6197848961077426e-06,2.145291790204722e-06,3.604161034654422e-06,4.787428637798334e-06,1.6027377074309179e-06,1.9941507322945022e-06,1.174584400070071e-06,1.0697093872727823e-06,1.0208781357399282e-06,1.0014214699109403e-05,2.4639707447950592e-06,2.5921735136554755e-06,1.3841591007274921e-06,1.552830876969228e-06
54,1.5037534792953263e-06,1.222289512340192e-06,1.668523478709641e-06,2.0880084256232864e-06,3.5676178063097654e-06,4.774007826290652e-06,1.6285137780216796e-06,1.9002637862662353e-06,1.1588290453662365e-06,1.0677794140615366e-06,9.938315421311262e-07,9.902743214448603e-06,2.5323284463476168e-06,2.630885455500045e-06,1.391682440877267e-06,1.5693035308275697e-06
55,1.5349270775591175e-06,1.2255713681895154e-06,1.7180484084243164e-06,2.0322767071505753e-06,3.5179264283386535e-06,4.74244463836342e-06,1.654625261341432e-06,1.8152459101705978e-06,1.1482764538061743e-06,1.0718363148841436e-06,9.699637563973608e-07,9.758404659494366e-06,2.596638737371403e-06,2.663591292410531e-06,1.3998841129807942e-06,1.5851775606483004e-06
56,1.5685320143677713e-06,1.230957574491008e-06,1.7671965896285323e-06,1.9783471940954315e-06,3.4563393283306637e-06,4.692470729228373e-06,1.6808065906580879e-06,1.7396433379716362e-06,1.1427937312461775e-06,1.0825284593611067e-06,9.494358860118161e-07,9.579922765648171e-06,2.6548778363665207e-06,2.688498297568376e-06,1.4086254087693577e-06,1.6005301419725782e-06
57,1.6033519972663605e-06,1.2388679263047847e-06,1.8146241945138333e-06,1.9268000999536998e-06,3.3844391043518534e-06,4.624162684280624e-06,1.706503648338713e-06,1.6737607353837457e-06,1.1421062484799147e-06,1.1004803055772501e-06,9.323705877526114e-07,9.368007393643326e-06,2.704916092299871e-06,2.7036934114057135e-06,1.41783268748525e-06,1.615345880516961e-06
58,1.6384507879484293e-06,1.249626670230823e-06,1.8589787884786128e-06,1.8786463973264429e-06,3.303979764148768e-06,4.538212423418495e-06,1.7309423655679202e-06,1.6176324765350653e-06,1.1457588676518614e-06,1.1264116118794417e-06,9.188381585048537e-07,9.125293840944527e-06,2.7449852333089177e-06,2.7076416690128474e-06,1.42750351496748e-06,1.6294744467014943e-06
59,1.6733894974053475e-06,1.2635908089857795e-06,1.899154439964049e-06,1.835062898777426e-06,3.2165556978512943e-06,4.435881452066958e-06,1.7532712335038022e-06,1.5709916147885622e-06,1.153118134427708e-06,1.1612319880451068e-06,9.088559683225239e-07,8.856157537881121e-06,2.7741130800646636e-06,2.6995751853658387e-06,1.437738459827721e-06,1.6425938569860182e-06
60,1.7081321351491235e-06,1.2812009504483356e-06,1.9344739333094974e-06,1.7970397793658372e-06,3.1234189490692293e-06,4.318810093681685e-06,1.7726949172184278e-06,1.5332929802667874e-06,1.163432819091488e-06,1.2059738712093405e-06,9.023672658750767e-07,8.566456319073277e-06,2.7922172757631528e-06,2.679340203261349e-06,1.4487154176862709e-06,1.6542900902606895e-06
61,1.7427475335422174e-06,1.3029007070297302e-06,1.9646753366012315e-06,1.7652211510562271e-06,3.025586442922089e-06,4.1889204691442635e-06,1.788542050209455e-06,1.5038214689740481e-06,1.176000421144162e-06,1.2616549893899128e-06,8.99199589267064e-07,8.26311534040049e-06,2.799901317422415e-06,2.6470057531748118e-06,1.4605632868864188e-06,1.6641912965212142e-06
62,1.7771753737967777e-06,1.3289977023517324e-06,1.9897038267394923e-06,1.7399581427154884e-06,2.924062657036077e-06,4.048441865758269e-06,1.800376231436734e-06,1.4818627904328204e-06,1.190388460407826e-06,1.3293007834447943e-06,8.990671445665575e-07,7.953562693683196e-06,2.7982109507588258e-06,2.602762685497082e-06,1.473239266437005e-06,1.6719988198115235e-06
63,1.8111846271837123e-06,1.3595616224442796e-06,2.009510132052537e-06,1.7215178262574868e-06,2.8199442470304576e-06,3.899898421302063e-06,1.8081144055772006e-06,1.466801067449091e-06,1.2065492147477323e-06,1.4101639139977768e-06,9.016399202573517e-07,7.645239372943619e-06,2.788478718452701e-06,2.5470701880467876e-06,1.4865119748464749e-06,1.677456677261391e-06
64,1.8444716010015635e-06,1.3943974051742903e-06,2.0240734351954936e-06,1.7103576013803407e-06,2.714324011733597e-06,3.7459257420889185e-06,1.8119325595048929e-06,1.4580363758978634e-06,1.22471896603651e-06,1.5059754695352934e-06,9.066082698438747e-07,7.3453733236888435e-06,2.7721815523495403e-06,2.4808291088546242e-06,1.5000242860261581e-06,1.6804182408688918e-06
65,1.8767410440978306e-06,1.433073619008531e-06,2.0335559494675775e-06,1.7072705174652555e-06,2.608142976614307e-06,3.5889928178865406e-06,1.8120309979883702e-06,1.4548196664088596e-06,1.245177793851365e-06,1.6190327287284073e-06,9.136704132300812e-07,7.060946656753232e-06,2.750754496123882e-06,2.4055253791454914e-06,1.5133963095060067e-06,1.6809604617629324e-06
66,1.9076557035502444e-06,1.4749628613438241e-06,2.038297573108406e-06,1.7132844961847447e-06,2.502204299416354e-06,3.431250861699103e-06,1.8085658832392861e-06,1.456212393901673e-06,1.268054454600947e-06,1.7520230276650383e-06,9.224733611986339e-07,6.798645464167144e-06,2.7254085398188936e-06,2.32317585601025e-06,1.526349144819032e-06,1.6794121185163772e-06
67,1.9367124037523154e-06,1.519264048133475e-06,2.0386119788678923e-06,1.729410639929438e-06,2.3972821233687693e-06,3.274571221426429e-06,1.8017989469418244e-06,1.4612480269935932e-06,1.2932988639345604e-06,1.907693894775773e-06,9.325760191135607e-07,6.564684852612634e-06,2.6969751879323983e-06,2.2360057790799876e-06,1.538766149554649e-06,1.6763391468271616e-06
68,1.963156036229292e-06,1.5650173790182005e-06,2.0346084911758897e-06,1.756421485793138e-06,2.29411100913622e-06,3.120576624238728e-06,1.7922404623446825e-06,1.4691545561412503e-06,1.3207731987242596e-06,2.088628078122601e-06,9.434520923005716e-07,6.3645595362956964e-06,2.6657791902246184e-06,2.146129145397261e-06,1.5506293028746204e-06,1.6725154143523071e-06
69,1.9859841692572424e-06,1.6111487070291116e-06,2.026141553105781e-06,1.7947520270175057e-06,2.1932793955791335e-06,2.9705482716823342e-06,1.780606145753179e-06,1.479417858920406e-06,1.3503123068084065e-06,2.2972317376417067e-06,9.545469995872935e-07,6.202813535171767e-06,2.6315841522866584e-06,2.055407138978276e-06,1.5618905302666091e-06,1.6687920959092162e-06
70,2.004084877647836e-06,1.6565348251697458e-06,2.0128494010598183e-06,1.8445029380316699e-06,2.0952022059698325e-06,2.82541968425891e-06,1.7676455117901876e-06,1.4916346670601905e-06,1.3817441471781213e-06,2.535774683927838e-06,9.654091716345435e-07,6.082858927156479e-06,2.593626650107596e-06,1.965391460495303e-06,1.572403319104526e-06,1.665914890518264e-06
71,2.0164990621681473e-06,1.7000212755358953e-06,1.994302197927812e-06,1.905515020449978e-06,2.000210601129502e-06,2.686037482956528e-06,1.7540383953018939e-06,1.5053486743234151e-06,1.4149337785967848e-06,2.806359778928471e-06,9.758409279077431e-07,6.006822209256732e-06,2.550760801144058e-06,1.877327150443373e-06,1.5819931485457505e-06,1.6644165641007207e-06
72,2.022695750093166e-06,1.7403736435789454e-06,1.97022350947277e-06,1.977467723256797e-06,1.908665780540537e-06,2.553469474640658e-06,1.7404253361258171e-06,1.520008061562222e-06,1.4497694787229893e-06,3.110898720707186e-06,9.85947802242755e-07,5.9754311981399335e-06,2.5018478659996257e-06,1.792220168658472e-06,1.590581426771859e-06,1.6645675077513835e-06
73,2.0227026668676716e-06,1.7762700007839267e-06,1.9406490594419063e-06,2.0598901144684455e-06,1.8210313757721633e-06,2.4290535235530895e-06,1.72743567215337e-06,1.5349665142717604e-06,1.4860877618948916e-06,3.4511036720769496e-06,9.960365282462153e-07,5.987978612013161e-06,2.4463884195710336e-06,1.7108791153339886e-06,1.5981933200020967e-06,1.6663640629861671e-06
74,2.0169898666424315e-06,1.8064477261252e-06,1.9059822386354384e-06,2.152051375133361e-06,1.7378891027663988e-06,2.314182651437317e-06,1.7156031467445251e-06,1.5494743923076659e-06,1.5236546228719711e-06,3.82839005232199e-06,1.0064724564071339e-06,6.0423395007525814e-06,2.3850025591218327e-06,1.633934231007589e-06,1.6048495252269763e-06,1.6696021721840021e-06
75,2.0061982163893525e-06,1.8299152222188104e-06,1.8670030777799902e-06,2.252839865922229e-06,1.6598759916127521e-06,2.2100424249824974e-06,1.7052431423601106e-06,1.5627219697317908e-06,1.5621724631328425e-06,4.243702607504506e-06,1.017628121779319e-06,6.1349768932434225e-06,2.319346142439868e-06,1.5618947180739059e-06,1.610465618462662e-06,1.674008399305296e-06
76,1.9909634127146234e-06,1.8460032615274403e-06,1.8248552854041914e-06,2.3607236860183987e-06,1.587545527381539e-06,2.117500079501694e-06,1.6964009654737226e-06,1.5739990000182593e-06,1.6012683077577169e-06,4.697366017536481e-06,1.0298876872621582e-06,6.260914492411987e-06,2.251553904903466e-06,1.4951936158916673e-06,1.6147868064486956e-06,1.6793625423550068e-06
77,1.971951425882726e-06,1.8542754599965294e-06,1.7809822495162393e-06,2.4738175585938403e-06,1.5212382058985335e-06,2.037182048897318e-06,1.6888578560174665e-06,1.5829042850151493e-06,1.6405111615802575e-06,5.189020097309901e-06,1.0435990340982528e-06,6.413745718862379e-06,2.183669661574771e-06,1.43417761014621e-06,1.617358676080324e-06,1.685565208300922e-06
78,1.949946577795011e-06,1.8545672722914643e-06,1.7369676378442952e-06,2.590045587578145e-06,1.461082813314216e-06,1.9696027332233548e-06,1.6821593667342714e-06,1.589401506651028e-06,1.6794322315426109e-06,5.717623349916081e-06,1.0589834731640987e-06,6.585792356679443e-06,2.11737422456639e-06,1.379076126370942e-06,1.6175980244342018e-06,1.6925962131636157e-06
79,1.9257902221136013e-06,1.84716302350305e-06,1.6942977229360225e-06,2.7073374330621905e-06,1.407119133632846e-06,1.915183400616766e-06,1.6756868051084585e-06,1.5936562070716492e-06,1.717534429142701e-06,6.281437103754594e-06,1.0760809940021956e-06,6.768460916895053e-06,2.0539660730442386e-06,1.3299590757874625e-06,1.6149485718170754e-06,1.7003674263546242e-06
80,1.9001952160739896e-06,1.8328295662799386e-06,1.6541644340221727e-06,2.823798370069018e-06,1.359370602825088e-06,1.874169696011707e-06,1.6687385055924562e-06,1.5958268396081033e-06,1.7543790519631821e-06,6.877962086866375e-06,1.09474489001168e-06,6.952770758889967e-06,1.994419425925721e-06,1.2867211260189253e-06,1.6089742304235862e-06,1.7085821351876885e-06
81,1.8736492417818999e-06,1.8126302666842606e-06,1.6174041323405063e-06,2.9378109145483366e-06,1.3177926710046713e-06,1.8465967581665925e-06,1.6605381891970385e-06,1.5959847937951387e-06,1.789698159189324e-06,7.50384320490976e-06,1.1146831330917748e-06,7.130001958592574e-06,1.939499922711708e-06,1.2491868060811704e-06,1.5992956819962278e-06,1.716739358665154e-06
82,1.846479954173385e-06,1.7876853213224808e-06,1.5845404437270688e-06,3.047971896941563e-06,1.28220630281918e-06,1.8323271116689602e-06,1.6502274337037454e-06,1.5941833891177339e-06,1.8233518269777815e-06,8.154641728268569e-06,1.1355657446305733e-06,7.292298926721847e-06,1.889947388794674e-06,1.2173342392365492e-06,1.5854835466767214e-06,1.7242624819152986e-06
83,1.818899646137988e-06,1.7589927377472385e-06,1.5558940333532782e-06,3.1528440721121424e-06,1.2522947332650192e-06,1.8310444370518093e-06,1.6370048825163133e-06,1.5905487286417477e-06,1.8551773258215655e-06,8.824446315037564e-06,1.1571113968732475e-06,7.433013858455189e-06,1.8465555538129628e-06,1.191469970200889e-06,1.5670898269048785e-06,1.730567807430399e-06
84,1.7909349429000362e-06,1.7273688773253848e-06,1.5317601426876308e-06,3.2507701905797787e-06,1.2276968060696185e-06,1.842195488152207e-06,1.6203525402535368e-06,1.5852656051431763e-06,1.8849583353749198e-06,9.505539505062378e-06,1.1790291143459005e-06,7.54680495962633e-06,1.8100614687332214e-06,1.1722095876714683e-06,1.5438051693468538e-06,1.7350693393950455e-06
85,1.7623885764099116e-06,1.6935218816385915e-06,1.5125439509598494e-06,3.3400082967110586e-06,1.2081918953699133e-06,1.8649588399227408e-06,1.6000804472498337e-06,1.5785328696995737e-06,1.9125505373600552e-06,1.0188254617423082e-05,1.2008962138684497e-06,7.629676959537561e-06,1.7809920904732617e-06,1.160346810558781e-06,1.5155513073489649e-06,1.7373401501158492e-06
86,1.732944943160153e-06,1.658123865822624e-06,1.4987151772505092e-06,3.419099857249047e-06,1.1937968110995667e-06,1.8982565588585088e-06,1.5761748165060276e-06,1.570629582431413e-06,1.9380068623433253e-06,1.0860960776609666e-05,1.2221623400464023e-06,7.679009915606734e-06,1.759611620313235e-06,1.156733978706562e-06,1.4824462894902526e-06,1.737412488547213e-06
87,1.7023349184007989e-06,1.6217581327755402e-06,1.4906406871020061e-06,3.487212465059136e-06,1.1846390532632565e-06,1.9407671235213238e-06,1.5487362474909898e-06,1.5620166521486127e-06,1.961635727201648e-06,1.1510395041927552e-05,1.2423142049983452e-06,7.693500638819103e-06,1.7459986094779068e-06,1.1621689550065438e-06,1.4447980148065623e-06,1.7359033279865762e-06
88,1.6704243910478413e-06,1.5848272534519924e-06,1.4884676584624669e-06,3.544291027053981e-06,1.1807614204378373e-06,1.990883388714553e-06,1.5181136927799685e-06,1.553345122370239e-06,1.9840146617583305e-06,1.212277308983903e-05,1.26106474341431e-06,7.673048997885169e-06,1.7402035512861133e-06,1.1773316233214666e-06,1.403148627281834e-06,1.733833463284032e-06
89,1.6372382965215527e-06,1.5475845835823264e-06,1.4921260064033344e-06,3.5909570506140322e-06,1.1820595793519463e-06,2.0466598405764985e-06,1.4850293862713098e-06,1.5454180225515984e-06,2.0058965895730372e-06,1.2685479831257385e-05,1.2784010841812735e-06,7.618728403052436e-06,1.742362975304821e-06,1.2028099704407291e-06,1.358229568788168e-06,1.7323381402246185e-06
90,1.6030331664673584e-06,1.5102802479878359e-06,1.5013927881680963e-06,3.628233398465388e-06,1.188346239034362e-06,2.1058784178578275e-06,1.450502909825833e-06,1.5391484842566829e-06,2.0279886367677716e-06,1.3188532878719342e-05,1.2944590032985189e-06,7.53286936510046e-06,1.7526580360866748e-06,1.239133016272609e-06,1.3108803399096492e-06,1.7324769986695748e-06
91,1.5684110669709088e-06,1.4732425787443114e-06,1.5159480796916327e-06,3.657277001432488e-06,1.1994069752028092e-06,2.1662498154408947e-06,1.4156114278356049e-06,1.5354553011046455e-06,2.0507742474159624e-06,1.3625317750655026e-05,1.309363230304112e-06,7.419089247939194e-06,1.7711985968459226e-06,1.2867725549425318e-06,1.2620181736736664e-06,1.735153838955817e-06
92,1.5343134431481177e-06,1.4368312368074305e-06,1.5354045967507557e-06,3.679251599931858e-06,1.2149852694580151e-06,2.2256071300163907e-06,1.381277530482782e-06,1.5351175418860224e-06,2.0744798058037975e-06,1.3992599672466768e-05,1.323143641791263e-06,7.282089620962905e-06,1.797997526797346e-06,1.3461432792896758e-06,1.2125644292995097e-06,1.7410935769468532e-06
93,1.5018210656375774e-06,1.4014293698751173e-06,1.559301706174544e-06,3.695319551400961e-06,1.2347585833416082e-06,2.281915568476321e-06,1.3481893344000695e-06,1.5386782751862291e-06,2.099069782304057e-06,1.4289816049635457e-05,1.3356988187119487e-06,7.127220279000569e-06,1.8329788038943265e-06,1.4176270288728554e-06,1.1633250235143288e-06,1.7508867955359992e-06
94,1.4719205496544434e-06,1.3675447026316886e-06,1.587047971990852e-06,3.7066083372297343e-06,1.2583387808464919e-06,2.3331074410891345e-06,1.3168122273326686e-06,1.5463991118133733e-06,2.1242340280549853e-06,1.4517670818753415e-05,1.3468115143509569e-06,6.959929014430681e-06,1.875890687658823e-06,1.5016576463462531e-06,1.1149471819559381e-06,1.7650596374361682e-06
95,1.4454043739824704e-06,1.3358327249413277e-06,1.617867176207318e-06,3.71403646990762e-06,1.2852893938746536e-06,2.377026171768108e-06,1.2874510897414068e-06,1.5582480412859552e-06,2.149460223547222e-06,1.4676894923161062e-05,1.3562506433954124e-06,6.7851907883974184e-06,1.92622070346344e-06,1.5988019212371778e-06,1.0679730476696566e-06,1.7840515420088362e-06
96,1.4229032924187202e-06,1.3069426389748996e-06,1.6508467889419386e-06,3.718057844446801e-06,1.3151976312893783e-06,2.411669685246343e-06,1.2603139413007427e-06,1.5739596866968692e-06,2.1741933227333704e-06,1.476862657324939e-05,1.3638402419326175e-06,6.607062163461152e-06,1.98323853266358e-06,1.7097184460454816e-06,1.0229177128360595e-06,1.808088482281863e-06
97,1.404963304891194e-06,1.2813414191444167e-06,1.6850832735145816e-06,3.7185311120130674e-06,1.3477515620404787e-06,2.435519119425717e-06,1.2355067548785625e-06,1.5931472402829678e-06,2.197961617639255e-06,1.4796298346754989e-05,1.3693770265554891e-06,6.428604529114595e-06,2.04608170761066e-06,1.8350396794195717e-06,9.802926393659278e-07,1.8370632998682616e-06
98,1.3920689211654893e-06,1.2592667155552454e-06,1.7198071090011453e-06,3.7148440197674048e-06,1.382711214815413e-06,2.447668059034998e-06,1.2129822587237923e-06,1.6153540725104886e-06,2.220375992682846e-06,1.4766993912049812e-05,1.372493000906384e-06,6.252222571262124e-06,2.113809794136604e-06,1.975302372125169e-06,9.405431281312395e-07,1.8705055773660124e-06
99,1.384620539282965e-06,1.2407696698861833e-06,1.754397390625937e-06,3.7061820984838284e-06,1.4198647106366283e-06,2.447764387958129e-06,1.192522262437561e-06,1.6400131870939904e-06,2.2411880003883717e-06,1.4691009994656662e-05,1.3726228868326419e-06,6.080155512417158e-06,2.185515934122406e-06,2.13093895586534e-06,9.039780124513679e-07,1.907647149041801e-06
100,1.382938684671341e-06,1.2257467456771016e-06,1.7882754016063129e-06,3.69175431424275e-06,1.459130174837665e-06,2.435942401232337e-06,1.1737953980515971e-06,1.6664373813572978e-06,2.2605610785534675e-06,1.4580446107061369e-05,1.369145610950005e-06,5.914838169918255e-06,2.260458017856095e-06,2.3022394148256087e-06,8.707898561408308e-07,1.947555159607139e-06
101,1.3872601292284644e-06,1.2139817633887877e-06,1.8207227845759551e-06,3.6709243686908076e-06,1.5006795945197445e-06,2.412812006327357e-06,1.1564919648028618e-06,1.6938903508944887e-06,2.2792280871816166e-06,1.4448247990378898e-05,1.3616499491466284e-06,5.759001532732784e-06,2.338000480756583e-06,2.4892317258140177e-06,8.411345757460572e-07,1.9892457607050125e-06
102,1.3977130990838234e-06,1.2052485667547793e-06,1.8507362899816067e-06,3.6432779682434547e-06,1.5448541974467254e-06,2.379391434134541e-06,1.140441832334829e-06,1.7216164930359762e-06,2.298288071625735e-06,1.430823731963861e-05,1.350135513730106e-06,5.615530658165454e-06,2.417360205543443e-06,2.6915539967521743e-06,8.151989659005986e-07,2.031673641326824e-06
103,1.4143312742864008e-06,1.199388613212478e-06,1.8770720165278776e-06,3.608643556464967e-06,1.5919385774634386e-06,2.33687873284237e-06,1.125580190255239e-06,1.7488269881263461e-06,2.3188852308958487e-06,1.4175545741245344e-05,1.3350056478889833e-06,5.487230934625409e-06,2.4974043081853304e-06,2.9083860900914106e-06,7.932519471398403e-07,2.0736540428034634e-06
104,1.4370546081105235e-06,1.1962758907483924e-06,1.8985483004680437e-06,3.5670918315581793e-06,1.6420410221059577e-06,2.2863854383770946e-06,1.1117949258969721e-06,1.7748090870892728e-06,2.3420063902722756e-06,1.4066412474142443e-05,1.3169210248084198e-06,5.376648499422917e-06,2.576708187384515e-06,3.1384143358081778e-06,7.756394397684887e-07,2.1138814527917406e-06
105,1.4656640855952694e-06,1.1957604048562213e-06,1.9144857840887557e-06,3.5189452767900816e-06,1.6951620089733935e-06,2.228856180401281e-06,1.0988393826024336e-06,1.7991306215188884e-06,2.3683961856009242e-06,1.3996934000414283e-05,1.2966425563199457e-06,5.28589881867568e-06,2.653873740323843e-06,3.3797902328353883e-06,7.62702590924619e-07,2.1510782959103455e-06
106,1.4997536441695483e-06,1.1977032355916984e-06,1.9250311869427316e-06,3.464814359594638e-06,1.7513223074668759e-06,2.1651990280582745e-06,1.0864162941705237e-06,1.8216956611577973e-06,2.3985451454150107e-06,1.3981495757045869e-05,1.274904802863074e-06,5.216410106097529e-06,2.7279036029165704e-06,3.6300804592414215e-06,7.547271563042375e-07,2.1842255110339314e-06
107,1.5388202782000502e-06,1.20202527987878e-06,1.9311627491703816e-06,3.40567283638298e-06,1.8105763369860825e-06,2.0964794864816124e-06,1.0743701186863413e-06,1.8425810837077594e-06,2.432754436049802e-06,1.4031795852713697e-05,1.252331578467677e-06,5.168729003595549e-06,2.7983432906278057e-06,3.886236889081472e-06,7.519608273053763e-07,2.2128394679575186e-06
108,1.5823694863902735e-06,1.2086801648186989e-06,1.934367445693923e-06,3.342950471699198e-06,1.872872668025844e-06,2.0240387743845706e-06,1.062833733509545e-06,1.8618639683516092e-06,2.4713699710707656e-06,1.4156594298583093e-05,1.2294097480125372e-06,5.142565281775634e-06,2.865055352262344e-06,4.144636635532555e-06,7.546004378147626e-07,2.237158929935221e-06
109,1.6298969498460022e-06,1.217640608882236e-06,1.936181555503552e-06,3.27853602368429e-06,1.9378902516125963e-06,1.9494342697292785e-06,1.0522153154577068e-06,1.8796383471101976e-06,2.51513157508414e-06,1.4361890236685986e-05,1.2065037902968548e-06,5.136975053031315e-06,2.9278108197797753e-06,4.401355835311743e-06,7.627380155260894e-07,2.2580657577911248e-06
110,1.6807876674406809e-06,1.2289346997009168e-06,1.9378463592546037e-06,3.2145631479307206e-06,2.0050064011625063e-06,1.8742277275150313e-06,1.0430830296334982e-06,1.8961752451643018e-06,2.565257520666203e-06,1.4651165024093666e-05,1.183876964480269e-06,5.150494661372119e-06,2.986066733693172e-06,4.652776168789488e-06,7.763455300177174e-07,2.2767475502438863e-06
111,1.73425384594008e-06,1.242614006522011e-06,1.940174789041701e-06,3.1530300606688633e-06,2.0734497656575834e-06,1.7998198627937397e-06,1.0360932223044403e-06,1.911998075654848e-06,2.6231108689447314e-06,1.502539663255541e-05,1.1616970143234143e-06,5.181163631750674e-06,3.03915185385953e-06,4.896184138889013e-06,7.952936777099406e-07,2.2943059133749844e-06
112,1.7893252193424703e-06,1.2586500205356821e-06,1.943552515780403e-06,3.095520956930503e-06,2.142529751686525e-06,1.727422764767305e-06,1.0319623835661734e-06,1.9277422859893876e-06,2.689800664039664e-06,1.5483128478097546e-05,1.14003428296856e-06,5.226468025157668e-06,3.086665501720987e-06,5.129964252206059e-06,8.193489272752614e-07,2.31150611283303e-06
113,1.8449242294872216e-06,1.2768779214880175e-06,1.948027033203466e-06,3.0431732172915166e-06,2.211729279846348e-06,1.6580597926056587e-06,1.0314190451265943e-06,1.9439464107683226e-06,2.7660429787142242e-06,1.6021172529011525e-05,1.11886822059058e-06,5.2832409517013285e-06,3.1285993444759183e-06,5.353404426306377e-06,8.481636515668249e-07,2.328728790574916e-06
114,1.900092229611592e-06,1.2969886249550354e-06,1.9534982797069064e-06,2.996732618659776e-06,2.280560085976205e-06,1.5925673032425446e-06,1.0351561252363e-06,1.9609516043380014e-06,2.852245558358263e-06,1.6635795169051815e-05,1.0980785678945068e-06,5.3475393819695805e-06,3.1650268452790042e-06,5.566250427140793e-06,8.812853892950321e-07,2.3460672270491267e-06
115,1.954191737830886e-06,1.3185061203742013e-06,1.9599521014255863e-06,2.956613391129685e-06,2.3483374788836974e-06,1.5316449675572457e-06,1.043776960869705e-06,1.978857172345181e-06,2.948611891656658e-06,1.7323637154002437e-05,1.0774156345145787e-06,5.414630416472321e-06,3.1957755298837946e-06,5.768235356497214e-06,9.181647202236076e-07,2.3634201846234083e-06
116,2.0068079593785112e-06,1.3407952416507773e-06,1.9676338108465316e-06,2.923050706682746e-06,2.4140805578058684e-06,1.475883413525969e-06,1.057719403622517e-06,1.9974768884667397e-06,3.055197347127828e-06,1.8081939717543375e-05,1.0565027702844814e-06,5.479316644495398e-06,3.2204340310829317e-06,5.959103687798342e-06,9.581648003633653e-07,2.3804634377840795e-06
117,2.0574516138327748e-06,1.3631279666325895e-06,1.977094804539113e-06,2.8962166057457014e-06,2.4765562360949276e-06,1.425721364044307e-06,1.077214383371939e-06,2.0163904231728718e-06,3.171980878353459e-06,1.8908193761386475e-05,1.0349450574457942e-06,5.536634499929687e-06,3.2385595501896064e-06,6.139260125989829e-06,1.0005820500224831e-06,2.39655376993117e-06
118,2.1054731080844334e-06,1.3847381865704973e-06,1.9890782628663693e-06,2.8761032018194815e-06,2.5344186654386365e-06,1.3814279287489341e-06,1.1023084654047809e-06,2.035095446911503e-06,3.2989162298784746e-06,1.97996471403479e-05,1.0125486338995958e-06,5.5826587037390444e-06,3.2497758412823653e-06,6.310329168912476e-06,1.0446435072519373e-06,2.4106685866224085e-06
119,2.1503515564102564e-06,1.4049104042144672e-06,2.0042865476492305e-06,2.862321090714307e-06,2.5864332797433824e-06,1.3431650981334491e-06,1.1328960347579969e-06,2.0530971610209434e-06,3.4358597024570837e-06,2.0752992682580197e-05,9.894738614617756e-07,5.615038783010631e-06,3.2536499818725765e-06,6.47492030662166e-06,1.0894792691651682e-06,2.4214454301899027e-06
120,2.1920826418995246e-06,1.4231868221376408e-06,2.0231840857432127e-06,2.854023767481613e-06,2.6317043717667783e-06,1.3110386771650808e-06,1.1686990854561119e-06,2.0698750308751914e-06,3.582387127917243e-06,2.176394561899008e-05,9.661582232404522e-07,5.633049122513447e-06,3.249569210677324e-06,6.635717889174918e-06,1.1341457461816125e-06,2.427402125837394e-06
121,2.231301069526315e-06,1.4395535418221487e-06,2.0459705206649897e-06,2.8499353396986476e-06,2.669778858571572e-06,1.2850847823578063e-06,1.2092170635058908e-06,2.084905408692742e-06,3.7376075225486995e-06,2.2826256351898007e-05,9.43121498896129e-07,5.63725260392193e-06,3.2369561500967228e-06,6.794614565262959e-06,1.1777611600269171e-06,2.4272787066187894e-06
122,2.269048198406165e-06,1.4544144943585578e-06,2.072652283682963e-06,2.848452952732692e-06,2.7005920102560937e-06,1.2652499641242474e-06,1.253735382888177e-06,2.0978080314585477e-06,3.900048837230715e-06,2.3930661062712406e-05,9.208411176336747e-07,5.629069395669175e-06,3.2157763268795028e-06,6.952388772334985e-06,1.2196701944215518e-06,2.4202684562372724e-06
123,2.306380076675196e-06,1.4683648128799836e-06,2.103040104143123e-06,2.847810756615303e-06,2.7243163286787324e-06,1.2513751424813163e-06,1.3014280759060619e-06,2.108405733573576e-06,4.067621723058391e-06,2.506477629508996e-05,8.996993795066907e-07,5.610435733522307e-06,3.1868881250925184e-06,7.1088781633827965e-06,1.2594464166376108e-06,2.4060647691544676e-06
124,2.344087589945495e-06,1.4819334391264339e-06,2.136705069896927e-06,2.846201484328943e-06,2.7411728221601976e-06,1.2431553734442646e-06,1.3514758305771105e-06,2.116632697875668e-06,4.237601356594734e-06,2.6213796896838873e-05,8.799486929234305e-07,5.5835514908743135e-06,3.151950606569627e-06,7.263508833777482e-06,1.2967012968857934e-06,2.3848389641664254e-06
125,2.382671972756594e-06,1.4954395859598044e-06,2.1730261094531448e-06,2.8418434336973105e-06,2.751220262312203e-06,1.2401144272318616e-06,1.4031526025838793e-06,2.1224864378160386e-06,4.406585390996202e-06,2.7360871072959093e-05,8.617210940683947e-07,5.550708812136049e-06,3.113065018831752e-06,7.416046651891681e-06,1.330890392362737e-06,2.357181303398899e-06
126,2.4224649574709147e-06,1.5089840535893216e-06,2.2112879347681525e-06,2.8330995051528812e-06,2.7541702487080703e-06,1.2416664598684793e-06,1.455943901415046e-06,2.1260864081549046e-06,4.570594850585062e-06,2.848651421222097e-05,8.450903684781179e-07,5.514285129728352e-06,3.0724548790159222e-06,7.56713033440417e-06,1.3612572348855347e-06,2.323999979092194e-06
127,2.463661686540029e-06,1.5225003639820832e-06,2.2507521025361124e-06,2.818657464930468e-06,2.7493724872851474e-06,1.2472603955761466e-06,1.5096245943135188e-06,2.12770476131609e-06,4.725488326763382e-06,2.9567316006408148e-05,8.301375290464831e-07,5.476952805522209e-06,3.032248352821255e-06,7.718072243145937e-06,1.386922220810716e-06,2.286448473895233e-06
128,2.5062308010734188e-06,1.5357744919548762e-06,2.290722110232755e-06,2.797662347859816e-06,2.7360576400494824e-06,1.2564763674171585e-06,1.5641377007228396e-06,2.127709021061467e-06,4.8674530706958475e-06,3.057502754895943e-05,8.16985607313437e-07,5.44198916853826e-06,2.9943219992556177e-06,7.87001652218769e-06,1.4070850265800066e-06,2.2458825453772736e-06
129,2.5498283219696866e-06,1.5484780287144153e-06,2.330607456600996e-06,2.7697604482032437e-06,2.713706082061282e-06,1.2689980520011526e-06,1.6193668197559739e-06,2.1264941692160965e-06,4.993209911844228e-06,3.147791614323863e-05,8.057883441274003e-07,5.413447922674714e-06,2.9602356952964057e-06,8.023255046736036e-06,1.4212314942489618e-06,2.203741362959218e-06
130,2.593743262293098e-06,1.560325603880005e-06,2.3699412420434463e-06,2.735124880089342e-06,2.682324100469156e-06,1.2845647716974278e-06,1.674980414798674e-06,2.12446779433932e-06,5.099971047528087e-06,3.2245349259128434e-05,7.966741800885752e-07,5.396036895915726e-06,2.931202348440634e-06,8.177209590975895e-06,1.4291840934359753e-06,2.1613263308717383e-06
131,2.636858084853076e-06,1.5712748944014374e-06,2.4083201906081346e-06,2.6944915072451093e-06,2.642519262143985e-06,1.302994874942548e-06,1.7303623167731144e-06,2.122063374649194e-06,5.185447126713769e-06,3.2853408823538694e-05,7.897117012549861e-07,5.3947432579578315e-06,2.9080113014918853e-06,8.330742487579083e-06,1.430961651405822e-06,2.1195946336303563e-06
132,2.677703402966822e-06,1.581594255125957e-06,2.445283313403485e-06,2.6491358405613306e-06,2.595404792993235e-06,1.3242242606312416e-06,1.7846130844565347e-06,2.1197300922830955e-06,5.247863586866441e-06,3.3287511180152754e-05,7.849492924266354e-07,5.41435507591215e-06,2.8909958683926203e-06,8.482450017051297e-06,1.4266278116428764e-06,2.079077459845517e-06
133,2.714704309238134e-06,1.5917728739601818e-06,2.4801782979416782e-06,2.600731963210343e-06,2.542430023512585e-06,1.348266339921367e-06,1.8366440521224558e-06,2.1178870014415806e-06,5.285732595576391e-06,3.353996400106853e-05,7.824589769184074e-07,5.459048629572924e-06,2.880134401890028e-06,8.631043663724104e-06,1.416334729144309e-06,2.0399275135023434e-06
134,2.7465572539777423e-06,1.6023657498008676e-06,2.512088577841751e-06,2.5511247433277807e-06,2.4851938912407165e-06,1.3750858969071173e-06,1.8853594174560102e-06,2.116846627437674e-06,5.297785438427999e-06,3.360467585595384e-05,7.823088540508498e-07,5.53216634050267e-06,2.875181222108023e-06,8.77588130629698e-06,1.4005012270831647e-06,2.0020366730986116e-06
135,2.7725153943531935e-06,1.6138484862654216e-06,2.539912128243861e-06,2.5020944611926406e-06,2.425232959367151e-06,1.4044634768944275e-06,1.929858306746322e-06,2.11671391749755e-06,5.283627139143461e-06,3.347464563903041e-05,7.845093959955937e-07,5.6361652095996e-06,2.8756844510356985e-06,8.917322036727896e-06,1.3798623456628698e-06,1.9651485030583617e-06
136,2.792447180458882e-06,1.626498312383926e-06,2.5625928626380856e-06,2.455169223851978e-06,2.3638292161743895e-06,1.4359236067341082e-06,1.9695243039658184e-06,2.1173437712477284e-06,5.2445555690085515e-06,3.314528348980416e-05,7.889917925736122e-07,5.772598617235659e-06,2.8809293064723564e-06,9.056447650066175e-06,1.3553227488028239e-06,1.9289511215028404e-06
137,2.8067347269201524e-06,1.6403075966655521e-06,2.5793051728798476e-06,2.411535679701283e-06,2.3019542081038607e-06,1.4687233915329839e-06,2.003918651669807e-06,2.1184614162114274e-06,5.183626447359075e-06,3.261967455229401e-05,7.955972504599739e-07,5.942021315155233e-06,2.889918919345701e-06,9.194163138310949e-06,1.327830177004206e-06,1.8932021218032218e-06
138,2.8161211187014523e-06,1.6549712388818135e-06,2.5893807115195583e-06,2.3721038723286896e-06,2.2403741461611605e-06,1.5018709148907472e-06,2.032593503244784e-06,2.119845113084748e-06,5.1049894081967284e-06,3.1910436695995735e-05,8.04055508560768e-07,6.143827270240355e-06,2.9013531370828293e-06,9.330216570533714e-06,1.2983682167426893e-06,1.8578704451386115e-06
139,2.821530652553456e-06,1.6699782674632687e-06,2.592088116754617e-06,2.337656281974507e-06,2.1798127825903293e-06,1.5342126309368078e-06,2.055058712061651e-06,2.121342429036098e-06,5.013047960229919e-06,3.103766271226699e-05,8.13983291011625e-07,6.376156070477483e-06,2.913567392983736e-06,9.462630804579165e-06,1.2679178131017167e-06,1.8232034945333607e-06
140,2.8238386651917055e-06,1.684731527188336e-06,2.5865790256654274e-06,2.308900770459886e-06,2.1210533519420715e-06,1.5646176389358956e-06,2.0709561423753407e-06,2.1227319726079316e-06,4.9117934462498555e-06,3.0025740901504188e-05,8.249555829018374e-07,6.635992279439239e-06,2.924580311002383e-06,9.587692949673377e-06,1.2373528764175086e-06,1.7896621267821032e-06
141,2.8236250204770863e-06,1.698579427383955e-06,2.572086086023652e-06,2.28639684420676e-06,2.0649057973430243e-06,1.5921516447682973e-06,2.0802652998849057e-06,2.1236497877856834e-06,4.80449558651577e-06,2.8901002578537525e-05,8.366368779264812e-07,6.919391381880195e-06,2.9323772115562255e-06,9.70030346249682e-06,1.207400480420879e-06,1.7577532819642741e-06
142,2.821047749265619e-06,1.7108232745969644e-06,2.5482144238129593e-06,2.2704968599043617e-06,2.0120585080313195e-06,1.6160998210042879e-06,2.083390550131984e-06,2.1236034688628726e-06,4.693761473754989e-06,2.7689892416303333e-05,8.488378879158586e-07,7.221666748199001e-06,2.9353614607836383e-06,9.794255518118064e-06,1.178682150309785e-06,1.7278586279289478e-06
143,2.8159628086403277e-06,1.7208466331101155e-06,2.5151773409498217e-06,2.2613631063170553e-06,1.9629356558621154e-06,1.6358349681057039e-06,2.0811413659852152e-06,2.1219445232558245e-06,4.581742491137478e-06,2.6416908776926825e-05,8.614264735597532e-07,7.537506788122646e-06,2.932743631238276e-06,9.862424123472614e-06,1.1517341491593881e-06,1.7001511682850113e-06
144,2.8082074367573355e-06,1.728275124350603e-06,2.473864802934617e-06,2.2589773386398212e-06,1.9176460596016737e-06,1.6506968192151618e-06,2.0746598005165737e-06,2.117891983811466e-06,4.470329267922984e-06,2.5103219297133523e-05,8.742087686341031e-07,7.861066850840168e-06,2.9245594746408724e-06,9.89748052950202e-06,1.1269615629453736e-06,1.6746231403791916e-06
145,2.797768176189758e-06,1.7329590541124067e-06,2.425648718628889e-06,2.2630891049360513e-06,1.8759801130095226e-06,1.660062625586655e-06,2.0652745212616724e-06,2.11075324341815e-06,4.361318816587533e-06,2.3767102971289577e-05,8.869010020465975e-07,8.185995050114473e-06,2.911301805604609e-06,9.893311952586011e-06,1.104601640238175e-06,1.6511517212247535e-06
146,2.784669091442806e-06,1.7348026332781146e-06,2.372001362456805e-06,2.2731828965786877e-06,1.8374184564408781e-06,1.6635496613945398e-06,2.054288659638679e-06,2.100161855697647e-06,4.256496009877046e-06,2.2425272582103535e-05,8.992106776618864e-07,8.50542742070866e-06,2.8936307297887542e-06,9.846399106164687e-06,1.0847700380529865e-06,1.6294905180119927e-06
147,2.7687288646684974e-06,1.7336659496951602e-06,2.314221776963413e-06,2.2885490745287397e-06,1.8012344187015734e-06,1.6610897458304593e-06,2.0428373925543685e-06,2.086086986831443e-06,4.1575497123639975e-06,2.109345241825632e-05,9.109554967950142e-07,8.812190144006842e-06,2.8723958249559003e-06,9.756382923925075e-06,1.0675398816137038e-06,1.6091994827664556e-06
148,2.7494217321385487e-06,1.7294795239954417e-06,2.253405407821916e-06,2.3083649586954026e-06,1.7667378051340684e-06,1.6527787255990644e-06,2.031887288898865e-06,2.068691254474158e-06,4.065840143913734e-06,1.9786049280085973e-05,9.220982179633664e-07,9.099351609130777e-06,2.848602930969099e-06,9.625572990011048e-06,1.05295762438472e-06,1.5896555529068973e-06
149,2.7258614365454006e-06,1.7224462790500688e-06,2.190446315799483e-06,2.331633788955606e-06,1.7334997465756742e-06,1.6386868043329977e-06,2.0222585094003724e-06,2.048262434062847e-06,3.982206883871402e-06,1.851564073900471e-05,9.327017784580883e-07,9.360916822096263e-06,2.8231362283897455e-06,9.45760816788604e-06,1.0409851247330502e-06,1.5702185034476524e-06
150,2.6968318073484986e-06,1.7130664880110014e-06,2.125965593972267e-06,2.357040225062116e-06,1.701342871200919e-06,1.6188225233869798e-06,2.0145998696891367e-06,2.0252495456190123e-06,3.9070327386872546e-06,1.7292752786784263e-05,9.429320412790111e-07,9.592328651530155e-06,2.796536189974962e-06,9.25603977438075e-06,1.0314395732697652e-06,1.5504616929817455e-06
151,2.6609579643426413e-06,1.701919676294859e-06,2.0603459705128527e-06,2.382920405363313e-06,1.6701584553854814e-06,1.5932280251063102e-06,2.009385268695541e-06,2.0002301793907497e-06,3.840504633317223e-06,1.6125944369695053e-05,9.531016009866641e-07,9.790665624038097e-06,2.769005245471561e-06,9.02373533658029e-06,1.0240030044204034e-06,1.5303017031335385e-06
152,2.6170872689102156e-06,1.689432689318822e-06,1.993956498207072e-06,2.4074720657088065e-06,1.6398097626967286e-06,1.562063323080803e-06,2.0069100510483236e-06,1.9737262556791628e-06,3.7828412342592885e-06,1.5021945598405334e-05,9.63620194555288e-07,9.954634199530587e-06,2.7404664241802563e-06,8.763136441574321e-06,1.0183222299897958e-06,1.5099259109212459e-06
153,2.564678293005398e-06,1.6758197185495917e-06,1.9273795256538486e-06,2.429157822984049e-06,1.610181789838169e-06,1.5256324112399786e-06,2.0072045061879745e-06,1.946051814833265e-06,3.73438973477818e-06,1.3985537821478536e-05,9.748537983740484e-07,1.0084416809352172e-05,2.7105231498309433e-06,8.476710112111984e-06,1.0141138873585876e-06,1.4895896786445156e-06
154,2.503993606440735e-06,1.6611270564388706e-06,1.861420926802849e-06,2.4470493508717474e-06,1.5812366368321598e-06,1.484429754142632e-06,2.009931755722648e-06,1.9174022141834905e-06,3.6955682759702424e-06,1.301917369695942e-05,9.870414025592453e-07,1.018135359816398e-05,2.6784119890024863e-06,8.167312775549784e-06,1.0111542765183243e-06,1.469476699113581e-06
155,2.436103370061806e-06,1.6452991434159272e-06,1.796946433176374e-06,2.460915659029755e-06,1.5529774293454585e-06,1.4392450868706554e-06,2.014421792278027e-06,1.8881208521647104e-06,3.666624046039867e-06,1.2122934859077944e-05,1.0003360835837172e-06,1.0247483135918091e-05,2.643109371322899e-06,7.838582791035944e-06,1.0092063970441982e-06,1.4496838032593391e-06
156,2.362740226973803e-06,1.6283007827741672e-06,1.7347584725691757e-06,2.4711426292069898e-06,1.5253538545271672e-06,1.3912138319494996e-06,2.0198740076022487e-06,1.8588787200409843e-06,3.6473439309254704e-06,1.1295273867963671e-05,1.0148833992199825e-06,1.0285073072095725e-05,2.603581815849307e-06,7.495238332038766e-06,1.0080292738251006e-06,1.4302238864819182e-06
157,2.2859917761538365e-06,1.6102600615560267e-06,1.6755520685726517e-06,2.4786170565770436e-06,1.498277731448455e-06,1.3416982694166457e-06,2.025574558200508e-06,1.8305904999519816e-06,3.636955808712039e-06,1.0534011216059624e-05,1.0308317388187305e-06,1.0296282625580197e-05,2.5590780013737206e-06,7.142946819003181e-06,1.007461365519715e-06,1.4110763655648194e-06
158,2.2079154888612215e-06,1.5914760110141768e-06,1.619857305004816e-06,2.484526607757979e-06,1.4718156587554137e-06,1.2920897463575904e-06,2.030947139864081e-06,1.8041701680006713e-06,3.6342602296716147e-06,9.836806451482634e-06,1.0482827892152257e-06,1.0282965730499822e-05,2.5094067802266513e-06,6.787661641965823e-06,1.0074672914007498e-06,1.392371586337644e-06
159,2.1303002927019476e-06,1.5722536659937961e-06,1.5679795697771616e-06,2.490040962553702e-06,1.446308020702352e-06,1.2436853400905235e-06,2.0354918602090515e-06,1.7803739872277707e-06,3.6378287791473274e-06,9.200911573841332e-06,1.067274906151741e-06,1.0246459026675368e-05,2.4550452960944863e-06,6.434749945114386e-06,1.0081058783477475e-06,1.3745319078918594e-06
160,2.054672797744946e-06,1.5527269252220399e-06,1.519977863088792e-06,2.4960641734759746e-06,1.4222180161140446e-06,1.197625134156933e-06,2.03882600486836e-06,1.7597772560635162e-06,3.646140420796034e-06,8.62254787501708e-06,1.087800372962493e-06,1.0187158314830296e-05,2.3969228771391838e-06,6.088388922901453e-06,1.0094591667110974e-06,1.3581857344461938e-06
161,1.9823683235169343e-06,1.532786143989008e-06,1.4756769740689862e-06,2.5032166636768175e-06,1.3998975556861207e-06,1.1548399990568976e-06,2.040768820785092e-06,1.7427359997981264e-06,3.657694251028756e-06,8.096593774555716e-06,1.1097710036553633e-06,1.0103957056827108e-05,2.3361273856263267e-06,5.751375047804383e-06,1.0115578351068782e-06,1.3439648740870265e-06
162,1.9144958067373844e-06,1.512111908466072e-06,1.4347522156448178e-06,2.5119263866353143e-06,1.3795076475347397e-06,1.116051217767277e-06,2.0412460137307522e-06,1.7293270394867765e-06,3.6711314028190695e-06,7.617063317233726e-06,1.1329558380590959e-06,9.994049720790354e-06,2.2738714129310866e-06,5.425200524708476e-06,1.0143252607189536e-06,1.3323671458796514e-06
163,1.8518701026398633e-06,1.4903161258448075e-06,1.3969298347968392e-06,2.522478534218741e-06,1.3610934271348904e-06,1.081815829155782e-06,2.0401731267171105e-06,1.7194051551291981e-06,3.6852138251062056e-06,7.178190875368305e-06,1.1569628060824352e-06,9.853493682735658e-06,2.2115821240570922e-06,5.110366204690226e-06,1.0175866183567425e-06,1.3237269919445462e-06
164,1.795053284371666e-06,1.4671401175560134e-06,1.3622005899973072e-06,2.535012722437447e-06,1.344717353359602e-06,1.0525347251622694e-06,2.037594769235492e-06,1.7127698270980098e-06,3.698647953979639e-06,6.775599285351316e-06,1.1812536956107595e-06,9.678311863707575e-06,2.1508503138425607e-06,4.806860338444587e-06,1.021125554582738e-06,1.3182153420460965e-06
165,1.744471634080147e-06,1.4425897306209753e-06,1.3308552725266783e-06,2.5494747412553254e-06,1.3305578079410415e-06,1.0284211318571659e-06,2.0338968989017522e-06,1.7092723823044203e-06,3.7100587969251153e-06,6.406965624993642e-06,1.2051905233709525e-06,9.465648738364898e-06,2.0932666558035884e-06,4.514472349895238e-06,1.0247247752090718e-06,1.3158049531643975e-06
166,1.7004744840813643e-06,1.4169336402015597e-06,1.3033149719861692e-06,2.5655797085416235e-06,1.3188931328779082e-06,1.009518031706665e-06,2.029756775369351e-06,1.708760493460707e-06,3.7181762788552983e-06,6.071709865156647e-06,1.2281262544086922e-06,9.214612707120583e-06,2.0402620533428286e-06,4.232890713273039e-06,1.0282200187433237e-06,1.3162599444252255e-06
167,1.6633505202156329e-06,1.3905874345375472e-06,1.2799408831840346e-06,2.5828741201208064e-06,1.3099832420590974e-06,9.957958661494775e-07,2.025855229995899e-06,1.7109357363576023e-06,3.7218616108295216e-06,5.769865209638298e-06,1.249509479341665e-06,8.926576669921254e-06,1.9929978904496563e-06,3.9620198055549405e-06,1.0315619357361134e-06,1.3191746257252766e-06
168,1.633374285251071e-06,1.3639604916138538e-06,1.2609717891301692e-06,2.6008161962618654e-06,1.303943617137068e-06,9.87252800878373e-07,2.0226636831191604e-06,1.7153193127311545e-06,3.719831566175341e-06,5.5009482966935455e-06,1.268962764889609e-06,8.604940387824546e-06,1.9523394919920083e-06,3.702538032862638e-06,1.0347851375700894e-06,1.3239766855639022e-06
169,1.6107986375971368e-06,1.3373489971944066e-06,1.246542381041724e-06,2.618719277591003e-06,1.3006901605777328e-06,9.839219906839248e-07,2.02051957104841e-06,1.7214324866389784e-06,3.710416998633963e-06,5.2633987348382155e-06,1.2862662138381762e-06,8.25463213339583e-06,1.9188999903038863e-06,3.4560767639288075e-06,1.0379097873994526e-06,1.3299271650867812e-06
170,1.5957558250305883e-06,1.31095237539934e-06,1.2366827425774431e-06,2.635604618384651e-06,1.2999701057919435e-06,9.857835411790431e-07,2.019867585245975e-06,1.7290198001811557e-06,3.691601737040763e-06,5.0545296698931e-06,1.3012153001287532e-06,7.88164246394545e-06,1.8930496006312412e-06,3.2247803872007224e-06,1.0408863615347453e-06,1.3362775992071287e-06
171,1.5881856326751237e-06,1.2849913219969e-06,1.2312860459698515e-06,2.6501913719986546e-06,1.3014445921407914e-06,9.92676259237188e-07,2.021366707792513e-06,1.7380429678409392e-06,3.661273032268242e-06,4.870869293874095e-06,1.3134937745108065e-06,7.492640013729485e-06,1.874863773851303e-06,3.01067750432737e-06,1.0436079625461149e-06,1.3425688521410839e-06
172,1.5878549775099622e-06,1.259768179348301e-06,1.2300743619854239e-06,2.661137169853111e-06,1.304776942539859e-06,1.0042988777923524e-06,2.025731784403507e-06,1.7484417389023519e-06,3.617641316574124e-06,4.708683618765393e-06,1.3227171182187934e-06,7.094548251453766e-06,1.8641382776023964e-06,2.8152802362330152e-06,1.0459499246383728e-06,1.3488363429833816e-06
173,1.5944566019007704e-06,1.2356068569142956e-06,1.2325911625195437e-06,2.667381082864857e-06,1.309673344070393e-06,1.0202928709213842e-06,2.0334643534017548e-06,1.7599275451073548e-06,3.5597803505332994e-06,4.564218266754165e-06,1.3286100661645154e-06,6.694036286621793e-06,1.8604929304433375e-06,2.639496294060921e-06,1.0477646504890633e-06,1.3555577439910083e-06
174,1.6077038685484874e-06,1.2127867221948114e-06,1.2382421162631068e-06,2.6683850306792538e-06,1.3158333442056422e-06,1.0403107838932772e-06,2.044702986981459e-06,1.772004007395308e-06,3.488012037495365e-06,4.433662680322264e-06,1.3311737891839876e-06,6.297035441292767e-06,1.8634127732530652e-06,2.4837377458421088e-06,1.04883057515232e-06,1.3634090937991815e-06
175,1.6272872762051434e-06,1.1915089464208813e-06,1.2463609977520947e-06,2.664192345009227e-06,1.3228656868841534e-06,1.063998522081647e-06,2.0592543029644215e-06,1.7841497293393386e-06,3.4038645104348476e-06,4.313424846900157e-06,1.3307144970440351e-06,5.908419865778346e-06,1.872186367914207e-06,2.3480405652361243e-06,1.0488678006885473e-06,1.3730105830282422e-06
176,1.6527343542171377e-06,1.171839484094204e-06,1.2562429547144497e-06,2.655327097294642e-06,1.3302796951858146e-06,1.0909335546202576e-06,2.0766707215860625e-06,1.7959943625570306e-06,3.3095993978579214e-06,4.200833011912295e-06,1.327695298266952e-06,5.531872258408125e-06,1.8858548937758127e-06,2.2320694077848153e-06,1.0476690647451696e-06,1.3847743987454182e-06
177,1.6833310630887684e-06,1.1536688128732016e-06,1.2671503096557473e-06,2.6426433072717608e-06,1.3375357934669646e-06,1.1206207253984051e-06,2.0962496959994712e-06,1.8074303143140899e-06,3.2075886852445278e-06,4.094525263255876e-06,1.3225303402629415e-06,5.1698618372955906e-06,1.9032289095102694e-06,2.1350587031920663e-06,1.045248580465305e-06,1.3988641915342282e-06
178,1.7181557880044078e-06,1.136734693470994e-06,1.2783846217164973e-06,2.6272414883311214e-06,1.3440437479881543e-06,1.1525826351411565e-06,2.117057754517828e-06,1.8186906896264034e-06,3.0999214396693522e-06,3.994050536640209e-06,1.315491248417743e-06,4.823718871330899e-06,1.9229795915750268e-06,2.0558089608938673e-06,1.0418728408137052e-06,1.4152552427684305e-06
179,1.7562193251259956e-06,1.1206667420031816e-06,1.2894605523483585e-06,2.6104452351111577e-06,1.349125536702151e-06,1.1864792685125993e-06,2.138146412241502e-06,1.8303547367401027e-06,2.9883016362346347e-06,3.899291638141118e-06,1.306754310848817e-06,4.493862407035777e-06,1.9438299856178463e-06,1.9927778100642004e-06,1.0379409123999162e-06,1.433849983296888e-06
180,1.7966351584301624e-06,1.1050797526242506e-06,1.3002488584959876e-06,2.593719056083603e-06,1.35208263568212e-06,1.2221656759972962e-06,2.15885367064544e-06,1.8431970768487693e-06,2.873993115639912e-06,3.8103701761610915e-06,1.2964751735571546e-06,4.180129264709447e-06,1.9647632178598063e-06,1.9442667693349895e-06,1.0338123141525038e-06,1.4545377407459852e-06
181,1.8386586322013517e-06,1.0897588561308003e-06,1.3109241760500802e-06,2.5784577327619938e-06,1.3524041470219607e-06,1.259656513966151e-06,2.1788908660358262e-06,1.8579329823315457e-06,2.75774241666923e-06,3.7276807349281123e-06,1.284796262484566e-06,3.882039895578226e-06,1.9850451591710266e-06,1.9086766641341904e-06,1.0296882557130797e-06,1.477139898678139e-06
182,1.8815402912735917e-06,1.0748097801869922e-06,1.3217402252940044e-06,2.565718981448183e-06,1.349991213977165e-06,1.2990393696688616e-06,2.198121091864834e-06,1.8750367404602986e-06,2.6398187729306372e-06,3.6515790023582947e-06,1.2717877636611196e-06,3.5989494335664643e-06,2.0040092709712255e-06,1.8847302754961103e-06,1.0255816205582451e-06,1.501335015409827e-06
183,1.924316393374654e-06,1.060641827665119e-06,1.3328174165021711e-06,2.5560296270503127e-06,1.345246595577547e-06,1.3403902360932008e-06,2.216294029953e-06,1.8947080664105523e-06,2.5203161197471584e-06,3.5819724854153115e-06,1.2573901578188352e-06,3.3302062740975003e-06,2.020839669404468e-06,1.8715253875665133e-06,1.0213667785485085e-06,1.5266554470278218e-06
184,1.965695858598169e-06,1.047830775971702e-06,1.3440666693083537e-06,2.5493159172125294e-06,1.3389677155915982e-06,1.3836994943914263e-06,2.2329603316879113e-06,1.9169161907765436e-06,2.39968194926762e-06,3.5181280953743748e-06,1.2414586500174436e-06,3.0754102532771124e-06,2.034599498754063e-06,1.8683866367416127e-06,1.016884336327398e-06,1.5525248520536353e-06
185,2.004116395562581e-06,1.0369700638958018e-06,1.355269746103695e-06,2.544926197723908e-06,1.3321224026982142e-06,1.4288127318317943e-06,2.2475059858707872e-06,1.941472441502059e-06,2.2790571139926202e-06,3.458678912325325e-06,1.2239414490771835e-06,2.834647843462958e-06,2.044462241566286e-06,1.8746951199950731e-06,1.0120706205029882e-06,1.578359720829455e-06
186,2.0379385835566234e-06,1.0285753049198077e-06,1.3662871811928767e-06,2.5417536105261324e-06,1.3256701813163679e-06,1.4754127458545701e-06,2.259253128013524e-06,1.968130678708456e-06,2.1600876921962805e-06,3.4017889471577925e-06,1.2050496133614635e-06,2.6085082075063554e-06,2.0499228895671127e-06,1.8898577615549422e-06,1.0070689772408395e-06,1.6037647592292964e-06
187,2.0657081781194844e-06,1.0230601928147815e-06,1.3772436983442245e-06,2.538484169661286e-06,1.3205103147887713e-06,1.5230224936903598e-06,2.2676046659890808e-06,1.996677497943927e-06,2.044468880195911e-06,3.3454382254013156e-06,1.1852355326202151e-06,2.3978906007883324e-06,2.050897860889914e-06,1.913299737546459e-06,1.0022548420522596e-06,1.6286616361339624e-06
188,2.0864213667803717e-06,1.0207324703573785e-06,1.3885198689118324e-06,2.5338817588349688e-06,1.317477021122865e-06,1.571008276767169e-06,2.2721323961586078e-06,2.0269603085618457e-06,1.9336532945450144e-06,3.2877559791618284e-06,1.1650169668018838e-06,2.2037559037525098e-06,2.047775708393896e-06,1.944338385211981e-06,9.981437240823767e-07,1.6532662255019328e-06
189,2.099663933965027e-06,1.0217523356103956e-06,1.4005734533418834e-06,2.5269875789885206e-06,1.3172850377892163e-06,1.6186371875237562e-06,2.2725842248672965e-06,2.0588705006123638e-06,1.8287851164803627e-06,3.227353894438107e-06,1.1448603909715692e-06,2.0269087468173773e-06,2.041373498538201e-06,1.9820450978761402e-06,9.952586501009767e-07,1.6780936866516843e-06
190,2.1054868336237987e-06,1.0260788756961657e-06,1.4137627630057802e-06,2.517223820618658e-06,1.3204693934188247e-06,1.6651886956439305e-06,2.268856987059093e-06,2.0923497179774016e-06,1.7307067953087253e-06,3.1635664699478844e-06,1.125207333553545e-06,1.8678883209691102e-06,2.0326966192441913e-06,2.0252298804806002e-06,9.940503303424346e-07,1.7040409597405217e-06
191,2.1041032448900006e-06,1.0334520359204488e-06,1.4282874855814858e-06,2.50445258269688e-06,1.3273985358152598e-06,1.710012528462798e-06,2.2609161161953366e-06,2.1274292181508892e-06,1.640001502529649e-06,3.0964887511832538e-06,1.1065184056212852e-06,1.7270379520837294e-06,2.0226709974779716e-06,2.0725174450780402e-06,9.94883074006687e-07,1.7323070513247467e-06
192,2.0956890255277367e-06,1.0434174033895557e-06,1.4442030568312425e-06,2.4890036313389656e-06,1.3383184581634907e-06,1.752469494750067e-06,2.2486454288166854e-06,2.1642172328633237e-06,1.557092049636973e-06,3.0267834705359948e-06,1.089231899510361e-06,1.604640471875293e-06,2.012131708238884e-06,2.1224941585491156e-06,9.980450137021676e-07,1.7640912051574276e-06
193,2.080440534843788e-06,1.0554062063242376e-06,1.4613970929353693e-06,2.471631002046303e-06,1.3533500922993055e-06,1.7917937100679572e-06,2.231765465517536e-06,2.2027685721108154e-06,1.4823105689626843e-06,2.9553201119949208e-06,1.0736986206940707e-06,1.500953021669796e-06,2.0019869592214816e-06,2.1739562646497853e-06,1.0037331406095753e-06,1.8003361012225115e-06
194,2.0587404069312586e-06,1.0688760571577448e-06,1.4795119391031347e-06,2.4533496052780463e-06,1.3724423417851095e-06,1.8269572984928605e-06,2.209946563832619e-06,2.2429257571773864e-06,1.4158807707423365e-06,2.8828640523455594e-06,1.0601717738182455e-06,1.4161705017125033e-06,1.993232469939426e-06,2.2260938810375218e-06,1.0120401249079048e-06,1.8416532447324085e-06
195,2.031165587728824e-06,1.0834610633661118e-06,1.4978888644650193e-06,2.4351789964714742e-06,1.3953196486775107e-06,1.856638525533535e-06,2.183000501288247e-06,2.2843143128062294e-06,1.35789527406491e-06,2.810082373689252e-06,1.0488090722364544e-06,1.3503994149904655e-06,1.9867756660596987e-06,2.2783822461096334e-06,1.0230088846363022e-06,1.8883093913861846e-06
196,1.998306167973307e-06,1.0990539992282604e-06,1.5155674153972424e-06,2.417904530310022e-06,1.4214399869122243e-06,1.8793622555937283e-06,2.1510166457225733e-06,2.3265255362593327e-06,1.3083322191788147e-06,2.7377747520971053e-06,1.0396411673642393e-06,1.3036164547481447e-06,1.983279170923169e-06,2.3302717672803244e-06,1.0366855741360836e-06,1.940196710117835e-06
197,1.9606303670596045e-06,1.115758060221219e-06,1.5313313582746294e-06,2.401976304608224e-06,1.449993878022467e-06,1.8937748670798491e-06,2.114456148172255e-06,2.369290351625007e-06,1.2670620402073433e-06,2.666957495911734e-06,1.0325611864332278e-06,1.2756037898852439e-06,1.983134126963851e-06,2.38096750512585e-06,1.0530725017492513e-06,1.996820048112216e-06
198,1.9185287202678927e-06,1.1337122915051305e-06,1.5438357470041574e-06,2.3876369093150575e-06,1.480036612691618e-06,1.8989447634162743e-06,2.07416697584217e-06,2.4124571549341007e-06,1.2338575231600983e-06,2.5987305415078855e-06,1.0273900940789275e-06,1.2659063522020286e-06,1.9865485407573816e-06,2.429377026696905e-06,1.0720426509408279e-06,2.0573299166194397e-06
199,1.872442726083441e-06,1.1529129192902464e-06,1.5518223100719893e-06,2.3752259671986585e-06,1.5107753136093008e-06,1.8945848540322027e-06,2.031232602664155e-06,2.455810606483102e-06,1.2084407908656364e-06,2.534153998099307e-06,1.0239790758376706e-06,1.2738334326376976e-06,1.993634016922599e-06,2.474116154795784e-06,1.093298212235563e-06,2.12059075858555e-06
200,1.8229837278600441e-06,1.1731621616883012e-06,1.5543255762282617e-06,2.365390747704783e-06,1.5417807077189055e-06,1.881108172919509e-06,1.9867350227349846e-06,2.4988840344581366e-06,1.1905114200650648e-06,2.4741866591267936e-06,1.022252947699862e-06,1.2984809126342879e-06,2.00436564771655e-06,2.5136355907216e-06,1.1163636019170612e-06,2.1852274558195705e-06
201,1.7709660863114577e-06,1.1941322940253877e-06,1.5507976943088866e-06,2.3589880396321057e-06,1.5728826159958458e-06,1.8594519680841074e-06,1.9416311797280632e-06,2.540830740798861e-06,1.179699567218715e-06,2.419582095390644e-06,1.0221539030476178e-06,1.3387248901527726e-06,2.018503933317773e-06,2.546594336045474e-06,1.1406049738778508e-06,2.2496461189417742e-06
202,1.7172931287726898e-06,1.2154289645990015e-06,1.5411934920960098e-06,2.356806568940106e-06,1.6038949097064798e-06,1.830742217271724e-06,1.8967906248236744e-06,2.5803559225852137e-06,1.175483176518291e-06,2.3707577775392786e-06,1.0235670684504587e-06,1.39320088072621e-06,2.0356764142531354e-06,2.572300393494071e-06,1.1653252075741943e-06,2.312156387010639e-06
203,1.6628407757615385e-06,1.236581724763372e-06,1.5260297396559752e-06,2.359361749221562e-06,1.6344820229568918e-06,1.7960273258696766e-06,1.8530553492420105e-06,2.6157585892442704e-06,1.177139837311547e-06,2.3277328967304915e-06,1.0263104240992985e-06,1.4603443098887295e-06,2.055609729964059e-06,2.590941472814411e-06,1.189944451933027e-06,2.3712447360672293e-06
204,1.6084660040301604e-06,1.257015958471536e-06,1.506325047427265e-06,2.366805329725065e-06,1.6642428012755877e-06,1.7561972934866018e-06,1.8112069579043458e-06,2.6451297304601824e-06,1.1837674127774163e-06,2.2902081959052553e-06,1.0301561764655254e-06,1.538510053286798e-06,2.0782742276801284e-06,2.6035633725955235e-06,1.2141332674172779e-06,2.4258339829104147e-06
205,1.5550035264405923e-06,1.2761286545273647e-06,1.4833738324400398e-06,2.3789114267215767e-06,1.6928686160314732e-06,1.7120296777796592e-06,1.7718796725087268e-06,2.6666594320040645e-06,1.1943853066591905e-06,2.2577761592599305e-06,1.0348495509290302e-06,1.6261154078783627e-06,2.1037653916308757e-06,2.6118803743712025e-06,1.2377717511436754e-06,2.4753585578578855e-06
206,1.5032388445598858e-06,1.2934936345926617e-06,1.4584655616517622e-06,2.39514506951195e-06,1.7201824207726599e-06,1.6643264765427074e-06,1.7355438706402517e-06,2.6789308812573117e-06,1.2080365749331766e-06,2.23009894065152e-06,1.0401305792803743e-06,1.7217376907784592e-06,2.1320168179542025e-06,2.617955722174524e-06,1.2607983784540257e-06,2.519619320788635e-06
207,1.4539977115536705e-06,1.3090519819490404e-06,1.432708464441117e-06,2.414738427487871e-06,1.7460730749509305e-06,1.6140382339293417e-06,1.7025607146752356e-06,2.681090265006448e-06,1.2237763997132859e-06,2.206954299963691e-06,1.045722741476265e-06,1.8241311393539757e-06,2.162589809069034e-06,2.623797978123855e-06,1.283111933277112e-06,2.5584746854201704e-06
208,1.4082333836640162e-06,1.323102343620205e-06,1.4070064170270264e-06,2.43671281737997e-06,1.7705317114223814e-06,1.562213746189056e-06,1.6731653064366436e-06,2.67289792255083e-06,1.240637527986327e-06,2.188258282390135e-06,1.0513129275120509e-06,1.9322108234496105e-06,2.1946977277120903e-06,2.6310186349720787e-06,1.3045586999109265e-06,2.591538233327482e-06
209,1.3669388337684464e-06,1.3360701713989774e-06,1.3821016802997824e-06,2.4599151329480207e-06,1.7937755928924823e-06,1.5098394255105147e-06,1.6473624105758961e-06,2.654754388919847e-06,1.2577185799542032e-06,2.1741029263042567e-06,1.0566077212267799e-06,2.0450604840139836e-06,2.227430931182375e-06,2.6406727476345584e-06,1.3249083065550544e-06,2.6181120728726368e-06
210,1.330972030959696e-06,1.3482668932892723e-06,1.3586044044777036e-06,2.4831256735938593e-06,1.8162332565103122e-06,1.4577671750934763e-06,1.6248899249914199e-06,2.6276896482356043e-06,1.2742890804086502e-06,2.1646811074748013e-06,1.0614281774759363e-06,2.161909851338856e-06,2.2599620127343973e-06,2.6532547872820057e-06,1.3438470702131097e-06,2.6374308992967892e-06
211,1.3009524775129075e-06,1.3598800108978196e-06,1.3370220876721645e-06,2.505191389099341e-06,1.838341827456932e-06,1.406756800203098e-06,1.6053725853457107e-06,2.5931707843759796e-06,1.2897572217558404e-06,2.1600972635736008e-06,1.065749849951589e-06,2.2820325433855473e-06,2.2915332299459466e-06,2.6687665231657436e-06,1.3610920759838967e-06,2.6490371640344574e-06
212,1.2772786608733802e-06,1.3711737755940585e-06,1.3177798851728874e-06,2.5251041074116004e-06,1.8603341077970688e-06,1.3575054452934926e-06,1.5886173427908509e-06,2.5527368851681454e-06,1.3036107923600795e-06,2.1602293573407437e-06,1.0696782235504581e-06,2.4046327778274906e-06,2.321316025935852e-06,2.6867679317918882e-06,1.3765517417536482e-06,2.653008187579555e-06
213,1.2602306322204263e-06,1.382626655973834e-06,1.3012104807261203e-06,2.541966175630978e-06,1.8821756813636875e-06,1.3106013721856327e-06,1.5748062629306419e-06,2.507740320508441e-06,1.3155191990726642e-06,2.1646952998364287e-06,1.0733748495069523e-06,2.5287453251317852e-06,2.3483572882753517e-06,2.7063870789510816e-06,1.3903840927703228e-06,2.649906406152085e-06
214,1.250054338476798e-06,1.3948279986427452e-06,1.287570568992976e-06,2.554840531183453e-06,1.9036107250749187e-06,1.2664814976306204e-06,1.5643962024854026e-06,2.4593405377696094e-06,1.325516818907504e-06,2.1728387038763937e-06,1.076957801303495e-06,2.6531263694737132e-06,2.3716998731228612e-06,2.726465416951218e-06,1.402921800589412e-06,2.6405387073223027e-06
215,1.2469393481906373e-06,1.4082585245496581e-06,1.2770899038952026e-06,2.5626149571199587e-06,1.924182082769306e-06,1.2254508560255806e-06,1.5578668711245223e-06,2.408573350285004e-06,1.3340515989727958e-06,2.183722168134975e-06,1.080432569304921e-06,2.776269769996013e-06,2.3906089563612413e-06,2.745935657633962e-06,1.4145258315516196e-06,2.6256895905697985e-06
216,1.2509262980090758e-06,1.4231681430048183e-06,1.2699618079237775e-06,2.56406868913187e-06,1.9432801508233337e-06,1.1877107430493507e-06,1.5556022549937673e-06,2.3563997959468124e-06,1.3418655367246586e-06,2.1961785767675224e-06,1.0836910124961973e-06,2.8966612792877896e-06,2.4046557525790805e-06,2.7641385826052918e-06,1.4254419215879995e-06,2.605978799300022e-06
217,1.2618518143682195e-06,1.4396139746157773e-06,1.2662506884712234e-06,2.5581378724547875e-06,1.960330316898951e-06,1.1533867828011354e-06,1.5579556761308843e-06,2.3038073829510666e-06,1.3497912834705922e-06,2.2089328720364656e-06,1.086576541315824e-06,3.0130727158960154e-06,2.4135122543821013e-06,2.7807908866911703e-06,1.4356989455106151e-06,2.5819205596945945e-06
218,1.279367211613737e-06,1.4575954535773285e-06,1.26580367147509e-06,2.544189754399065e-06,1.974980940734881e-06,1.1225746609212481e-06,1.5653116417555069e-06,2.251880296383013e-06,1.3585565493128982e-06,2.220786774252477e-06,1.088965723031952e-06,3.1246037378350686e-06,2.4166901085461946e-06,2.79572352349074e-06,1.4450625558400182e-06,2.5541160784623554e-06
219,1.3029648314456495e-06,1.477183841008122e-06,1.2682645991487828e-06,2.5221473190391344e-06,1.9871411784870207e-06,1.0953370679256906e-06,1.5780123610344145e-06,2.201680659871576e-06,1.368699997739225e-06,2.2307893863111225e-06,1.0908278409506513e-06,3.230490406018747e-06,2.4135766649609954e-06,2.8086286636306507e-06,1.4530583156068565e-06,2.523407977612683e-06
220,1.33195778112537e-06,1.498545091033285e-06,1.273191636305859e-06,2.4924190658804608e-06,1.9969193195594324e-06,1.0716298888467677e-06,1.5962158582632534e-06,2.1540084437099282e-06,1.3805797808378148e-06,2.2383224337881944e-06,1.0922702205573651e-06,3.330000993420608e-06,2.403820363160391e-06,2.818966356480857e-06,1.4590343927655945e-06,2.4908327790262736e-06
221,1.3654408297684605e-06,1.5218344910143355e-06,1.280159095793713e-06,2.455719895030496e-06,2.004506303474506e-06,1.0512224782148213e-06,1.6198043701154223e-06,2.109235415983538e-06,1.3943913849959776e-06,2.2431388342765434e-06,1.0935182238813716e-06,3.4225071467384943e-06,2.3876784182099963e-06,2.8262268938351734e-06,1.4621948420015618e-06,2.4573571395390353e-06
222,1.4022821228000568e-06,1.547069409696516e-06,1.288781926297621e-06,2.412925229196883e-06,2.0100309135762594e-06,1.0336613051016337e-06,1.6483649251052279e-06,2.067298985582853e-06,1.4102006744017295e-06,2.2453265224302976e-06,1.0948269253283742e-06,3.5074085632820094e-06,2.365938952841376e-06,2.8304887155693002e-06,1.4616594284551736e-06,2.423606494890202e-06
223,1.4411808503626384e-06,1.5740766910483363e-06,1.2987870737672092e-06,2.3649557343824336e-06,2.0134889584780428e-06,1.0183143068199324e-06,1.6812272019996367e-06,2.027845807004225e-06,1.427967690318956e-06,2.245154786639999e-06,1.0964449255889732e-06,3.5838204254331246e-06,2.339578297774541e-06,2.8327103055633697e-06,1.4566955660393923e-06,2.389789663373152e-06
224,1.4807946591536862e-06,1.6024797372113392e-06,1.3101811070745458e-06,2.312629782372197e-06,2.0147839600326654e-06,1.0045242441654733e-06,1.717533957264289e-06,1.9904794918241902e-06,1.4475529942194951e-06,2.242901449295223e-06,1.0986339403570752e-06,3.6504201636231556e-06,2.3095622691992625e-06,2.8343923618617964e-06,1.4470401211146222e-06,2.3558351425067453e-06
225,1.519869591867015e-06,1.6316911541567043e-06,1.3233245953177674e-06,2.2566064366443885e-06,2.0138450616866303e-06,9.918284634683124e-07,1.756282360258185e-06,1.955010043024056e-06,1.4688160363696695e-06,2.23871832653739e-06,1.1016510228699498e-06,3.7057311746537423e-06,2.276812530330843e-06,2.8369744962568046e-06,1.4330383384025251e-06,2.3216952643337334e-06
226,1.5572978063749995e-06,1.6609410204725082e-06,1.3387922315704632e-06,2.19751288467809e-06,2.0108003092329464e-06,9.801299168736652e-07,1.7963569871895414e-06,1.921573151360022e-06,1.4917762508010754e-06,2.2325701901386903e-06,1.1057297297536668e-06,3.7486406543234182e-06,2.2421254061378336e-06,2.841453839458637e-06,1.4155141971030614e-06,2.287699373947966e-06
227,1.5921022004089906e-06,1.6893804016633916e-06,1.3571512817268702e-06,2.136075440428659e-06,2.0060796373871096e-06,9.697095827459172e-07,1.8366524986786817e-06,1.890539952838714e-06,1.5166380231912956e-06,2.2243091982043413e-06,1.1111265329927719e-06,3.7788047361812913e-06,2.2060436703665242e-06,2.8483146763572994e-06,1.3955308901977204e-06,2.2546886054886976e-06
228,1.6233684160878633e-06,1.7162983960194567e-06,1.3788336225875444e-06,2.073099422313341e-06,2.0003073028694647e-06,9.610709257476625e-07,1.87623165985092e-06,1.862276112027762e-06,1.543654159369713e-06,2.2137808058695124e-06,1.1181604496474065e-06,3.7967894785563032e-06,2.1688507324197435e-06,2.857679354305325e-06,1.3741865489550062e-06,2.2238021112212343e-06
229,1.6501413698435882e-06,1.7413445659056071e-06,1.404109743442607e-06,2.0093828596416456e-06,1.9941345715270695e-06,9.547345064126255e-07,1.9143366252497204e-06,1.8369299094008284e-06,1.5730165186702155e-06,2.2008359850022833e-06,1.1271812347653337e-06,3.8039617555920457e-06,2.1307536558831874e-06,2.8695494036422843e-06,1.352460070029573e-06,2.196132477625361e-06
230,1.6714003327407302e-06,1.76454177631963e-06,1.4330742418410539e-06,1.945678039883669e-06,1.9882395656889263e-06,9.511075858225225e-07,1.9502846992899333e-06,1.8143604900828343e-06,1.6048543450875599e-06,2.1852831215984077e-06,1.1385270957534014e-06,3.8022136801015583e-06,2.0920779318041544e-06,2.883931978957248e-06,1.331106832377755e-06,2.1725268647202495e-06
231,1.6862650938927477e-06,1.7860964190185695e-06,1.4656299988531053e-06,1.8826905266179981e-06,1.9833823609191158e-06,9.504378707468946e-07,1.9834876911440757e-06,1.7941880587875092e-06,1.639216305157105e-06,2.16684299496574e-06,1.1524980454543554e-06,3.7936559596096386e-06,2.053267624599976e-06,2.9007447652325238e-06,1.3106279547626771e-06,2.153573667307658e-06
232,1.6943646435789934e-06,1.8062320331749415e-06,1.5014880558791507e-06,1.8210381354128894e-06,1.980306694794826e-06,9.528054158734677e-07,2.013626707644938e-06,1.7759499735853065e-06,1.675973381657097e-06,2.1452080142620668e-06,1.1693040923082956e-06,3.7804002089093184e-06,2.0148025353958e-06,2.9196385207520623e-06,1.2912793752714388e-06,2.139674408884178e-06
233,1.6960721955981058e-06,1.8251898922227873e-06,1.5401360396225178e-06,1.7611647696571508e-06,1.979556289675174e-06,9.581474857192967e-07,2.0407733076135363e-06,1.759288705905931e-06,1.7147396029646856e-06,2.1202901424680144e-06,1.189007797557571e-06,3.7644387842067823e-06,1.97725119786047e-06,2.939939556530912e-06,1.2730780406133964e-06,2.131100286573796e-06
234,1.6923890733318952e-06,1.8433492852164052e-06,1.5807775919490664e-06,1.7033453428750911e-06,1.981400438656571e-06,9.663097804552733e-07,2.0653480787319517e-06,1.743987433248802e-06,1.7549076511117487e-06,2.0924666004355014e-06,1.211487931308479e-06,3.747514246029594e-06,1.9413355626782214e-06,2.960686979875855e-06,1.2558264575076654e-06,2.127947750053866e-06
235,1.6845737187056893e-06,1.861325804070749e-06,1.6223556462410698e-06,1.6478558379079074e-06,1.985894452246889e-06,9.771016009653772e-07,2.087966663338906e-06,1.7298146898997527e-06,1.7958043507595422e-06,2.062541094072456e-06,1.2364103282407089e-06,3.7309303881633e-06,1.9077817168961714e-06,2.980663215930701e-06,1.2391766889283062e-06,2.130003463682781e-06
236,1.6738542271365657e-06,1.8799283291833307e-06,1.6637453833789406e-06,1.5951274400259586e-06,1.9929226495315736e-06,9.903906537450457e-07,2.1092359951285337e-06,1.7163651795392286e-06,1.836834578143797e-06,2.031460890023714e-06,1.2632335743528875e-06,3.715506604282717e-06,1.8770966895437373e-06,2.998542086197209e-06,1.2226961262921487e-06,2.1366533955315287e-06
237,1.6613923269367587e-06,1.8999666142643614e-06,1.704042519060684e-06,1.5457022410701587e-06,2.0021497014288693e-06,1.0062219668998572e-06,2.1295894257791526e-06,1.702998315822645e-06,1.877462373225269e-06,2.0000529139554145e-06,1.2912731002026777e-06,3.70185692493936e-06,1.8495577041131364e-06,3.01321729191858e-06,1.205891180109817e-06,2.1469413848852336e-06
238,1.6482972620771674e-06,1.9220224832198253e-06,1.742738724823473e-06,1.5000996561080067e-06,2.012991347315215e-06,1.0248158504327998e-06,2.1493032618402425e-06,1.6887971876784091e-06,1.917107235916741e-06,1.968954645953758e-06,1.3197502886004982e-06,3.690781138312703e-06,1.825367360599173e-06,3.0240345595110483e-06,1.1882484338316412e-06,2.159738949773793e-06
239,1.635518973893231e-06,1.9463074610891584e-06,1.7796397569164127e-06,1.4587731711245773e-06,2.0246671294487144e-06,1.0464150880455527e-06,2.168701653631513e-06,1.6725673697848031e-06,1.955104346358091e-06,1.9387372394051836e-06,1.3477752601136922e-06,3.6834237663957535e-06,1.804706095067667e-06,3.030701987998451e-06,1.1693811491928572e-06,2.1739188882788665e-06
240,1.6237392859986496e-06,1.972648156224311e-06,1.8146022566470458e-06,1.42211046754246e-06,2.036295202443847e-06,1.0711372387372892e-06,2.18832148681895e-06,1.6530268888629136e-06,1.990690181809016e-06,1.9100645509523235e-06,1.3743549230007147e-06,3.6811141517805828e-06,1.787645499371987e-06,3.0330040963940508e-06,1.1491719974181572e-06,2.1884803745590964e-06
241,1.6133995979860901e-06,2.000572817019034e-06,1.8472984483810132e-06,1.3903816263693825e-06,2.047063716194379e-06,1.0989415370812573e-06,2.2088442771268075e-06,1.6291977706312898e-06,2.023019930148613e-06,1.8837107355701423e-06,1.3985111380869947e-06,3.685011187178798e-06,1.7740951708292816e-06,3.0306120151788852e-06,1.127750393821357e-06,2.2026313623820774e-06
242,1.6048198906965944e-06,2.029413255628092e-06,1.8771766004001801e-06,1.363679057953096e-06,2.0564358105342317e-06,1.129683902554714e-06,2.2308591956296335e-06,1.600775303879261e-06,2.0512671111053683e-06,1.8604361806474385e-06,1.419454902858155e-06,3.695750033358034e-06,1.7638769667548201e-06,3.0231863320902794e-06,1.1053955569982622e-06,2.2158083722801747e-06
243,1.5983079752340537e-06,2.058315565327725e-06,1.9036212395258238e-06,1.3418866551000484e-06,2.0641854789417407e-06,1.1631625386044302e-06,2.2546546255132865e-06,1.568226206980551e-06,2.0746949885498987e-06,1.8408765855286457e-06,1.4367178981859888e-06,3.7133130815997963e-06,1.7568677664169615e-06,3.0106662428670894e-06,1.0825168945441804e-06,2.227623527106413e-06
244,1.5942152526520415e-06,2.0861621175315764e-06,1.9261620885336523e-06,1.3246846881724023e-06,2.0702187477999625e-06,1.1991007303530368e-06,2.280175844649427e-06,1.5325860325417958e-06,2.0927403801721965e-06,1.825494079345146e-06,1.4501854649558245e-06,3.7372343717461473e-06,1.7530393435251965e-06,2.993378069406729e-06,1.0596543978149e-06,2.2378484079330626e-06
245,1.5928989063434529e-06,2.1115319506013117e-06,1.9446097151440644e-06,1.3116384474982124e-06,2.0743867118643744e-06,1.2371516347506316e-06,2.307142292536915e-06,1.495135829649724e-06,2.105201027832945e-06,1.8145109909693722e-06,1.4600358600304733e-06,3.7669663117787405e-06,1.752368532023802e-06,2.9717957078481606e-06,1.0374092347403066e-06,2.2465377313995477e-06
246,1.594579994373474e-06,2.132783737321221e-06,1.959061017803594e-06,1.3023286949132666e-06,2.0765363806194693e-06,1.2770013083704944e-06,2.335197592429559e-06,1.4571261313881044e-06,2.112307488510364e-06,1.8078351070293328e-06,1.4666193738938755e-06,3.802081041902085e-06,1.7548268849342869e-06,2.9462189463548435e-06,1.0163502442766885e-06,2.2541864439423445e-06
247,1.5991953271997841e-06,2.1482482603822725e-06,1.969741154392637e-06,1.2963782031607802e-06,2.0768077656833793e-06,1.3184677467723366e-06,2.3639681764999204e-06,1.4196006119196568e-06,2.114577251360256e-06,1.8050452872493772e-06,1.4703047225834512e-06,3.842191879857247e-06,1.7604868462383102e-06,2.916621193404991e-06,9.969473995216567e-07,2.2617121489998143e-06
248,1.606367422491307e-06,2.1565149738093574e-06,1.976825034267833e-06,1.2933581322706867e-06,2.0758796000605807e-06,1.3614934579351613e-06,2.3930254246221077e-06,1.3833235587242037e-06,2.1126441263660496e-06,1.805421445909606e-06,1.471375812932465e-06,3.886726399669469e-06,1.7695258257551745e-06,2.8826543409786364e-06,9.795266013038785e-07,2.270197969646108e-06
249,1.6155287909505197e-06,2.1567455941418565e-06,1.9804253279476425e-06,1.2926921178679405e-06,2.074937958934649e-06,1.4060861874191472e-06,2.421875796754678e-06,1.3487926415199709e-06,2.1071435964957255e-06,1.807971375372035e-06,1.4700416098941974e-06,3.93468763432558e-06,1.7820839196324224e-06,2.8438111401373633e-06,9.642671340550832e-07,2.2805598854760375e-06
250,1.6260954660212906e-06,2.148820753064409e-06,1.9806715190504036e-06,1.2936100319686875e-06,2.0754466981298267e-06,1.4522480379941767e-06,2.450069083768631e-06,1.3163092931032926e-06,2.098590784216543e-06,1.8115264201702206e-06,1.4664916448384485e-06,3.984595178290198e-06,1.7981544209835738e-06,2.799732892696793e-06,9.51244666976598e-07,2.293364125648016e-06
251,1.6375238904869356e-06,2.1331948008561487e-06,1.977726889257691e-06,1.2951693440630619e-06,2.078874590771485e-06,1.4998591027205382e-06,2.4772862749241184e-06,1.2860982229620784e-06,2.0872620956089097e-06,1.8150028397997653e-06,1.4609335321339806e-06,4.034749960040262e-06,1.8175514598979449e-06,2.7504615089948774e-06,9.404519104819755e-07,2.3088021091442075e-06
252,1.6492781598462119e-06,2.110607087841803e-06,1.9717570764043003e-06,1.2963707334675165e-06,2.08646499153446e-06,1.54855390234095e-06,2.5032259562103362e-06,1.2584197769888625e-06,2.0731889843894824e-06,1.8176750938246212e-06,1.4536010782768377e-06,4.083586185418466e-06,1.8398783752273743e-06,2.6964160843860577e-06,9.317740612134602e-07,2.3266757415993373e-06
253,1.6608610741099534e-06,2.081879193602687e-06,1.962911167389646e-06,1.2962677237239221e-06,2.099137475220559e-06,1.5976771817949505e-06,2.5274299277506245e-06,1.2335785325359397e-06,2.05631955076085e-06,1.8191804998707632e-06,1.4447119123066369e-06,4.1298018541186185e-06,1.8645523938893455e-06,2.6381222396554312e-06,9.24986598388493e-07,2.3463567270805443e-06
254,1.6718712600458604e-06,2.0478171771846583e-06,1.951293449045752e-06,1.293955755149942e-06,2.1175563020102033e-06,1.6463524165102567e-06,2.549304256956014e-06,1.21182651762639e-06,2.0367252267818476e-06,1.819248762553742e-06,1.4343818078413072e-06,4.172331696819422e-06,1.8909545713767192e-06,2.5760342455778967e-06,9.19816984387857e-07,2.366776643069349e-06
255,1.6820004283893277e-06,2.0091586531268987e-06,1.9368833166750197e-06,1.2885743050305337e-06,2.142236565938827e-06,1.6936322911921686e-06,2.568259882926249e-06,1.1932659104014513e-06,2.014643168323759e-06,1.8174396691875204e-06,1.4225403062439946e-06,4.210342647691456e-06,1.9185897319162413e-06,2.510653916391626e-06,9.160211127288863e-07,2.3865259316238674e-06
256,1.691067719366539e-06,1.9666208146654052e-06,1.919485750585584e-06,1.2794900837163833e-06,2.173531071805711e-06,1.7386343626373028e-06,2.583729750767047e-06,1.177846580789084e-06,1.990329176745074e-06,1.8131157173208891e-06,1.4089052887277977e-06,4.243233811052679e-06,1.9470989692885116e-06,2.4426766090676454e-06,9.1339418143556e-07,2.4040951027851426e-06
257,1.6991401390477114e-06,1.921034321768718e-06,1.898854108101236e-06,1.2665248332953113e-06,2.21150469749586e-06,1.7805937128617489e-06,2.5950580025769983e-06,1.1654328833939818e-06,1.96394303868061e-06,1.8056470751497128e-06,1.393021142745576e-06,4.270566301844378e-06,1.976119061802595e-06,2.372943988205298e-06,9.11701815989861e-07,2.418103332838334e-06
258,1.7065777446827713e-06,1.8734077495365293e-06,1.8749370804221187e-06,1.2499970587437197e-06,2.255833069666088e-06,1.8188972089957875e-06,2.601472898456308e-06,1.155846968320988e-06,1.935560058338045e-06,1.7946774579268732e-06,1.374308933436043e-06,4.2919489783147e-06,2.005114087845896e-06,2.3023684593858546e-06,9.106151879142945e-07,2.4273556799946027e-06
259,1.7138802837068195e-06,1.8248540221825699e-06,1.8480325332464035e-06,1.2305565809245294e-06,2.305827764995677e-06,1.8531795890657953e-06,2.6022702650233524e-06,1.1489126793075632e-06,1.905138388365022e-06,1.7802174902538056e-06,1.3521713268179044e-06,4.306938732949597e-06,2.033349451648117e-06,2.2319531676554053e-06,9.097476135444501e-07,2.4308403291017347e-06
260,1.721448239255709e-06,1.776438516987052e-06,1.8187310223965153e-06,1.208980149559161e-06,2.3605707248353668e-06,1.8834135952159397e-06,2.597102912323981e-06,1.1445354218635408e-06,1.8724161296283329e-06,1.7625360265232348e-06,1.326198126043137e-06,4.314987513623991e-06,2.060101212797189e-06,2.162768604229053e-06,9.087896164667435e-07,2.427856406699489e-06
261,1.7294318585585147e-06,1.72903925754348e-06,1.7877221101775699e-06,1.186101751959089e-06,2.419068505299329e-06,1.909840541709713e-06,2.5861791694397715e-06,1.1427028757055251e-06,1.8369482609321956e-06,1.7420323083682985e-06,1.2963163729226773e-06,4.315455245835265e-06,2.0849267920540427e-06,2.0957819435442053e-06,9.076184859691277e-07,2.4182093897054646e-06
262,1.73768578029159e-06,1.6833084748899767e-06,1.7555949206514107e-06,1.162837073401302e-06,2.4803302648901163e-06,1.932728382715886e-06,2.570244547020195e-06,1.1433688992458937e-06,1.7983814099610995e-06,1.7191433820772454e-06,1.2627282920618842e-06,4.3077104046180845e-06,2.107691610587234e-06,2.0316736465146774e-06,9.062712874758611e-07,2.4022428526939174e-06
263,1.7457718514664851e-06,1.6397510431692826e-06,1.7227337948950212e-06,1.1401330852149458e-06,2.5433041978530835e-06,1.9521566552119875e-06,2.5503373158895463e-06,1.1463602264337987e-06,1.7567891042505355e-06,1.6942763591684225e-06,1.2257451751113224e-06,4.291350750213326e-06,2.1283269441995423e-06,1.970808564472178e-06,9.048392001108434e-07,2.380654793854236e-06
264,1.7530085001860122e-06,1.5988180832231387e-06,1.689360438279198e-06,1.1188462795407162e-06,2.6067066636406797e-06,1.967988578962087e-06,2.5274779508760076e-06,1.1513688924795563e-06,1.7128042372226241e-06,1.667794577589801e-06,1.185734769882369e-06,4.266508529954502e-06,2.1465887291249763e-06,1.913360079090494e-06,9.034175793879368e-07,2.354282885709719e-06
265,1.7585854937946304e-06,1.5609068164589327e-06,1.6556671452111181e-06,1.0996653707960142e-06,2.6689172849967486e-06,1.9799543836860894e-06,2.5025156394929027e-06,1.1579479889829362e-06,1.6675138673294388e-06,1.6400056468313935e-06,1.1431833640143933e-06,4.234059407758062e-06,2.1620812507030297e-06,1.8595079583353001e-06,9.021096006636502e-07,2.3240318064218585e-06
266,1.76173935859502e-06,1.5262793974637427e-06,1.6219211103628772e-06,1.0830954650813467e-06,2.7281238610526175e-06,1.98769631697997e-06,2.4761223871687937e-06,1.1654662625358058e-06,1.6222707361074987e-06,1.6111625972403436e-06,1.0987021955841372e-06,4.195534794843757e-06,2.1745973279927985e-06,1.8096193785335524e-06,9.010276524558453e-07,2.2909536409801413e-06
267,1.7619347255120635e-06,1.4950235349972387e-06,1.5885013708874369e-06,1.0694815010324414e-06,2.7826879816124654e-06,1.9907472182641784e-06,2.4487577744702033e-06,1.1730900589911401e-06,1.5784888663028902e-06,1.581497642712762e-06,1.0529593191151779e-06,4.152718714571794e-06,2.1844977517158284e-06,1.7642807309842127e-06,9.003431849699778e-07,2.256356601436679e-06
268,1.7589601788445994e-06,1.4671244962975854e-06,1.5559042851134266e-06,1.0590485197823045e-06,2.8314578179166816e-06,1.9885310918581315e-06,2.4206042399001317e-06,1.1798859561273542e-06,1.537439309716604e-06,1.5511890132740312e-06,1.006679554310714e-06,4.107126265094492e-06,2.192735547924336e-06,1.7241436555505602e-06,9.003716355747544e-07,2.221771222448803e-06
269,1.7529241597245074e-06,1.442537807502241e-06,1.5247024808302736e-06,1.0519057770401603e-06,2.8737655782482922e-06,1.9804821183303323e-06,2.39158702911267e-06,1.1850565931583705e-06,1.5001224116445511e-06,1.520322471722909e-06,9.6074498509002e-07,4.0596058375146385e-06,2.2004903886034303e-06,1.689742999565592e-06,9.015486207520381e-07,2.1887312186112557e-06
270,1.7442220617520717e-06,1.4211440570532213e-06,1.4954274483002168e-06,1.0480373927182573e-06,2.9091086358055956e-06,1.9662579767972703e-06,2.361446122203296e-06,1.188174764739487e-06,1.4672560646321468e-06,1.4890242261387843e-06,9.162522758701702e-07,4.010175902406808e-06,2.208796704220438e-06,1.661416913132372e-06,9.04290526913204e-07,2.158540316330073e-06
271,1.733489397459474e-06,1.4026789043064803e-06,1.4684612337314749e-06,1.047356385163812e-06,2.936781758309273e-06,1.945913039639486e-06,2.32976123722958e-06,1.1892188530529305e-06,1.4393372763211564e-06,1.4576424792560573e-06,8.744433480030309e-07,3.958092566166788e-06,2.2184772629216205e-06,1.6392808376946053e-06,9.088940453059457e-07,2.1321723759495e-06
272,1.721474354267222e-06,1.3867657534056644e-06,1.4440306391708687e-06,1.0498106699541698e-06,2.955805295167474e-06,1.919942224545269e-06,2.2959728694265474e-06,1.18841656580558e-06,1.4166942680755055e-06,1.426710238211381e-06,8.366474746790488e-07,3.9020669821562794e-06,2.230299478280358e-06,1.6232292893963026e-06,9.155444040610222e-07,2.110279013877009e-06
273,1.7088225592272378e-06,1.3729858018094985e-06,1.422261303013357e-06,1.055459857348358e-06,2.9652342335977905e-06,1.8892025759993775e-06,2.2595253806392218e-06,1.1861394903439863e-06,1.3994823201915153e-06,1.396758793014241e-06,8.043671883190905e-07,3.8405297662365396e-06,2.2450981352966322e-06,1.6130636042695803e-06,9.243644331961371e-07,2.0932298566930364e-06
274,1.6958872612189135e-06,1.3608772521456543e-06,1.4032231131885985e-06,1.0644579224040307e-06,2.964521367837588e-06,1.8547369928750055e-06,2.220124256397865e-06,1.1829455702817876e-06,1.387654657638213e-06,1.3682120933344827e-06,7.793752040180804e-07,3.771947274026781e-06,2.2637359790427754e-06,1.6087218399615106e-06,9.35438798446582e-07,2.081111262268341e-06
275,1.6826844334110877e-06,1.3499133010699241e-06,1.386930059339607e-06,1.0769686249574542e-06,2.953589472019626e-06,1.8175379056607447e-06,2.1779479702048254e-06,1.1796004067416173e-06,1.3809372092022176e-06,1.341387628843385e-06,7.636481265811577e-07,3.695184219928996e-06,2.2869362824076483e-06,1.6103724213428886e-06,9.488147150626167e-07,2.0736758166980577e-06
276,1.6690053862828741e-06,1.3395845956042803e-06,1.3732715820335259e-06,1.0931042079317022e-06,2.9326574163058526e-06,1.7783414096513384e-06,2.1336964121929076e-06,1.1769827970601663e-06,1.3788281884111144e-06,1.3165531375471788e-06,7.592344157456433e-07,3.609800984863808e-06,2.315109868301012e-06,1.6182564770273511e-06,9.64484048480874e-07,2.0703022668982296e-06
277,1.654587042852598e-06,1.3295686224513881e-06,1.3619365417971647e-06,1.1128976731837559e-06,2.9021199566124956e-06,1.7375445535301986e-06,2.088495059683453e-06,1.17597380033878e-06,1.3806335349514114e-06,1.2939894139240755e-06,7.682081799162103e-07,3.51625662806582e-06,2.3483062820784058e-06,1.6324741317021612e-06,9.82352393905203e-07,2.070001261331117e-06
278,1.6391969336109048e-06,1.319819919594158e-06,1.352407575561831e-06,1.136273300091536e-06,2.8626682160624924e-06,1.6952886222905663e-06,2.0437258183548893e-06,1.1774083548959726e-06,1.385497140192533e-06,1.2739801388535813e-06,7.92652465603732e-07,3.4160597659949387e-06,2.386285697473295e-06,1.6529247698978082e-06,1.002234702077552e-06,2.0715330798498064e-06
279,1.6225871159683227e-06,1.3104858499031654e-06,1.3440170677854271e-06,1.163031207094316e-06,2.8154950008555114e-06,1.6516524486866012e-06,2.0008424932798223e-06,1.1820425236110697e-06,1.3924497603979243e-06,1.2567346276354483e-06,8.346011011353147e-07,3.3118214861330744e-06,2.428574324559632e-06,1.6793744803677797e-06,1.0238731027174652e-06,2.073666133923295e-06
280,1.6044640707596197e-06,1.3017201850701138e-06,1.3360465116843726e-06,1.1928707959955332e-06,2.762244061228427e-06,1.6067741339410412e-06,1.9612151845244167e-06,1.1904950936118186e-06,1.4005547423083102e-06,1.242330284128969e-06,8.959860874605175e-07,3.207153312864356e-06,2.474433896466572e-06,1.7114924231347297e-06,1.0469192624790457e-06,2.0754688148720162e-06
281,1.5846124319633642e-06,1.293539336599168e-06,1.3278704483759143e-06,1.225464167509e-06,2.7046946369471846e-06,1.5608163522694704e-06,1.926009503914173e-06,1.203197358719931e-06,1.409081596623382e-06,1.2307576550211144e-06,9.78622363949211e-07,3.1064500432480608e-06,2.522816082111025e-06,1.7487927292795836e-06,1.0708988324743444e-06,2.076535618577825e-06
282,1.563024056357393e-06,1.2857984355532124e-06,1.319056608260406e-06,1.2605385559453631e-06,2.644506855585011e-06,1.5139502243309465e-06,1.8960829350959783e-06,1.2203647288499926e-06,1.4175264874820744e-06,1.2220995059131095e-06,1.0842090620590223e-06,3.0146290069354584e-06,2.5723890607241973e-06,1.7905938788792595e-06,1.0952347067003506e-06,2.0771076216362607e-06
283,1.539835653348827e-06,1.2782470001412964e-06,1.309324078272005e-06,1.297879936655721e-06,2.5831210263952033e-06,1.4664680602405483e-06,1.8719139728469553e-06,1.242003012446894e-06,1.4254658847535271e-06,1.2167930125746765e-06,1.214354928327381e-06,2.9368772434068464e-06,2.6215975302900107e-06,1.8360974714148004e-06,1.1193295901783818e-06,2.0780330541029523e-06
284,1.5152305314529274e-06,1.27061689331619e-06,1.298493175384555e-06,1.3372615689629113e-06,2.521656904177629e-06,1.4188559011509217e-06,1.853594167669091e-06,1.2679890775132275e-06,1.432483945882736e-06,1.215867199178203e-06,1.370649852197554e-06,2.8784584202666417e-06,2.6686479558992607e-06,1.8845086484423902e-06,1.1426492567920173e-06,2.080553878966635e-06
285,1.4895249392986378e-06,1.2627313401620602e-06,1.2865967177909345e-06,1.3784019267905473e-06,2.4608147002532906e-06,1.3716958995587703e-06,1.840862401307126e-06,1.298188289370503e-06,1.438320265844752e-06,1.221010334205566e-06,1.5547343978112355e-06,2.844581479916738e-06,2.711473714820479e-06,1.9350665573315914e-06,1.1647614657268006e-06,2.0860004513874948e-06
286,1.4632895807467683e-06,1.254559985631275e-06,1.2740112116585104e-06,1.421008842320519e-06,2.4009366650125264e-06,1.3255068587160892e-06,1.8331617585491108e-06,1.3324998286018435e-06,1.4430413176782428e-06,1.2343920108144055e-06,1.7682968929464378e-06,2.8402744030684684e-06,2.74787079345719e-06,1.9869934097285342e-06,1.185295536115066e-06,2.0955376428541472e-06
287,1.4372741016246232e-06,1.2461736454915189e-06,1.2614126753384592e-06,1.464843693057066e-06,2.3422667710094913e-06,1.280683913396454e-06,1.829797484443689e-06,1.3708107049418891e-06,1.447011415428814e-06,1.2584005207817888e-06,2.0129779741277677e-06,2.870267582809414e-06,2.7758557568841414e-06,2.0394638608122825e-06,1.2038493659967389e-06,2.110092469828693e-06
288,1.4121990603321318e-06,1.2377352560102847e-06,1.2496149848467795e-06,1.5097004771385433e-06,2.2852184562301496e-06,1.2375819761131518e-06,1.8302377304535446e-06,1.41296933040909e-06,1.4507344306513881e-06,1.2954952684149597e-06,2.2902035642315575e-06,2.9389362340935737e-06,2.794076517549305e-06,2.091589854441898e-06,1.2199772882973314e-06,2.130434411961679e-06
289,1.3886039194168542e-06,1.2296071011962923e-06,1.2394306608592215e-06,1.5553142269105362e-06,2.2304605745941483e-06,1.1966589993719378e-06,1.834374712924773e-06,1.4587998050319922e-06,1.45476033289817e-06,1.348136533761425e-06,2.601012379600719e-06,3.0502539343921862e-06,2.8020261183339513e-06,2.142387329825272e-06,1.23330926944562e-06,2.157210025638671e-06
290,1.3668005703070015e-06,1.2223991268102041e-06,1.2315839910390754e-06,1.6013268944373866e-06,2.1788332810361295e-06,1.1585438206813985e-06,1.8424973615839407e-06,1.508039244109206e-06,1.4596590660704119e-06,1.418708584509864e-06,2.9459516770983636e-06,3.2076880227021473e-06,2.799889307532128e-06,2.1907705689015296e-06,1.2436370792234775e-06,2.1908455846492114e-06
291,1.3468863062575919e-06,1.21682637500198e-06,1.2266408824474116e-06,1.6473610561726167e-06,2.1311850075670995e-06,1.1239604779782676e-06,1.8549920171455192e-06,1.5602095244763315e-06,1.4659457679399536e-06,1.5094812784946172e-06,3.3250772874835733e-06,3.4140999289469958e-06,2.788109495356499e-06,2.2355441363448483e-06,1.2508685029357226e-06,2.231478036063138e-06
292,1.3287891525210444e-06,1.213496599245824e-06,1.224962570842139e-06,1.6931084015870417e-06,2.088202837159888e-06,1.0935721062675068e-06,1.8720452619552355e-06,1.6145631280921966e-06,1.4739864939314466e-06,1.6226478886313487e-06,3.7380405980564456e-06,3.671707536145195e-06,2.767059039472086e-06,2.275384174609455e-06,1.2549600516801894e-06,2.279008815106971e-06
293,1.312321047926399e-06,1.2127877758109494e-06,1.2267201599401168e-06,1.738318879250881e-06,2.050323345243896e-06,1.0678615856013748e-06,1.8935370214552911e-06,1.670133636819062e-06,1.4839826981776402e-06,1.76036390292837e-06,4.18416171556039e-06,3.982029524500806e-06,2.737055770893441e-06,2.3088903157531077e-06,1.2558866995112837e-06,2.333144278475015e-06
294,1.2972217264177157e-06,1.21483566779161e-06,1.2319774708104748e-06,1.7827062481707554e-06,2.0177238619402377e-06,1.0470995450211704e-06,1.9191101708032212e-06,1.725817926713729e-06,1.4960541566652973e-06,1.924675506114299e-06,4.662387499221086e-06,4.345776192821901e-06,2.6985091937329608e-06,2.334742011912951e-06,1.2536322473214248e-06,2.3933889149052763e-06
295,1.2831847057484976e-06,1.2196011818200807e-06,1.2408140119652764e-06,1.8259631994671215e-06,1.990299957177996e-06,1.0313958390690728e-06,1.9483084337220118e-06,1.7804490577337272e-06,1.5103995077200494e-06,2.1174073163455574e-06,5.171169902692476e-06,4.762771374753146e-06,2.6519897042322917e-06,2.3519908391262757e-06,1.2482152807228917e-06,2.459132229236395e-06
296,1.269840725728326e-06,1.2269930947009952e-06,1.2534042878983182e-06,1.8679764335703713e-06,1.9676193390372885e-06,1.0208101042948522e-06,1.9806242591908426e-06,1.8328993387107428e-06,1.5274107760269648e-06,2.34020439771248e-06,5.708376200151989e-06,5.2319700857000675e-06,2.5983257030612637e-06,2.360306762873644e-06,1.239676461124099e-06,2.5298042220501606e-06
297,1.2567636782331218e-06,1.2369634865286552e-06,1.269967644329652e-06,1.9089951709915977e-06,1.948925478709775e-06,1.015426977719162e-06,2.0154193031751745e-06,1.8822788005465187e-06,1.5475872651190305e-06,2.5946835402147338e-06,6.271246180958012e-06,5.751588438832927e-06,2.5387344129797586e-06,2.359884273916258e-06,1.2279813328489883e-06,2.604929923856272e-06
298,1.243615703846274e-06,1.249492075293069e-06,1.2906288023634682e-06,1.9495256345743465e-06,1.9332482506608596e-06,1.0153118469425143e-06,2.051839801987536e-06,1.9281523210503364e-06,1.5713300443252251e-06,2.882442277147072e-06,6.856292444873926e-06,6.319287935558987e-06,2.4748141676811494e-06,2.351237310417307e-06,1.2130135202597755e-06,2.684055245797726e-06
299,1.230376726909036e-06,1.2644782592678868e-06,1.315319309866189e-06,1.99007089345274e-06,1.919626751209063e-06,1.0204054779810802e-06,2.0888008230785013e-06,1.970552147202183e-06,1.5988352995665838e-06,3.204881259827179e-06,7.4590790676567214e-06,6.932261380807958e-06,2.4083733113773705e-06,2.335163701374029e-06,1.1947853580764115e-06,2.7666635454148305e-06
300,1.217458605652637e-06,1.2816366906057607e-06,1.3437635606966983e-06,2.0309250138449254e-06,1.907353031699547e-06,1.0304635939371074e-06,2.1251250222795036e-06,2.009775726742449e-06,1.630134854401519e-06,3.563000178314606e-06,8.073985916149767e-06,7.5871492008124566e-06,2.341207857068873e-06,2.3126245266743097e-06,1.173664820531206e-06,2.852167376475995e-06
301,1.2055917213072928e-06,1.3004752809696359e-06,1.3755059216190682e-06,2.0720668937799807e-06,1.8960833023755347e-06,1.0450651152563333e-06,2.1599026087761956e-06,2.0462475506123594e-06,1.6651581133053653e-06,3.957244711044488e-06,8.694095099970254e-06,8.27984067596701e-06,2.2749277737545046e-06,2.2845122311244473e-06,1.1503354463663558e-06,2.939951391801807e-06
302,1.1955946440737277e-06,1.320373863252566e-06,1.4099950087312676e-06,2.1131533241790933e-06,1.8857513561473958e-06,1.0636491242554723e-06,2.1928295249089616e-06,2.0805467407172145e-06,1.7037515702756622e-06,4.387441658737731e-06,9.31111883382207e-06,9.005193811121853e-06,2.2108686687753495e-06,2.251643728330768e-06,1.1255379428894698e-06,3.029404610826057e-06
303,1.1882107252968285e-06,1.3407341127641936e-06,1.4467191741361925e-06,2.15362031618797e-06,1.8763954196170175e-06,1.0855359032362224e-06,2.224176427789579e-06,2.113418691260852e-06,1.7457819351028892e-06,4.8528599954709e-06,9.915198686588043e-06,9.756694992766414e-06,2.1500562854045087e-06,2.2149434139784895e-06,1.099870404298493e-06,3.119912405723815e-06
304,1.1840452736654814e-06,1.3611117471844513e-06,1.4852506016468196e-06,2.1928101014730896e-06,1.8680556241228764e-06,1.1099299351607963e-06,2.2544133148894818e-06,2.1456606759248264e-06,1.7913439321947473e-06,5.35229699512051e-06,1.0494715297204151e-05,1.0526151393969173e-05,2.0932172292188897e-06,2.1755120390934768e-06,1.073740313673325e-06,3.2108128326380765e-06
305,1.1835480267260499e-06,1.3812294638734164e-06,1.5251470723786662e-06,2.229997870733582e-06,1.8607603058561008e-06,1.1359254436409749e-06,2.283830661459692e-06,2.177940778867497e-06,1.8408015341819294e-06,5.884049895848421e-06,1.1036555068301199e-05,1.1303692072665989e-05,2.040850516389986e-06,2.1344781962544078e-06,1.0473960739268874e-06,3.3013482078116394e-06
306,1.1870138958379444e-06,1.4008747899752866e-06,1.5658743771200924e-06,2.2643140128948595e-06,1.854497073024114e-06,1.162520482386272e-06,2.312358444012543e-06,2.210641626229695e-06,1.8945790430540915e-06,6.4457900177292825e-06,1.1527101737389658e-05,1.2078450229082913e-05,1.9933018958282494e-06,2.0927998888230574e-06,1.0210121982339037e-06,3.3906579201260913e-06
307,1.1946127224267862e-06,1.419767609655765e-06,1.6068490787457979e-06,2.294769065129304e-06,1.8491391636227332e-06,1.1886598486520144e-06,2.3395429120808273e-06,2.2437942945420006e-06,1.952981180627674e-06,7.0344815020381285e-06,1.1953803999672818e-05,1.2839868852457109e-05,1.9508041177993785e-06,2.0512356654061545e-06,9.947876241037742e-07,3.477841897439864e-06
308,1.2064540757432832e-06,1.4374687101361383e-06,1.647508419324504e-06,2.320553615802793e-06,1.844457720221925e-06,1.2133136046900702e-06,2.364640520276895e-06,2.277133333320804e-06,2.016156140766925e-06,7.646430233902111e-06,1.2306913909100131e-05,1.3578943787589409e-05,1.913517050633169e-06,2.0104568960117653e-06,9.68990206899091e-07,3.5620622927133023e-06
309,1.222612904194203e-06,1.4534094549070104e-06,1.6873108251158852e-06,2.3414238259333135e-06,1.8402336267057493e-06,1.2355381867328706e-06,2.3867733461752433e-06,2.3101873292738144e-06,2.0840568179734027e-06,8.277359159310996e-06,1.2580749867516591e-05,1.4288570875905882e-05,1.8815296561019554e-06,1.9710734330961215e-06,9.439685561904485e-07,3.642572252202636e-06
310,1.2430643435285995e-06,1.467077104840406e-06,1.7256723003178823e-06,2.3578443535272225e-06,1.8362883049733857e-06,1.2544969703591587e-06,2.404999101595646e-06,2.34227350108459e-06,2.1564082292464607e-06,8.92232388523258e-06,1.277366954918993e-05,1.49625959556659e-05,1.854770901771173e-06,1.9334959657613618e-06,9.201764199896251e-07,3.7185951714753356e-06
311,1.2676199117192973e-06,1.478230209432538e-06,1.7619107647999647e-06,2.3708030417422945e-06,1.8324995427993472e-06,1.2695039981688575e-06,2.4182183459925485e-06,2.3724861795221137e-06,2.2327985266270652e-06,9.575421770992381e-06,1.2886438350720397e-05,1.5594139899432283e-05,1.8329297236983115e-06,1.8977953430071632e-06,8.981659094615813e-07,3.7891031319289477e-06
312,1.2959706337358654e-06,1.486976494548024e-06,1.7952748215961234e-06,2.3814364768952587e-06,1.8290114189109025e-06,1.28009756403315e-06,2.4250448999307444e-06,2.399833636305852e-06,2.312800592263309e-06,1.0229405917803484e-05,1.2919924149732718e-05,1.617449157549785e-05,1.8154974396217003e-06,1.8637176541981667e-06,8.785022951546817e-07,3.852597751130576e-06
313,1.3278103836068507e-06,1.4936775950008427e-06,1.8250459798003916e-06,2.390661565447789e-06,1.826467662136546e-06,1.2860389819569294e-06,2.4238630842433756e-06,2.4234182857967705e-06,2.396006772439899e-06,1.0875328460177041e-05,1.2873760883930325e-05,1.6693103396895464e-05,1.801884542014779e-06,1.8308519236289852e-06,8.616618008910075e-07,3.9070359091341215e-06
314,1.3629037329863498e-06,1.4987620161273415e-06,1.8506347427926398e-06,2.398955564474419e-06,1.825965850407312e-06,1.2872526924306301e-06,2.4131430318200704e-06,2.44252527246801e-06,2.4820794094292908e-06,1.1502264080609284e-05,1.2746667665771463e-05,1.713814457373485e-05,1.7915068429163183e-06,1.7988306645146455e-06,8.479978116320939e-07,3.950012336382729e-06
315,1.401015663516391e-06,1.5025609472326172e-06,1.8716327992290232e-06,2.4063260899771654e-06,1.8287582177394156e-06,1.2838664000656596e-06,2.3918520824951644e-06,2.4566800136991e-06,2.57079865101994e-06,1.209725389888708e-05,1.2537776759473816e-05,1.7497391502035545e-05,1.7837958431531347e-06,1.7674143875570053e-06,8.377641219913756e-07,3.979090908103985e-06
316,1.44180853699027e-06,1.5052581102620683e-06,1.8878010222959815e-06,2.412416781072765e-06,1.8359425918381026e-06,1.276321849247653e-06,2.359727878620608e-06,2.465724550513114e-06,2.661910569275493e-06,1.2645873374304923e-05,1.2248194996564799e-05,1.775974640568142e-05,1.7781630172418634e-06,1.7364263165309878e-06,8.311351313495441e-07,3.992069369351059e-06
317,1.4848107466486485e-06,1.5069857011626844e-06,1.8989500470223046e-06,2.4166413440471072e-06,1.848301255373252e-06,1.2653577940907136e-06,2.3172907357857126e-06,2.469789505381093e-06,2.7548616029529992e-06,1.3133568460006285e-05,1.1882306106475905e-05,1.7917174645760362e-05,1.7740177735133294e-06,1.705683187850611e-06,8.282212796566143e-07,3.987134746325878e-06
318,1.5293945684409701e-06,1.5080032207652484e-06,1.904776719024167e-06,2.4182948143774034e-06,1.866272576513186e-06,1.2518448346193912e-06,2.2656619487691646e-06,2.4690844124902957e-06,2.8486748055660293e-06,1.3547074319904512e-05,1.1448275271239088e-05,1.7966203119801127e-05,1.7708828354698654e-06,1.674990530326934e-06,8.290929940050926e-07,3.963020995972206e-06
319,1.5747552921273209e-06,1.5087903392848314e-06,1.904845138643187e-06,2.4167053308554026e-06,1.8899700557459455e-06,1.2366328759437083e-06,2.2063583709647525e-06,2.463761399508211e-06,2.942053565464886e-06,1.387512200587226e-05,1.0957409078722369e-05,1.7907967436013515e-05,1.7684852747565061e-06,1.6441073793067242e-06,8.337742681534606e-07,3.919209196232749e-06
320,1.6199451365945178e-06,1.509932540825504e-06,1.8987993034742502e-06,2.411465540268055e-06,1.919180374411787e-06,1.2205139147365247e-06,2.141118429118032e-06,2.4540866841068256e-06,3.033659297183478e-06,1.4108587785390721e-05,1.0422558864979384e-05,1.7746420178017233e-05,1.7667013888057923e-06,1.6126929801438817e-06,8.422058767966462e-07,3.8560611739558825e-06
321,1.6638751583816804e-06,1.5119013499422583e-06,1.8866778082258927e-06,2.402611812932646e-06,1.9533423371612223e-06,1.204280659799807e-06,2.071710188486522e-06,2.440685018232701e-06,3.122330583940103e-06,1.4240807815919469e-05,9.856277982762731e-06,1.748604209743944e-05,1.7654246825414902e-06,1.5803943107469666e-06,8.542254408241785e-07,3.774812992728322e-06
322,1.705234523040926e-06,1.5149061339768422e-06,1.8690979335030116e-06,2.39058220489995e-06,1.9915784150409946e-06,1.1888131262849888e-06,1.9998375964940484e-06,2.4245506684798444e-06,3.2069967755692458e-06,1.4267943272467735e-05,9.26961209340541e-06,1.7131440436095048e-05,1.7644880692693275e-06,1.5471132860292255e-06,8.695716919283636e-07,3.677498848790903e-06
323,1.74246325407652e-06,1.5188559336748577e-06,1.8471440081566988e-06,2.3760072021197115e-06,2.0328083347093844e-06,1.1751262880262608e-06,1.92725109095376e-06,2.4068831271961683e-06,3.286401043066848e-06,1.4188469973925168e-05,8.671835939716568e-06,1.6689238367966525e-05,1.7636422693771032e-06,1.5132365136569028e-06,8.879083137232566e-07,3.5668491917544155e-06
324,1.773898513390849e-06,1.5233882906019613e-06,1.8220377061216596e-06,2.359573722233318e-06,2.0758367611929765e-06,1.1643323902081933e-06,1.8558393586516086e-06,2.388960688848623e-06,3.358995782980315e-06,1.4002251304339018e-05,8.07069206991767e-06,1.6169936902884275e-05,1.762566465581332e-06,1.4796132418718921e-06,9.088503426465028e-07,3.4461082955441e-06
325,1.7980305916988904e-06,1.527923563127556e-06,1.7948523321380482e-06,2.342067793363341e-06,2.1193146512959437e-06,1.1575229523571802e-06,1.7875028303946953e-06,2.3721091237947315e-06,3.4231730442471538e-06,1.3711116234006342e-05,7.472707349793713e-06,1.5587742199935593e-05,1.7609375782404247e-06,1.4473413322746812e-06,9.31962396100797e-07,3.3187449528263925e-06
326,1.8136616194349454e-06,1.531699895830405e-06,1.7664093626316943e-06,2.3244233608668478e-06,2.1617173385913387e-06,1.1556355238068535e-06,1.7239378577143776e-06,2.35764032904826e-06,3.47753611440358e-06,1.332085440544397e-05,6.88355688159812e-06,1.4958686511094879e-05,1.758474440093075e-06,1.4175467479670963e-06,9.567563310203586e-07,3.188093838774165e-06
327,1.8198422430459974e-06,1.5337726275879617e-06,1.7373303810636112e-06,2.307591955536822e-06,2.2015119040764866e-06,1.1593735899498844e-06,1.6665099756854145e-06,2.3466952999328724e-06,3.5208472445058787e-06,1.2842159904434647e-05,6.308422956362615e-06,1.4298643040761458e-05,1.7548442622466992e-06,1.3912280319715115e-06,9.827072506624625e-07,3.05704463463141e-06
