,EMG1,EMG2,EMG3,EMG4,EMG5,EMG6,EMG7,EMG8,EMG9,EMG10,EMG11,EMG12,EMG13,EMG14,EMG15,EMG16
0,4.527622499101756e-07,2.4127527032784997e-07,3.3783594542083087e-07,7.753974217721116e-07,3.8642825654667234e-07,-3.5826324338976494e-08,2.122651771179317e-07,6.037900414424538e-09,5.350152625607131e-07,7.818368612338002e-08,2.6921556139168843e-07,7.588185228432499e-07,6.262910811593689e-07,1.7076149909218437e-06,1.9192961255760904e-07,3.4744331728287937e-07
1,6.714888660439335e-07,3.371612849374741e-07,4.6337758969953815e-07,8.82540885202668e-07,5.885179270402512e-07,2.554214713015467e-07,4.728961775304932e-07,2.3705913157915013e-07,6.116693424518747e-07,3.010369709580601e-07,3.2095298922796406e-07,8.927959453250263e-07,8.777226418601581e-07,2.079776008561997e-06,2.4848248265327497e-07,3.9705017784254725e-07
2,8.823010466853928e-07,4.34406584183353e-07,5.868433585827688e-07,9.911330505228929e-07,7.879132429189324e-07,5.354249158679876e-07,7.223416376437061e-07,4.635169249140675e-07,6.897289113030677e-07,5.135878140418233e-07,3.7375803537110213e-07,1.0287503495013764e-06,1.1196468638852431e-06,2.4444645201768165e-06,3.0478027786234334e-07,4.500289091885148e-07
3,1.0839058240769833e-06,5.314812536746183e-07,7.073166695042362e-07,1.0999361421094018e-06,9.815564365965183e-07,8.004556483604023e-07,9.581918418555585e-07,6.826712175140136e-07,7.686046824500935e-07,7.134339784546154e-07,4.270438232611998e-07,1.1667310583582882e-06,1.3501907255925704e-06,2.797368324702536e-06,3.6035217712570655e-07,5.060301274404647e-07
4,1.275253657611172e-06,6.272275951776095e-07,8.239552790874741e-07,1.2076422042128044e-06,1.166796219314294e-06,1.0471868716785187e-06,1.1782941611471833e-06,8.922327161457744e-07,8.47588453717259e-07,8.989425763415441e-07,4.802191809804713e-07,1.3066685106886709e-06,1.5674031096758196e-06,3.13433045841784e-06,4.1471192000556073e-07,5.647367539095516e-07
5,1.4554346289460012e-06,7.208386355305866e-07,9.359253724699814e-07,1.3128846188766019e-06,1.341532174182585e-06,1.2728041865776532e-06,1.3809284911818062e-06,1.0905583803371576e-06,9.258816124937159e-07,1.0691926267870526e-06,5.326872191416647e-07,1.4483424065169614e-06,1.7692663583033522e-06,3.451363449720031e-06,4.673500118506929e-07,6.257976989478693e-07
6,1.6236543782641126e-06,8.11716396393088e-07,1.0423381070947548e-06,1.4142772530948286e-06,1.5043054036236964e-06,1.4750403719375605e-06,1.5649424572985255e-06,1.2766232788393755e-06,1.002716262186256e-06,1.2235945602851013e-06,5.838675577445642e-07,1.5913787848650286e-06,1.953736766823004e-06,3.744853388520054e-06,5.177692614118564e-07,6.888205860225788e-07
7,1.7792784212804675e-06,8.993598641380034e-07,1.142278024585434e-06,1.5104929772250118e-06,1.6543054734115496e-06,1.6522044125741898e-06,1.729718109252686e-06,1.4497724058019988e-06,1.077472222629553e-06,1.361562991209645e-06,6.332654072520788e-07,1.7352296850750633e-06,2.1188963681426053e-06,4.0119189465127094e-06,5.655505703553804e-07,7.533970117601422e-07
8,1.9217746664745495e-06,9.833062995410762e-07,1.234892011877815e-06,1.6003950983924634e-06,1.7912728662722209e-06,1.8032801911710977e-06,1.8749566826289874e-06,1.6094634350000733e-06,1.149659639551033e-06,1.482520907633399e-06,6.805417717906921e-07,1.8791529352071032e-06,2.2632736506587552e-06,4.250743172874008e-06,6.103679130736569e-07,8.190834037425404e-07
9,2.0506847854239462e-06,1.0630949446079756e-06,1.3194412110930624e-06,1.6831327595436306e-06,1.915336266683924e-06,1.9280296116711258e-06,2.0005727657343904e-06,1.7551969328980883e-06,1.218822133103407e-06,1.5861601043775354e-06,7.255140798130379e-07,2.022278580030662e-06,2.3861816707813467e-06,4.460674695857958e-06,6.519649022141653e-07,8.853431475086908e-07
10,2.165821082709986e-06,1.1382564302260908e-06,1.3953304426915947e-06,1.7580799948882513e-06,2.026823522902796e-06,2.0269808939008368e-06,2.1068824502219076e-06,1.8866092045275592e-06,1.2844841257327755e-06,1.6726957607950554e-06,7.68073800641939e-07,2.1637467147417514e-06,2.487807934586722e-06,4.641979809207595e-06,6.901661145736539e-07,9.514999869400151e-07
11,2.2674337800161485e-06,1.208322474684978e-06,1.4621836588111136e-06,1.8247284575660146e-06,2.1260656540265367e-06,2.1013113887869503e-06,2.194778906330099e-06,2.0035463955983617e-06,1.3461399951137036e-06,1.74291848004235e-06,8.08073691648596e-07,2.3028133307853512e-06,2.568953030555479e-06,4.795324563474173e-06,7.249270725701319e-07,1.0167141516067843e-06
12,2.3560407899579295e-06,1.2728504343974091e-06,1.5198744450942218e-06,1.8827491132494791e-06,2.2133233128193086e-06,2.1527403862345374e-06,2.265591671237486e-06,2.1060122133894056e-06,1.4032459994633754e-06,1.7980388259690865e-06,8.452808887439035e-07,2.4388291629691344e-06,2.630610648101574e-06,4.921205277456598e-06,7.563978923821865e-07,1.079988658618557e-06
13,2.432043826195948e-06,1.3314780917458876e-06,1.5684006423397416e-06,1.9321140624040606e-06,2.2889085639806122e-06,2.183490526872968e-06,2.320785744075821e-06,2.1940529985499334e-06,1.455197020659696e-06,1.8394399899953588e-06,8.794605820897504e-07,2.571083814350425e-06,2.67365905251509e-06,5.019553103029456e-06,7.849242448141279e-07,1.1402474685296066e-06
14,2.4954266571921552e-06,1.3840485182774586e-06,1.6077714318378891e-06,1.9730112999656387e-06,2.3532811586177704e-06,2.1962307084583946e-06,2.3618124542806466e-06,2.2677247610605424e-06,1.5013213988344156e-06,1.8684491086809205e-06,9.105386763579527e-07,2.6986420229155173e-06,2.698808557154766e-06,5.08972017538322e-06,8.109339861851715e-07,1.1964978144635166e-06
15,2.5456846846425943e-06,1.4307416299316715e-06,1.6380963376756608e-06,2.0056331699382637e-06,2.4069546176914296e-06,2.1938771826872994e-06,2.39015497810838e-06,2.3272284494073124e-06,1.5410119198400465e-06,1.8862469770391618e-06,9.387132157238417e-07,2.8202894561217858e-06,2.7068344226508027e-06,5.130855479049684e-06,8.348099766792907e-07,1.2479813573249229e-06
16,2.582005440259051e-06,1.4720607446383236e-06,1.6597357593473652e-06,2.0300595101362805e-06,2.4503764020273363e-06,2.1793155696398085e-06,2.4073637590983663e-06,2.3731388256766594e-06,1.573965337603024e-06,1.8940038986929525e-06,9.644283383109732e-07,2.9345730296470295e-06,2.6988778484256457e-06,5.142344675354226e-06,8.568384630805319e-07,1.2941815712118446e-06
17,2.603653022207969e-06,1.5086960222109646e-06,1.6733301351091104e-06,2.046214338655437e-06,2.483941200211231e-06,2.1552428572483637e-06,2.4149352589568586e-06,2.406514654802653e-06,1.6002680399919075e-06,1.8930925066959236e-06,9.882312414047905e-07,3.0399025731239385e-06,2.676442771273815e-06,5.124039662678591e-06,8.772124475770515e-07,1.3347209550987626e-06
18,2.6104046580591663e-06,1.541382383421701e-06,1.6797379945005183e-06,2.053908936773808e-06,2.5080484304646603e-06,2.1241525072818342e-06,2.414100614526275e-06,2.4287421371913905e-06,1.6202163544836838e-06,1.8850821523522709e-06,1.0106136868077715e-06,3.1347332674105e-06,2.6411346181580237e-06,5.076380252031382e-06,8.96068635818115e-07,1.3693708865213173e-06
19,2.6027819593558853e-06,1.5707731226550309e-06,1.679930718448839e-06,2.0530761630861144e-06,2.523050507262397e-06,2.088309503384852e-06,2.4057056727352313e-06,2.4412392605464766e-06,1.6341060731350821e-06,1.8714803376678716e-06,1.031923422030409e-06,3.217774175859801e-06,2.5945997066671686e-06,5.000614565310789e-06,9.135220879732614e-07,1.398256066575761e-06
20,2.5818932911225827e-06,1.597385897867373e-06,1.6748425792182287e-06,2.044046101970024e-06,2.52914465073766e-06,2.049680272008606e-06,2.390288747386023e-06,2.445300658078556e-06,1.6422108441535807e-06,1.853482207854605e-06,1.0523519487389668e-06,3.288101315949972e-06,2.538734937382611e-06,4.899047549548719e-06,9.296484962131716e-07,1.4220330767666644e-06
21,2.549052032605947e-06,1.6216922010798384e-06,1.665266413830414e-06,2.0276298811994218e-06,2.526437681883243e-06,2.00993963878082e-06,2.3682874707562445e-06,2.4421094285488945e-06,1.6448596949427572e-06,1.8319157863465301e-06,1.0719718615746928e-06,3.34520505663334e-06,2.4757239033963033e-06,4.775032300112268e-06,9.444934756180921e-07,1.4418444449935976e-06
22,2.5056066060959695e-06,1.6442522765685969e-06,1.6518762890123272e-06,2.0050101241846487e-06,2.5152367364955646e-06,1.9706080382090168e-06,2.3402389544186e-06,2.4327066647378445e-06,1.6424114079758204e-06,1.8073298014864354e-06,1.0907877839199204e-06,3.389117607651821e-06,2.407749465227892e-06,4.632610966926799e-06,9.581900649706906e-07,1.4590881923045453e-06
23,2.4531360725753783e-06,1.665744468190629e-06,1.6352803292981236e-06,1.977546870130206e-06,2.4963127699429533e-06,1.933194235769772e-06,2.30689544255096e-06,2.417907146197448e-06,1.6351322801489849e-06,1.7800943379633363e-06,1.1087811719934056e-06,3.4205846419643178e-06,2.3367281085158705e-06,4.47599172060633e-06,9.710365463374777e-07,1.4751554758104261e-06
24,2.3936705506485517e-06,1.6868651526943304e-06,1.616015523681736e-06,1.9465545869510443e-06,2.4708776105055146e-06,1.8991941589124382e-06,2.269206710295732e-06,2.398314428116922e-06,1.623187024031637e-06,1.7504585718729701e-06,1.1259495644280455e-06,3.4410794262364493e-06,2.2642732023320327e-06,4.309073452753927e-06,9.834173309995344e-07,1.491254862233674e-06
25,2.329590545528099e-06,1.7081711660019965e-06,1.5945530665522061e-06,1.913089116737555e-06,2.440280743493559e-06,1.8699555848897204e-06,2.228183047277484e-06,2.374419329781569e-06,1.6067807098941157e-06,1.718554675998851e-06,1.1423237962515893e-06,3.452606863535594e-06,2.1917506295924363e-06,4.135242702369041e-06,9.95732740298146e-07,1.5083325710576426e-06
26,2.2632607291333405e-06,1.7299459947939421e-06,1.5713457460149756e-06,1.8778124822863113e-06,2.4056860366606826e-06,1.8465298512332947e-06,2.1848155507503514e-06,2.3466898706506054e-06,1.5862308548902213e-06,1.6843947267002816e-06,1.1579568137706438e-06,3.457449738922162e-06,2.1203058295995372e-06,3.9575388807768285e-06,1.0084681246348046e-06,1.5270362286798209e-06
27,2.1967006048767208e-06,1.7521312872988589e-06,1.5468518456122743e-06,1.8409936851899803e-06,2.367970968253963e-06,1.829592512226624e-06,2.140184397104833e-06,2.3156765701853063e-06,1.5619676280199554e-06,1.647963974571713e-06,1.1728748715228694e-06,3.4579346634779447e-06,2.050877005219349e-06,3.778909405544738e-06,1.0222564149105162e-06,1.5477075823845076e-06
28,2.131461451401797e-06,1.7743299296984027e-06,1.5215326177238979e-06,1.8026494635390122e-06,2.3277851510189142e-06,1.8194417048185817e-06,2.0955619249392014e-06,2.2821215207071034e-06,1.5346006234903043e-06,1.6093808152843458e-06,1.1869917288015755e-06,3.45614565976533e-06,1.9842214948274028e-06,3.602297069631715e-06,1.0378014147511055e-06,1.5704033976280438e-06
29,2.0686583710021515e-06,1.7959184579348757e-06,1.4958504293193865e-06,1.7627449615236085e-06,2.2855814602516915e-06,1.8160339067612436e-06,2.052268261136792e-06,2.2469329309880257e-06,1.5048970591153047e-06,1.5689710158415263e-06,1.2000424153059394e-06,3.4536485940667264e-06,1.9209614490730614e-06,3.4306591972505343e-06,1.055757257407187e-06,1.5949384613197812e-06
30,2.009068421876457e-06,1.8162981582673297e-06,1.4702241033417507e-06,1.721340142374333e-06,2.2416834632236878e-06,1.8190209910120235e-06,2.0113932363455695e-06,2.2110187326663607e-06,1.4735807522417627e-06,1.527214057255151e-06,1.2115929070009012e-06,3.4514335966258273e-06,1.8616046524859301e-06,3.2670144683856746e-06,1.0766639129243496e-06,1.6209855395141382e-06
31,1.9532232637525638e-06,1.8351523324756631e-06,1.4449563222179688e-06,1.6786691320037282e-06,2.19646389067846e-06,1.827816635978343e-06,1.9736460468630398e-06,2.1751754483267678e-06,1.4411771163751419e-06,1.4846316215929963e-06,1.2211008892283438e-06,3.4501136745302643e-06,1.8065159673225317e-06,3.114363536589335e-06,1.100902866323676e-06,1.6482395741319804e-06
32,1.9014812852386135e-06,1.8525045812126851e-06,1.4202559339768654e-06,1.6352171178310598e-06,2.1504226879264804e-06,1.8417000114209845e-06,1.939366009762052e-06,2.1400843689163644e-06,1.4080598090643816e-06,1.4417143798220568e-06,1.2279529213920483e-06,3.450211988511607e-06,1.7559281327434787e-06,2.97541165855467e-06,1.1286449727692156e-06,1.6765398361809496e-06
33,1.8541460760223812e-06,1.8685502749336345e-06,1.3963923770923044e-06,1.5917714976133867e-06,2.1040777001726765e-06,1.8598793084858366e-06,1.9085873313089753e-06,2.1063108878477587e-06,1.3746046202929342e-06,1.3989864540999303e-06,1.231529488694776e-06,3.452360531427799e-06,1.7100158714828029e-06,2.8523166992737893e-06,1.1598192519841536e-06,1.7058345701101874e-06
34,1.8115736410420411e-06,1.8833998505731117e-06,1.3738560865664252e-06,1.5493511719143976e-06,2.0578572578534574e-06,1.8814848555735268e-06,1.8811302692172983e-06,2.0743434967786605e-06,1.3412591352616253e-06,1.3571346704775261e-06,1.231384253055447e-06,3.457364510179173e-06,1.6689073595272373e-06,2.7466236252839705e-06,1.1941215420741202e-06,1.7360454255639657e-06
35,1.7741139226254612e-06,1.8968784512808241e-06,1.3533673943579857e-06,1.5090168992708694e-06,2.0120869278761208e-06,1.905574767084314e-06,1.8567025644749427e-06,2.044677259709206e-06,1.3084662266370288e-06,1.3169883371106668e-06,1.227371591823035e-06,3.4662289919156284e-06,1.6325795656735603e-06,2.6592770275627897e-06,1.2310468814886585e-06,1.767020949985092e-06
36,1.7419387475756799e-06,1.9084803114415645e-06,1.3357146918760608e-06,1.4716824676709857e-06,1.9670840996051786e-06,1.93121397171853e-06,1.8349164889065922e-06,2.01779067972774e-06,1.2765843962030788e-06,1.2793569502695738e-06,1.2195482629901844e-06,3.48022883683332e-06,1.6007428566717007e-06,2.590609238348793e-06,1.2699402592625556e-06,1.79861718289385e-06
37,1.7149295460827533e-06,1.9175230681975265e-06,1.3215697008522043e-06,1.4380184065940847e-06,1.9232957020702603e-06,1.9575703950630345e-06,1.8152107814496382e-06,1.9940576280511503e-06,1.2459307185882265e-06,1.2449165534752174e-06,1.2080201962589222e-06,3.5009379081911056e-06,1.5728257952009311e-06,2.540353250784792e-06,1.3101146981079202e-06,1.8307382839110855e-06
38,1.6926721353402846e-06,1.9234293956599256e-06,1.3113982427107922e-06,1.4084693110337309e-06,1.881277903151728e-06,1.9839578710716015e-06,1.796798536589923e-06,1.973766889847709e-06,1.216877570504774e-06,1.2142058318849527e-06,1.1929367231212233e-06,3.5300543920799743e-06,1.5480444190039183e-06,2.507740599502033e-06,1.3510204211488956e-06,1.8632586084340923e-06
39,1.6745387217552372e-06,1.9259225170045387e-06,1.305443708676223e-06,1.3833715283662033e-06,1.8415895533874763e-06,2.0098450442941874e-06,1.77870833091492e-06,1.957164705040586e-06,1.1898831774809382e-06,1.1876802835489432e-06,1.1745391946063435e-06,3.569022430664047e-06,1.5254876985902412e-06,2.4916237412011314e-06,1.3923064367791547e-06,1.8959453752580563e-06
40,1.6598022372912698e-06,1.9249683979737934e-06,1.303724685417884e-06,1.3630734720563965e-06,1.8048135759693658e-06,2.0348444677704743e-06,1.7599246756641131e-06,1.944367324210409e-06,1.1654385051610545e-06,1.1657489766063067e-06,1.1531321305979135e-06,3.618679982779881e-06,1.5042782006405827e-06,2.490500867051565e-06,1.433680422962717e-06,1.9284856765093374e-06
41,1.6476657541204894e-06,1.920549871042098e-06,1.306030406334703e-06,1.3479243621401839e-06,1.7715748100718362e-06,2.0586206482894494e-06,1.7396237493611807e-06,1.935259621468696e-06,1.1439807348982087e-06,1.1487308700461e-06,1.1290192417502382e-06,3.679136478623965e-06,1.4838414154072728e-06,2.5024642767550115e-06,1.4746917963983648e-06,1.960557827444847e-06
42,1.637206599823954e-06,1.9125167244260533e-06,1.3119388633298979e-06,1.3381432176375434e-06,1.7424109664439384e-06,2.0807060959696304e-06,1.717385992789412e-06,1.9295262675274936e-06,1.1258577279165898e-06,1.1367752094837268e-06,1.1024860228742104e-06,3.749836821068403e-06,1.4640795380573113e-06,2.5252392781599714e-06,1.5146198288910918e-06,1.991837629905015e-06
43,1.6273947142032527e-06,1.9006627391094533e-06,1.3208575068128005e-06,1.3337112463220686e-06,1.7176516169096136e-06,2.1003411531377794e-06,1.6932189999631412e-06,1.9267241128917227e-06,1.1113887392625256e-06,1.1298414092024292e-06,1.0738395664334197e-06,3.829658850350359e-06,1.4452843135531018e-06,2.5564021950723733e-06,1.552521359777479e-06,2.0219628854425157e-06
44,1.617270332520768e-06,1.8849635806120586e-06,1.3320574906220168e-06,1.3343781684277894e-06,1.6974225884148812e-06,2.116475200743321e-06,1.667408619805742e-06,1.926257380248846e-06,1.1009198374159279e-06,1.1277400698716088e-06,1.043462777272152e-06,3.9169654849659145e-06,1.4278894172163351e-06,2.5936888599254256e-06,1.5873820175198177e-06,2.05056251251905e-06
45,1.606202547457862e-06,1.865749266212469e-06,1.3447449299116089e-06,1.3397439774052452e-06,1.681692214665518e-06,2.127944561287228e-06,1.6403727290482676e-06,1.9272923015705488e-06,1.0947763050207493e-06,1.1301655671000157e-06,1.0118339919730617e-06,4.009587310106249e-06,1.41223662203973e-06,2.6352123109457933e-06,1.6182938113140317e-06,2.077329580444774e-06
46,1.5940777709381287e-06,1.8436324423739316e-06,1.3581967742889879e-06,1.349308709093469e-06,1.6703279650862767e-06,2.1337047231508463e-06,1.61257606470759e-06,1.9287985154802603e-06,1.0932048829172853e-06,1.1366956047030852e-06,9.79499246592359e-07,4.104802276230815e-06,1.3984314193327662e-06,2.6794647491182257e-06,1.6445888684980598e-06,2.1020136478784007e-06
47,1.581266729551511e-06,1.8192530229626688e-06,1.37183646337903e-06,1.3624493651971712e-06,1.6632432685500457e-06,2.132997915051439e-06,1.5844330260450994e-06,1.929817223484916e-06,1.0964072480799294e-06,1.1467999662599924e-06,9.470541698091961e-07,4.199448196271816e-06,1.3862986182946741e-06,2.7251211131222097e-06,1.6658518058977456e-06,2.1243205164688027e-06
48,1.5683552558265323e-06,1.7930622631237857e-06,1.385154329028393e-06,1.37839467730721e-06,1.6605681293295354e-06,2.1254343735401026e-06,1.5562506319456307e-06,1.9297504018929943e-06,1.1045930667910697e-06,1.1598636225635866e-06,9.151796874716836e-07,4.290079617506732e-06,1.3754598971386247e-06,2.770767867396529e-06,1.6817882030928884e-06,2.143801774881264e-06
49,1.5558434061368512e-06,1.7652524041856772e-06,1.3976067818615836e-06,1.3962469090493673e-06,1.6626582033538108e-06,2.111015688028315e-06,1.5283055394639065e-06,1.9283700061023566e-06,1.1179581157833047e-06,1.1751630341880033e-06,8.846511780273161e-07,4.373003953410686e-06,1.365517056349967e-06,2.814755207332122e-06,1.692083221661497e-06,2.159791228562385e-06
50,1.5440350521234979e-06,1.7357663473425464e-06,1.4086578590144494e-06,1.415040557727958e-06,1.669921904019864e-06,2.0901262944616283e-06,1.5009415334411948e-06,1.9255673696534236e-06,1.1366117818268514e-06,1.1918188518261746e-06,8.562577665651886e-07,4.44448938699868e-06,1.35621893790773e-06,2.8553094803868417e-06,1.6964437751379478e-06,2.1714479713842744e-06
51,1.5331345442798884e-06,1.7043754223564873e-06,1.4178991716101105e-06,1.4338571297212964e-06,1.682614403372944e-06,2.0634996155973384e-06,1.4745535439230173e-06,1.9211487652629176e-06,1.1605596353068283e-06,1.2088249810384494e-06,8.307021961566953e-07,4.501437943782126e-06,1.347503885795038e-06,2.8907533320791176e-06,1.6948005676571698e-06,2.177905754089932e-06
52,1.5233711394193937e-06,1.6708516098556046e-06,1.4250923934410606e-06,1.4519834292010678e-06,1.7007081577076839e-06,2.032116787036133e-06,1.4495145534543574e-06,1.9148065807774043e-06,1.1897852241373818e-06,1.2251266881123792e-06,8.085479942081007e-07,4.542063075393288e-06,1.339439155597846e-06,2.919552022768389e-06,1.6874123189648448e-06,2.1784399114207253e-06
53,1.5149848369306943e-06,1.6351383243205286e-06,1.430102331835941e-06,1.46898340878204e-06,1.7238352059241625e-06,1.997007387562035e-06,1.426138327186598e-06,1.906132838828064e-06,1.2243082806916372e-06,1.2396794546413803e-06,7.902113369936777e-07,4.5658716659939345e-06,1.3321417833761008e-06,2.9402158252251434e-06,1.674784537363573e-06,2.172607515853281e-06
54,1.5081608443739575e-06,1.5974446254172632e-06,1.4327758796010382e-06,1.4845779139312661e-06,1.751306182423257e-06,1.9590630619375966e-06,1.4046598033648049e-06,1.8946573627989862e-06,1.2641111741418081e-06,1.2515685018108786e-06,7.759688724572304e-07,4.5729900176407124e-06,1.325721934144205e-06,2.9514118468796914e-06,1.6576041186526164e-06,2.160323600682568e-06
55,1.5030900742257244e-06,1.5582800671277309e-06,1.4328365735883388e-06,1.4984245017383275e-06,1.7822850386314307e-06,1.9189887603462743e-06,1.3852000645444219e-06,1.8800112799532851e-06,1.309025480332484e-06,1.2601795234817478e-06,7.659558907102196e-07,4.563714196185719e-06,1.3202340181391718e-06,2.9524292768965062e-06,1.6367262606800627e-06,2.1418018317648288e-06
56,1.500085977976516e-06,1.5183872055645475e-06,1.4298756474633437e-06,1.510008978791868e-06,1.8160736550110257e-06,1.877325627265889e-06,1.3677805183774607e-06,1.862142461736478e-06,1.3587113500228708e-06,1.265199663828876e-06,7.601700755393886e-07,4.538839381596972e-06,1.3156569505887612e-06,2.9436051830161067e-06,1.6130398581227978e-06,2.1174180427107617e-06
57,1.4995919797703312e-06,1.478551761813159e-06,1.4234618657367129e-06,1.518763212683663e-06,1.8522422975750473e-06,1.8344450298306947e-06,1.3523973800576901e-06,1.8414004451161757e-06,1.412721830224917e-06,1.2664343217268974e-06,7.58530888441058e-07,4.500162807330655e-06,1.311928717625627e-06,2.926216929498017e-06,1.587275868968214e-06,2.0876531069682813e-06
58,1.5020823040409235e-06,1.4394413787252693e-06,1.4132917850060123e-06,1.5243038071574964e-06,1.8904516922151214e-06,1.790538808725665e-06,1.339035485048977e-06,1.8184279202723294e-06,1.4705614842551248e-06,1.263749034622924e-06,7.610004615800992e-07,4.450412524829113e-06,1.3089595484983157e-06,2.901896648004124e-06,1.5599931108041776e-06,2.053105098416489e-06
59,1.5079331326642984e-06,1.4015904968017168e-06,1.3992801345008568e-06,1.5265335327586614e-06,1.930160405946613e-06,1.7456454984652777e-06,1.3276283751507913e-06,1.7939421446373632e-06,1.5316958217113468e-06,1.2572883378143736e-06,7.676784219087758e-07,4.392679402385035e-06,1.3065943071857945e-06,2.872093160097423e-06,1.5317449879634313e-06,2.0144048998919755e-06
60,1.517322321191548e-06,1.3654550709906412e-06,1.3815237730379972e-06,1.5255084909359747e-06,1.97047644716228e-06,1.6997088344250537e-06,1.3181106858557454e-06,1.7685407016966264e-06,1.595518314350958e-06,1.2477324561982158e-06,7.787852084475418e-07,4.329817239211103e-06,1.3046006563748178e-06,2.837900493920489e-06,1.503209903390307e-06,1.972007236397281e-06
61,1.530242738747588e-06,1.331451486842377e-06,1.36017791095971e-06,1.5213075175444503e-06,2.010210677328888e-06,1.6526711284873622e-06,1.3105505232242854e-06,1.7426071199780094e-06,1.6612802979298229e-06,1.2362866852266415e-06,7.945555903718338e-07,4.264073049122529e-06,1.3027344743642178e-06,2.800174654432021e-06,1.4751366446871976e-06,1.9260349510356166e-06
62,1.5466261598434587e-06,1.2999596123833774e-06,1.3354241660704045e-06,1.5140628951390093e-06,2.0481240761183373e-06,1.60460199805764e-06,1.3051953357982347e-06,1.7162921823085468e-06,1.7280211190219577e-06,1.2243898462961584e-06,8.151260354106956e-07,4.1970192597344465e-06,1.3008863544736131e-06,2.7597015542108184e-06,1.4481618146878464e-06,1.8763296593254701e-06
63,1.5664051764389982e-06,1.2712814517734156e-06,1.307608383991801e-06,1.503968329778944e-06,2.0833038216390637e-06,1.5558263332000051e-06,1.3023596730660262e-06,1.6895634521686342e-06,1.7945383882834075e-06,1.2133929824061407e-06,8.404763947064664e-07,4.129769427655205e-06,1.2992023549945465e-06,2.717189760569369e-06,1.422657495459559e-06,1.8226862587894009e-06
64,1.5894272654982573e-06,1.2456025216424496e-06,1.2773607547120159e-06,1.4911606321917877e-06,2.1154066260059722e-06,1.5069959525493592e-06,1.3022800984339786e-06,1.6623638112588559e-06,1.8593886052007258e-06,1.2044019584453606e-06,8.704300379544012e-07,4.063260248177085e-06,1.2980355110282516e-06,2.6731629258619002e-06,1.3986906040942833e-06,1.765119122234312e-06
65,1.6153401365389748e-06,1.2229838932286727e-06,1.2455242738484878e-06,1.4756155978958702e-06,2.1445589592688314e-06,1.459065394899133e-06,1.3050939576676534e-06,1.6348043301287342e-06,1.920969615554828e-06,1.1982702409300725e-06,9.046733968041746e-07,3.998367309079644e-06,1.2977676337820906e-06,2.6279689622000026e-06,1.376058885224155e-06,1.703991496312396e-06
66,1.643536106028409e-06,1.2033403081962278e-06,1.2129757459522826e-06,1.4571584071772925e-06,2.1710271650453826e-06,1.413169839033551e-06,1.3109349563734937e-06,1.6072251284810844e-06,1.9777926780444284e-06,1.1956706051108224e-06,9.42763668853717e-07,3.935892722694465e-06,1.2986646011953652e-06,2.581871183650745e-06,1.354363830379879e-06,1.639963146040034e-06
67,1.6731620712262737e-06,1.186429525374374e-06,1.1805014358439495e-06,1.4356335739479298e-06,2.1949300824708546e-06,1.3704502412150528e-06,1.320031712190941e-06,1.5800798115035709e-06,2.0288565351627664e-06,1.197177210266666e-06,9.841404650132925e-07,3.876542540212376e-06,1.3008635568314287e-06,2.5351393009294276e-06,1.333092038015671e-06,1.5738738376166308e-06
68,1.7032297670359988e-06,1.171932731481068e-06,1.1487392343128657e-06,1.4112123150663308e-06,2.2161664600092318e-06,1.331904377616246e-06,1.3327324337060886e-06,1.5537593771035682e-06,2.07381177519999e-06,1.2032837560447574e-06,1.0281836964510284e-06,3.820848715265419e-06,1.304449663976929e-06,2.4881359087657794e-06,1.3116683827944544e-06,1.5066597855627088e-06
69,1.7328047723787157e-06,1.1595896739631887e-06,1.1181451997938038e-06,1.3846189853455558e-06,2.234550565737504e-06,1.2983385826408009e-06,1.3494591412220743e-06,1.5285097744037573e-06,2.1127627667986095e-06,1.2143752964403173e-06,1.0742900754611615e-06,3.768974020685234e-06,1.3095040812207827e-06,2.4413307926501085e-06,1.2895346225524312e-06,1.43926845899755e-06
70,1.7611503318653828e-06,1.1492573071236844e-06,1.0890135502838364e-06,1.3570630283859544e-06,2.249976344631029e-06,1.2704021739702848e-06,1.3706319445536278e-06,1.5045149446499002e-06,2.14591902363469e-06,1.2307009554012212e-06,1.12188464703269e-06,3.7205209866599457e-06,1.3160893752779243e-06,2.395202345106371e-06,1.2662985463520558e-06,1.3725529171110708e-06
71,1.7877213160304221e-06,1.1408457211821094e-06,1.0615577660723534e-06,1.3299417951399098e-06,2.2624219670197646e-06,1.2485961692828363e-06,1.3965772388781166e-06,1.4820739005548995e-06,2.173340657217588e-06,1.2523284781950063e-06,1.1704063154878116e-06,3.674529949478265e-06,1.324236970086674e-06,2.350102134759851e-06,1.2418318496518672e-06,1.307208804131464e-06
72,1.8120069400766441e-06,1.1342358242025336e-06,1.0359792089169384e-06,1.3045654925030695e-06,2.271884888314958e-06,1.233232445640794e-06,1.4274304432000805e-06,1.4617099133282538e-06,2.1948040652667734e-06,1.2791153566067987e-06,1.2193484167883056e-06,3.629690186170305e-06,1.3339493910050352e-06,2.306195695477063e-06,1.2162204936362435e-06,1.2438057889759413e-06
73,1.8333443026838765e-06,1.1292897464894586e-06,1.01245691162532e-06,1.282036852904585e-06,2.278429003310029e-06,1.2244240152073783e-06,1.4630683587945817e-06,1.4441002485372767e-06,2.2097892152562676e-06,1.3107821610795391e-06,1.2682733987384383e-06,3.5846461595105883e-06,1.3451604509751712e-06,2.263528061775373e-06,1.1896820161577777e-06,1.1828992563093557e-06
74,1.8508947122145626e-06,1.1259287489895193e-06,9.910974487980266e-07,1.2632172668600186e-06,2.2822097990139816e-06,1.22214038445102e-06,1.5030838600910056e-06,1.429875601884089e-06,2.2176250481351386e-06,1.3470328495827979e-06,1.3167429559061547e-06,3.538277122202382e-06,1.3576718256452285e-06,2.222156477948858e-06,1.1625749017652526e-06,1.1251051181079514e-06
75,1.8638566983430334e-06,1.1241836875460506e-06,9.719284321090097e-07,1.2487114132674983e-06,2.2833389432737455e-06,1.2262785325315677e-06,1.546777204998325e-06,1.4194647552873416e-06,2.2177382727675125e-06,1.387575048447391e-06,1.3642646906112592e-06,3.4898812603581336e-06,1.3711456536247948e-06,2.18222179463904e-06,1.1354011553081269e-06,1.0710370558253778e-06
76,1.871727517954421e-06,1.1241830677974352e-06,9.549305186512636e-07,1.2388849305544778e-06,2.28184109440457e-06,1.236676203289111e-06,1.5931420555197543e-06,1.413109811837289e-06,2.209929664933786e-06,1.4320682561119956e-06,1.4102990386797132e-06,3.439278295397878e-06,1.385173867465997e-06,2.1438882560344866e-06,1.1086875889827187e-06,1.0212215409843248e-06
77,1.874349776575672e-06,1.1260929870842626e-06,9.400638901603724e-07,1.2339073439808148e-06,2.2779461748704113e-06,1.253056719992079e-06,1.6408807442691905e-06,1.4109754937071e-06,2.1945954992355095e-06,1.4801103270019898e-06,1.4542617776391394e-06,3.386895430804719e-06,1.3994048866615415e-06,2.1072432649834423e-06,1.0828732735899027e-06,9.761371282108988e-07
78,1.871794390934872e-06,1.1300198518700385e-06,9.27295972255648e-07,1.2337707913968544e-06,2.2724819838741234e-06,1.274990147518219e-06,1.688519592814122e-06,1.4131685989050895e-06,2.172781928820302e-06,1.5312109949693675e-06,1.4955049270180834e-06,3.3338549907888625e-06,1.4136374717638198e-06,2.072275598137338e-06,1.0583288536092118e-06,9.362848370378996e-07
79,1.8643751326930768e-06,1.1359059372829364e-06,9.166320052668571e-07,1.2382650824416693e-06,2.2669122627128096e-06,1.3019488915524753e-06,1.7346243465444108e-06,1.4196553823140579e-06,2.1460351749577797e-06,1.584722643039274e-06,1.5333329195122727e-06,3.282013758750474e-06,1.427775719558827e-06,2.038877176655287e-06,1.0354115852355237e-06,9.02159603955884e-07
80,1.8528097978865976e-06,1.1434710590758773e-06,9.081081459094775e-07,1.2469598094057939e-06,2.262968572245015e-06,1.3334168157413498e-06,1.7780096407924624e-06,1.4302681045748065e-06,2.116094249055526e-06,1.639827392596535e-06,1.567067280165241e-06,3.233859192678764e-06,1.4417593428996854e-06,2.0067501831807655e-06,1.0144506410473337e-06,8.741683237394076e-07
81,1.838236430517089e-06,1.1522225388305228e-06,9.017357550631981e-07,1.259262213250757e-06,2.262248697702622e-06,1.3689471707157633e-06,1.8178047752205623e-06,1.4448675711079109e-06,2.084564194288681e-06,1.6956019752171096e-06,1.5960449936954025e-06,3.1921789650511476e-06,1.4556338138364275e-06,1.9752647075720386e-06,9.957079093567775e-07,8.525812082115108e-07
82,1.8219735231086073e-06,1.1614951050489222e-06,8.974735779929345e-07,1.2745142423418242e-06,2.266000694584374e-06,1.4081282525831867e-06,1.8533182172359358e-06,1.463452017384926e-06,2.052764873017888e-06,1.751100504643634e-06,1.6195028903171203e-06,3.1595817734259174e-06,1.4696496189998435e-06,1.9433982853358366e-06,9.793653963155263e-07,8.375448311117199e-07
83,1.8052136504234975e-06,1.1704930928714652e-06,8.953067883817153e-07,1.2920184651996396e-06,2.275022498496066e-06,1.4505023885911198e-06,1.8838274661001735e-06,1.4860554429254978e-06,2.0217722094157832e-06,1.8054224350462417e-06,1.6365488785438146e-06,3.1381109194630377e-06,1.484198301106989e-06,1.909814898016045e-06,9.655134695041938e-07,8.291143269167949e-07
84,1.7888515022518593e-06,1.1784067532288023e-06,8.953645705489207e-07,1.3110119277837107e-06,2.289617947779404e-06,1.4955592223093244e-06,1.908505825650432e-06,1.512567739565855e-06,1.992465938838506e-06,1.857703276937127e-06,1.6463929602940713e-06,3.1290918248514276e-06,1.4996329003750045e-06,1.8730878185307335e-06,9.541357582704176e-07,8.272354157448176e-07
85,1.773507083408613e-06,1.1846412952953748e-06,8.979233243946613e-07,1.3306752205951107e-06,2.3096093122190577e-06,1.5428712215318217e-06,1.926513990144118e-06,1.5426322207825124e-06,1.965479048149504e-06,1.9070087019800063e-06,1.6487036377545176e-06,3.1331398915540215e-06,1.5162013446345e-06,1.8320043917299403e-06,9.451241974970725e-07,8.316948869596968e-07
86,1.7596891998019115e-06,1.1890011533143297e-06,9.032777993159217e-07,1.3501502949110846e-06,2.3343761581408097e-06,1.5922036379441342e-06,1.9371064995872242e-06,1.5756050350429663e-06,1.941146471874074e-06,1.9523255483472283e-06,1.643798076806051e-06,3.1502377229685455e-06,1.5341576842808697e-06,1.7858034020734144e-06,9.383638222993781e-07,8.420999796121149e-07
87,1.7479377085513712e-06,1.1916696441586386e-06,9.116132526069701e-07,1.3686008897717894e-06,2.3629017168333345e-06,1.6434024062869655e-06,1.939701132036357e-06,1.610531828857504e-06,1.9195843628107605e-06,1.9927654381118003e-06,1.6325072671315902e-06,3.179884365050801e-06,1.5538253373652071e-06,1.7342362194350347e-06,9.33859886934687e-07,8.579041825574985e-07
88,1.7387985247870083e-06,1.193060057764847e-06,9.229733303432953e-07,1.3854224034094392e-06,2.393911380605702e-06,1.6961718418710944e-06,1.934015793462151e-06,1.6461366410997733e-06,1.9008379949674745e-06,2.027720368862349e-06,1.6158315007671874e-06,3.2213032496430227e-06,1.5754677757432222e-06,1.6774909760215868e-06,9.31764730084663e-07,8.784939766514021e-07
89,1.7326780964142998e-06,1.1937114241236527e-06,9.3728786277941e-07,1.4004762701053909e-06,2.4261443117184308e-06,1.7500146570409806e-06,1.9203063269994814e-06,1.6808310294588285e-06,1.8849124831181463e-06,2.056795425929552e-06,1.594668851761045e-06,3.2736261373046686e-06,1.5991095956054675e-06,1.616102655730445e-06,9.32253130816509e-07,9.033239789616211e-07
90,1.7297260301896703e-06,1.1942486962661417e-06,9.54398949747812e-07,1.4141056703223881e-06,2.458542861311254e-06,1.8043929679668515e-06,1.8995372388229416e-06,1.712774197150559e-06,1.871712897304794e-06,2.079774731433382e-06,1.5697716171175585e-06,3.3359921337726555e-06,1.6244474525916227e-06,1.5508936059174979e-06,9.353839571561763e-07,9.320005390721909e-07
91,1.7297924322170857e-06,1.1953068201449428e-06,9.740928505966092e-07,1.4269180898574776e-06,2.4901628621468027e-06,1.8589269715852123e-06,1.8732842552382806e-06,1.740032892572015e-06,1.8610466241789226e-06,2.096714454719227e-06,1.5418439265739378e-06,3.4075916019521173e-06,1.6508386944491065e-06,1.482876077567082e-06,9.410628775837672e-07,9.642279430946827e-07
92,1.7324252172693588e-06,1.1974048570283535e-06,9.96128225481139e-07,1.4395523876904641e-06,2.5199763193596385e-06,1.9134673554618937e-06,1.8433891230092454e-06,1.7608611076130916e-06,1.8526476059689295e-06,2.1078985471295165e-06,1.5116291127694763e-06,3.487721809160885e-06,1.6773111931271956e-06,1.4131141161498016e-06,9.490755371645253e-07,9.9968440120653e-07
93,1.7368970305873194e-06,1.200865125517947e-06,1.0202107857647228e-06,1.4526195658005834e-06,2.5468832657459577e-06,1.96804640088412e-06,1.8116128076982418e-06,1.7740226160062496e-06,1.8461714513232956e-06,2.1137401675860573e-06,1.4799091183377955e-06,3.5758421430120243e-06,1.7025782013578854e-06,1.3426433748492533e-06,9.591202527800498e-07,1.0379538907144216e-06
94,1.742308895007984e-06,1.2058104375989457e-06,1.0459566883763156e-06,1.4667640067462438e-06,2.569954921849325e-06,2.0228011297944785e-06,1.77946437657823e-06,1.7790241646794098e-06,1.841211400499192e-06,2.1148820894108957e-06,1.447421523678339e-06,3.671548744247483e-06,1.7251535428488486e-06,1.2724365616338524e-06,9.708562705291733e-07,1.0785263063532657e-06
95,1.7478069380581888e-06,1.2121804304715e-06,1.0729087317156723e-06,1.4826615520656197e-06,2.5885818666488825e-06,2.077905957514694e-06,1.7481473308689722e-06,1.7761917056627757e-06,1.8373138281544556e-06,2.1122645728645508e-06,1.4147610409960168e-06,3.7744695251102535e-06,1.7436653494594803e-06,1.2033545984582123e-06,9.84003172580552e-07,1.120834337035759e-06
96,1.7528202651312182e-06,1.2197570271547212e-06,1.1005472957208714e-06,1.5009256178247557e-06,2.602321611144914e-06,2.1334655992675115e-06,1.7185347840017696e-06,1.7665858730275055e-06,1.8340267587607768e-06,2.1069132799636792e-06,1.3823386934323112e-06,3.884143553341748e-06,1.757245834523375e-06,1.1362045532683018e-06,9.984140847264272e-07,1.1643485742676116e-06
97,1.7571822999712939e-06,1.2282202864012224e-06,1.1282566839900908e-06,1.5220648642246346e-06,2.6107605202074346e-06,2.1893450496081843e-06,1.691193860524433e-06,1.7517577099189663e-06,1.8310049967229249e-06,2.0996295376583518e-06,1.3504198277635352e-06,3.9998856772164525e-06,1.765704880422815e-06,1.0719875556603333e-06,1.0140265054631962e-06,1.2086985989151867e-06
98,1.7610938064807273e-06,1.237193019815797e-06,1.1553274781647199e-06,1.5465680411078776e-06,2.613756934265113e-06,2.24502787770674e-06,1.6664603707855166e-06,1.7333981222661892e-06,1.8280047955235744e-06,2.0908254372754875e-06,1.3192208929184704e-06,4.12066414986238e-06,1.769342684421435e-06,1.0121069383634714e-06,1.0307313913396587e-06,1.2537193590202485e-06
99,1.7649609676487703e-06,1.2462459011655725e-06,1.1810491894122156e-06,1.5749939058635026e-06,2.611862427289341e-06,2.2996156255749467e-06,1.6444838599722194e-06,1.7130249482148171e-06,1.8247619063237465e-06,2.0805571334630584e-06,1.2890111086472527e-06,4.2451108423628905e-06,1.7685911880540137e-06,9.582982485005778e-07,1.0482893298077161e-06,1.29942237367429e-06
100,1.7691715270740765e-06,1.2548821674302574e-06,1.2048388846264216e-06,1.6079098302915205e-06,2.6064808584947072e-06,2.351935575263851e-06,1.6252006736197373e-06,1.6918138110656949e-06,1.8209847247788117e-06,2.0686617963703966e-06,1.2601367596419725e-06,4.3716968713765605e-06,1.763751303625178e-06,9.1239401458288e-07,1.066359464805457e-06,1.3459877257078137e-06
101,1.7738842865893884e-06,1.2625361305738472e-06,1.2262879725743343e-06,1.6457220904027107e-06,2.5996284126653984e-06,2.400598458823469e-06,1.608324802940061e-06,1.670546174261457e-06,1.8164702619502652e-06,2.0548438676142393e-06,1.2329536084405587e-06,4.498951996535907e-06,1.754899520344428e-06,8.761632937913764e-07,1.084587677790604e-06,1.3937624342134265e-06
102,1.7788991917029255e-06,1.2686609406364515e-06,1.245079746856109e-06,1.6885893934868862e-06,2.5934603446481127e-06,2.443962775201235e-06,1.5934456613744678e-06,1.6496121886944622e-06,1.8111466299092079e-06,2.0386944490838573e-06,1.2077222185289268e-06,4.625627037801178e-06,1.741984590040584e-06,8.512809829434287e-07,1.102650702055677e-06,1.4431718019366843e-06
103,1.7836310850750085e-06,1.2729154410370798e-06,1.2609500941823915e-06,1.7364657086279817e-06,2.5898522991282122e-06,2.480172546254486e-06,1.5801426795418208e-06,1.6290624557089624e-06,1.8050525725010776e-06,2.0197751710518824e-06,1.1845236546733068e-06,4.750822788023024e-06,1.7250786768631034e-06,8.39348327021105e-07,1.1202189679769222e-06,1.4946024122481405e-06
104,1.7871814136533168e-06,1.2752972167812146e-06,1.2738577107607833e-06,1.7891378787979333e-06,2.590227023230929e-06,2.507404019326429e-06,1.568022734518294e-06,1.608739341775973e-06,1.7983506259844473e-06,1.997770575460679e-06,1.1632587931648193e-06,4.874083615495199e-06,1.7045542230878848e-06,8.418928534544286e-07,1.1369258826049341e-06,1.5483484398775923e-06
105,1.7885495857754588e-06,1.2760816550299697e-06,1.284174813880731e-06,1.846234274864868e-06,2.5955631974502975e-06,2.5242534692499626e-06,1.5567883870263052e-06,1.5884918292102207e-06,1.7912883317560642e-06,1.9725913704792036e-06,1.1437454766690353e-06,4.995328251251593e-06,1.6810355753641884e-06,8.603427104283632e-07,1.1524011214526463e-06,1.6045476014082284e-06
106,1.7869805531799423e-06,1.2756322656967955e-06,1.2926141119748417e-06,1.9072518788647917e-06,2.6064020451444164e-06,2.530094444415956e-06,1.5463637097224131e-06,1.5684043783971182e-06,1.7841176792468748e-06,1.9444148945914446e-06,1.1258206401555565e-06,5.11457510202904e-06,1.6552451166929782e-06,8.960241844952106e-07,1.1662634385189452e-06,1.6630725888771332e-06
107,1.7822598655366715e-06,1.2742809153201115e-06,1.2999611572424613e-06,1.9715079333235924e-06,2.6227900791956987e-06,2.5252324939616513e-06,1.5368904982208589e-06,1.5489299266783421e-06,1.7770908559038973e-06,1.9136785606032604e-06,1.1093455736244875e-06,5.2315805706504845e-06,1.627890694721958e-06,9.50240892548653e-07,1.178050922277714e-06,1.723485036516846e-06
108,1.7747525529274913e-06,1.2723576527336826e-06,1.3068623042693298e-06,2.0380000135393844e-06,2.6442268591447123e-06,2.5107521302524048e-06,1.5285852499141781e-06,1.5308590756752326e-06,1.7704320170308428e-06,1.880982649972328e-06,1.0941306414640647e-06,5.34549993151372e-06,1.5996124984336056e-06,1.024399969923577e-06,1.1872813306512814e-06,1.785095535345835e-06
109,1.7652050984021805e-06,1.2702523724085947e-06,1.3137428731253389e-06,2.105326641809495e-06,2.6696621293933017e-06,2.488116132170827e-06,1.521630083046918e-06,1.5151433310483227e-06,1.7642245208842003e-06,1.846983125643494e-06,1.0798723217506274e-06,5.454722829000376e-06,1.570982697452418e-06,1.1200333123425634e-06,1.193701883061731e-06,1.8470370892591697e-06
110,1.7544961356446894e-06,1.2683883227064555e-06,1.3208087193376495e-06,2.171750365535501e-06,2.6975168743716586e-06,2.458742995340387e-06,1.516113079417549e-06,1.502676307875745e-06,1.7583560866714993e-06,1.8123956358130995e-06,1.0661898046658646e-06,5.557034550417674e-06,1.5425443601185652e-06,1.2386725180529198e-06,1.1974707886536973e-06,1.908269457719913e-06
111,1.743476550536166e-06,1.2671258274087411e-06,1.3280990087812367e-06,2.2354071145448137e-06,2.7257220549988163e-06,2.4237651861857748e-06,1.511966946282796e-06,1.4941507966272112e-06,1.7525381785185643e-06,1.778003902724976e-06,1.0527793768561386e-06,5.649979342928232e-06,1.5148366003975211e-06,1.3817152938697766e-06,1.199054752117594e-06,1.9675761535356626e-06
112,1.7328973758394796e-06,1.2667054050134088e-06,1.335571932899922e-06,2.294598273937844e-06,2.7519130755314593e-06,2.3839590940869717e-06,1.5089299464464351e-06,1.4900214953463849e-06,1.7463278214403603e-06,1.744585082907013e-06,1.0395624423701302e-06,5.731161509282273e-06,1.488413846515907e-06,1.5503612495451806e-06,1.19896337319086e-06,2.0236428850457915e-06
113,1.7233654784016514e-06,1.2672868229275063e-06,1.343208144701446e-06,2.3480011688763587e-06,2.7739291777677825e-06,2.3397510270687727e-06,1.506540162729639e-06,1.4905237483584018e-06,1.7391973767488292e-06,1.7128536383989507e-06,1.026673351381095e-06,5.798412291974391e-06,1.463906244712119e-06,1.745557794686428e-06,1.1975675284946466e-06,2.0751812890400632e-06
114,1.7153087317000021e-06,1.2689943914356006e-06,1.3510730473009896e-06,2.3947459345129154e-06,2.790469492931647e-06,2.2913426824604188e-06,1.5041846114213323e-06,1.4956846534205055e-06,1.73067842968086e-06,1.6834198583252106e-06,1.014311448279104e-06,5.8499072717595585e-06,1.4420472135383716e-06,1.9679203599411032e-06,1.1950893705710042e-06,2.1210481656659265e-06
115,1.7089610649406878e-06,1.2718607255549237e-06,1.3592647052053486e-06,2.434459537627617e-06,2.801524974541363e-06,2.2389899404623872e-06,1.5012402592823266e-06,1.5052978836867356e-06,1.7205208931286156e-06,1.656719372138062e-06,1.0026286525370237e-06,5.884278027040452e-06,1.4235778790936453e-06,2.217660362709964e-06,1.1916918764667623e-06,2.1603956085037663e-06
116,1.7043815268540852e-06,1.275732213598012e-06,1.367788814272775e-06,2.467263412740358e-06,2.8082985785888764e-06,2.1832362230087807e-06,1.49726750018654e-06,1.518894877701923e-06,1.7088374466568064e-06,1.6329984775809278e-06,9.917314033387362e-07,5.9007003128984796e-06,1.409121130507275e-06,2.494528820804764e-06,1.187551538744206e-06,2.192856392727549e-06
117,1.7015287942864951e-06,1.2802998690040182e-06,1.3764701723952496e-06,2.493591150401041e-06,2.8126477170371587e-06,2.1248775883722365e-06,1.4921239912810457e-06,1.5357643952859934e-06,1.6961716692042018e-06,1.612356606638345e-06,9.817102575841504e-07,5.89897943954295e-06,1.3991324196380547e-06,2.797771442374284e-06,1.1828445126063882e-06,2.218649039347487e-06
118,1.7003669307039659e-06,1.285270784368048e-06,1.3849426799860293e-06,2.5138874838772655e-06,2.8164205390081314e-06,2.064724913013633e-06,1.4858962308707542e-06,1.5550150109380383e-06,1.6833721852651154e-06,1.594771952507785e-06,9.726163193265412e-07,5.879664238114868e-06,1.3938702928797677e-06,3.1261304499508142e-06,1.1776839017658246e-06,2.2384857828812663e-06
119,1.7008977478794456e-06,1.2905059001236848e-06,1.392728569594483e-06,2.528473169964731e-06,2.8210424747364285e-06,2.0034294981498967e-06,1.4787635293764848e-06,1.575619449789198e-06,1.6713095738833197e-06,1.5801320088569515e-06,9.644106477239229e-07,5.844113212727404e-06,1.3933436220808039e-06,3.4779034419822286e-06,1.172110867252068e-06,2.253296284606156e-06
120,1.7030663360996497e-06,1.295993298567551e-06,1.3993875454461781e-06,2.5376665960597787e-06,2.827377238055811e-06,1.9415149344369624e-06,1.4709704346190442e-06,1.5964690313592691e-06,1.6606505193891193e-06,1.5682592149599659e-06,9.56949834300563e-07,5.794385819364432e-06,1.3972911487545099e-06,3.851014570700517e-06,1.1661677336543492e-06,2.2638897649692113e-06
121,1.706670513979164e-06,1.3017079000243215e-06,1.4046211990076976e-06,2.541917121557216e-06,2.8357026070831346e-06,1.8795308101730034e-06,1.462824939936011e-06,1.616540153198982e-06,1.651807749948939e-06,1.5588859868719467e-06,9.500327402314112e-07,5.7329490928356585e-06,1.4052334505277213e-06,4.243062894990849e-06,1.1599671295115073e-06,2.2707067087676506e-06
122,1.7114109397242532e-06,1.3074947552989504e-06,1.4082476882697765e-06,2.5417680577388114e-06,2.8457024765179956e-06,1.8181773891565176e-06,1.454579488814553e-06,1.6350977511905056e-06,1.6450055874977961e-06,1.5516817976705926e-06,9.435016811688968e-07,5.662321492787552e-06,1.4166107433994559e-06,4.651303422947214e-06,1.153675152476621e-06,2.2737215557216165e-06
123,1.7170078261227997e-06,1.3130825432352431e-06,1.4101061244979855e-06,2.5377534406858766e-06,2.856496915109281e-06,1.7583149775461626e-06,1.4462878734456856e-06,1.6517223811767554e-06,1.640381777993835e-06,1.5464163429134532e-06,9.373561836371394e-07,5.584755154471697e-06,1.430926152732977e-06,5.072493892000995e-06,1.147428783236231e-06,2.272471221677984e-06
124,1.7232578786577778e-06,1.3182162959732649e-06,1.4099797138102434e-06,2.5303763312372067e-06,2.8667757646747943e-06,1.700845722640393e-06,1.4377951829761704e-06,1.6661243932333528e-06,1.6380506223054058e-06,1.5430982465132373e-06,9.317852139486867e-07,5.501944258857256e-06,1.4477513819815232e-06,5.502680522289299e-06,1.1412859555509693e-06,2.2662327713060237e-06
125,1.730043459756144e-06,1.3227818428660298e-06,1.4075518662457136e-06,2.520153180544924e-06,2.8750230947988403e-06,1.646536624604395e-06,1.4288843731207593e-06,1.6779560868850959e-06,1.6380780858487737e-06,1.5419150242650035e-06,9.270815292079598e-07,5.4147678315535065e-06,1.466675232417995e-06,5.937145513973596e-06,1.1352664056320354e-06,2.254329596577469e-06
126,1.7373518033689164e-06,1.3268463990800637e-06,1.4023814296759041e-06,2.5076536679292086e-06,2.8797519253198794e-06,1.5959139944271843e-06,1.419461449336751e-06,1.68678999607753e-06,1.6404372764780539e-06,1.5430619309936258e-06,9.235339109194325e-07,5.32318833578915e-06,1.4873312922519975e-06,6.370644557277343e-06,1.129421649429837e-06,2.236378478900489e-06
127,1.7452908097254709e-06,1.3306526933506844e-06,1.3938921599639239e-06,2.49353141026527e-06,2.8797052371434916e-06,1.5492764747110576e-06,1.4095886757298835e-06,1.6921728730151594e-06,1.644997076869416e-06,1.546621482808564e-06,9.213726447179611e-07,5.2263521652163835e-06,1.509373467570191e-06,6.797850731640451e-06,1.1238311522674092e-06,2.2123157964278496e-06
128,1.7540361281680918e-06,1.3345724944065824e-06,1.3814022522274575e-06,2.4785139208589263e-06,2.8740364792765124e-06,1.5067463916530554e-06,1.399336969346086e-06,1.6936290659753826e-06,1.6514948175591035e-06,1.5524902701310991e-06,9.207451793586611e-07,5.122807246826306e-06,1.5323407911813218e-06,7.213768609224433e-06,1.1185276909782502e-06,2.1822551515178716e-06
129,1.7636897447468813e-06,1.3389931498864698e-06,1.3642737706388654e-06,2.4632834817725143e-06,2.8624513945266023e-06,1.4683197055092404e-06,1.388658478650745e-06,1.6906897442019513e-06,1.6594912267576272e-06,1.5603121088136397e-06,9.217087684565947e-07,5.010832675267482e-06,1.5556146660835583e-06,7.613951419772657e-06,1.1134791360817176e-06,2.146383105940099e-06
130,1.7741344078069938e-06,1.344226506318225e-06,1.3421842168855056e-06,2.448338695911264e-06,2.845202680449078e-06,1.4339173638069631e-06,1.3773963584674898e-06,1.683041095413051e-06,1.6683301143469336e-06,1.5694647399977646e-06,9.242593404001177e-07,4.8889295123666e-06,1.5785250412986207e-06,7.994609466185305e-06,1.1086765487512178e-06,2.1050432717535003e-06
131,1.7849722110568725e-06,1.3505391169065356e-06,1.3153509962984991e-06,2.4340140306273018e-06,2.822868826344289e-06,1.4034074465454353e-06,1.3653345621039122e-06,1.6706423621813894e-06,1.6771297824801968e-06,1.5791479563163697e-06,9.283982304758341e-07,4.756359395616202e-06,1.6004287035959273e-06,8.3527142135837e-06,1.1041883398017464e-06,2.0589422255983048e-06
132,1.7955664052066172e-06,1.3582109404955973e-06,1.2845334179827513e-06,2.4206072560983666e-06,2.7960847845427974e-06,1.3766504992240938e-06,1.3522286150193766e-06,1.6536423578655825e-06,1.6849306517083587e-06,1.5884988850476352e-06,9.341834652766436e-07,4.6135180447870365e-06,1.620738577115835e-06,8.685989352270924e-06,1.1000876888988647e-06,2.009297620711265e-06
133,1.805191084427527e-06,1.3675103296527642e-06,1.2508075661647844e-06,2.408393866626148e-06,2.765494401986793e-06,1.353586623041081e-06,1.3378779071289213e-06,1.6322776657313952e-06,1.6910016266572706e-06,1.5965944463934314e-06,9.417055895467362e-07,4.462075974043961e-06,1.6390579574813726e-06,8.992617907855582e-06,1.0963621759903788e-06,1.9578133670467465e-06
134,1.813227306443922e-06,1.3786365101138646e-06,1.2152856704432838e-06,2.397494405972464e-06,2.7318653478030413e-06,1.3342113214639877e-06,1.322207952831743e-06,1.6069513293622938e-06,1.695066178669787e-06,1.6023956574148743e-06,9.510396551707914e-07,4.3049778553255615e-06,1.655377573607339e-06,9.270621887610057e-06,1.0929229479535798e-06,1.9064665179624095e-06
135,1.8192526227460029e-06,1.391675537138737e-06,1.1789638149878343e-06,2.3877941808947233e-06,2.6960443716946265e-06,1.3184259471707133e-06,1.3052447108281835e-06,1.5783033147699446e-06,1.69725531176844e-06,1.6048440944599365e-06,9.622398908310744e-07,4.146325129894951e-06,1.6701279456776341e-06,9.51710619413588e-06,1.0897000869903806e-06,1.857198157909053e-06
136,1.8229602735474352e-06,1.406550961782019e-06,1.1426993927384486e-06,2.378983003208962e-06,2.6587590168613625e-06,1.3059390196510275e-06,1.2870414437345777e-06,1.5471314895539568e-06,1.6978426919989047e-06,1.603081055596458e-06,9.753331435911035e-07,3.99104091955402e-06,1.6840119961504991e-06,9.72767646424912e-06,1.0867339079481803e-06,1.811670505181776e-06
137,1.8240582026018883e-06,1.4230087907553642e-06,1.1072097640323435e-06,2.370558507201222e-06,2.6205407428634255e-06,1.296286824825024e-06,1.26773793718758e-06,1.5142946665120212e-06,1.6970020569152522e-06,1.5965510396291247e-06,9.902931849435076e-07,3.844325221650584e-06,1.6977360021877533e-06,9.8962869310372e-06,1.0841666465270733e-06,1.771196698772667e-06
138,1.822343026637143e-06,1.4407028920303394e-06,1.0730868608118257e-06,2.3618051210895376e-06,2.581764662429726e-06,1.2889357614776655e-06,1.2477078920101953e-06,1.480640661789902e-06,1.6947614886498417e-06,1.5849827064650622e-06,1.0070352590116323e-06,3.711123882939834e-06,1.7118587197900756e-06,1.0015859871149598e-05,1.0821574740968596e-06,1.7368087149860384e-06
139,1.8178760743667784e-06,1.4593276146317555e-06,1.0408676330688835e-06,2.3519142540026247e-06,2.5426332731345956e-06,1.2834059649239835e-06,1.2275741731946549e-06,1.4469065657485313e-06,1.6911207318841666e-06,1.5684303892420338e-06,1.0254105865146778e-06,3.595838360217696e-06,1.7268574736340212e-06,1.0079872268567676e-05,1.080861434635774e-06,1.7093383017059823e-06
140,1.81100391146101e-06,1.4786451269213348e-06,1.011090421196431e-06,2.3402037091821886e-06,2.5031261054248285e-06,1.2793211393227038e-06,1.208064799576667e-06,1.413647171843434e-06,1.6862119221172674e-06,1.5473175822371568e-06,1.0451878514108995e-06,3.502289713864094e-06,1.743250442722988e-06,1.0084355960880665e-05,1.0804688042908874e-06,1.6894294203987163e-06
141,1.8022175666308651e-06,1.4984283767852804e-06,9.842623159514012e-07,2.3262959866137695e-06,2.4630325775937107e-06,1.2763571377102558e-06,1.1898958142645687e-06,1.3812578249125185e-06,1.6803573198867979e-06,1.5222890688803228e-06,1.066038597379285e-06,3.433756164079244e-06,1.761599061231379e-06,1.0029261653957476e-05,1.0811612880417254e-06,1.6774986139903841e-06
142,1.7920789259628965e-06,1.5184896802303468e-06,9.607829329797443e-07,2.310193873911251e-06,2.4220653760605745e-06,1.2742017052592405e-06,1.1737530332188565e-06,1.350064330977061e-06,1.6739493330712421e-06,1.4939770740567096e-06,1.087499043737074e-06,3.3929363990902765e-06,1.7824132830428216e-06,9.918538526747273e-06,1.0830167952462876e-06,1.673702316351904e-06
143,1.7812338477551295e-06,1.5387439902184344e-06,9.409150587173805e-07,2.292174440260508e-06,2.379943510926326e-06,1.2726406838853237e-06,1.1602704620181112e-06,1.3204311339376395e-06,1.6673077841541746e-06,1.4629017964892206e-06,1.108912208002499e-06,3.3818913394152967e-06,1.8060403744346148e-06,9.759065428093549e-06,1.0860032149402962e-06,1.6779395811972909e-06
144,1.7703381484902867e-06,1.559121209263177e-06,9.248254698417805e-07,2.272497789793965e-06,2.336391068053024e-06,1.2716988577515668e-06,1.1499649580072702e-06,1.2928384734647257e-06,1.660643057994839e-06,1.4294943213813817e-06,1.1294060238958702e-06,3.402041483340085e-06,1.832556425959867e-06,9.559082811862215e-06,1.0900345402710663e-06,1.6898644077350512e-06
145,1.75991893456226e-06,1.5794001799003318e-06,9.126270417361424e-07,2.2511303723291036e-06,2.291135841168743e-06,1.2716401175268644e-06,1.1431824213807193e-06,1.2678770983007095e-06,1.6540507479072732e-06,1.3941763324866749e-06,1.147962398158666e-06,3.4541455241189485e-06,1.8616853080234113e-06,9.32673913290402e-06,1.095016693128466e-06,1.7088860416711632e-06
146,1.7503156249155079e-06,1.5992196378409551e-06,9.043616837026007e-07,2.2276520617054085e-06,2.2440047230561383e-06,1.2727894744429411e-06,1.1400771487407915e-06,1.2461590451341605e-06,1.6475567999690533e-06,1.3574798273774943e-06,1.1636153084467288e-06,3.53823305724993e-06,1.892790405594095e-06,9.069051554147765e-06,1.1009191364782362e-06,1.7341854145863061e-06
147,1.7417277836658838e-06,1.6182962752967476e-06,8.999710985741706e-07,2.201338485522766e-06,2.1950775650800728e-06,1.2753380644485117e-06,1.1406068748522796e-06,1.2282164694767536e-06,1.6412724720352693e-06,1.3201059576777267e-06,1.17570272678377e-06,3.6536193912664835e-06,1.9250029414530773e-06,8.791472355786381e-06,1.1078435218565278e-06,1.7647730463602703e-06
148,1.7343230083066487e-06,1.6365815212619745e-06,8.993106238153257e-07,2.1714013966780923e-06,2.144760302389999e-06,1.2792461518606782e-06,1.1445310649555623e-06,1.2144979292519897e-06,1.6355063079012439e-06,1.2828452999766319e-06,1.1839802892298352e-06,3.79910775629244e-06,1.9575087179169696e-06,8.498081382976236e-06,1.1159734697770642e-06,1.7995710514843131e-06
149,1.7282857430476366e-06,1.6541672794536386e-06,9.021617412479356e-07,2.1373322634474876e-06,2.093673878358244e-06,1.284238070737683e-06,1.1514238314132011e-06,1.205456135859581e-06,1.6307001567751705e-06,1.246465697146054e-06,1.1884941530177223e-06,3.973354405362385e-06,1.989802931895113e-06,8.192072229186228e-06,1.1254258240684254e-06,1.8375064417807894e-06
150,1.7237576411464138e-06,1.6710795729218372e-06,9.081985173900529e-07,2.099156017662671e-06,2.0424210100492375e-06,1.2898650962106778e-06,1.1607462126842464e-06,1.2015720739329914e-06,1.6272695125914162e-06,1.211717851018198e-06,1.1893386182336018e-06,4.175265055770245e-06,2.0216946148711905e-06,7.876279729818733e-06,1.136140525157566e-06,1.8776230784752188e-06
151,1.7208226711379277e-06,1.687162912636733e-06,9.169567719675878e-07,2.057473755805729e-06,1.9914779996393234e-06,1.2955993523086363e-06,1.1719705569115437e-06,1.2032675918568865e-06,1.6254801753515745e-06,1.1794132944712392e-06,1.186502780612109e-06,4.404271785029504e-06,2.0531793481729524e-06,7.553786608970745e-06,1.1478655039361876e-06,1.919196924848672e-06
152,1.7196133839588364e-06,1.7020624684449303e-06,9.278650983812885e-07,2.013377793691974e-06,1.941341851969402e-06,1.300892618715406e-06,1.1846486972149856e-06,1.210812211681717e-06,1.6254109026867579e-06,1.1504101495878166e-06,1.1798862712734815e-06,4.660391067391592e-06,2.0844242233381586e-06,7.228504731355883e-06,1.1601779940610981e-06,1.9618240806832215e-06
153,1.720413302878533e-06,1.7152670803860869e-06,9.40305028481738e-07,1.9683339816262693e-06,1.8927257520163934e-06,1.3051595268737182e-06,1.198377429253433e-06,1.2242747408314456e-06,1.6269932326998153e-06,1.1254927092863753e-06,1.1694380975559314e-06,4.944060081200585e-06,2.115821641335215e-06,6.9053604451356536e-06,1.1724901847722945e-06,2.0054621143719242e-06
154,1.7236444315622999e-06,1.7261875088427356e-06,9.536551166295029e-07,1.924015510336149e-06,1.8465837822638098e-06,1.3077284814792661e-06,1.2127585020989871e-06,1.2435169080051004e-06,1.6300780102893851e-06,1.1052710408509033e-06,1.1552804368743347e-06,5.255891535867736e-06,2.1479262547545725e-06,6.58985388493929e-06,1.184088502857972e-06,2.0503888849392276e-06
155,1.7297373276704887e-06,1.7342048522763575e-06,9.673498695128183e-07,1.8820831817011589e-06,1.8039836221208044e-06,1.3078785128357845e-06,1.2274285742068245e-06,1.2682282298196221e-06,1.6344301497023235e-06,1.090158671937039e-06,1.1376857147141716e-06,5.596506574894016e-06,2.181276733839089e-06,6.287220403839738e-06,1.194261588640009e-06,2.0970322750100935e-06
156,1.7389591221300479e-06,1.7386996928578798e-06,9.809400111680685e-07,1.8439833235942656e-06,1.7659307759609485e-06,1.3049966308070456e-06,1.2421194208039207e-06,1.297956653962275e-06,1.6396442197295388e-06,1.0804081362691699e-06,1.116977317802036e-06,5.966423081891973e-06,2.2162167814556837e-06,6.001714903393991e-06,1.202442084886097e-06,2.1457382726470916e-06
157,1.7513138086220144e-06,1.7390732089855923e-06,9.940678870533894e-07,1.81083298763614e-06,1.733237559513335e-06,1.2987213702297835e-06,1.2566853200255525e-06,1.3321125171368017e-06,1.6451092282086343e-06,1.0761977443396583e-06,1.093510301478122e-06,6.365851493940757e-06,2.252762970171193e-06,5.736366736018416e-06,1.2082249454542283e-06,2.196674156146688e-06
158,1.7665681213946583e-06,1.7347627848748883e-06,1.0063818664247822e-06,1.7833995638336947e-06,1.706482655529691e-06,1.288963346396665e-06,1.2710666704353756e-06,1.3700236450938025e-06,1.6501316118004426e-06,1.0777217216549335e-06,1.0676889998073441e-06,6.794365013116419e-06,2.2905793448564348e-06,5.493137178531103e-06,1.2112341875279783e-06,2.2499244302818267e-06
159,1.7843220640622893e-06,1.7253596913221974e-06,1.0175373837761498e-06,1.7621487652459072e-06,1.6860405078512532e-06,1.2758327868512368e-06,1.2852007342105282e-06,1.4110851333846477e-06,1.6541837697303246e-06,1.0851828333074392e-06,1.039919314141532e-06,7.250562058454103e-06,2.3291000283578604e-06,5.2731404515228945e-06,1.2109738546409491e-06,2.30561168851855e-06
160,1.8040128471782919e-06,1.7107557920915873e-06,1.0273236303812022e-06,1.747358794125422e-06,1.672161094721404e-06,1.2595262813861438e-06,1.298979260151392e-06,1.4548895776656968e-06,1.657046842770733e-06,1.0986919779005457e-06,1.0105894429254916e-06,7.731793851170565e-06,2.3676434111652553e-06,5.076689991827706e-06,1.2068408303037563e-06,2.3639207350818436e-06
161,1.8248947613251127e-06,1.6910720116647794e-06,1.0357532904017364e-06,1.7392349541541424e-06,1.665041246077275e-06,1.2402269920802867e-06,1.3123053924925067e-06,1.5011982619081778e-06,1.6587042242346228e-06,1.1181837656682358e-06,9.80170217637351e-07,8.2339694904217e-06,2.4053833799232933e-06,4.903340849303243e-06,1.1983490472980366e-06,2.42505448132874e-06
162,1.8461109009467712e-06,1.6664500886186509e-06,1.0429892476317433e-06,1.7379010084062014e-06,1.6647991293115845e-06,1.2181166864862647e-06,1.325126070751065e-06,1.5497754507433644e-06,1.659205032471409e-06,1.1433868803604394e-06,9.493124857682102e-07,8.751559286035122e-06,2.441293507188004e-06,4.752196469487131e-06,1.1854249753791798e-06,2.489178585349506e-06
163,1.8667832226778804e-06,1.6369535972013515e-06,1.0492037229919872e-06,1.7433250967073698e-06,1.6713826238440696e-06,1.19349759999547e-06,1.3373906083674568e-06,1.6002667524120828e-06,1.6586588574009742e-06,1.1738387724938242e-06,9.188034245558863e-07,9.277888653103883e-06,2.474147633682518e-06,4.6222904109968734e-06,1.1685439595866195e-06,2.5563731215707084e-06
164,1.885986242218734e-06,1.602546726770886e-06,1.05450706870288e-06,1.7553387568817521e-06,1.6845082787500742e-06,1.1668676460965363e-06,1.3490208505522625e-06,1.6522551213675303e-06,1.6572132039928437e-06,1.2089840221859297e-06,8.894276605151057e-07,9.805541578206535e-06,2.50254998623054e-06,4.512653861336311e-06,1.1485953381338688e-06,2.6265689610170316e-06
165,1.9027315047082353e-06,1.5631119377860888e-06,1.058961423295962e-06,1.7737397755410474e-06,1.703634077198843e-06,1.1388763051832148e-06,1.359881673375558e-06,1.705423642013258e-06,1.6549620332843789e-06,1.2483148810536761e-06,8.61879064536332e-07,1.0326578929093233e-05,2.525074452550612e-06,4.422163794860541e-06,1.1266201643529368e-06,2.6994575588447995e-06
166,1.9160998837028204e-06,1.518612695113897e-06,1.0626740600591105e-06,1.7983771977983791e-06,1.7279483187084566e-06,1.1102575299509975e-06,1.3697527364892357e-06,1.7596714761484422e-06,1.6519063177456695e-06,1.2913981612461158e-06,8.367705401855646e-07,1.0832354841224038e-05,2.54050305796819e-06,4.349617042103916e-06,1.1036558734272805e-06,2.774427325783203e-06
167,1.9253226416232548e-06,1.4693254813819933e-06,1.0659261725241591e-06,1.8291548572633684e-06,1.7564293322510793e-06,1.0818018462581618e-06,1.3783597622650622e-06,1.8151083060939163e-06,1.648023609542547e-06,1.3377826249756708e-06,8.146510264514557e-07,1.1313010030319635e-05,2.5479775883187203e-06,4.294040613649132e-06,1.0807072653774428e-06,2.850606132219288e-06
168,1.929658232543629e-06,1.4159224641206448e-06,1.0691877823217368e-06,1.865931990829692e-06,1.7879730638114958e-06,1.0543126993726719e-06,1.3854226048547754e-06,1.8719208662515856e-06,1.6434112118568995e-06,1.3869222174700802e-06,7.959775160917817e-07,1.1757384705645964e-05,2.5470621921646893e-06,4.254808338824241e-06,1.0587057682144593e-06,2.927029648062875e-06
169,1.9283170229723345e-06,1.359334936698161e-06,1.0729711223815013e-06,1.9083835872603873e-06,1.8214545576134677e-06,1.028511803273654e-06,1.3907251808295935e-06,1.9301701886345315e-06,1.6383532008352426e-06,1.4381461841450816e-06,7.811001444341291e-07,1.2154009552201987e-05,2.5378457362636377e-06,4.231461263082011e-06,1.0384316504329767e-06,3.002863856067486e-06
170,1.9206701372231196e-06,1.300518792360805e-06,1.07766285691895e-06,1.9559361334194197e-06,1.8556494054726328e-06,1.0049533233421008e-06,1.3942647601697477e-06,1.9896733718395577e-06,1.6332129805817358e-06,1.4906460912540377e-06,7.703039715791084e-07,1.2492579038717663e-05,2.521000542539126e-06,4.2235402143033435e-06,1.0204570188756967e-06,3.0775694597326935e-06
171,1.9065188611762654e-06,1.2403102415659059e-06,1.0834562206615292e-06,2.007778021479039e-06,1.8891533762487695e-06,9.840114024348454e-07,1.3963375478445264e-06,2.050077952262616e-06,1.6283078079809291e-06,1.543504989573964e-06,7.638597281452556e-07,1.2764639289489737e-05,2.497652816874688e-06,4.230558078560005e-06,1.0051187725361198e-06,3.150934058219271e-06
172,1.8860842534051526e-06,1.1794418828530994e-06,1.0903686538424046e-06,2.0628375581427247e-06,1.92044161990311e-06,9.659364780952202e-07,1.3974146156275565e-06,2.1110337325714768e-06,1.623891645451388e-06,1.595814764889265e-06,7.620108960165376e-07,1.2962969319934373e-05,2.46913146854671e-06,4.251920286585014e-06,9.925220399615853e-07,3.2229698736487508e-06
173,1.8598255183822547e-06,1.1186258230717057e-06,1.0982672329790126e-06,2.11974631940305e-06,1.948030010198686e-06,9.509182355715689e-07,1.3979836609280002e-06,2.1722601010047162e-06,1.6201438444456916e-06,1.6468213508567556e-06,7.649125279224204e-07,1.3080669008882674e-05,2.4367308619963262e-06,4.286672704034533e-06,9.825952638318825e-07,3.2937452442123437e-06
174,1.8284243104509062e-06,1.0586203955726562e-06,1.1068787348965987e-06,2.176878935408099e-06,1.9706894869660553e-06,9.390889188561592e-07,1.3985538186708224e-06,2.2334127503397152e-06,1.6171122249274477e-06,1.6959291008461885e-06,7.726015532091803e-07,1.3111755923565204e-05,2.401531426695251e-06,4.333255695043334e-06,9.751757798671603e-07,3.363257286217351e-06
175,1.7929047578002947e-06,1.0002562892953709e-06,1.1158441331979218e-06,2.2324259368687315e-06,1.987680485845473e-06,9.304810250211105e-07,1.3997134535291052e-06,2.2938694800236483e-06,1.6146679073749615e-06,1.7425563903295206e-06,7.850230230375369e-07,1.3053486411667456e-05,2.3643089502268105e-06,4.389541445646595e-06,9.700591137792075e-07,3.4313532673685325e-06
176,1.7546069476156964e-06,9.443940139467703e-07,1.1248132127522473e-06,2.284441383623274e-06,1.998855552700809e-06,9.250211097735256e-07,1.4020864114447868e-06,2.3526627583373497e-06,1.6124609562140984e-06,1.7860191728409083e-06,8.02059244914496e-07,1.2908438915005512e-05,2.325539675127594e-06,4.4531849519595995e-06,9.670186272604911e-07,3.497591248566106e-06
177,1.7149569588828942e-06,8.918376077608676e-07,1.133484788484644e-06,2.330932333039249e-06,2.004498915617033e-06,9.225898415427844e-07,1.4062325385462558e-06,2.408658040520028e-06,1.6099057906001632e-06,1.825503379826007e-06,8.23517750475959e-07,1.2684498461858216e-05,2.285425614561328e-06,4.522039336120731e-06,9.6586064212767e-07,3.5610608611947696e-06
178,1.6752032081343884e-06,8.432730475929218e-07,1.1416478500652196e-06,2.3700697739762113e-06,2.0049936842617656e-06,9.23094172866412e-07,1.412622766240115e-06,2.460845398223707e-06,1.6062944620863984e-06,1.8600608341857823e-06,8.49122843956005e-07,1.2392705881010584e-05,2.2439296810783897e-06,4.594435595728408e-06,9.664638846328639e-07,3.620291290464965e-06
179,1.6362553851629687e-06,7.992445373348357e-07,1.1493397445732282e-06,2.4004794092018787e-06,2.000569270621085e-06,9.264856923611366e-07,1.421694792233226e-06,2.5084856770704056e-06,1.6009940310697295e-06,1.8886733131244155e-06,8.785831368211509e-07,1.204459838959804e-05,2.2009155743389177e-06,4.669334866851931e-06,9.68708153837896e-07,3.673252520011387e-06
180,1.598636046510927e-06,7.601642383209797e-07,1.156964205807186e-06,2.4214496681382692e-06,1.9913150549871937e-06,9.327257227075491e-07,1.4338535585510318e-06,2.5509746017450547e-06,1.59357564280089e-06,1.9104678714200214e-06,9.116815496978428e-07,1.1650754139703563e-05,2.156313329685225e-06,4.746330094952288e-06,9.723604266600314e-07,3.717443916041289e-06
181,1.562513493477359e-06,7.263718215900784e-07,1.1651618476565353e-06,2.4329227714252505e-06,1.9774007696691315e-06,9.417565791945362e-07,1.4493803239351063e-06,2.587586859423618e-06,1.583811756081215e-06,1.924903669972744e-06,9.482596466812723e-07,1.1220672167123552e-05,2.1100729935983505e-06,4.8253512079168066e-06,9.770813093669277e-07,3.750133731184338e-06
182,1.5278299356275183e-06,6.982016661570341e-07,1.1745497936062175e-06,2.4352860952656235e-06,1.9592679288248934e-06,9.53485023359672e-07,1.4683615446346484e-06,2.6173704835921577e-06,1.5716018193693784e-06,1.9316751920021564e-06,9.881181168848887e-07,1.0763051604351838e-05,2.0619779516638088e-06,4.906125291640454e-06,9.825948370258994e-07,3.7687543200445896e-06
183,1.4945311598363056e-06,6.759800566788149e-07,1.1855710426867831e-06,2.429065943426645e-06,1.937645614937509e-06,9.677342290928304e-07,1.4906743935247114e-06,2.6392413144728805e-06,1.5569175754821369e-06,1.930484447357633e-06,1.0309530397165138e-06,1.0285970949245432e-05,2.011724378193316e-06,4.987764930782497e-06,9.888615370244925e-07,3.7713632521266845e-06
184,1.4627982066837407e-06,6.599643567947116e-07,1.1984901430304464e-06,2.414662239457669e-06,1.913450011701839e-06,9.841914982748987e-07,1.5160051732511395e-06,2.6521806423396162e-06,1.5398046610441776e-06,1.9210198423084933e-06,1.0763559497933719e-06,9.796992217832494e-06,1.9593809625501123e-06,5.068708669294932e-06,9.960596341974618e-07,3.757013321787929e-06
185,1.4331128455718205e-06,6.50309433672952e-07,1.2134175205738412e-06,2.3923096078378284e-06,1.887689276509728e-06,1.002430364028373e-06,1.543967708617444e-06,2.655529245048368e-06,1.5204280943529122e-06,1.9031444308741287e-06,1.1238652870633148e-06,9.303186549287449e-06,1.9057797760832497e-06,5.146815746027218e-06,1.0044111659338397e-06,3.72587501179926e-06
186,1.406099534850316e-06,6.470875389169198e-07,1.2303055879739934e-06,2.3623096236978616e-06,1.8614024214243858e-06,1.0219997053427756e-06,1.574291518299927e-06,2.649286540077241e-06,1.4991145482732497e-06,1.8770620319645022e-06,1.1730526471666818e-06,8.811018011173259e-06,1.8524517915182213e-06,5.219580979406503e-06,1.0140474276557517e-06,3.6790884672176594e-06
187,1.3822923341117353e-06,6.503107266868553e-07,1.2489670518697949e-06,2.325317160527786e-06,1.8355849976085431e-06,1.0424654334037023e-06,1.6068607947417892e-06,2.6341087381277686e-06,1.476315718343717e-06,1.8433226138641498e-06,1.223593712102228e-06,8.326152061889616e-06,1.8012896887611613e-06,5.284775263692751e-06,1.0249764012520912e-06,3.6185156468098147e-06
188,1.3620086865709741e-06,6.599393549026726e-07,1.2691398201009694e-06,2.28245026741512e-06,1.811113644325692e-06,1.0633686420088322e-06,1.6415889156953266e-06,2.6109475954211607e-06,1.4525046127608637e-06,1.8027321645864423e-06,1.2753075530855597e-06,7.853342065925753e-06,1.7542732408935888e-06,5.341339290763396e-06,1.0370842841373343e-06,3.546572413150163e-06
189,1.3453630159718575e-06,6.759040176037646e-07,1.2905354463353558e-06,2.2351713177666544e-06,1.7887447483435505e-06,1.0842084428541834e-06,1.6783163478141365e-06,2.5807312644595798e-06,1.4281411375284903e-06,1.7563023821994671e-06,1.328156851974612e-06,7.396448394908037e-06,1.7133156963339266e-06,5.3898780278419235e-06,1.0501272433251522e-06,3.4660908353970683e-06
190,1.3323415802412826e-06,6.98122816619237e-07,1.3128117303816658e-06,2.1850243490868674e-06,1.7691550566816817e-06,1.1045031312486906e-06,1.7167380825953315e-06,2.544323998290344e-06,1.4037354426187834e-06,1.7052153681729915e-06,1.3821746908532995e-06,6.958542827159688e-06,1.6801535388209548e-06,5.4325123735512355e-06,1.063750057278261e-06,3.3800565606107137e-06
191,1.3228400767388727e-06,7.264959050559094e-07,1.3355020725985089e-06,2.133422963661722e-06,1.7529213377525005e-06,1.1238564366926325e-06,1.756323008013515e-06,2.5025267451201843e-06,1.379856896338881e-06,1.6507297751719734e-06,1.437357647702993e-06,6.542072245410339e-06,1.6562542708567398e-06,5.472298120591213e-06,1.0776221194507498e-06,3.2912429187226694e-06
192,1.3166346491335053e-06,7.609099834988381e-07,1.3580277112014964e-06,2.081609209763768e-06,1.740443535718968e-06,1.1419630965144842e-06,1.796318325395072e-06,2.455949644232781e-06,1.3570531644496568e-06,1.5940852461298546e-06,1.4936142400196069e-06,6.14908771235015e-06,1.6427779233939949e-06,5.512422419471645e-06,1.0916500601711222e-06,3.201898473643683e-06
193,1.313362029327974e-06,8.012405464203102e-07,1.3798609036042903e-06,2.03065377288534e-06,1.7318929130009935e-06,1.1585713730947845e-06,1.8358204465924018e-06,2.404931395119275e-06,1.3358021527161096e-06,1.5364752626283124e-06,1.5507576139439633e-06,5.7814655436794006e-06,1.640583928715936e-06,5.555434718982037e-06,1.1060471688280612e-06,3.1135797837170072e-06
194,1.3125739263380225e-06,8.473025398539627e-07,1.4006882763418932e-06,1.9813752864927133e-06,1.7272836571107846e-06,1.173454329832983e-06,1.8737960315466226e-06,2.349650946994684e-06,1.316519460998875e-06,1.479112888478915e-06,1.6084711715281228e-06,5.440959276112107e-06,1.6502262756224271e-06,5.602830615766367e-06,1.1211734390485857e-06,3.0271191299255483e-06
195,1.3138515631892951e-06,8.987803962476708e-07,1.4203888516205222e-06,1.9342512579593008e-06,1.7266649648799509e-06,1.1864013008124683e-06,1.909138451182072e-06,2.290357341384217e-06,1.299555535792586e-06,1.4233261571315526e-06,1.66626623946457e-06,5.1290506323781335e-06,1.6719510441514392e-06,5.655048106522339e-06,1.1373169784531936e-06,2.9426837946232177e-06
196,1.3169218986863818e-06,9.552168205216253e-07,1.438908792966108e-06,1.8894093916254448e-06,1.730221109411672e-06,1.1972058017119415e-06,1.9408877505398503e-06,2.2276045546906324e-06,1.285156776496853e-06,1.37052207630724e-06,1.7234948705984075e-06,4.846805523792798e-06,1.705726942376436e-06,5.711597200062738e-06,1.1545783572836793e-06,2.859896363208947e-06
197,1.3216888064910053e-06,1.0160651926580305e-06,1.4562041972540836e-06,1.8467399536063983e-06,1.7381738364454945e-06,1.2056398619047271e-06,1.9684588239771924e-06,2.1623734110192404e-06,1.2734054839730622e-06,1.3220215260775988e-06,1.7794005894887899e-06,4.59492390159065e-06,1.75129092326676e-06,5.771088498566755e-06,1.1728501652957202e-06,2.7779831838325317e-06
198,1.3281359295458382e-06,1.0807219807241128e-06,1.4722074826829814e-06,1.8061118496696222e-06,1.7506750705892736e-06,1.2114128256306323e-06,1.991653735393791e-06,2.095947081131277e-06,1.264212101844644e-06,1.278944907083595e-06,1.8331639036750847e-06,4.373902322988863e-06,1.808199255652816e-06,5.83136981261612e-06,1.1918201221198513e-06,2.6959267055203083e-06
199,1.3361782516991552e-06,1.14848603385493e-06,1.4867618832936238e-06,1.7675302659718267e-06,1.7678177323929443e-06,1.214127472564078e-06,2.0104623683943035e-06,2.0295950289221683e-06,1.2574121062235442e-06,1.242223029003016e-06,1.8839441760725431e-06,4.184075638616716e-06,1.8758427164340068e-06,5.890113618733263e-06,1.210994447745865e-06,2.6126509308628984e-06
200,1.3455714117596927e-06,1.218501090822278e-06,1.4996057691186757e-06,1.7310928702632329e-06,1.7896800338757244e-06,1.213291321420669e-06,2.0248611841407914e-06,1.9643384067019643e-06,1.2528523476656408e-06,1.212662356659681e-06,1.9309074478888103e-06,4.025437136604979e-06,1.9533760651515453e-06,5.945698447843042e-06,1.2297878060470991e-06,2.5272582392999036e-06
201,1.3558849154254016e-06,1.2897536472062187e-06,1.510390542904681e-06,1.6968483640074612e-06,1.8163067845745978e-06,1.2084010260524043e-06,2.0348118070909897e-06,1.9009791566019995e-06,1.2503486018301424e-06,1.190979426343369e-06,1.973191524859136e-06,3.897355887068672e-06,2.039621220610018e-06,5.997872855571125e-06,1.247644649053136e-06,2.4392342152343948e-06
202,1.3664986856776958e-06,1.3611358505264719e-06,1.5186626146728098e-06,1.6647223369614517e-06,1.8476083887182374e-06,1.1990354794557778e-06,2.040387489418148e-06,1.8402919739067742e-06,1.2496413229426147e-06,1.1778097259370154e-06,2.009807272050708e-06,3.7983747711099826e-06,2.1330141105107286e-06,6.0478707428584324e-06,1.2640923940152642e-06,2.3485100853911057e-06
203,1.3766685130743506e-06,1.4315535459518644e-06,1.5238999799460638e-06,1.6344800381742973e-06,1.8832299997627723e-06,1.1849462300004445e-06,2.041800161056099e-06,1.7831642709103405e-06,1.2505206857390332e-06,1.1737155074083018e-06,2.0395882838719983e-06,3.7261780322157104e-06,2.231576443159741e-06,6.097995577046114e-06,1.278737932252264e-06,2.2553975393530777e-06
204,1.3856891402641139e-06,1.50002070435987e-06,1.5256695774364798e-06,1.6056802458271033e-06,1.9224658800297284e-06,1.1661917472509381e-06,2.039357035913923e-06,1.7305861560686494e-06,1.2529945346401424e-06,1.1791401527999875e-06,2.0612447146538006e-06,3.677697045886029e-06,2.3329136648563102e-06,6.150979127583625e-06,1.2913128246618694e-06,2.160532593056872e-06
205,1.3930178091833775e-06,1.565671302538986e-06,1.5237632694698672e-06,1.5777244923191443e-06,1.964253295949749e-06,1.1432654989936737e-06,2.0335435912904145e-06,1.6835245089777537e-06,1.2572413398145428e-06,1.1943183898418712e-06,2.073421790400435e-06,3.6492729905386244e-06,2.434295742639695e-06,6.209440467830185e-06,1.3017602770182057e-06,2.0648968327657007e-06
206,1.3982555224516122e-06,1.6276974019038997e-06,1.518196021430085e-06,1.55005408493715e-06,2.0072819062939328e-06,1.1170952124900652e-06,2.025120896771724e-06,1.6427599314226457e-06,1.2634014889482936e-06,1.2192308263922137e-06,2.0748336111655074e-06,3.636852252495181e-06,2.5328485179962393e-06,6.2754820416412885e-06,1.3102309918263127e-06,1.9697905563764128e-06
207,1.4011304278833825e-06,1.6852634721337338e-06,1.5091416593734455e-06,1.522371597290772e-06,2.0502327370982655e-06,1.088888710751675e-06,2.014976441684914e-06,1.6087625273755476e-06,1.2714850027982329e-06,1.2536162689807082e-06,2.0646438925329795e-06,3.636234171728337e-06,2.625797157134165e-06,6.350306309935311e-06,1.3169705371374728e-06,1.876633547928761e-06
208,1.4016128290068187e-06,1.7374658430868253e-06,1.4968976919226275e-06,1.494720734863438e-06,2.092033868957172e-06,1.0599231141007423e-06,2.00383388722826e-06,1.5816501364734516e-06,1.2814236371706771e-06,1.296984298925505e-06,2.0427995876480086e-06,3.643309337045729e-06,2.710690474973443e-06,6.4339036005151755e-06,1.3222577425954416e-06,1.7867284137407138e-06
209,1.3999872988250298e-06,1.7834466714943891e-06,1.4818441596604364e-06,1.4673738418722815e-06,2.131943916073204e-06,1.0313724910904793e-06,1.9920932176852766e-06,1.5612452281532727e-06,1.293081498673153e-06,1.348605663414824e-06,2.009896471346523e-06,3.6542024650223355e-06,2.7856548799151913e-06,6.524899708865724e-06,1.3264279506956204e-06,1.7011839401138104e-06
210,1.3967016726967024e-06,1.8226408044821686e-06,1.4643351685362612e-06,1.4406556506520465e-06,2.169382828004076e-06,1.0042163530165398e-06,1.97985364688335e-06,1.547209819013694e-06,1.3062235844548021e-06,1.4075053835283902e-06,1.966837239065345e-06,3.6653544746531025e-06,2.8497004265462927e-06,6.620475379224952e-06,1.3298238485392985e-06,1.6209456590591978e-06
211,1.3921733542562657e-06,1.8549548177461277e-06,1.4445852094103018e-06,1.4148946808099735e-06,2.203643495755746e-06,9.792461417968565e-07,1.9670256514513855e-06,1.5391533351431444e-06,1.3205699027322003e-06,1.4724932922761894e-06,1.9147681884361526e-06,3.6736187388458266e-06,2.9028527519762076e-06,6.7163023885073255e-06,1.332668275797827e-06,1.5467886272550248e-06
212,1.3868040645083844e-06,1.8807658218651773e-06,1.4226725976726818e-06,1.3904854890084003e-06,2.2337141844862038e-06,9.571426608615446e-07,1.9533938866228727e-06,1.5366247339363685e-06,1.3358803314356954e-06,1.5423087729098668e-06,1.855185191493131e-06,3.6763696086281647e-06,2.9458874597705607e-06,6.806638550857547e-06,1.3350020508502696e-06,1.4792813423278062e-06
213,1.3811177423287699e-06,1.9007674281983921e-06,1.398677038277925e-06,1.3678740917033173e-06,2.258317478484719e-06,9.385369993843974e-07,1.9385841263299026e-06,1.5390773235174338e-06,1.351928858255822e-06,1.6158881701614355e-06,1.7898959632142831e-06,3.6715862120734302e-06,2.9798143716872783e-06,6.8846549463364705e-06,1.3366996629530917e-06,1.418786503559771e-06
214,1.3757894249705894e-06,1.9157249923246857e-06,1.3728592519871808e-06,1.3474736238934086e-06,2.276040226807147e-06,9.239962106525348e-07,1.922103875906769e-06,1.545929010922702e-06,1.3684320131207016e-06,1.6925587205866547e-06,1.7208540777090323e-06,3.657900351837589e-06,3.005436556902052e-06,6.9428143981644665e-06,1.3375263684486486e-06,1.3654701760304732e-06
215,1.3715694046196752e-06,1.926289089931889e-06,1.3457640989312014e-06,1.3296356290849804e-06,2.285403972058266e-06,9.139761403398791e-07,1.903573606801969e-06,1.556636989421813e-06,1.3851201519023728e-06,1.772077019078383e-06,1.6499820709010868e-06,3.6346447919023216e-06,3.023099328256244e-06,6.973379555897108e-06,1.3372221929338116e-06,1.3192814054222284e-06
216,1.3692624598199985e-06,1.9329418472310613e-06,1.31817038955153e-06,1.3146478785195274e-06,2.2850018517503164e-06,9.087926455854035e-07,1.882984114314067e-06,1.5706399154131887e-06,1.4019127831627946e-06,1.8547533425352062e-06,1.5790338938545727e-06,3.6019095710451886e-06,3.0326135032008844e-06,6.9695157975978295e-06,1.3355625159252082e-06,1.2799443297665582e-06
217,1.3697462122314745e-06,1.935958908913729e-06,1.2909207651577826e-06,1.3027453570089245e-06,2.2738300757630552e-06,9.08615442403241e-07,1.8607761729127112e-06,1.5871968792085012e-06,1.418993634890718e-06,1.9417050567420852e-06,1.5095397639482168e-06,3.560494048701527e-06,3.0334085605851077e-06,6.926734518318446e-06,1.3324240120994817e-06,1.2470096205533125e-06
218,1.373895349754884e-06,1.935387735057793e-06,1.2647446358260193e-06,1.2941752443256952e-06,2.2515786916046304e-06,9.135048110218872e-07,1.8377363018404315e-06,1.6052775046594696e-06,1.4367915194807532e-06,2.0348744463967863e-06,1.4428049767465723e-06,3.5117016599201535e-06,3.024919469481014e-06,6.843600086125292e-06,1.327860487302641e-06,1.2199548190977716e-06
219,1.3824313426249429e-06,1.931174651274991e-06,1.2401637653230028e-06,1.2892397131755669e-06,2.218618370951607e-06,9.234735707405497e-07,1.8148260397643643e-06,1.6236336723060004e-06,1.4559593516547316e-06,2.136661105621435e-06,1.3798919319943408e-06,3.4571012944705824e-06,3.0070037086228048e-06,6.721223053535123e-06,1.3220788660520824e-06,1.1982860240263499e-06
220,1.3958140312174725e-06,1.9233856882019676e-06,1.2175175172540685e-06,1.288260354139876e-06,2.175732208111906e-06,9.385009457973272e-07,1.793037052964371e-06,1.6410782745062792e-06,1.47727880169963e-06,2.2494874898506206e-06,1.321593669320184e-06,3.3983022831656793e-06,2.9801280985349734e-06,6.562027517480366e-06,1.3153454643717533e-06,1.181606388953645e-06
221,1.4142067277064599e-06,1.912336415992268e-06,1.197073762679828e-06,1.291530150145093e-06,2.1238270293083924e-06,9.585053458354274e-07,1.7732785653478465e-06,1.6568423310919523e-06,1.5014672384233703e-06,2.375620162947631e-06,1.2684402019337385e-06,3.3367109995512215e-06,2.9453091262165743e-06,6.368607885868155e-06,1.3079340763823085e-06,1.1696377622627708e-06
222,1.4374804857202895e-06,1.8985341691096906e-06,1.1791095059147184e-06,1.2992868904332344e-06,2.063835261729478e-06,9.833260413049565e-07,1.756296050714525e-06,1.6708089924424605e-06,1.5290343841269695e-06,2.517232576240136e-06,1.2207301213527724e-06,3.2734100642844556e-06,2.9039857355290607e-06,6.143398730126415e-06,1.30010567535883e-06,1.1621831150151525e-06
223,1.4652231393621902e-06,1.8824846127086566e-06,1.1638819522662017e-06,1.3116613777222684e-06,1.9968211226939773e-06,1.0127164789036189e-06,1.7426644060694282e-06,1.683528960737032e-06,1.5603097046774832e-06,2.6765084690318013e-06,1.1785456675725898e-06,3.2092899989329054e-06,2.8578922278533303e-06,5.889192320715667e-06,1.2921429781034728e-06,1.1590336012124707e-06
224,1.4967348597389699e-06,1.8645561428897184e-06,1.1515514314155633e-06,1.3285959183570209e-06,1.9240643585499417e-06,1.0463667811226465e-06,1.7328231546866118e-06,1.696060055193038e-06,1.5955716499442524e-06,2.8556987958708134e-06,1.1417515070476536e-06,3.1453004279625697e-06,2.808866504053322e-06,5.609770337086634e-06,1.28443944853083e-06,1.1598606757117367e-06
225,1.5310564905381596e-06,1.845022258208469e-06,1.1421782851792554e-06,1.3498082811919292e-06,1.8469639521783106e-06,1.0839526020498853e-06,1.7270807754885087e-06,1.7097130095517998e-06,1.6350860937647944e-06,3.057188557390205e-06,1.1100229385885023e-06,3.0825774488243882e-06,2.7585760778467743e-06,5.310072891392242e-06,1.2774841112543268e-06,1.1641683549268222e-06
226,1.5671146292885808e-06,1.8241255489122456e-06,1.1358066853381925e-06,1.3748586934031563e-06,1.7669430292987963e-06,1.1251387607141085e-06,1.7256362801560984e-06,1.7257947706025334e-06,1.6790003348410576e-06,3.2835748336140166e-06,1.0828874664206479e-06,3.0223139815346553e-06,2.708255015115481e-06,4.995926395534161e-06,1.2717388586658566e-06,1.171353131133818e-06
227,1.6039667040889886e-06,1.8019908188282674e-06,1.1325196578283535e-06,1.4032913239407274e-06,1.6855050541869098e-06,1.169503989306496e-06,1.7286522400395294e-06,1.745426543179189e-06,1.7272380547685034e-06,3.5376261746480544e-06,1.0597396332284688e-06,2.965467765222641e-06,2.6585694950565643e-06,4.67356400876022e-06,1.267565672596929e-06,1.1808262709413808e-06
228,1.640994253310303e-06,1.7784901548110148e-06,1.1323951345563582e-06,1.4347600951039904e-06,1.604244887425658e-06,1.2164434317699695e-06,1.7362832345820903e-06,1.7694616422178278e-06,1.7795123138806815e-06,3.82204769108788e-06,1.0398814362731446e-06,2.9125317675759983e-06,2.609650456334552e-06,4.349107779688077e-06,1.265187182350566e-06,1.1920964792896779e-06
229,1.6779030179829416e-06,1.7532759238940257e-06,1.1354139853978592e-06,1.469061340641667e-06,1.524681346974856e-06,1.2651137275431085e-06,1.7486058508193808e-06,1.7985419778035432e-06,1.8354419707608184e-06,4.139178458032955e-06,1.0226358301687198e-06,2.863471613315101e-06,2.5612347527858738e-06,4.028123152808452e-06,1.2646126567735108e-06,1.2047524142261799e-06
230,1.7145337738400518e-06,1.7260647055970056e-06,1.1414066594203548e-06,1.5060533490560189e-06,1.4480808575514564e-06,1.3144219248962256e-06,1.7654971767384296e-06,1.8332927579624666e-06,1.8946639830641013e-06,4.490784206069906e-06,1.0074572013845796e-06,2.8178077359790284e-06,2.512788549800226e-06,3.715346408122773e-06,1.2656015017943609e-06,1.218408415559445e-06
231,1.750626448358105e-06,1.697035237043348e-06,1.1500976145014615e-06,1.545511880326911e-06,1.3754275626257664e-06,1.3630471685849333e-06,1.7865247151889982e-06,1.8744729503108208e-06,1.9568109263505426e-06,4.877937347286075e-06,9.939493298167003e-07,2.774778769414055e-06,2.4635773051743356e-06,3.4146140234411572e-06,1.2677598507244855e-06,1.232723544273645e-06
232,1.7857333843642452e-06,1.6670289856440244e-06,1.1612353656046905e-06,1.5870453318963737e-06,1.3074873192899773e-06,1.4095606408056075e-06,1.810908619667285e-06,1.922914747674157e-06,2.021371474687749e-06,5.300889656354816e-06,9.817970750268663e-07,2.7334800864302687e-06,2.412835236173862e-06,3.1289134346453227e-06,1.2707522993770995e-06,1.2474700748299834e-06
233,1.8193692537380931e-06,1.6373661628293853e-06,1.1747090958335721e-06,1.630170702385146e-06,1.244839932783998e-06,1.4526996016287115e-06,1.8375583520994322e-06,1.9793309156699555e-06,2.087594179956653e-06,5.758947960325215e-06,9.706794507087903e-07,2.6929442764308066e-06,2.360075600561637e-06,2.860484752629982e-06,1.274444708579377e-06,1.2625517452226648e-06
234,1.851251072364214e-06,1.609448392504791e-06,1.1905421421865296e-06,1.6744993640461428e-06,1.1878627254866781e-06,1.4916717080177169e-06,1.8651217280862472e-06,2.044140428420269e-06,2.154486783782149e-06,6.250395162739698e-06,9.602420092329762e-07,2.6522669710912637e-06,2.3053200007527233e-06,2.610956043650858e-06,1.2788368365275223e-06,1.2779716235215681e-06
235,1.881393451832536e-06,1.5844583084781924e-06,1.2087573402210523e-06,1.7198840010483363e-06,1.1367409349927841e-06,1.5262461038026634e-06,1.8920732660705348e-06,2.1173587006440508e-06,2.220866339753637e-06,6.772411178486111e-06,9.501305648042653e-07,2.610842005787507e-06,2.2490583900845032e-06,2.3814892368770818e-06,1.2839274836764462e-06,1.2938105387976519e-06
236,1.909985199917639e-06,1.5632866469370848e-06,1.2292334793162603e-06,1.7664311140253167e-06,1.0915113913137308e-06,1.5565580773798211e-06,1.9168782667608604e-06,2.1985475442473204e-06,2.2855144843002537e-06,7.321020909060097e-06,9.400262113225056e-07,2.5685890903114814e-06,2.1919888366893193e-06,2.1728839278946275e-06,1.2896721322201388e-06,1.3102204087295767e-06
237,1.9371799906101326e-06,1.5466200990754604e-06,1.2516464374990595e-06,1.8143891944928702e-06,1.0520797055992796e-06,1.5828747730035114e-06,1.938093597482237e-06,2.2868155499584045e-06,2.3474564474182675e-06,7.891108038184621e-06,9.296965480519325e-07,2.525997189314279e-06,2.134792691142694e-06,1.985583079380487e-06,1.2959778861297754e-06,1.3273812625324042e-06
238,1.9629990860489877e-06,1.535053010289961e-06,1.2754628504780235e-06,1.8640005398339323e-06,1.0182269941162023e-06,1.6055737830594734e-06,1.9543264767230582e-06,2.38089472876668e-06,2.406157760054332e-06,8.476373024879152e-06,9.190781386561505e-07,2.4839589583542222e-06,2.078088975492408e-06,1.8196337636597693e-06,1.3026731146043276e-06,1.3454105137827635e-06
239,1.987435207157007e-06,1.5291112827682133e-06,1.2999403568016492e-06,1.9154211467639646e-06,9.89649990591408e-07,1.6252334197241008e-06,1.9642334316963407e-06,2.479333623021349e-06,2.4614274358193696e-06,9.06918460441242e-06,9.082894076457476e-07,2.4435333058924153e-06,2.022410954746798e-06,1.6747447534638285e-06,1.3094770867019252e-06,1.364274473491578e-06
240,2.010646685601499e-06,1.5291755483312616e-06,1.3241675764840957e-06,1.9687297224593306e-06,9.66027424207278e-07,1.6426144680787244e-06,1.9667343280356357e-06,2.5807296737116306e-06,2.5131000948605895e-06,9.660413899318198e-06,8.975284182359245e-07,2.4057338703562607e-06,1.9681229207904435e-06,1.5504373012088382e-06,1.3160195446208804e-06,1.3837225576871931e-06
241,2.0330204472450314e-06,1.5353925451337165e-06,1.3472049333866966e-06,2.0239344686454432e-06,9.471116953897165e-07,1.6585563358883133e-06,1.9613405641596174e-06,2.6838359792653794e-06,2.5607319727389133e-06,1.023929606065225e-05,8.869904941832566e-07,2.3713522644871857e-06,1.9154007276030003e-06,1.4461479085450303e-06,1.3218915768737873e-06,1.4032452242981697e-06
242,2.0550175371241405e-06,1.5476809389514862e-06,1.3683215753245618e-06,2.080946694172442e-06,9.32784218123721e-07,1.6739188679617406e-06,1.9483137795993992e-06,2.7874670613930816e-06,2.6034427022946015e-06,1.079342642229464e-05,8.768994898279716e-07,2.3408750869140446e-06,1.864330703793426e-06,1.3612620456627862e-06,1.3266279728309007e-06,1.4221060131876049e-06
243,2.0769827880733162e-06,1.565815643503174e-06,1.3872017708282941e-06,2.1396445650768394e-06,9.22975898696522e-07,1.689549859825855e-06,1.9284807890120413e-06,2.8902737123184772e-06,2.6399499142249757e-06,1.130930265974575e-05,8.675528529423408e-07,2.3144941376076867e-06,1.8150519747001003e-06,1.2951331450782639e-06,1.3296535199050261e-06,1.43946277383938e-06
244,2.0991547574590117e-06,1.5894587936089355e-06,1.4039563693706994e-06,2.200052448488004e-06,9.175151674139961e-07,1.706201937724775e-06,1.9028324160154476e-06,2.9905536594020306e-06,2.6688120766900273e-06,1.1773694159616887e-05,8.592836378741886e-07,2.2920722674714873e-06,1.7678158432872628e-06,1.2470482534461006e-06,1.330360276314752e-06,1.4544810988017665e-06
245,2.1218277138967663e-06,1.6181207842760466e-06,1.4189175579826594e-06,2.262443068439805e-06,9.160392115283966e-07,1.7244408386693524e-06,1.8722328211177331e-06,3.0862600602608327e-06,2.6887752921853043e-06,1.217527772830374e-05,8.52370463727356e-07,2.273087830194869e-06,1.7229029069125838e-06,1.2161430507020798e-06,1.328344464761267e-06,1.4663543120941716e-06
246,2.145382407917054e-06,1.6511367101530581e-06,1.4323855942048872e-06,2.327225717540814e-06,9.179899357800413e-07,1.744592902202811e-06,1.8373945873537126e-06,3.1751920712042906e-06,2.6990621323240058e-06,1.250565736559465e-05,8.469660016462044e-07,2.256744399532851e-06,1.6805163528826793e-06,1.2013564182002896e-06,1.3236297645105208e-06,1.4742819391706276e-06
247,2.17009236027038e-06,1.687661126064168e-06,1.4445301794961e-06,2.3947301013023018e-06,9.226751753853366e-07,1.7667085172311318e-06,1.798975918528115e-06,3.2551846404347405e-06,2.699539155307752e-06,1.2759491151166635e-05,8.430904184153783e-07,2.24223126592271e-06,1.640797990231393e-06,1.2014498434704337e-06,1.31667643207098e-06,1.4775340610746793e-06
248,2.195916985143227e-06,1.7266905767226703e-06,1.4554830865278145e-06,2.4650973055529865e-06,9.294140049470361e-07,1.7905736686885506e-06,1.7576636620153834e-06,3.324236030793075e-06,2.690765952929314e-06,1.2933908381120745e-05,8.406987938866566e-07,2.2289119235061684e-06,1.6038970579578397e-06,1.2150521472275475e-06,1.308162450483327e-06,1.475654037077496e-06
249,2.222439272868293e-06,1.7671691717698997e-06,1.4654607860204739e-06,2.5383117174779756e-06,9.377249420158248e-07,1.8158276312777821e-06,1.7142308135080647e-06,3.3807214509808508e-06,2.6738868491673944e-06,1.302730943163476e-05,8.398009848685947e-07,2.216317209040172e-06,1.5699215654987427e-06,1.2406877429537807e-06,1.2987625775237478e-06,1.4686880166518801e-06
250,2.2489184066195193e-06,1.808188999965745e-06,1.474743705215636e-06,2.6142300725576697e-06,9.474073350405e-07,1.842141302778051e-06,1.669522972418965e-06,3.423761725356211e-06,2.650347067937042e-06,1.3037884567023391e-05,8.405659828465633e-07,2.204027914629741e-06,1.5388090659856397e-06,1.2767760858338524e-06,1.2890757345090026e-06,1.4572499722011096e-06
251,2.2744468443081517e-06,1.8492458890974282e-06,1.483514821214675e-06,2.6925774705106606e-06,9.584611837478987e-07,1.8693282518606807e-06,1.624330309875176e-06,3.453541693307652e-06,2.621536911171805e-06,1.2963162634345628e-05,8.43310874195396e-07,2.191598379323386e-06,1.5102752238078757e-06,1.3216696717829788e-06,1.2795923882373646e-06,1.4423465925931458e-06
252,2.298194281765318e-06,1.8904129869385566e-06,1.4917109676687187e-06,2.773021105023568e-06,9.710061415490332e-07,1.8972912084066098e-06,1.5792248602392047e-06,3.471288365736126e-06,2.588543971584934e-06,1.2801560253902487e-05,8.48377845780333e-07,2.1785847072137813e-06,1.48383271466146e-06,1.3738214557930237e-06,1.2706269471487347e-06,1.4250803534038197e-06
253,2.319612878747987e-06,1.9322549375010213e-06,1.4990102429955962e-06,2.8553258962468296e-06,9.852746431046295e-07,1.925837470806496e-06,1.534487213516578e-06,3.4788437699129456e-06,2.552122375668745e-06,1.2554729908786494e-05,8.560395273045236e-07,2.1646091363690494e-06,1.4587798651285949e-06,1.4319926690604788e-06,1.2622999281358737e-06,1.4064397769373888e-06
254,2.338525218330527e-06,1.9754950877910674e-06,1.5049486349757635e-06,2.9394238268727772e-06,1.001539803091864e-06,1.954516324538976e-06,1.4901849389317785e-06,3.4780602041530574e-06,2.512786114242288e-06,1.2228732095452249e-05,8.665120562023799e-07,2.1493815284654938e-06,1.4341935731592073e-06,1.4952682852815253e-06,1.254646751517565e-06,1.3872618790545177e-06
255,2.355123205959501e-06,2.0206681152665554e-06,1.5090892239989736e-06,3.0252508337054517e-06,1.0199714119833472e-06,1.9826004034404116e-06,1.4463746925315377e-06,3.470341206918602e-06,2.4708895658372024e-06,1.1833517257970971e-05,8.799898428447356e-07,2.1327109777414328e-06,1.4090701927518532e-06,1.5628652261405414e-06,1.2478229276662666e-06,1.368248822823197e-06
256,2.3698946939035276e-06,2.067946059482623e-06,1.5111680054663453e-06,3.1124386263966166e-06,1.0405795709950785e-06,2.0091690237719656e-06,1.4032824533719904e-06,3.4565032295390793e-06,2.4266847148177267e-06,1.1381519208431308e-05,8.966121203583919e-07,2.1145281989991557e-06,1.3826156660335908e-06,1.6339375630363732e-06,1.2422532967589148e-06,1.3499331652446152e-06
257,2.3834648476388854e-06,2.117133484273785e-06,1.51114981410388e-06,3.200127315348807e-06,1.0632488904840314e-06,2.033160530902343e-06,1.361308553389834e-06,3.4369208805861604e-06,2.3803309052063174e-06,1.0886253936444528e-05,9.163938575909319e-07,2.094841053041957e-06,1.3544699215892969e-06,1.7074764790781088e-06,1.238593235255826e-06,1.3326606543751295e-06
258,2.396373770889528e-06,2.167764375389143e-06,1.509164087054099e-06,3.2870640174896825e-06,1.0877351379675946e-06,2.0533766866892e-06,1.3208735681424552e-06,3.4118354857151973e-06,2.3319029409756944e-06,1.0361215069099506e-05,9.39190470530391e-07,2.0736027124394073e-06,1.3247388210193338e-06,1.7822923755234717e-06,1.237556205922775e-06,1.316698502733812e-06
259,2.408876937799616e-06,2.219258062278803e-06,1.5053717056114902e-06,3.3719138729335495e-06,1.1136029446362766e-06,2.0685702938804625e-06,1.2822655724623375e-06,3.3816916359255665e-06,2.2815191267566827e-06,9.818939640093481e-06,9.647068907268793e-07,2.0505812647418367e-06,1.293909879942476e-06,1.8570558521956362e-06,1.2397561895789747e-06,1.3024184752617709e-06
260,2.420851350908593e-06,2.2710812717228483e-06,1.4998764255092667e-06,3.4535775051374746e-06,1.140198949724488e-06,2.0776855895760177e-06,1.2456120607746355e-06,3.347309781126381e-06,2.2294787708188173e-06,9.27023730115011e-06,9.92531072932166e-07,2.0253527428916703e-06,1.2627033327818663e-06,1.930359322592762e-06,1.2456294513928342e-06,1.2903709508388494e-06
261,2.431783374320233e-06,2.3228593558514116e-06,1.4927451307213118e-06,3.531332230664432e-06,1.166745522425117e-06,2.0801178519403263e-06,1.210946487780019e-06,3.309736112619973e-06,2.176262961290912e-06,8.723754302597093e-06,1.0221942654104897e-06,1.9974757885088883e-06,1.231878590925485e-06,2.000804913285845e-06,1.2554080385363557e-06,1.2811719002658828e-06
262,2.4407911014204e-06,2.3744059247677663e-06,1.4840573596705804e-06,3.6047332579612844e-06,1.1925321457761806e-06,2.0757983162273194e-06,1.1782561500522121e-06,3.2698547598471076e-06,2.122473588600699e-06,8.185920344742366e-06,1.0532451483804e-06,1.966713487736268e-06,1.2021029870491775e-06,2.067129087616998e-06,1.2691299589310538e-06,1.2753330825441969e-06
263,2.4466934477926427e-06,2.4256613618227454e-06,1.4739010082368353e-06,3.6733477933073934e-06,1.217061732818228e-06,2.0650796629002733e-06,1.1474748812499724e-06,3.2281024036358422e-06,2.068793458670365e-06,7.661123029523023e-06,1.0852625069124025e-06,1.933095728328532e-06,1.173939545057538e-06,2.1283413464234943e-06,1.2866838437864098e-06,1.2731702763419827e-06
264,2.4480744328897915e-06,2.4765383910915773e-06,1.4624179097598398e-06,3.7364626276383547e-06,1.2400609311936163e-06,2.0485574499815747e-06,1.1184969578061054e-06,3.184572052722137e-06,2.0159691558502693e-06,7.151983339986195e-06,1.1177759908167374e-06,1.8968076152796185e-06,1.1478582605781362e-06,2.183860423966635e-06,1.3078330258301711e-06,1.274779798617099e-06
265,2.4432711797581353e-06,2.5267170806741836e-06,1.4499772575839965e-06,3.792877898674737e-06,1.261434907986285e-06,2.0269068215005136e-06,1.0912689408564e-06,3.1394420087084557e-06,1.9648385338273764e-06,6.659814100771399e-06,1.1501986372762778e-06,1.8580558171946134e-06,1.124207081562767e-06,2.2335653005371375e-06,1.3322091578139006e-06,1.280034725594093e-06
266,2.430416341430803e-06,2.575518246615149e-06,1.4373026310674267e-06,3.840902176462729e-06,1.2812469878022361e-06,2.000730928708118e-06,1.0658964970794501e-06,3.093366933189434e-06,1.916404757959577e-06,6.185283485489312e-06,1.181862570358698e-06,1.8170292782158874e-06,1.1032181239047702e-06,2.2776761132815557e-06,1.3593332289325218e-06,1.2885904739047975e-06
267,2.407778595788597e-06,2.621956626517066e-06,1.4253818494311282e-06,3.878683482001504e-06,1.2996710618611953e-06,1.9704978106734915e-06,1.0426780330992249e-06,3.0474867684860155e-06,1.8718335933793886e-06,5.729001970440871e-06,1.2121184825751565e-06,1.7739638007805257e-06,1.0850965389190093e-06,2.316530044903224e-06,1.388656517875182e-06,1.2998842968389506e-06
268,2.374366820292194e-06,2.6649230263843535e-06,1.415239479658022e-06,3.904760164175598e-06,1.316899593413363e-06,1.9366089843871404e-06,1.0220698258997858e-06,3.003077398761406e-06,1.832278106401213e-06,5.291811844648283e-06,1.2404229414575764e-06,1.7292579004919195e-06,1.070093175581248e-06,2.350350671219556e-06,1.4195798302327283e-06,1.3131203625594567e-06
269,2.330405973721259e-06,2.7034052964227986e-06,1.407764762655672e-06,3.918387372887877e-06,1.3331289287041649e-06,1.8994908519743218e-06,1.0046223979766293e-06,2.9612398641263586e-06,1.7986960396581223e-06,4.87483401554389e-06,1.2663980348805739e-06,1.68356670907889e-06,1.058455013364741e-06,2.3790650343571737e-06,1.451440958733262e-06,1.3273030899753748e-06
270,2.2773500410754756e-06,2.7367015845830782e-06,1.4036596975559257e-06,3.919328533575718e-06,1.3486539226846659e-06,1.859668338962619e-06,9.908866568549288e-07,2.922858938253342e-06,1.7718685715380918e-06,4.479340680046415e-06,1.2898674804129058e-06,1.6378140665786925e-06,1.0502972957000795e-06,2.402277516854005e-06,1.4835158989988885e-06,1.3414159136857219e-06
271,2.217450275996189e-06,2.764522791699998e-06,1.4034465802259591e-06,3.907315829418676e-06,1.363904850407696e-06,1.8178530815887374e-06,9.813011861262698e-07,2.8886462155817136e-06,1.7525209777953054e-06,4.106523886382004e-06,1.3108169508328702e-06,1.5931139059102855e-06,1.0455290978861468e-06,2.419455420260839e-06,1.5150739893287613e-06,1.3547292636429712e-06
272,2.153172693878136e-06,2.786858850647621e-06,1.4074859302409259e-06,3.881749673020245e-06,1.3793269199522889e-06,1.7749772783952676e-06,9.761162985526696e-07,2.8590960274441993e-06,1.741317816545827e-06,3.757334531130742e-06,1.3292653763501642e-06,1.550644642012695e-06,1.0439262546932272e-06,2.430157416564385e-06,1.5454010090030815e-06,1.3670637756556488e-06
273,2.0868045127742694e-06,2.803663822589723e-06,1.415965213889154e-06,3.841979674925792e-06,1.3952046066867629e-06,1.7321049358843447e-06,9.7539135479785e-07,2.834391467711107e-06,1.7387395266921847e-06,3.4324725389505305e-06,1.3451564808773495e-06,1.5115267231419436e-06,1.0453499092433126e-06,2.4340764373402198e-06,1.573776281615017e-06,1.3788392332542437e-06
274,2.0203303355585864e-06,2.8146278399022167e-06,1.4288454045202635e-06,3.7879102268692716e-06,1.411559466885968e-06,1.6902700366972505e-06,9.790563232815003e-07,2.8143394639162787e-06,1.7449894045140697e-06,3.132425470405136e-06,1.3583291424874599e-06,1.4767191921451443e-06,1.0499624065730918e-06,2.4308948794020235e-06,1.5995253035608204e-06,1.3908879150433232e-06
275,1.9553909354379416e-06,2.819216057884409e-06,1.4458195627771343e-06,3.72044191789411e-06,1.428179021415742e-06,1.6503584800029325e-06,9.87003905647387e-07,2.7984109726610713e-06,1.759959088436098e-06,2.8574840623271683e-06,1.3685197077175452e-06,1.4469330177673018e-06,1.0582453171865313e-06,2.4201868054869012e-06,1.6220919752454374e-06,1.4041531309784703e-06
276,1.893239936049932e-06,2.8168616703411486e-06,1.4663455143353583e-06,3.641482251303937e-06,1.444807456588107e-06,1.6131096461270352e-06,9.991510377111403e-07,2.785922609536319e-06,1.7831973009602256e-06,2.6077502201782523e-06,1.3753870627563776e-06,1.4225756770759326e-06,1.0708167955177616e-06,2.4015787541832096e-06,1.6409794448379445e-06,1.4194566534268395e-06
277,1.8348068635259242e-06,2.8071588688579917e-06,1.4897731216558328e-06,3.553570791260615e-06,1.4614411668488892e-06,1.5791814322988362e-06,1.0154107556612435e-06,2.7762858712190437e-06,1.8138797493373514e-06,2.383105021517774e-06,1.378587846992886e-06,1.4037590695989983e-06,1.0882354156920764e-06,2.375101284081955e-06,1.655623057243984e-06,1.4374348030343685e-06
278,1.7808810191693033e-06,2.7900509914858246e-06,1.5155208423671466e-06,3.459376562352495e-06,1.4785071755705309e-06,1.549170608403781e-06,1.0355958561473036e-06,2.7691900920652984e-06,1.8507994035851433e-06,2.183113743346165e-06,1.3779059845101096e-06,1.3904001562653119e-06,1.110915836925897e-06,2.341432387730517e-06,1.6653838844935961e-06,1.4586007267800574e-06
279,1.732244620363696e-06,2.7659767906912362e-06,1.5432204806649874e-06,3.3612888412385516e-06,1.4967432540211254e-06,1.5235965466688328e-06,1.0593564025372277e-06,2.7646405362301234e-06,1.8923817054609923e-06,2.006962221318924e-06,1.3733954367444725e-06,1.3823991248013636e-06,1.1391197905957801e-06,2.3018360426583e-06,1.6697168494106715e-06,1.4834408965369757e-06
280,1.6896374338409856e-06,2.7358243973718373e-06,1.572765554320064e-06,3.2611609095276026e-06,1.5169026960136526e-06,1.5029323488252467e-06,1.0862139528238868e-06,2.762863365618604e-06,1.936788067340448e-06,1.853539686389772e-06,1.3654377450121254e-06,1.3797825954496646e-06,1.1729556053332628e-06,2.257881676978436e-06,1.6683665986681306e-06,1.5124576500705987e-06
281,1.6536300754074672e-06,2.700638847175192e-06,1.6042223989801143e-06,3.160238390318303e-06,1.5395465752782341e-06,1.4876736449813475e-06,1.1156236962173962e-06,2.764114162521905e-06,1.9822016300158823e-06,1.7216027746040347e-06,1.3546471395761797e-06,1.3826755352903625e-06,1.212397866951353e-06,2.2111411102585955e-06,1.6613881390685933e-06,1.5461118403138942e-06
282,1.6245339117359356e-06,2.6612794355623743e-06,1.6376392618154388e-06,3.0592687293480836e-06,1.5650120217271974e-06,1.4783388390579759e-06,1.14696370773882e-06,2.768423147655696e-06,2.0272174963292893e-06,1.6098219799461608e-06,1.3417051571739005e-06,1.3911289775800745e-06,1.2573489974542568e-06,2.1629630370436653e-06,1.648977986850337e-06,1.5847028130497206e-06
283,1.6024074719258619e-06,2.618288938422001e-06,1.6728930795597487e-06,2.9586343636604652e-06,1.5935082788683621e-06,1.4753674316061372e-06,1.1794745248183088e-06,2.7753561622407015e-06,2.0710320233308184e-06,1.5167284500219478e-06,1.3272642203494225e-06,1.4049964152287511e-06,1.307672970187918e-06,2.11434937928052e-06,1.6313540850716937e-06,1.6282700974785162e-06
284,1.587155141209212e-06,2.572008116871345e-06,1.709659420045699e-06,2.858360897910773e-06,1.6252413640558458e-06,1.4790438709215247e-06,1.2122295515250191e-06,2.783906222583304e-06,2.1132237575901813e-06,1.4407498112619299e-06,1.3119040529002984e-06,1.4239929615285107e-06,1.3631603349997983e-06,2.065969131936683e-06,1.6088483609747704e-06,1.6765543382392374e-06
285,1.578642771445918e-06,2.5227579417112875e-06,1.7474257362909695e-06,2.758077855261221e-06,1.6604121516860996e-06,1.4895558394183982e-06,1.2441670515322858e-06,2.7925903704800235e-06,2.153351773915509e-06,1.380305831884123e-06,1.2960633837735878e-06,1.447850136842707e-06,1.4235388731711056e-06,2.0182905597435183e-06,1.582084567029447e-06,1.728981719413033e-06
286,1.5767373572486077e-06,2.4709257459430065e-06,1.7854840441740117e-06,2.6571438306112316e-06,1.6990686096027558e-06,1.5071002424993862e-06,1.2742079565093068e-06,2.7997400464970257e-06,2.190820929428949e-06,1.333843912278721e-06,1.2800236777551507e-06,1.4763635070594302e-06,1.4885660593337181e-06,1.9716919768239816e-06,1.552043745850602e-06,1.7846459847216485e-06
287,1.5812590011374845e-06,2.416925109670069e-06,1.8229792660054127e-06,2.555003301935349e-06,1.740984798035215e-06,1.531891550343753e-06,1.3014633265809838e-06,2.8038704044027377e-06,2.2251527979507e-06,1.299897676932144e-06,1.2640158565305207e-06,1.5092940713459275e-06,1.5580336679982173e-06,1.9264231311160436e-06,1.519941169150423e-06,1.8422902111392792e-06
288,1.591890244083806e-06,2.3611269289092602e-06,1.8590594333766375e-06,2.4515557630938763e-06,1.785653475203493e-06,1.5640621069909544e-06,1.3254740923280655e-06,2.80397402291242e-06,2.256337920000248e-06,1.2771987037111634e-06,1.2483287825682477e-06,1.5462697550660804e-06,1.631633051721062e-06,1.882486678135332e-06,1.486991531524175e-06,1.9003075943348474e-06
289,1.6080856434178532e-06,2.303864886778434e-06,1.893030948843074e-06,2.3472445860133635e-06,1.8323319063115581e-06,1.6035660316435721e-06,1.346378882142725e-06,2.7996685055978427e-06,2.284887344139432e-06,1.2646636019187166e-06,1.2333007467434754e-06,1.5868018885422693e-06,1.7088352700866278e-06,1.8396944241292837e-06,1.454225648474507e-06,1.956836670965552e-06
290,1.6290454187543508e-06,2.245475449215537e-06,1.9244101640282885e-06,2.242847979778026e-06,1.8801681389835186e-06,1.6501632491670394e-06,1.3648750490076522e-06,2.791221779098095e-06,2.311575538184139e-06,1.2612416914119786e-06,1.2192343144521795e-06,1.6304414402700191e-06,1.7888533835634437e-06,1.7980404716691282e-06,1.4224296620833995e-06,2.010013916985695e-06
291,1.6537957307481771e-06,2.1862499308141626e-06,1.9528771260018853e-06,2.1392348861743095e-06,1.9284460170428556e-06,1.7034284516910318e-06,1.3819540221280218e-06,2.7794774914279477e-06,2.3371253965546527e-06,1.2658003786860066e-06,1.2063021681655856e-06,1.6769583041577888e-06,1.8706158879213333e-06,1.758125458727e-06,1.3921580703406385e-06,2.058285712636543e-06
292,1.6813313457166464e-06,2.1263368115399637e-06,1.9782020552609957e-06,2.0372799805077147e-06,1.9767415134381115e-06,1.7627324718953642e-06,1.3986236850483066e-06,2.7656738733149455e-06,2.3619847202384724e-06,1.2770813781022966e-06,1.1944833385403603e-06,1.726320810342568e-06,1.9527329647325155e-06,1.7211926714015422e-06,1.3637567290050797e-06,2.1005532794937167e-06
293,1.7107721884606524e-06,2.0658282285090622e-06,2.0001569998565717e-06,1.937867073792235e-06,2.024802181265682e-06,1.8272333077539413e-06,1.4158117405350013e-06,2.751166700998654e-06,2.3862229205593275e-06,1.293657855723754e-06,1.1835961291079895e-06,1.7784703612639898e-06,2.0335440017516083e-06,1.688746935597442e-06,1.3373693278645474e-06,2.1360784036235398e-06
294,1.7415237155198503e-06,2.005089297807439e-06,2.0184193877552647e-06,1.8418566394287228e-06,2.0723355435403925e-06,1.8958967330098123e-06,1.4343832041044572e-06,2.737115140240935e-06,2.40955844845137e-06,1.3139155188866635e-06,1.1734428310439446e-06,1.8331329923732723e-06,2.111239545740188e-06,1.6621520339619701e-06,1.31295228284192e-06,2.164348382305613e-06
295,1.7733502426507743e-06,1.9450021853892076e-06,2.0326299726626158e-06,1.7500519712337774e-06,2.1189238825150547e-06,1.967535903096706e-06,1.4551243087124347e-06,2.724233125164413e-06,2.431510052386234e-06,1.3361526123905866e-06,1.163934355716307e-06,1.8897800896388862e-06,2.183951244255019e-06,1.6424686283061936e-06,1.2903613848985146e-06,2.185067246661789e-06
296,1.8062497108323404e-06,1.8868303984489042e-06,2.0426944381920053e-06,1.663209090810221e-06,2.1639696851417565e-06,2.0408584349170847e-06,1.478672088059477e-06,2.7126878269516364e-06,2.4516203776676187e-06,1.3588278462514555e-06,1.1550427946472454e-06,1.9476256973661462e-06,2.2499144836836576e-06,1.6304709404210841e-06,1.2695301730918863e-06,2.1982262634064234e-06
297,1.8402488046065029e-06,1.8318511715023303e-06,2.0490337269394607e-06,1.582020311606896e-06,2.20658581801586e-06,2.114511947117051e-06,1.505440734912072e-06,2.702152141604097e-06,2.469592886886469e-06,1.380836641010443e-06,1.1466423175902475e-06,2.0056011633254694e-06,2.3077743473713633e-06,1.6267149718382314e-06,1.2506207116617962e-06,2.2041595729070638e-06
298,1.875319810733077e-06,1.781115838377445e-06,2.052476250456661e-06,1.5070742923714217e-06,2.245554072477074e-06,2.1871838754969945e-06,1.5355810065262866e-06,2.6919778138972693e-06,2.4852409145343087e-06,1.4016573520758494e-06,1.1384206591717298e-06,2.0624099096553818e-06,2.3567457389232603e-06,1.6315816743877016e-06,1.2340004671739974e-06,2.2034940364216984e-06
299,1.9113845679493965e-06,1.7354602920368539e-06,2.0539342992683853e-06,1.4388705893793181e-06,2.2794621962950182e-06,2.2577998577022403e-06,1.5689942631763582e-06,2.6814205939637718e-06,2.498392428072737e-06,1.4213145415680815e-06,1.1298861804598648e-06,2.116672723167754e-06,2.396525459849876e-06,1.6452555809648495e-06,1.2200818456986223e-06,2.1969528250618162e-06
300,1.948295284283457e-06,1.6955834932526795e-06,2.05416694372795e-06,1.3778365421638153e-06,2.307015486381051e-06,2.32569148585654e-06,1.6053829889616757e-06,2.6698089955590904e-06,2.508869818026222e-06,1.4401926749037336e-06,1.1203996437113505e-06,2.166988903930883e-06,2.427223250687042e-06,1.6676913076450334e-06,1.2091907118100156e-06,2.1852232970256346e-06
301,1.9857873009921443e-06,1.6620105411256173e-06,2.053658822973937e-06,1.324291376574489e-06,2.327413205981225e-06,2.3905232976429293e-06,1.6442783890344928e-06,2.656611958981064e-06,2.5164872313346038e-06,1.4587774815541176e-06,1.1092609734214564e-06,2.2119086169763176e-06,2.449353572474111e-06,1.698648480411316e-06,1.201525971008103e-06,2.1691026252312957e-06
302,2.023440793115108e-06,1.6349910756658049e-06,2.052552725492086e-06,1.278445936937368e-06,2.3405774854394856e-06,2.451991390059439e-06,1.6850343669506733e-06,2.6414935595540096e-06,2.521094224078406e-06,1.4774527909051048e-06,1.0958978357648272e-06,2.2500540345553108e-06,2.4636876724134922e-06,1.7377778150971036e-06,1.197144094213694e-06,2.149711671431348e-06
303,2.0607125266449685e-06,1.6144892332838015e-06,2.05071041840486e-06,1.2404650683480574e-06,2.3470453461599915e-06,2.509590105247767e-06,1.7268129915287727e-06,2.6244527113657777e-06,2.5227315706824366e-06,1.4964220201358031e-06,1.08007460737642e-06,2.2804345228270365e-06,2.4709672259006753e-06,1.7847006254999522e-06,1.1959421868316633e-06,2.128443045582657e-06
304,2.097008672674989e-06,1.600277378959965e-06,2.0478522290535136e-06,1.210476735245943e-06,2.3475958277301818e-06,2.562630436712253e-06,1.7685966517972091e-06,2.6059701977608256e-06,2.5217464385514236e-06,1.5156788462934311e-06,1.0619883202222764e-06,2.3027379311236038e-06,2.4716938337495987e-06,1.839062275958065e-06,1.1976639204860614e-06,2.106707321870937e-06
305,2.1317149324289576e-06,1.5920168402963468e-06,2.0435817148926433e-06,1.1884897112112439e-06,2.342974818974714e-06,2.6103505401615522e-06,1.809319627384373e-06,2.586938623846692e-06,2.5187116034460395e-06,1.5349739177859962e-06,1.0421943357947495e-06,2.317448618619727e-06,2.4661322222754866e-06,1.900568785784011e-06,1.2019335281618658e-06,2.0857960468651385e-06
306,2.1642462324450383e-06,1.5892693946256527e-06,2.03735711992255e-06,1.1743218443381933e-06,2.3339091772536363e-06,2.651952303200717e-06,1.848135483015358e-06,2.568318548165384e-06,2.5142531056902982e-06,1.5538646930411323e-06,1.0214126802574096e-06,2.32578261565577e-06,2.4544563215978166e-06,1.969014393002201e-06,1.2083579876270323e-06,2.0669476115973387e-06
307,2.194127906427926e-06,1.5914924993721375e-06,2.028623092562674e-06,1.1675921707959965e-06,2.32119574336559e-06,2.6866213994883755e-06,1.884662188563736e-06,2.5507828753059826e-06,2.508923870072407e-06,1.5719203432652655e-06,1.0003370252864677e-06,2.329453528618244e-06,2.4369075929372444e-06,2.044265224140736e-06,1.2167102296720898e-06,2.0513965007857454e-06
308,2.2209850586162717e-06,1.5980453019537512e-06,2.017044692534287e-06,1.167729756006888e-06,2.3057015231892533e-06,2.713626511053688e-06,1.9190458998104398e-06,2.534603484972472e-06,2.50309773069591e-06,1.5889744689882967e-06,9.795374134773092e-07,2.3303174120515026e-06,2.4139324950308287e-06,2.1261541386169076e-06,1.2270284852700309e-06,2.0402727142089483e-06
309,2.244501995950405e-06,1.6081594463487732e-06,2.0026187529315155e-06,1.1739734637698457e-06,2.288378115379875e-06,2.7324796505323866e-06,1.951830044111071e-06,2.5197967862934757e-06,2.496890246428738e-06,1.60519624772359e-06,9.594624871811916e-07,2.330040240026379e-06,2.386288997616777e-06,2.214320417236662e-06,1.2394927667142175e-06,2.0344879024047286e-06
310,2.264503594539763e-06,1.6209037966039097e-06,1.9855639647984584e-06,1.1853710495396424e-06,2.270366796473333e-06,2.7430628766044627e-06,1.9837389365452766e-06,2.5064054586732277e-06,2.4901929070695224e-06,1.6209159610814418e-06,9.40479275759105e-07,2.329937013270884e-06,2.355054540387235e-06,2.3081151211864426e-06,1.2542157320570753e-06,2.0347090248900164e-06
311,2.281061211564102e-06,1.6352625200021189e-06,1.9660798775334693e-06,1.2007740753536882e-06,2.253092247707412e-06,2.745602568956594e-06,2.015512351564888e-06,2.4946929439252564e-06,2.482736426124338e-06,1.6364351541359394e-06,9.228748587116939e-07,2.330971438019496e-06,2.321499205948818e-06,2.406624341839728e-06,1.2711317924873939e-06,2.0413304888778123e-06
312,2.2944297222397667e-06,1.6503099128839166e-06,1.94419648286522e-06,1.2188372474083482e-06,2.238185395467671e-06,2.7404636663607877e-06,2.047847094788815e-06,2.4850620780158006e-06,2.474022716370732e-06,1.6519748924680113e-06,9.068356890101432e-07,2.3337859373702658e-06,2.286910361037706e-06,2.508690250346361e-06,1.289971270878389e-06,2.0544029625230747e-06
313,2.3048610328846516e-06,1.6652831461331968e-06,1.919824123270239e-06,1.2380395960254666e-06,2.227244595758529e-06,2.728010648291928e-06,2.0813832660862218e-06,2.477768785466579e-06,2.4632007560078712e-06,1.6676354478371429e-06,8.924621839828119e-07,2.3386902306256474e-06,2.252499300216189e-06,2.6128501132179274e-06,1.3102642619120618e-06,2.0736043929630157e-06
314,2.312512595886589e-06,1.6794863352590907e-06,1.8928785204301461e-06,1.2567428832627375e-06,2.2216291520747552e-06,2.7087860228705382e-06,2.1166378899615106e-06,2.4726754844965363e-06,2.449081982081073e-06,1.6833305868672942e-06,8.797793139960467e-07,2.3456186891690046e-06,2.2193825235626824e-06,2.7173047110047176e-06,1.3313974423119543e-06,2.098301122596123e-06
315,2.3175075130271134e-06,1.692236429281941e-06,1.8633762716305428e-06,1.273314357316372e-06,2.2223859633653525e-06,2.6837654209718284e-06,2.153868289721382e-06,2.4691628523352264e-06,2.4303855424317716e-06,1.6988642859709321e-06,8.687115561365975e-07,2.354101728259381e-06,2.188522501556979e-06,2.8199793973820244e-06,1.352715016525747e-06,2.1276326154269787e-06
316,2.3199655172238555e-06,1.7029889323296139e-06,1.8315437975616003e-06,1.2863269796043133e-06,2.2302748280007473e-06,2.6542787364714116e-06,2.19293237724428e-06,2.466150312564639e-06,2.4061583874000624e-06,1.7141277064441338e-06,8.590803303141143e-07,2.363334693333628e-06,2.160649697971857e-06,2.918557990332541e-06,1.3735982476162736e-06,2.1605772100603577e-06
317,2.3199144895130914e-06,1.7115128056879238e-06,1.797952105620198e-06,1.2947949486992024e-06,2.2458545578412614e-06,2.6216901169095236e-06,2.2332051529309867e-06,2.4622240698731964e-06,2.376160925663599e-06,1.729167813851258e-06,8.506257360491385e-07,2.372331696384659e-06,2.1362781983097397e-06,3.0104460869713622e-06,1.3934988858813684e-06,2.19607891206198e-06
318,2.3172520431559274e-06,1.7179968972784354e-06,1.7635746226944815e-06,1.298324917386039e-06,2.2695173450305776e-06,2.587212012909754e-06,2.273551565965886e-06,2.4559107295926816e-06,2.340990437131446e-06,1.7441273115473176e-06,8.430085674370049e-07,2.379999275860908e-06,2.1157399930538646e-06,3.092811172441349e-06,1.4119646834297986e-06,2.2331849632066047e-06
319,2.3118495163868904e-06,1.7230936093833752e-06,1.7296716349081156e-06,1.2970476973320358e-06,2.3013850701445893e-06,2.5518813453933304e-06,2.3123551382726775e-06,2.446030013379359e-06,2.3018721703810085e-06,1.7592527817744983e-06,8.358126062589057e-07,2.38512718532961e-06,2.0991060026604908e-06,3.1628696015331234e-06,1.4286755439847991e-06,2.2709786141135487e-06
320,2.303642319146631e-06,1.7278571954191677e-06,1.6975534460843208e-06,1.291371361345948e-06,2.3411988053428878e-06,2.516519706843043e-06,2.3476696955164617e-06,2.43201279432673e-06,2.260266742637727e-06,1.7749003976068174e-06,8.285592902557024e-07,2.3865110794741047e-06,2.0860741295271953e-06,3.218431928931598e-06,1.443453734619014e-06,2.3083819478923844e-06
321,2.292620053873525e-06,1.733526234823823e-06,1.668409371072937e-06,1.2817986173133597e-06,2.388371941033574e-06,2.481747623684616e-06,2.377533354399775e-06,2.4140766467462044e-06,2.2175520948909823e-06,1.791399864585471e-06,8.2072380006663e-07,2.3832019508780153e-06,2.075965055350849e-06,3.258306762901147e-06,1.456211584080945e-06,2.3441690019053224e-06
322,2.2787982334910186e-06,1.7412601473859196e-06,1.6433037609494552e-06,1.268896760925939e-06,2.4421865592102117e-06,2.448152770394809e-06,2.400327446769816e-06,2.3931609755629447e-06,2.174879121073329e-06,1.8089032810028923e-06,8.117990455230554e-07,2.374612696165388e-06,2.067826684643749e-06,3.2821127744250062e-06,1.4668541440830215e-06,2.3772556843156564e-06
323,2.2621991460120632e-06,1.7519995414396034e-06,1.6232182766728768e-06,1.2532465011507417e-06,2.501987636246308e-06,2.4164409602992273e-06,2.4150247749297127e-06,2.370674547254332e-06,2.133153092462898e-06,1.8273964687814582e-06,8.014337837136603e-07,2.3604103437518563e-06,2.0605665689225778e-06,3.2898519252631177e-06,1.4752498325589511e-06,2.4069814928039022e-06
324,2.2428179735584008e-06,1.7664441062724094e-06,1.609027985328251e-06,1.235318810490068e-06,2.5672554438447894e-06,2.387390319848228e-06,2.4212786455994934e-06,2.348272850627893e-06,2.0931057001541137e-06,1.8468482528325677e-06,7.895473247920042e-07,2.3404275816374517e-06,2.053134681887695e-06,3.2818867176999887e-06,1.4813591990569327e-06,2.433128972882895e-06
325,2.2206284225194107e-06,1.7850277702718482e-06,1.6014711385298595e-06,1.2154128880789812e-06,2.6375024168804095e-06,2.3616794573503715e-06,2.4193591165849703e-06,2.3277606621397064e-06,2.055356486016351e-06,1.867287110759496e-06,7.762967547042894e-07,2.3147368915110816e-06,2.0448288888233555e-06,3.2591846936411357e-06,1.485417532413987e-06,2.455691894975526e-06
326,2.195670891085449e-06,1.8078729379188915e-06,1.6011403672177535e-06,1.193708799658394e-06,2.7120794255896345e-06,2.3398154654139087e-06,2.4099871395000013e-06,2.3109838414400824e-06,2.020376620478737e-06,1.8886695611297284e-06,7.619225430133886e-07,2.2837713910875766e-06,2.035502584471018e-06,3.223368696457738e-06,1.4879830852230665e-06,2.4745987782783765e-06
327,2.1681631544160205e-06,1.8347621805661856e-06,1.6084347131799854e-06,1.170402658931804e-06,2.79013041201873e-06,2.322248111811533e-06,2.3941811809717825e-06,2.2996347280304857e-06,1.988437421739151e-06,1.9106735367918067e-06,7.466264890965918e-07,2.248357610635401e-06,2.025425841650946e-06,3.1765237572045314e-06,1.4897866437329307e-06,2.4896037226176073e-06
