,EMG1,EMG2,EMG3,EMG4,EMG5,EMG6,EMG7,EMG8,EMG9,EMG10,EMG11,EMG12,EMG13,EMG14,EMG15,EMG16
0,-2.541435932143468e-07,3.1840358311045815e-07,3.296441402404848e-07,1.191895172477885e-06,7.878941440373088e-07,1.336045473321382e-07,3.133464378402276e-07,-1.1431430418069506e-07,8.939489538063259e-08,4.4516078601717705e-08,1.793025161852973e-07,9.833353522930055e-08,2.2449007557783728e-07,2.958256772275908e-06,2.3304622985493372e-07,4.620788422549066e-07
1,-3.0078598564873704e-08,4.7449488407855234e-07,4.500339692413532e-07,1.803435658539691e-06,9.289508133359517e-07,2.1718391999160892e-07,4.1675361645367504e-07,7.014705145010887e-08,2.726950019409926e-07,2.0679441250928134e-07,2.37012554750372e-07,2.56882431327783e-07,4.913136120625146e-07,3.869063002519286e-06,3.0931169051914316e-07,5.530059680311981e-07
2,1.8523438836851924e-07,6.281185540161376e-07,5.681198202605464e-07,2.391183992078222e-06,1.0678562917372805e-06,3.0109712196426834e-07,5.211001643242752e-07,2.4834621256720857e-07,4.485662979355147e-07,3.628318624129664e-07,2.9509663647326295e-07,4.1086473839332313e-07,7.493793942476268e-07,4.749836341846867e-06,3.825143494153928e-07,6.43756944106719e-07
3,3.90934241507189e-07,7.783013613728052e-07,6.826901508857527e-07,2.9482616199201882e-06,1.2005724875082886e-06,3.84013744914016e-07,6.262790931181017e-07,4.185149505369032e-07,6.155873672408173e-07,5.108313935231932e-07,3.5259722342679847e-07,5.592424951973627e-07,9.958572465004338e-07,5.584207183312769e-06,4.520510938237143e-07,7.342395751305604e-07
4,5.862535228380321e-07,9.243935961213748e-07,7.925662151177779e-07,3.468885381093818e-06,1.324212702594051e-06,4.6512214483111833e-07,7.320892162276885e-07,5.791162141081682e-07,7.727023829676788e-07,6.496590407360135e-07,4.0865572710524593e-07,7.010161693635467e-07,1.2279788949778106e-06,6.359183470872827e-06,5.174182563690897e-07,8.244212542293059e-07
5,7.704026179913851e-07,1.0659747894356144e-06,8.966709864245166e-07,3.948598892341427e-06,1.4370313227917207e-06,5.441043877792497e-07,8.381981576593413e-07,7.288328502083548e-07,9.191848493126747e-07,7.788369771151784e-07,4.6257326929629545e-07,8.352338567201018e-07,1.4432368752994694e-06,7.065720502608776e-06,5.781849767447776e-07,9.142517785445196e-07
6,9.425016315450029e-07,1.2026824826407318e-06,9.940510660226474e-07,4.38422436852574e-06,1.5380512264296749e-06,6.209179755152538e-07,9.441297013753586e-07,8.665208174795556e-07,1.054495354655249e-06,8.983275552553901e-07,5.1381864909799e-07,9.610061599889717e-07,1.639731342541038e-06,7.698181011514586e-06,6.339818696977041e-07,1.0035872484948203e-06
7,1.101596988502263e-06,1.3341143235738191e-06,1.0838529092694637e-06,4.773664985135354e-06,1.6266990444357349e-06,6.955617998043736e-07,1.0492503840474951e-06,9.912448757088907e-07,1.1781133126453847e-06,1.0082623051195927e-06,5.619636536156418e-07,1.0774651564556697e-06,1.8163991123294762e-06,8.253130003739011e-06,6.844808311627596e-07,1.0921824440497627e-06
8,1.2468140002795383e-06,1.459806047933166e-06,1.1654008382935113e-06,5.115853489568414e-06,1.7026438766723397e-06,7.679821117009267e-07,1.1527457900586692e-06,1.102422092385572e-06,1.2894804954379209e-06,1.1087645863019788e-06,6.066318230829108e-07,1.1837165056259352e-06,1.972903576162018e-06,8.728220026635912e-06,7.294170947085198e-07,1.1797272433320483e-06
9,1.3776535777863214e-06,1.5792885989841178e-06,1.2383654425561153e-06,5.4109615991376535e-06,1.7657296663564138e-06,8.380911584487233e-07,1.2536319444752556e-06,1.199967402293346e-06,1.3881360313016096e-06,1.1999693498689584e-06,6.474809024375324e-07,1.2788975012137838e-06,2.1093035980411107e-06,9.121650483033882e-06,7.686917740045117e-07,1.2658629616040262e-06
10,1.49426559966796e-06,1.6922094036553898e-06,1.302805467981921e-06,5.660623763759629e-06,1.815856045074179e-06,9.057898426830286e-07,1.3508454284339105e-06,1.2843291354172186e-06,1.4739513048566594e-06,1.2821870189064166e-06,6.841856789947634e-07,1.362332985783277e-06,2.2258941529806364e-06,9.432173518510955e-06,8.024504671144033e-07,1.3502212523239889e-06
11,1.5974725153952233e-06,1.798370272558342e-06,1.3590370019677213e-06,5.867833932477436e-06,1.852902704645597e-06,9.709683386391459e-07,1.443365667974957e-06,1.3563923865868055e-06,1.5472474328035747e-06,1.3560040937886526e-06,7.164715477524133e-07,1.4336785058218136e-06,2.323320618416843e-06,9.659277858466592e-06,8.310368036830862e-07,1.432516607857476e-06
12,1.6885007381870136e-06,1.8976847644385757e-06,1.4075428249903744e-06,6.036441374017501e-06,1.8768871070960536e-06,1.0335305591963756e-06,1.5302460182135993e-06,1.4172877458341672e-06,1.6087395936810614e-06,1.4222588941963364e-06,7.442452897334442e-07,1.4929890471140194e-06,2.4026018851459497e-06,9.803015683589953e-06,8.548867172388461e-07,1.512569883943093e-06
13,1.7685984653797741e-06,1.9902435554069457e-06,1.4489856166172892e-06,6.170433616919841e-06,1.8882850309056882e-06,1.0934665911793211e-06,1.6105173294734454e-06,1.4681687103706144e-06,1.6594364596851384e-06,1.482002539979199e-06,7.677095012776262e-07,1.5407441081560445e-06,2.4648819868217003e-06,9.863389617071752e-06,8.745012101404538e-07,1.5902261934050332e-06
14,1.838759786100031e-06,2.0764340508803935e-06,1.4841659731167548e-06,6.273245812533852e-06,1.88823953672864e-06,1.1509282182129438e-06,1.6831236533071087e-06,1.5100619035549395e-06,1.7005204596400383e-06,1.5364288908671758e-06,7.873112323313893e-07,1.5778448193960178e-06,2.5111962102495133e-06,9.84035742441359e-06,8.90484153898073e-07,1.6653282171889143e-06
15,1.8996620285644438e-06,2.1568731729919473e-06,1.5139077925976213e-06,6.3473444386891475e-06,1.878485901904495e-06,1.20621642250457e-06,1.747095826922633e-06,1.543839280416027e-06,1.7331983963692285e-06,1.586747455708761e-06,8.035716537120179e-07,1.605510538082059e-06,2.5425083197292602e-06,9.7352216285219e-06,9.035225354353841e-07,1.7377745145975847e-06
16,1.951783747033353e-06,2.2321788188749855e-06,1.538972534326601e-06,6.394251413967397e-06,1.8610509597456422e-06,1.2596587432473234e-06,1.8019365438624114e-06,1.5702752604598953e-06,1.7586233370446092e-06,1.6340820282499812e-06,8.169639399998893e-07,1.6250522472668937e-06,2.559908236920298e-06,9.552224866931842e-06,9.143126538021919e-07,1.807484309840008e-06
17,1.9955342962315243e-06,2.302823087023849e-06,1.5599994379833503e-06,6.414891515231802e-06,1.8379812445767424e-06,1.311486673108708e-06,1.847900460405155e-06,1.5901855517409523e-06,1.777896235520564e-06,1.6793865351218045e-06,8.278952989669985e-07,1.6376603897105088e-06,2.5646963174337286e-06,9.298806226759405e-06,9.234976383044639e-07,1.8742296934339166e-06
18,2.0312451775970197e-06,2.3691398289180825e-06,1.57747407525955e-06,6.4099751883887075e-06,1.8112543633826178e-06,1.3617818794757308e-06,1.8858804005374732e-06,1.6045779293518276e-06,1.7920300745169853e-06,1.723369558380228e-06,8.367378968400785e-07,1.6443201960681487e-06,2.558236548350894e-06,8.984478995552609e-06,9.316205762392847e-07,1.9375005686140176e-06
19,2.059148770570063e-06,2.431338095411862e-06,1.5917604283214314e-06,6.380260307510189e-06,1.7827252933835364e-06,1.4104303016436637e-06,1.9169871391852555e-06,1.6146326677513127e-06,1.8018631837058125e-06,1.7664688184862036e-06,8.438500729074435e-07,1.6457909121952244e-06,2.541724195595419e-06,8.619257361526237e-06,9.391216419806135e-07,1.996535236293053e-06
20,2.079543175102755e-06,2.489445301870154e-06,1.6031658142273064e-06,6.326727571313667e-06,1.754001657781383e-06,1.4570781752752278e-06,1.9421851195273455e-06,1.6215120454491956e-06,1.8080059909910305e-06,1.8088411253966312e-06,8.495681798491879e-07,1.642578075717282e-06,2.516149199576923e-06,8.212622508315122e-06,9.463986485983939e-07,2.050475739251295e-06
21,2.093030776169093e-06,2.5432649909901113e-06,1.611997274298039e-06,6.250720947450176e-06,1.726390374585678e-06,1.501153106893748e-06,1.9621680175811404e-06,1.6261990872605054e-06,1.8108399764239534e-06,1.8503919246805533e-06,8.541915170985573e-07,1.6349681695293027e-06,2.482575878808829e-06,7.773536430779056e-06,9.538547584547266e-07,2.098482066103901e-06
22,2.100600884875069e-06,2.5923395737362724e-06,1.6185599977534016e-06,6.153994986983448e-06,1.700997402241687e-06,1.5419219741269356e-06,1.977359860638934e-06,1.6294626146005025e-06,1.8105434538267472e-06,1.8909346569087631e-06,8.579650196562965e-07,1.6231835828782482e-06,2.4424915394538587e-06,7.310983789835105e-06,9.618541986454882e-07,2.1397773890278173e-06
23,2.10353412077719e-06,2.6358533242074474e-06,1.6231047469137987e-06,6.0386147136788575e-06,1.678848355754034e-06,1.5785403575426605e-06,1.987963677713594e-06,1.6319202412462279e-06,1.8071840057723837e-06,1.9304102025599973e-06,8.610589060938432e-07,1.6075313406571047e-06,2.3978283114730226e-06,6.834055677740209e-06,9.706293891100083e-07,2.1737867843388638e-06
24,2.1032204093971605e-06,2.6726417934522863e-06,1.6257930121055615e-06,5.906799741195405e-06,1.66089001107457e-06,1.6101812757490687e-06,1.99406762327764e-06,1.6341528003890808e-06,1.8008814434192033e-06,1.9689999663816724e-06,8.635917577402215e-07,1.5884026149243714e-06,2.350624359070865e-06,6.351454225034128e-06,9.802390550861893e-07,2.200369856541936e-06
25,2.100941003015406e-06,2.701491096945921e-06,1.6266660649059737e-06,5.760852580599387e-06,1.6478870519574831e-06,1.6363243146742332e-06,1.9957150021456543e-06,1.6367563843568718e-06,1.7918919625773127e-06,2.0070851572810778e-06,8.657037491598676e-07,1.5662451148162728e-06,2.3026891917234753e-06,5.87107357588502e-06,9.906189583971545e-07,2.2198601146041946e-06
26,2.097670316477466e-06,2.7215795709509115e-06,1.6256353315024404e-06,5.6032002342761384e-06,1.64032031915884e-06,1.6570376605722853e-06,1.9928897701180035e-06,1.6402573996903106e-06,1.7805341263221045e-06,2.0450891923558465e-06,8.67598487488533e-07,1.5416678188395506e-06,2.2554970916879152e-06,5.399884552708929e-06,1.0017198201098341e-06,2.232780003857793e-06
27,2.0939995033013474e-06,2.732760426889447e-06,1.6225448640848937e-06,5.436469397231666e-06,1.6383673363332284e-06,1.6729684376809667e-06,1.9855308759819206e-06,1.6449846115270441e-06,1.7671013453481038e-06,2.0832686360922603e-06,8.694986308712151e-07,1.515527196875266e-06,2.210219665908038e-06,4.9438553283863325e-06,1.0136436786794244e-06,2.2395641290935843e-06
28,2.090212888142559e-06,2.7355443742385373e-06,1.6172143757239153e-06,5.263496203918583e-06,1.6419673152908021e-06,1.6850505097564243e-06,1.97364660858278e-06,1.6509898642576941e-06,1.7518489644068365e-06,2.1215576686202e-06,8.715668637228728e-07,1.4888351902020593e-06,2.167800591186465e-06,4.507871012108475e-06,1.0266416665765946e-06,2.240587224812789e-06
29,2.086407581511737e-06,2.7308192982255412e-06,1.60941785573619e-06,5.087220548118221e-06,1.650879526784131e-06,1.6942135579624689e-06,1.957451506365572e-06,1.6580202392122405e-06,1.7349592599357544e-06,2.159497180388709e-06,8.738635088248165e-07,1.4625851330678824e-06,2.129009540203463e-06,4.095826607187115e-06,1.0409848027524988e-06,2.2363203222694817e-06
30,2.0825325823791055e-06,2.7194615661447068e-06,1.5989537320383115e-06,4.910467255467244e-06,1.6646443812694194e-06,1.701224655580365e-06,1.937412440610721e-06,1.6655602897664945e-06,1.7164591111872985e-06,2.196193201606546e-06,8.763518645496418e-07,1.4376154953079911e-06,2.0943800437475857e-06,3.7109022748711208e-06,1.0568377755506793e-06,2.227368814920259e-06
31,2.0783282589948744e-06,2.702108872928651e-06,1.5858649065689576e-06,4.735647463914774e-06,1.6824906803352364e-06,1.706617388538905e-06,1.9141582500362587e-06,1.6729649827680108e-06,1.6962327228299706e-06,2.2303173640638493e-06,8.789428232821627e-07,1.414547279032243e-06,2.064087347078716e-06,3.355830874747084e-06,1.0741990804540745e-06,2.2144166744281824e-06
32,2.0732405299145007e-06,2.6792624535887755e-06,1.5705849282602892e-06,4.564504887550976e-06,1.703305773555324e-06,1.7107126427348512e-06,1.888304009035709e-06,1.6796429911276428e-06,1.6742381972927833e-06,2.260270027741169e-06,8.815522454082947e-07,1.3937955356071442e-06,2.03794377604928e-06,3.0329688051867227e-06,1.0929255868929722e-06,2.1981613424687994e-06
33,2.0664541097037043e-06,2.651534453323541e-06,1.5538340985386556e-06,4.398080615901084e-06,1.7257124378688485e-06,1.7137169968446577e-06,1.8603410739976892e-06,1.685179149299576e-06,1.6508021887525822e-06,2.2845837700453636e-06,8.841198295803412e-07,1.3756465508776302e-06,2.0155240586021484e-06,2.7441942927262943e-06,1.1128404928103267e-06,2.179242236284112e-06
34,2.057145307812653e-06,2.6197019788415762e-06,1.5364157585318063e-06,4.23686330075404e-06,1.7482428319926007e-06,1.7157843713272824e-06,1.8306712695065828e-06,1.6892851095706278e-06,1.626720044836466e-06,2.302422549812611e-06,8.865974458308802e-07,1.360366683531435e-06,1.9962547378266464e-06,2.4908407897771828e-06,1.1338251586146177e-06,2.158175725807617e-06
35,2.044841766969143e-06,2.5845023820656484e-06,1.5191124396244758e-06,4.080906344916011e-06,1.7695983327875389e-06,1.7169617927152873e-06,1.79966009833484e-06,1.6916321810493015e-06,1.6030649152874712e-06,2.3138930283141964e-06,8.889458975213373e-07,1.3482370331837253e-06,1.979410533418216e-06,2.2737832727380745e-06,1.1558051892337143e-06,2.1353360830388634e-06
36,2.0296530435575944e-06,2.546453496608681e-06,1.5026407531521637e-06,3.929861204036414e-06,1.7888944510053183e-06,1.71712438521942e-06,1.767654365001697e-06,1.6917898848809026e-06,1.5808892643469146e-06,2.320055905431599e-06,8.911291925958e-07,1.3395025100736307e-06,1.9641753681476834e-06,2.093607672080129e-06,1.178692136982879e-06,2.1109565789516983e-06
37,2.0122347620645453e-06,2.5058604574817043e-06,1.4876114433843756e-06,3.7830715523102537e-06,1.8056900018030484e-06,1.7160312762162762e-06,1.7350235401070842e-06,1.689408202119816e-06,1.5610303434280399e-06,2.322775437593283e-06,8.931409425205675e-07,1.3343812888761628e-06,1.9497941858079546e-06,1.9508152623659586e-06,1.2023440052321156e-06,2.085087437877938e-06
38,1.9935162666256566e-06,2.462843127985172e-06,1.4745499438784674e-06,3.6397830566486322e-06,1.819769728515939e-06,1.7134356916041373e-06,1.7021680110649338e-06,1.6845145143092008e-06,1.54405317061293e-06,2.3245313566731538e-06,8.950898342314763e-07,1.3331516311761841e-06,1.9356093421526637e-06,1.8461025747929431e-06,1.2265152236717667e-06,2.0575688278035104e-06
39,1.9743596340152517e-06,2.4173916499785217e-06,1.4639245778271063e-06,3.499368409857892e-06,1.830944511018236e-06,1.7091496403133532e-06,1.669514352711392e-06,1.677629220276219e-06,1.5302535600691133e-06,2.3281503752187332e-06,8.972251428347767e-07,1.3361541096058982e-06,1.9210230485779764e-06,1.7806301783612506e-06,1.2508072813823886e-06,2.028152828405182e-06
40,1.9553357013227813e-06,2.369609200525981e-06,1.4560969453579408e-06,3.3614859557926144e-06,1.839030961750455e-06,1.7030929088640074e-06,1.6375612097631329e-06,1.6695721836822508e-06,1.5196550365549912e-06,2.336467026578983e-06,8.998604700005112e-07,1.3436757068291486e-06,1.905604106546145e-06,1.7560463647080688e-06,1.2746854941003803e-06,1.996743976365669e-06
41,1.936656341930881e-06,2.3199436993335453e-06,1.4512607684430073e-06,3.2262008352633704e-06,1.8438914671954832e-06,1.6953622742825923e-06,1.6068257233997598e-06,1.6612210794103987e-06,1.5120093746302478e-06,2.3520904968992713e-06,9.033033196392983e-07,1.3558791453640768e-06,1.8891974726592155e-06,1.7742419618122404e-06,1.29757971603876e-06,1.963572600405329e-06
42,1.91821663202555e-06,2.2691366652712567e-06,1.4494592414691077e-06,3.0941061385274446e-06,1.8455058178101544e-06,1.6862912439468316e-06,1.5776662364497447e-06,1.6534621985812156e-06,1.5068930466290637e-06,2.377352546603602e-06,9.078113291727218e-07,1.37286885670015e-06,1.871839599364203e-06,1.8371238534022244e-06,1.3189829574308724e-06,1.9291795689637076e-06
43,1.8997607167622653e-06,2.217983362074807e-06,1.4506296173798192e-06,2.9663765578620103e-06,1.8441315203092566e-06,1.6764597409830646e-06,1.550212960370627e-06,1.6471778202779946e-06,1.5038988755071571e-06,2.4143419263387477e-06,9.135579298169885e-07,1.3947993701419856e-06,1.8536602248411732e-06,1.9465471445986637e-06,1.3384468409015017e-06,1.8942381422903592e-06
44,1.8811405086730736e-06,2.1671174812722997e-06,1.4545673648123889e-06,2.8446486183965772e-06,1.8403849526621363e-06,1.6666348308030459e-06,1.5244721253609813e-06,1.6431272551245823e-06,1.5027544005961448e-06,2.4649989637573244e-06,9.206274623178893e-07,1.4218935729321368e-06,1.8349141301543275e-06,2.104237370882001e-06,1.3555429007871991e-06,1.8593391712986414e-06
45,1.8624910256494775e-06,2.1169033496558163e-06,1.4608228096680823e-06,2.7307358926760917e-06,1.8350601726503675e-06,1.6576393442184375e-06,1.5004185803173478e-06,1.641856170739167e-06,1.5033060475574124e-06,2.5312679328348115e-06,9.290154843077846e-07,1.454381886974028e-06,1.8160186650061648e-06,2.3116308316857195e-06,1.369932198846084e-06,1.824857164990602e-06
46,1.8441852077697396e-06,2.0674819921944457e-06,1.4686359516503863e-06,2.626308588558907e-06,1.8288316474990713e-06,1.6501784805820035e-06,1.4779599841918305e-06,1.643715438478758e-06,1.5054798318398294e-06,2.6151884704334414e-06,9.386390501929482e-07,1.4925532845657624e-06,1.7975330087760076e-06,2.5697729366391757e-06,1.3814699071942029e-06,1.7909105333337268e-06
47,1.826685502278955e-06,2.0189538445734467e-06,1.4769862631890597e-06,2.53267391553509e-06,1.8221231315131186e-06,1.6447016227793659e-06,1.4569015444027132e-06,1.648882403016866e-06,1.5092609692014332e-06,2.718890349575049e-06,9.493905898137372e-07,1.5369576739768797e-06,1.7801148872776456e-06,2.8793223454551173e-06,1.3901737945296163e-06,1.7573701346773775e-06
48,1.8105038674913422e-06,1.9715356569936995e-06,1.4847897804782347e-06,2.450707853240462e-06,1.8151615242395818e-06,1.6413638047473326e-06,1.4370400833892525e-06,1.6573254575560468e-06,1.5146678129998078e-06,2.8445796336528222e-06,9.612125029694695e-07,1.5884747930634615e-06,1.7644333031866496e-06,3.2405433912186418e-06,1.3961253962892817e-06,1.7239031095883758e-06
49,1.7962308256814191e-06,1.9255725964544357e-06,1.4911885771792773e-06,2.3808716068241792e-06,1.8080394910827345e-06,1.6400770477883408e-06,1.4182652833336702e-06,1.6688202354205769e-06,1.5217122196093628e-06,2.9944814954650073e-06,9.741610224268195e-07,1.6481026148727424e-06,1.751019580148154e-06,3.6532602736404853e-06,1.3994621396262298e-06,1.6901055507204428e-06
50,1.7844725332790652e-06,1.8814585241547853e-06,1.4957460966569402e-06,2.323247470244998e-06,1.8008122535934392e-06,1.6405745459840908e-06,1.4005335350779471e-06,1.6830828217300667e-06,1.5303628255741237e-06,3.170689058257891e-06,9.884105273225037e-07,1.7166716696664714e-06,1.7401413254536437e-06,4.11684394077269e-06,1.4003870411067277e-06,1.6557311722180893e-06
51,1.7757211477114657e-06,1.8395444096359485e-06,1.498391922800463e-06,2.277613445452278e-06,1.7937435729988695e-06,1.6424272149096147e-06,1.383805704178324e-06,1.699873089048562e-06,1.5405913115673442e-06,3.3750500857771436e-06,1.0041547155394423e-06,1.7946787954987457e-06,1.731820837389197e-06,4.630169159341896e-06,1.3990661483378837e-06,1.6208573508041346e-06
52,1.7702480824579883e-06,1.8000493389854828e-06,1.4992112902021991e-06,2.243532828086489e-06,1.7875128283369575e-06,1.6450821472983852e-06,1.3680710876150547e-06,1.718948020336212e-06,1.5524809414809878e-06,3.6092196807776494e-06,1.0214700319315005e-06,1.8822330555865196e-06,1.7260077668191813e-06,5.191457517352788e-06,1.3955131197946728e-06,1.585871223277525e-06
53,1.7680724229612507e-06,1.7630160778230772e-06,1.4983139009837855e-06,2.220388553580561e-06,1.7831289771166573e-06,1.6480061806186416e-06,1.3534252116265862e-06,1.7399982025697628e-06,1.566230008404253e-06,3.874819940297886e-06,1.0402366411603578e-06,1.9790361977575612e-06,1.7227948320757264e-06,5.798139235618377e-06,1.3896400915888923e-06,1.5513753719822073e-06
54,1.769064777485454e-06,1.7283853783498442e-06,1.4958100856349035e-06,2.2073759349729524e-06,1.7816257059740428e-06,1.6508329609846348e-06,1.3401080976137246e-06,1.7626945600163584e-06,1.5820645121286157e-06,4.173504754827866e-06,1.0601397845471673e-06,2.0843632730236995e-06,1.722518353897221e-06,6.446923556438772e-06,1.3814476234201814e-06,1.5181326635013392e-06
55,1.773085662316578e-06,1.6961317404333805e-06,1.4917497417226804e-06,2.2035194447893767e-06,1.7838002122103544e-06,1.6533766765229683e-06,1.328456420189319e-06,1.7867697855475517e-06,1.6002103620627893e-06,4.506773370679122e-06,1.080747805495873e-06,2.1970521130747836e-06,1.7256481164518824e-06,7.134007901123039e-06,1.3711382323459743e-06,1.4870490704197788e-06
56,1.7799705554807921e-06,1.6662893015997848e-06,1.4860339173115514e-06,2.2077312736958692e-06,1.7901155496196916e-06,1.655521863509737e-06,1.3188014488414607e-06,1.8120859700329165e-06,1.620893755506612e-06,4.875616473000706e-06,1.101646871525686e-06,2.3155278795963956e-06,1.7325962716573883e-06,7.85518429326886e-06,1.3590196288962257e-06,1.4591366876085971e-06
57,1.7894245947248076e-06,1.63883200447135e-06,1.4784491766903255e-06,2.2188589924198035e-06,1.8006991265435514e-06,1.6570939396886271e-06,1.3114146623577068e-06,1.8387235700430973e-06,1.6442943467024488e-06,5.280198420651066e-06,1.122564557349285e-06,2.437907212842581e-06,1.7436406376297987e-06,8.605727929868855e-06,1.3453355731556635e-06,1.4354088931933999e-06
58,1.8009679227504795e-06,1.613581138191444e-06,1.4688330332802458e-06,2.2356595139320675e-06,1.8153671119139698e-06,1.6578379968084572e-06,1.3065218548363197e-06,1.86703276749387e-06,1.6705259759435418e-06,5.719639557242341e-06,1.1434116788590457e-06,2.5622004386299057e-06,1.7589267540638905e-06,9.380092315892442e-06,1.3302408989076186e-06,1.4167304737580378e-06
59,1.8138786188886511e-06,1.5902526343869547e-06,1.4571940958104795e-06,2.256709273591639e-06,1.8336518773400663e-06,1.6575130375941874e-06,1.3042997134848233e-06,1.897551861322309e-06,1.6997520539737485e-06,6.191866302624426e-06,1.164224001650751e-06,2.686540351052817e-06,1.7784372670026804e-06,1.0171460475579115e-05,1.3138826389016775e-06,1.4037112039037984e-06
60,1.8271277278012997e-06,1.5685102037852181e-06,1.4436927835151413e-06,2.280308211125639e-06,1.8548325732570117e-06,1.65595648100951e-06,1.3048644553290781e-06,1.930816906975283e-06,1.7323883617154802e-06,6.69353924266957e-06,1.1850373649443957e-06,2.809333225061131e-06,1.8019426007361917e-06,1.0971234274131258e-05,1.2964373678959035e-06,1.3967060453402823e-06
61,1.8394405270676333e-06,1.5478953914792207e-06,1.4285846687000245e-06,2.3044384738534395e-06,1.8779742101548403e-06,1.6530626378552676e-06,1.3083006993108905e-06,1.967173839861001e-06,1.7691658590975154e-06,7.220077675291447e-06,1.2057536410623016e-06,2.929327815838883e-06,1.8289615984215315e-06,1.1768640237891996e-05,1.2781422460220254e-06,1.395911695960616e-06
62,1.849521715716369e-06,1.5277403157640926e-06,1.4122217655021132e-06,2.326894167212181e-06,1.9019577901296e-06,1.6487547716187302e-06,1.3146531284292855e-06,2.0067030154660234e-06,1.8109390902994935e-06,7.765711322117352e-06,1.2260605317270193e-06,3.045681216198781e-06,1.8587559934587058e-06,1.25507000334004e-05,1.2593386027715445e-06,1.4014664793243006e-06
63,1.8563311095823381e-06,1.5072104934324228e-06,1.3950837022336366e-06,2.345641577300428e-06,1.925598936909991e-06,1.6429563867553852e-06,1.3238332629753905e-06,2.049311204485552e-06,1.858421413119254e-06,8.323413988288095e-06,1.2454761013346538e-06,3.1580479612404827e-06,1.8904242340983032e-06,1.3302780084345445e-05,1.240420172375371e-06,1.4134542792199276e-06
64,1.859221049334344e-06,1.4854611180836142e-06,1.3777732307145102e-06,2.3592295682961226e-06,1.9479536706091006e-06,1.6355037024133198e-06,1.3355480860651613e-06,2.0949129914201824e-06,1.912035951139479e-06,8.884679626923637e-06,1.2635377350860423e-06,3.2666518928009e-06,1.9230846683472824e-06,1.4009801147619935e-05,1.221746248722643e-06,1.4318622104560776e-06
65,1.857821673134649e-06,1.461792514329215e-06,1.3609490597719817e-06,2.367007314978705e-06,1.9685847672144793e-06,1.6260588814476849e-06,1.349357744699684e-06,2.143540613208311e-06,1.971878422603105e-06,9.43934859110197e-06,1.2800089752226037e-06,3.3723073335451594e-06,1.956012947153455e-06,1.4657896487081092e-05,1.2036284641995209e-06,1.4565855595501612e-06
66,1.8518325044141785e-06,1.43571834439446e-06,1.3452224908731536e-06,2.3690953240829778e-06,1.987497096306701e-06,1.6141388363925074e-06,1.364823921250211e-06,2.1953232281371244e-06,2.037719026819432e-06,9.975836469898253e-06,1.294929003113373e-06,3.4763729101336314e-06,1.988622056605232e-06,1.5235997521307767e-05,1.186299501064515e-06,1.4874304898391317e-06
67,1.840944476020377e-06,1.4069751075510306e-06,1.3310809245437809e-06,2.366186661814812e-06,2.0048118708804996e-06,1.5992382353863927e-06,1.3815998677365291e-06,2.2503948575959884e-06,2.1089980489820273e-06,1.048194727049445e-05,1.3085130546231655e-06,3.580611894493725e-06,2.0203441057194196e-06,1.573676138697769e-05,1.1698222551453042e-06,1.5240808077794282e-06
68,1.8248264659030342e-06,1.3755549491471406e-06,1.3188719305227987e-06,2.359258811524769e-06,2.0204910174460915e-06,1.5809302313915554e-06,1.3993625958593893e-06,2.3087679818263556e-06,2.184833274699345e-06,1.0946054438597198e-05,1.3210392180840455e-06,3.6869453648052035e-06,2.050602160358274e-06,1.6156388928682516e-05,1.1540840500625011e-06,1.5660763848759276e-06
69,1.803049542340438e-06,1.341715754375646e-06,1.3088097384691451e-06,2.349287503905764e-06,2.034316324789727e-06,1.5588885176697523e-06,1.4176618516464064e-06,2.3702021424324426e-06,2.2640812111798943e-06,1.1358168193131462e-05,1.3327720390439285e-06,3.7971664342815777e-06,2.0789401865746915e-06,1.649320320300351e-05,1.1389638918393394e-06,1.6127806188120103e-06
70,1.7750866094416997e-06,1.3059136808620148e-06,1.3009834011307679e-06,2.33707553187065e-06,2.046082508021331e-06,1.532884403472864e-06,1.43585244429679e-06,2.4341820951786645e-06,2.345404218647815e-06,1.1710492039577063e-05,1.343947998225083e-06,3.91277512486315e-06,2.105108689343922e-06,1.674549264121692e-05,1.1245247712000668e-06,1.6633250230039688e-06
71,1.7405446757360721e-06,1.2687652700305879e-06,1.2954125171682562e-06,2.3232351167974133e-06,2.0558236621626845e-06,1.5028582448653729e-06,1.453181321986302e-06,2.500042399865271e-06,2.4272455099100594e-06,1.1997408380371043e-05,1.3548332449892657e-06,4.0350389471002585e-06,2.1289614433386335e-06,1.6909768628176816e-05,1.1110076305188316e-06,1.7165980643882e-06
72,1.6994964893012783e-06,1.231051844890312e-06,1.2921306886225413e-06,2.3082141372012865e-06,2.0638943943672744e-06,1.4690656638216983e-06,1.468962615309034e-06,2.567043080026048e-06,2.5077198212328828e-06,1.2215068911265443e-05,1.3657456979301307e-06,4.165140224610949e-06,2.15041092521409e-06,1.6980554476530445e-05,1.0986645302344117e-06,1.7713216591457415e-06
73,1.6526047053911286e-06,1.1936218052213904e-06,1.2911985149669638e-06,2.2922558415499847e-06,2.0708478619525517e-06,1.432161862160453e-06,1.4827480920552174e-06,2.6342691803248095e-06,2.5845765441537338e-06,1.2360597837475222e-05,1.3769971970309104e-06,4.304116444997983e-06,2.1696382071340397e-06,1.6951960945749576e-05,1.087666357342084e-06,1.8262301003919839e-06
74,1.6009352688557515e-06,1.1572127729607826e-06,1.2926360856834299e-06,2.2753980669562907e-06,2.077241771622893e-06,1.3931182456721184e-06,1.49444274716599e-06,2.7005672961790238e-06,2.6554020961249763e-06,1.2430999174870346e-05,1.388873730521162e-06,4.452527105809314e-06,2.187267906066766e-06,1.682037612234317e-05,1.0781581508494473e-06,1.8802980040881848e-06
75,1.5457396088877267e-06,1.122344420682939e-06,1.2963434198737183e-06,2.257669818907133e-06,2.083527764895267e-06,1.3530378481792363e-06,1.5042990253578946e-06,2.7647055645209945e-06,2.7180102386913425e-06,1.2422774926040072e-05,1.401666391910739e-06,4.610123481443283e-06,2.2042256647870693e-06,1.6587122322310063e-05,1.0703195049879356e-06,1.932851564311336e-06
76,1.488447374158235e-06,1.0893092981530247e-06,1.3020410258117505e-06,2.239356833593358e-06,2.089997667639965e-06,1.3130221476072573e-06,1.5127662334535617e-06,2.825569609657142e-06,2.7706771108903097e-06,1.2333181375123981e-05,1.4156224311299584e-06,4.775784749871951e-06,2.221407215608929e-06,1.6259887699180193e-05,1.0643134251878586e-06,1.983488219414934e-06
77,1.4306871583276632e-06,1.058207985872904e-06,1.3092366542696736e-06,2.221063130567253e-06,2.0967066486707444e-06,1.2741238407964165e-06,1.520327224270637e-06,2.882172842178715e-06,2.8119582353127374e-06,1.2162247766604954e-05,1.4308458386498729e-06,4.947684229317418e-06,2.2394003130593316e-06,1.585228017468057e-05,1.0601882392535905e-06,2.0319172723685804e-06
78,1.3741439319574887e-06,1.0290164949349517e-06,1.3172362455619646e-06,2.2035196584990613e-06,2.1034646142852625e-06,1.2373026721903825e-06,1.5274075219659293e-06,2.9335372648554067e-06,2.8403688882793516e-06,1.1913941416809082e-05,1.4472845021031921e-06,5.123463531163479e-06,2.2583511085127966e-06,1.538174135268148e-05,1.057833421230045e-06,2.077864111450659e-06
79,1.3203867562379903e-06,1.0016771073572947e-06,1.325256397122374e-06,2.187341389337511e-06,2.109993173597294e-06,1.2033889954670923e-06,1.5343088400248187e-06,2.978598175827569e-06,2.8543999768418212e-06,1.1595926047442803e-05,1.4647687854006225e-06,5.300268371581426e-06,2.2779562219366943e-06,1.4866728592622779e-05,1.0569652643751375e-06,2.121118545406955e-06
80,1.2707972385415085e-06,9.761732789460743e-07,1.3326602280975576e-06,2.1729452986575315e-06,2.1161196168109053e-06,1.1731081495139504e-06,1.54121907173824e-06,3.0162292272534986e-06,2.8528628919880406e-06,1.1218339849694398e-05,1.4829975187436804e-06,5.474691171589332e-06,2.2975066173160176e-06,1.4324399588483108e-05,1.0571080952756053e-06,2.1616697798036574e-06
81,1.2265709375422849e-06,9.525769148914756e-07,1.3391480535516952e-06,2.16063923572138e-06,2.1218481835038624e-06,1.1471028662614602e-06,1.5483413835517235e-06,3.0454099271489844e-06,2.835251776885998e-06,1.0792329463875047e-05,1.5014864149944165e-06,5.642789445148741e-06,2.3159282559381058e-06,1.3769742801587778e-05,1.057645843337312e-06,2.1997675561617407e-06
82,1.1887417404869253e-06,9.31059085347542e-07,1.3447111109872754e-06,2.150717739897036e-06,2.1273274101247036e-06,1.1258949075046306e-06,1.5559758112022328e-06,3.0654114937779447e-06,2.801941971672929e-06,1.0328864201262377e-05,1.5195514889295511e-06,5.800310175403253e-06,2.3319230302502084e-06,1.3216044037985984e-05,1.0580172966846736e-06,2.235855935014182e-06
83,1.1581926248455474e-06,9.118304062605476e-07,1.349455481002324e-06,2.1434352173217788e-06,2.132774778487615e-06,1.1098286962553648e-06,1.5644323745499202e-06,3.0757891320140025e-06,2.754176979038365e-06,9.837879252983271e-06,1.5363401562475117e-06,5.94310062436114e-06,2.3443124991398746e-06,1.2675741472565146e-05,1.0579613126056139e-06,2.2704499001117174e-06
84,1.135647987937717e-06,8.950370442610726e-07,1.3535467113053077e-06,2.1388939691911554e-06,2.1383537538768637e-06,1.0990420531719807e-06,1.5738750535328073e-06,3.076140615594381e-06,2.6938554807704083e-06,9.327712349532935e-06,1.5508684512863e-06,6.067586562925692e-06,2.352382706393291e-06,1.2160842441440145e-05,1.0576036401732194e-06,2.3040101710905157e-06
85,1.1216708591098854e-06,8.806946393093331e-07,1.3572949093792302e-06,2.137000702338735e-06,2.144041241497644e-06,1.0934675259272326e-06,1.5842073062986372e-06,3.065892131318025e-06,2.6231769480865748e-06,8.805017138349867e-06,1.5621019092406678e-06,6.171209839501199e-06,2.355899558747281e-06,1.168263542485217e-05,1.0573119854269575e-06,2.3368262942489147e-06
86,1.1166764379892161e-06,8.686852427453319e-07,1.3612232703911585e-06,2.137568447702428e-06,2.1495792883410336e-06,1.0928608926467204e-06,1.5950191238257275e-06,3.044372262297222e-06,2.544273297077713e-06,8.275186556974268e-06,1.5691563533002125e-06,6.252767972898832e-06,2.3547773087384566e-06,1.1250947603326357e-05,1.0574712481366122e-06,2.368896991533776e-06
87,1.120943562236393e-06,8.587825797322702e-07,1.366039066334791e-06,2.140486690161176e-06,2.1544924426382908e-06,1.0968688780656417e-06,1.605632682863086e-06,3.011087633082517e-06,2.4589777639426464e-06,7.742990639241567e-06,1.571495267475428e-06,6.31260796663111e-06,2.348757171188746e-06,1.0873543904695072e-05,1.0583384206058563e-06,2.3998209028046683e-06
88,1.1346030247219053e-06,8.507143100754721e-07,1.3725301881364236e-06,2.1458275212670196e-06,2.158079333649953e-06,1.1051192769163963e-06,1.6152760051094812e-06,2.965955154387581e-06,2.3687440490208246e-06,7.213113025694654e-06,1.5689134187982696e-06,6.352588721661331e-06,2.3373893201254753e-06,1.0556075060423294e-05,1.0599909396863164e-06,2.428767698815062e-06
89,1.1576153468733862e-06,8.442578269947982e-07,1.3814335664274607e-06,2.1537823168936556e-06,2.1594360565513434e-06,1.1172785383023954e-06,1.6232975881017167e-06,2.9093980609133126e-06,2.274678632820432e-06,6.690398164228014e-06,1.561395278665388e-06,6.3757448234551306e-06,2.320241730018268e-06,1.0302351738823969e-05,1.0623576006733623e-06,2.4545724540000957e-06
90,1.1897477532827679e-06,8.392695395980744e-07,1.3933222318808994e-06,2.1644713385766484e-06,2.157603660546144e-06,1.1330659237950795e-06,1.6292622811825226e-06,2.842319005000908e-06,2.1777582549292486e-06,6.179762032398821e-06,1.5491250884054216e-06,6.385705626083826e-06,2.2971425375276067e-06,1.0114446763405717e-05,1.065338595441142e-06,2.4759194274907617e-06
91,1.2305635267353728e-06,8.35623543482308e-07,1.4085809717446928e-06,2.177822179285588e-06,2.1517640454059895e-06,1.1522342413528445e-06,1.6328521110984793e-06,2.766020462520078e-06,2.0791802647351127e-06,5.685895277713847e-06,1.532603358901789e-06,6.386043308252048e-06,2.2683977322723927e-06,9.992507156949471e-06,1.0689388562994278e-06,2.491562666539303e-06
92,1.2794568723475692e-06,8.331875589044354e-07,1.4275135799120486e-06,2.1935642875543625e-06,2.1413794908778203e-06,1.1744973944908298e-06,1.633673215749352e-06,2.6821821102207872e-06,1.9805395527992648e-06,5.212957014900875e-06,1.5125892895790757e-06,6.379743396478165e-06,2.234915847695842e-06,9.934538668130883e-06,1.0733219823748827e-06,2.5005268460142947e-06
93,1.3357027410951918e-06,8.319031932601572e-07,1.4504918644020601e-06,2.2111820263546712e-06,2.126235990982651e-06,1.1994341345513507e-06,1.6311477608371773e-06,2.5928551805435332e-06,1.8836577285165228e-06,4.7643774774968755e-06,1.4899132097647918e-06,6.368890296200184e-06,2.1980707549448557e-06,9.936365789021066e-06,1.0787794833515483e-06,2.50225448878991e-06
94,1.3984703762495799e-06,8.318762235011966e-07,1.477983566789121e-06,2.229804778113902e-06,2.1063866141617047e-06,1.2264533556099034e-06,1.6245786632351682e-06,2.5003018876879836e-06,1.7902742940538871e-06,4.342770547997205e-06,1.4653941239705214e-06,6.354498434835621e-06,2.159305049097998e-06,9.991918419203227e-06,1.0856402502234938e-06,2.4967180667583438e-06
95,1.4668298476564897e-06,8.333581075658085e-07,1.5104343525441048e-06,2.2481931143102154e-06,2.0820600136467868e-06,1.254880347172939e-06,1.6133537207578136e-06,2.406696344359709e-06,1.701855178734946e-06,3.949941353586479e-06,1.4398212799845114e-06,6.336369876516844e-06,2.119785706826885e-06,1.0094123364911059e-05,1.094147814407455e-06,2.484485159859661e-06
96,1.5397510201243578e-06,8.366264562056001e-07,1.5481552094483452e-06,2.2649363234514557e-06,2.053564675095464e-06,1.284127069870379e-06,1.5971629566255165e-06,2.3139041522637366e-06,1.6195442771183251e-06,3.5870083733275946e-06,1.4138909886627578e-06,6.313015497659366e-06,2.080357119510045e-06,1.0236426760714605e-05,1.1043676462861384e-06,2.4666731220431607e-06
97,1.6160334173061379e-06,8.418712262872061e-07,1.5912925313463937e-06,2.2788308559488153e-06,2.0211536456736225e-06,1.3137899173845097e-06,1.5760918861505845e-06,2.223421284810769e-06,1.5442088414725925e-06,3.254556047745611e-06,1.3881701471702402e-06,6.2818201495717725e-06,2.0416476853879446e-06,1.0414390953627413e-05,1.1161735145713827e-06,2.4447835250762814e-06
98,1.6942140302207028e-06,8.491425036981234e-07,1.6398022169725841e-06,2.289238429087755e-06,1.9849580999713695e-06,1.3435799525117704e-06,1.5505894642616524e-06,2.13638191425485e-06,1.4765223650002152e-06,2.9527070083647702e-06,1.3631176564659181e-06,6.239535199537584e-06,2.004063662266364e-06,1.0626619836456e-05,1.1293127769547632e-06,2.4204881109684354e-06
99,1.7725957122086808e-06,8.583510164620229e-07,1.6934271624433608e-06,2.2961977947473e-06,1.945141017156039e-06,1.373202803980168e-06,1.5213959598506602e-06,2.0535917435218357e-06,1.4169961355089666e-06,2.681171833584764e-06,1.3390896838189229e-06,6.1829846510136155e-06,1.967690248416928e-06,1.0874617880761346e-05,1.143489312435064e-06,2.395450097675007e-06
100,1.8494379651796218e-06,8.6933255577348e-07,1.7517223969971715e-06,2.300237252222135e-06,1.902130743760735e-06,1.4023335654138281e-06,1.4894385563465485e-06,1.9756024226299014e-06,1.3659435819020943e-06,2.439314610466085e-06,1.3163132629502058e-06,6.109739450288457e-06,1.93233911963374e-06,1.116167464148359e-05,1.1583864945882952e-06,2.3711955919561867e-06
101,1.923187264895705e-06,8.819582685797995e-07,1.8140723750437543e-06,2.302023381535405e-06,1.8566541929128307e-06,1.4306621803047963e-06,1.4556726491347836e-06,1.9028249537374193e-06,1.323437916488398e-06,2.22617241129992e-06,1.29491763034675e-06,6.018477829484855e-06,1.8978305975847312e-06,1.1491289199278615e-05,1.1736653989276367e-06,2.3489943445221315e-06
102,1.992619709417622e-06,8.961833883253581e-07,1.8797263023659111e-06,2.302091366908187e-06,1.8095474818308554e-06,1.457904530727006e-06,1.4209479729949012e-06,1.8356342541056098e-06,1.2893108529528774e-06,2.0404679332683187e-06,1.2750762790733934e-06,5.908969504505628e-06,1.8643220369520053e-06,1.1865776401337922e-05,1.1890091709215828e-06,2.3297592113434457e-06
103,2.056894723277839e-06,9.119730619500968e-07,1.9479346362721016e-06,2.3007833964213163e-06,1.7615428037214005e-06,1.4837456529573794e-06,1.386019983926719e-06,1.7743736485435101e-06,1.2632197658868029e-06,1.880690777693995e-06,1.2571150428366019e-06,5.781933717607434e-06,1.832454209029064e-06,1.2285417675912764e-05,1.2041644758404731e-06,2.314022869789928e-06
104,2.1155033778648e-06,9.291919343972865e-07,2.0181156621846706e-06,2.2982519569782903e-06,1.7131656997442935e-06,1.5077602158885358e-06,1.3516878035089957e-06,1.7192364746753452e-06,1.244743204423944e-06,1.7452630103627979e-06,1.2414273165683062e-06,5.638950880504794e-06,1.8032490697609051e-06,1.2748387210797977e-05,1.2189132638080159e-06,2.302051209504323e-06
105,2.168069864742759e-06,9.475529727876262e-07,2.0899338262406677e-06,2.294391403801056e-06,1.6647854099109247e-06,1.5293630698023885e-06,1.3188757164174655e-06,1.670143879992414e-06,1.2334013868205567e-06,1.6327568341245507e-06,1.2282928380446018e-06,5.482312953879784e-06,1.7778347917466547e-06,1.3251637363362392e-05,1.2330126867671615e-06,2.294055718802627e-06
106,2.2142024526477688e-06,9.666177948903984e-07,2.1632272590199415e-06,2.2887846181303833e-06,1.6167781906122346e-06,1.5477759258799985e-06,1.288540772636493e-06,1.6267579620100416e-06,1.2286326948141136e-06,1.5420276362910302e-06,1.2177855958152755e-06,5.314643227933762e-06,1.7571730598082082e-06,1.3792370534567379e-05,1.246161310325645e-06,2.290285610484665e-06
107,2.2536221170409523e-06,9.858144856682674e-07,2.2378054491879432e-06,2.2807844839717835e-06,1.5696047334287586e-06,1.5620108970768313e-06,1.2615147204083052e-06,1.588608533023278e-06,1.2298528023024028e-06,1.4721421903660743e-06,1.2097973308285199e-06,5.138341586096854e-06,1.7419419828215502e-06,1.4369254074736626e-05,1.2580023357852757e-06,2.2908865785572903e-06
108,2.286406273844948e-06,1.0045031511620077e-06,2.313293595828136e-06,2.2696983758730074e-06,1.5236972542874295e-06,1.570997525525416e-06,1.2384162829115005e-06,1.5551828646998204e-06,1.2365815373440605e-06,1.4221891766778026e-06,1.2041156820191889e-06,4.955190461171431e-06,1.732578687811362e-06,1.4982788838684523e-05,1.2681809603209011e-06,2.295741462166479e-06
109,2.3130569255673887e-06,1.0221346606730266e-06,2.389138452576281e-06,2.2549538065202963e-06,1.4793480651859372e-06,1.5738903536046593e-06,1.2196245227011145e-06,1.525961535058986e-06,1.2485139091414136e-06,1.3911912605108311e-06,1.2005400943036333e-06,4.766407281053577e-06,1.72940858792173e-06,1.5634807771836195e-05,1.2764218702169282e-06,2.3044805540281898e-06
110,2.334387333991829e-06,1.0384245548962259e-06,2.4646546122596694e-06,2.236206186878598e-06,1.4367879953553144e-06,1.5703117440613301e-06,1.2052709986004002e-06,1.5004831770727831e-06,1.2654573245579205e-06,1.378173201145113e-06,1.1990214869420712e-06,4.573035201810527e-06,1.7327446288637143e-06,1.6327523661010196e-05,1.2825638605638592e-06,2.3165695561360454e-06
111,2.3513851400437102e-06,1.0533782341543391e-06,2.538992210158419e-06,2.2134553177668592e-06,1.3963949868077377e-06,1.5603000505736424e-06,1.19524571277379e-06,1.478372575288847e-06,1.2872064277917974e-06,1.3821969279886004e-06,1.1997370109014278e-06,4.376365952379575e-06,1.7428559539373373e-06,1.7062627099457706e-05,1.2866167617911495e-06,2.3313760392939524e-06
112,2.3651125941324766e-06,1.067155414270704e-06,2.6110539507438536e-06,2.1871330409915632e-06,1.3588403544347925e-06,1.5441183636877645e-06,1.189229688722683e-06,1.4593083039122925e-06,1.31349400270783e-06,1.4022516398763713e-06,1.2030139086240016e-06,4.178191911386909e-06,1.759906868048605e-06,1.784054752144095e-05,1.2888599060484919e-06,2.34824987909553e-06
113,2.376591011519494e-06,1.0799665506563574e-06,2.6794546068789074e-06,2.1580132842765637e-06,1.3250379763496035e-06,1.5222473019353818e-06,1.186779793365787e-06,1.443037311175054e-06,1.3440092344284138e-06,1.4371237487815259e-06,1.209151184993386e-06,3.980774509548132e-06,1.7839714637670916e-06,1.8659586937491345e-05,1.289833707619952e-06,2.3666147593699317e-06
114,2.386641071441749e-06,1.0921188704043565e-06,2.742607662548784e-06,2.127024018624721e-06,1.2959525993282442e-06,1.495534641478628e-06,1.1874588805768766e-06,1.4293839191716415e-06,1.3784177758270464e-06,1.485409312080678e-06,1.2182699139540052e-06,3.786533294630278e-06,1.8150041409091465e-06,1.9514860530254625e-05,1.2901775453495173e-06,2.3860137042480505e-06
115,2.395753638968522e-06,1.1041059323019692e-06,2.7989105748275224e-06,2.0952022585052605e-06,1.2724404452801455e-06,1.4651939624768347e-06,1.1909399783631335e-06,1.418163712215096e-06,1.4163859463330554e-06,1.5456604816686408e-06,1.2302458638070976e-06,3.5976624838173655e-06,1.8527330954825857e-06,2.0397518488599522e-05,1.29045411525039e-06,2.4061232444455844e-06
116,2.4040877635198836e-06,1.1166157020057474e-06,2.846901623484199e-06,2.0637233672026026e-06,1.2551768615571125e-06,1.4325911189498249e-06,1.1970039796570537e-06,1.4091046041470597e-06,1.4575586196962549e-06,1.6164690157031907e-06,1.24469441282651e-06,3.4159294151616756e-06,1.8966370465497975e-06,2.129469738336244e-05,1.2910924572035163e-06,2.426797149874552e-06
117,2.4115801501752733e-06,1.1304362398006785e-06,2.885345756170188e-06,2.033804880005027e-06,1.2446136729613629e-06,1.3990544043831757e-06,1.2054726217775335e-06,1.401870818476899e-06,1.5014547528390894e-06,1.6963550271487915e-06,1.2610092656291188e-06,3.242718725680881e-06,1.9460316727464294e-06,2.2190368822069205e-05,1.2924372951061893e-06,2.4481056271635977e-06
118,2.4180596210647003e-06,1.1462994999461446e-06,2.9133140179197935e-06,2.006610138692453e-06,1.2409560111006496e-06,1.3658273815172644e-06,1.2162307018494465e-06,1.3961523085966217e-06,1.5473705871802013e-06,1.7835918455175235e-06,1.2784972547295113e-06,3.0791753337709926e-06,2.000116619500293e-06,2.30672760691979e-05,1.2947859181316177e-06,2.4702535732033967e-06
119,2.423272696223053e-06,1.164746688914978e-06,2.9302662691011947e-06,1.9832829330229385e-06,1.244190942392567e-06,1.3340797062050783e-06,1.2293357502517879e-06,1.3917253557123159e-06,1.5943827528920126e-06,1.876194113705262e-06,1.2965675738618643e-06,2.926252637830731e-06,2.0579420928862332e-06,2.3909672647142722e-05,1.2983409551091846e-06,2.4933771509272025e-06
120,2.426802283288435e-06,1.1860709862376115e-06,2.936041145362104e-06,1.964936208469868e-06,1.254170331989398e-06,1.3049195919596708e-06,1.2450156596928802e-06,1.388427450802146e-06,1.641480869031509e-06,1.9721634862094325e-06,1.3148268634611104e-06,2.7845988758563603e-06,2.1184585018046146e-06,2.470554980386878e-05,1.303118619508665e-06,2.517368089072504e-06
121,2.4280248581939837e-06,1.2103199949248575e-06,2.9306594056496253e-06,1.9524902304274805e-06,1.270681965542431e-06,1.2793873978651536e-06,1.2635026213311845e-06,1.386163966298493e-06,1.687784354035398e-06,2.069821757002013e-06,1.3330126112944739e-06,2.6544125534982918e-06,2.1807180402147207e-06,2.544700727915586e-05,1.3088855450094383e-06,2.5418264234072274e-06
122,2.4262657037500275e-06,1.237321707669084e-06,2.9140153095440488e-06,1.946507542759681e-06,1.293444903538513e-06,1.258387856861778e-06,1.2848728560082975e-06,1.3850679073977985e-06,1.7326908565479617e-06,2.1679039028858046e-06,1.3508766665217313e-06,2.535448251119718e-06,2.244033348717539e-06,2.612869254809539e-05,1.315173836636424e-06,2.566118372723545e-06
123,2.4210455985243805e-06,1.2667094997946392e-06,2.885740799769338e-06,1.947134497197861e-06,1.3220761899378933e-06,1.2426009153986982e-06,1.3090059793967465e-06,1.3856234994346858e-06,1.7758126745536417e-06,2.2654093870596237e-06,1.3681369592668023e-06,2.427153554324159e-06,2.3079074789541883e-06,2.67452610678359e-05,1.3213886087598859e-06,2.5894819961972984e-06
124,2.412201352767056e-06,1.2979271503564943e-06,2.8454254347684376e-06,1.954117695510974e-06,1.3561098003247427e-06,1.2324593971756442e-06,1.33562103109371e-06,1.3885300885017984e-06,1.8167396715184406e-06,2.3615531284298207e-06,1.384463695193357e-06,2.328745517712859e-06,2.371803398331338e-06,2.728884539595788e-05,1.3269574657986205e-06,2.611132345908245e-06
125,2.3998339514398548e-06,1.3302216688198818e-06,2.7930247878691697e-06,1.96687257598429e-06,1.3950855017882065e-06,1.2281749794856117e-06,1.3642957962342398e-06,1.3944274085314567e-06,1.854820866746582e-06,2.4558424887961748e-06,1.3994259042338235e-06,2.2391841315816235e-06,2.4350230830923863e-06,2.7747491831817014e-05,1.3314608881942872e-06,2.6303358640343935e-06
126,2.384147676461163e-06,1.362695082817745e-06,2.7291764315339766e-06,1.984596509220279e-06,1.4386788881470703e-06,1.229741805174567e-06,1.394431433656819e-06,1.4037080370568527e-06,1.889130700338354e-06,2.5479830324772546e-06,1.4124645774333761e-06,2.1572505305136857e-06,2.4967991046666595e-06,2.8105713734569306e-05,1.3347547331350009e-06,2.6464213603086272e-06
127,2.365252955067376e-06,1.394468785254255e-06,2.6552693785443816e-06,2.0063620064218817e-06,1.4868036123015355e-06,1.236938512218641e-06,1.4252079417073285e-06,1.4164510007764682e-06,1.918685775143393e-06,2.6376390598909515e-06,1.4229806756748585e-06,2.0818334178453737e-06,2.5563475974808536e-06,2.8347654571129766e-05,1.3370627630082594e-06,2.6587468363360956e-06
128,2.3430707921407764e-06,1.4248599333493106e-06,2.5732410354521933e-06,2.0311966686061354e-06,1.5396091045767223e-06,1.249394181692271e-06,1.455614259191144e-06,1.432422123820904e-06,1.9428110057686132e-06,2.724297079962023e-06,1.4304616267150087e-06,2.012236207630359e-06,2.6127323333112815e-06,2.846163402676728e-05,1.3389213361322876e-06,2.6667603755540133e-06
129,2.317444271562057e-06,1.453433423753395e-06,2.4852389712327324e-06,2.058242394459935e-06,1.5973701594718348e-06,1.2667066321186435e-06,1.484597076065654e-06,1.4511452487446199e-06,1.961386337780193e-06,2.80722008822376e-06,1.4345283936834867e-06,1.9483160523812714e-06,2.664690843242058e-06,2.8443471770730573e-05,1.3409692835854802e-06,2.670143313668125e-06
130,2.2883305000314146e-06,1.4799737371205882e-06,2.393399594554611e-06,2.086946670107008e-06,1.6603900226121054e-06,1.2885157562077355e-06,1.5112899274102064e-06,1.4720564079838298e-06,1.9748311279389242e-06,2.8854510062513385e-06,1.4348970625036013e-06,1.8904040277448084e-06,2.710540981633919e-06,2.8296556187095486e-05,1.343754523558783e-06,2.6688395620563378e-06
131,2.2558934471008904e-06,1.5044985641623017e-06,2.2998372340399064e-06,2.1171050472823527e-06,1.7290097846905576e-06,1.3144704773066757e-06,1.5352398936020682e-06,1.494660208031628e-06,1.9839041454635124e-06,2.9579500189374737e-06,1.4313342111638141e-06,1.8390525215473422e-06,2.7482095264041337e-06,2.8028837600715773e-05,1.347670747815518e-06,2.6629987660775384e-06
132,2.2205358464264734e-06,1.5272614987882517e-06,2.2066621229444913e-06,2.1486779614307157e-06,1.803604235186297e-06,1.34419469986733e-06,1.556530660637489e-06,1.5185773973589266e-06,1.989417401059607e-06,3.023750823190933e-06,1.4236861904081357e-06,1.794789890731222e-06,2.775483990356743e-06,2.764873400689832e-05,1.3529792258850547e-06,2.6529539211504448e-06
133,2.1829494729190284e-06,1.5486148218698367e-06,2.115857653499598e-06,2.1815058140565766e-06,1.8844707363523734e-06,1.3773855800642662e-06,1.5756937526914809e-06,1.5434901155229312e-06,1.992003973941752e-06,3.0819669922415183e-06,1.41196181933413e-06,1.75804196852466e-06,2.7905042981089678e-06,2.7162502581416468e-05,1.3598666077985551e-06,2.639144007924845e-06
134,2.144119168220587e-06,1.5688095714484307e-06,2.029088390404222e-06,2.215140207579833e-06,1.971747297593062e-06,1.4139479344601885e-06,1.5934327324300767e-06,1.56908118433477e-06,1.992089324813997e-06,3.1317647029972e-06,1.3963436649560519e-06,1.7292073318214683e-06,2.7922303224382504e-06,2.6574694009111383e-05,1.3685338375715259e-06,2.621948836815169e-06
135,2.1052310897269247e-06,1.5878860146271863e-06,1.947582759776497e-06,2.24889204513292e-06,2.065449603703488e-06,1.4539642497593667e-06,1.6103778277799407e-06,1.5950324291551046e-06,1.9899955221312038e-06,3.1724526339077827e-06,1.3771009835319936e-06,1.7087921967901163e-06,2.7805562714086934e-06,2.5890724354605517e-05,1.3792489446036683e-06,2.6015944443719935e-06
136,2.0675210330239673e-06,1.6056560751564522e-06,1.8721130407605512e-06,2.2819968276005264e-06,2.165533613008194e-06,1.4975036159289732e-06,1.6270071896985785e-06,1.6210676131258276e-06,1.9859682150966233e-06,3.2035976057727137e-06,1.3545668709519865e-06,1.6975164113151115e-06,2.7560220290359393e-06,2.5118903893944514e-05,1.3922936926644486e-06,2.5782048944222585e-06
137,2.032104467700296e-06,1.621735106858553e-06,1.803046814663191e-06,2.3137602631432482e-06,2.2719168758373074e-06,1.5444625797478002e-06,1.6436634178782146e-06,1.6469606891713087e-06,1.9800820239077123e-06,3.2250400131995667e-06,1.329233896039232e-06,1.6963212699400246e-06,2.7193601409449144e-06,2.4270408676098885e-05,1.407862133003322e-06,2.551887671310229e-06
138,1.9998739756754447e-06,1.635587277840056e-06,1.7404898267484773e-06,2.3436498108945557e-06,2.3844951303796293e-06,1.5945872038279895e-06,1.6606139698940962e-06,1.6724983730984934e-06,1.9722050307675044e-06,3.2367864671416733e-06,1.3017776808495792e-06,1.7062479378069702e-06,2.671280562236316e-06,2.3357773005192842e-05,1.4260037613822382e-06,2.522752029818352e-06
139,1.9715077722840063e-06,1.646582520573615e-06,1.684508119135465e-06,2.371356604249842e-06,2.503173326678989e-06,1.647647941413784e-06,1.678131643128918e-06,1.697476747290647e-06,1.962170945546647e-06,3.2388287104819126e-06,1.2729192067427593e-06,1.7282391674626936e-06,2.6126688857851895e-06,2.2393336928961474e-05,1.4466010520769195e-06,2.4909102020458263e-06
140,1.9474756049933e-06,1.6541826710580265e-06,1.635303715502442e-06,2.3967856900094114e-06,2.6278358413388606e-06,1.7035978315329842e-06,1.6964841105123532e-06,1.7217043902722567e-06,1.9500756278630283e-06,3.2310982246707275e-06,1.2432736698571627e-06,1.7629815043497079e-06,2.544860227907422e-06,2.138833782191604e-05,1.469327414675655e-06,2.4565286684043993e-06
141,1.927971997976491e-06,1.658268811025613e-06,1.5932119386661081e-06,2.4199004050018177e-06,2.7581890803925573e-06,1.7625556789437739e-06,1.715788673238528e-06,1.7449623590266751e-06,1.936486967087537e-06,3.213639817651758e-06,1.2132993828987235e-06,1.8108257592949136e-06,2.4696682046200744e-06,2.0352281116489e-05,1.4936161977084304e-06,2.419876358892106e-06
142,1.9128543221023513e-06,1.6593542147484846e-06,1.5585793421308922e-06,2.440534181852251e-06,2.8935672039727338e-06,1.8246209818924037e-06,1.7358577864857318e-06,1.7670153281518106e-06,1.92239501714184e-06,3.1867107856751496e-06,1.1833440005508665e-06,1.8717497255139303e-06,2.3892688769892683e-06,1.9292785736040465e-05,1.5187011390766526e-06,2.3812741289111835e-06
143,1.9016719052237257e-06,1.6584766416640069e-06,1.5316994331586756e-06,2.458369775108205e-06,3.0328203560419533e-06,1.8896744962365067e-06,1.7561766194015417e-06,1.787660275907038e-06,1.9088998511412885e-06,3.1506649881967893e-06,1.1537378193949358e-06,1.9453971384991222e-06,2.306082815542852e-06,1.8216977384618612e-05,1.5436792728793535e-06,2.3409376182193474e-06
144,1.8937924839543058e-06,1.6568696402061595e-06,1.5128097006621699e-06,2.473052609578371e-06,3.174275635553299e-06,1.957278745470718e-06,1.7760221565189423e-06,1.8066805846889335e-06,1.89687334820767e-06,3.1058577632076637e-06,1.1248269380909911e-06,2.0312142097272857e-06,2.222602027296801e-06,1.713397189022097e-05,1.5675418934384902e-06,2.298821433734133e-06
145,1.88850900282668e-06,1.6556678912604552e-06,1.502039172429234e-06,2.48429560267113e-06,3.3157859921653418e-06,2.0266553722103504e-06,1.7946242088363763e-06,1.8238121770948912e-06,1.8868296027529277e-06,3.0526975004487177e-06,1.0969335535984738e-06,2.1285831411924594e-06,2.14115680806214e-06,1.6056194623292454e-05,1.5892506110112688e-06,2.2545698304531025e-06
146,1.8850406358605078e-06,1.655805190952819e-06,1.4993536864404109e-06,2.4919878517822753e-06,3.4548937091113256e-06,2.096690805835611e-06,1.8112735109713109e-06,1.8388863587038475e-06,1.8789663906462618e-06,2.9917216174071163e-06,1.0703411884079976e-06,2.236863840444488e-06,2.0637497679902303e-06,1.4998432954641872e-05,1.6078963624735408e-06,2.207549678662131e-06
147,1.882553319233748e-06,1.6580512153948794e-06,1.5045793277719698e-06,2.4963516449373515e-06,3.5889315263497186e-06,2.1659836578154784e-06,1.8253630002517134e-06,1.8520186385879445e-06,1.8732048237471253e-06,2.9236045895002186e-06,1.0452880863317436e-06,2.355358943058692e-06,1.9920025411508726e-06,1.3975704482802129e-05,1.6228540589041217e-06,2.1569468580068775e-06
148,1.8802564638913713e-06,1.6630238258648866e-06,1.5174191932037725e-06,2.4980231409926677e-06,3.7149354931772235e-06,2.2329059827574056e-06,1.8364067390962658e-06,1.8636541188243168e-06,1.8691897603529948e-06,2.8491598502930505e-06,1.0219157968902973e-06,2.483251146853861e-06,1.927177216349039e-06,1.3001422196071548e-05,1.6338821730015125e-06,2.102009368026662e-06
149,1.877424427831118e-06,1.6711261591268973e-06,1.5373807399401502e-06,2.497891728161842e-06,3.829660906600143e-06,2.295622991445709e-06,1.8440411048848395e-06,1.8744526935527818e-06,1.8663718639283832e-06,2.7694181220652334e-06,1.000234612915287e-06,2.6195227746968835e-06,1.8702683633164708e-06,1.2086425337555943e-05,1.6411359520151983e-06,2.042362824398345e-06
150,1.8733894153625642e-06,1.6824781308065467e-06,1.5636879970852055e-06,2.496794230780029e-06,3.930003559416761e-06,2.3521779112480393e-06,1.8479569840046015e-06,1.8850695926000064e-06,1.8642417069366554e-06,2.685701944752604e-06,9.801533221307309e-07,2.762860491129708e-06,1.8221409194606944e-06,1.1238736232248943e-05,1.6450416681907616e-06,1.9781396964409333e-06
151,1.8676279610822761e-06,1.6968681063270502e-06,1.5953063028086083e-06,2.495360334715938e-06,4.013602177247062e-06,2.400740787650222e-06,1.8478165086065451e-06,1.895926748625179e-06,1.8625236912742587e-06,2.5995334410348994e-06,9.615274324693854e-07,2.9116376835875573e-06,1.7836452895433615e-06,1.04637812801909e-05,1.6460910091657628e-06,1.9098748368263106e-06
152,1.859782860495791e-06,1.7137154675677786e-06,1.631104005246505e-06,2.4940969026972428e-06,4.079198339483226e-06,2.4398534674014314e-06,1.8433286263795435e-06,1.9070767468093676e-06,1.8610930021779852e-06,2.5123740782809376e-06,9.441915167107609e-07,3.064053391593106e-06,1.7556364260908205e-06,9.764865525084302e-06,1.6446829793417347e-06,1.838360868853441e-06
153,1.8496370158137612e-06,1.7320725507003754e-06,1.67003777812587e-06,2.4934970426228267e-06,4.126637711851705e-06,2.4685106155540716e-06,1.8344969074434921e-06,1.9181972302327994e-06,1.8597408969405315e-06,2.4253736898315113e-06,9.279933227378151e-07,3.218346695091485e-06,1.7388691308504685e-06,9.14367909383712e-06,1.6410488104915951e-06,1.7645472166465574e-06
154,1.8372500499291068e-06,1.750677026457728e-06,1.7112362043727774e-06,2.4939951057044393e-06,4.156638393865003e-06,2.4861473921638833e-06,1.8218083204714295e-06,1.9287432829961395e-06,1.8580694300778973e-06,2.339316118234979e-06,9.12824830282089e-07,3.372969230806785e-06,1.7338566626539316e-06,8.600652739375523e-06,1.6352248269669905e-06,1.689458930885872e-06
155,1.823073112126503e-06,1.7680733753888618e-06,1.753961906806535e-06,2.495865603714008e-06,4.170446625889741e-06,2.4926026559738186e-06,1.8061571925594093e-06,1.9382411884466047e-06,1.8555598279383032e-06,2.2547961247068853e-06,8.98634277553989e-07,3.5266812779021373e-06,1.7408164912532255e-06,8.135124667463831e-06,1.6270739048829076e-06,1.6141659748846842e-06
156,1.8077902201080443e-06,1.7828653948456668e-06,1.7975022667103618e-06,2.49924474378761e-06,4.1694582498902334e-06,2.487978738402546e-06,1.78854699685776e-06,1.946550833351445e-06,1.8516752480307466e-06,2.1724598560374986e-06,8.854286719189123e-07,3.6786102243946696e-06,1.759690287762778e-06,7.745442149906973e-06,1.6163968207310265e-06,1.539763243661394e-06
157,1.792090752912564e-06,1.7940028103025775e-06,1.8410868336771626e-06,2.50418752532479e-06,4.15488049509111e-06,2.4723843653844773e-06,1.7698063048540868e-06,1.953887587916335e-06,1.8458729929685403e-06,2.0931020314835154e-06,8.732634783872646e-07,3.828312322146022e-06,1.7901378416255497e-06,7.429125697703361e-06,1.6031099062637678e-06,1.4672600571356652e-06
158,1.77667306936361e-06,1.8008406712786025e-06,1.8839620340926127e-06,2.510571054175697e-06,4.127494752479154e-06,2.4458119044669154e-06,1.7504751709628077e-06,1.9605928836629338e-06,1.8376372065619793e-06,2.0175731987328063e-06,8.622100759510323e-07,3.975758430535408e-06,1.8315096394972717e-06,7.183029376675448e-06,1.587366373255632e-06,1.397442745546453e-06
159,1.7624132952424853e-06,1.8029823563780205e-06,1.9255815811069733e-06,2.517940995818737e-06,4.08765819063639e-06,2.4083365455228834e-06,1.7308111894980836e-06,1.9668755168313335e-06,1.8267202030768608e-06,1.9466116053620335e-06,8.5233352204395e-07,4.1211348324748504e-06,1.8828512560490028e-06,7.003292659663964e-06,1.5695299247914613e-06,1.3308393723780743e-06
160,1.7504031250980405e-06,1.8002326348862643e-06,1.965682116741522e-06,2.525499308834956e-06,4.035654750845243e-06,2.3603967173805797e-06,1.7108183877458651e-06,1.972758127440388e-06,1.8133813548774666e-06,1.8807196757066448e-06,8.437068929447764e-07,4.2645387429749855e-06,1.9429237092736785e-06,6.885026708285211e-06,1.550024479121482e-06,1.26775634216528e-06
161,1.7417594763407052e-06,1.792708737250389e-06,2.004185857958133e-06,2.5322278758201232e-06,3.972132343622827e-06,2.3028153090181533e-06,1.6903157016636933e-06,1.978233763636633e-06,1.7982932705233422e-06,1.820111378375321e-06,8.364056288689154e-07,4.405760773859209e-06,2.010270411258837e-06,6.821959140040901e-06,1.529156821163453e-06,1.2083299617330836e-06
162,1.7374149023857671e-06,1.780809456071716e-06,2.04111145250422e-06,2.5370631250931438e-06,3.898214909564275e-06,2.236567548418091e-06,1.6691459579648825e-06,1.983443711007539e-06,1.7822416673424136e-06,1.7647247391724344e-06,8.304499469315513e-07,4.5441704421796995e-06,2.083398839842196e-06,6.806275527847344e-06,1.507044559922552e-06,1.1526287123497538e-06
163,1.7380518564577461e-06,1.7650219795506265e-06,2.076573850266083e-06,2.5390776001844978e-06,3.815293337016339e-06,2.1626112596361575e-06,1.6474801283396177e-06,1.9887414951494183e-06,1.7659405710541299e-06,1.7143030951530327e-06,8.257745638653084e-07,4.678597684232733e-06,2.1609957641527578e-06,6.828650521688524e-06,1.4837300416483496e-06,1.100793471633689e-06
164,1.744098127512014e-06,1.745855353361926e-06,2.110767210704088e-06,2.537642842532609e-06,3.724827045670244e-06,2.0819795210125753e-06,1.6259403086908111e-06,1.994668362315079e-06,1.7500005185943488e-06,1.6684678361898235e-06,8.222738532274123e-07,4.8073428810249e-06,2.241976252233563e-06,6.878449906962729e-06,1.4593799791699956e-06,1.0531329758111308e-06
165,1.7557070377307984e-06,1.7239521606241799e-06,2.1438623640568975e-06,2.532581111999117e-06,3.628349892492493e-06,1.995912451123599e-06,1.6053979803301419e-06,2.0018952361300783e-06,1.7349190870492467e-06,1.6266932773727427e-06,8.198517122836084e-07,4.9284899541014035e-06,2.325287375386059e-06,6.944320356704497e-06,1.4343547727995413e-06,1.010113836195039e-06
166,1.772800599254489e-06,1.700161252158847e-06,2.1758592605225454e-06,2.52430712017636e-06,3.5276015478707974e-06,1.9058036170026975e-06,1.5866877511832076e-06,2.0111127213301874e-06,1.7210503920517948e-06,1.5882594328016622e-06,8.184265414470447e-07,5.040283298937228e-06,2.4096496310927615e-06,7.0152318169718445e-06,1.4090730002918525e-06,9.722423856799293e-07
167,1.7952409793785884e-06,1.6754392613655596e-06,2.20646411414801e-06,2.513871656664364e-06,3.424587473985696e-06,1.8131411675750437e-06,1.5704746810444264e-06,2.022872782119215e-06,1.708571674023337e-06,1.5523353457461616e-06,8.179585064362376e-07,5.1412638538439195e-06,2.4935237812816924e-06,7.081519928064606e-06,1.3838281804962194e-06,9.39924659150272e-07
168,1.8230548441835656e-06,1.6506580681835337e-06,2.2351012665925755e-06,2.502772249579208e-06,3.32145342554314e-06,1.7195663617374793e-06,1.5572242056396296e-06,2.037481650460006e-06,1.6974903423338828e-06,1.5182651572842866e-06,8.185104223869238e-07,5.230230633914433e-06,2.5754224552449973e-06,7.1354179781241065e-06,1.3587216233058829e-06,9.13393999603773e-07
169,1.8565466968302538e-06,1.6264869367021143e-06,2.2611134808051955e-06,2.492568053817912e-06,3.220258874790022e-06,1.626841004865308e-06,1.5471926715977283e-06,2.0550066200313645e-06,1.6877144226499601e-06,1.485932306994266e-06,8.202291300931481e-07,5.306215531840175e-06,2.654366576530903e-06,7.171032036150414e-06,1.33371315089986e-06,8.927047851409221e-07
170,1.8961985944611808e-06,1.6034216227411494e-06,2.283963119110387e-06,2.4845829453970596e-06,3.122795609916881e-06,1.5366580882509742e-06,1.5404363886996998e-06,2.0753191633312746e-06,1.6791089045343423e-06,1.4558672564160773e-06,8.232358999861653e-07,5.36851738152527e-06,2.7300598958083987e-06,7.183954352726509e-06,1.3087210890978954e-06,8.777871266460505e-07
171,1.942418780670207e-06,1.5818889958786163e-06,2.303186288648756e-06,2.479854282297193e-06,3.030464751654306e-06,1.4504934193689395e-06,1.5368381181550064e-06,2.098067075834623e-06,1.671534972661712e-06,1.4289719679938433e-06,8.275653172486935e-07,5.416731419358748e-06,2.8025804756873127e-06,7.170547825316126e-06,1.283726576622785e-06,8.685527908459556e-07
172,1.9953070890805642e-06,1.562314595517472e-06,2.3181463232055523e-06,2.4791396741111263e-06,2.944179667537421e-06,1.3695794805696115e-06,1.5361776392750054e-06,2.122586005161623e-06,1.6649739182059567e-06,1.4061778338599516e-06,8.332306072522707e-07,5.450717889419359e-06,2.8718872040932568e-06,7.127053726997242e-06,1.25883321935736e-06,8.649517481688133e-07
173,2.0545537983952536e-06,1.5450856964282404e-06,2.32789750232352e-06,2.482835524901086e-06,2.8643212641671157e-06,1.2949083595160637e-06,1.538232500965701e-06,2.1478791914385075e-06,1.6596468840078179e-06,1.388304813708026e-06,8.403276324877806e-07,5.470594432106296e-06,2.9375594551933874e-06,7.049295584836291e-06,1.2342231020497707e-06,8.669203699559505e-07
174,2.1194755285424072e-06,1.530449980902944e-06,2.331378366043062e-06,2.490920704839727e-06,2.7907477851439645e-06,1.22722422065861e-06,1.5428042077864387e-06,2.172757805923606e-06,1.6559464701172748e-06,1.3760317987755084e-06,8.490460770019111e-07,5.476888178283858e-06,2.9989189061557456e-06,6.933645292176376e-06,1.2100339696946176e-06,8.743190359608985e-07
175,2.1891395932743466e-06,1.5184534268070432e-06,2.327822483511332e-06,2.5030095853551062e-06,2.722833192306316e-06,1.1670432785897324e-06,1.5496411017904588e-06,2.1960813191710796e-06,1.6542379093479007e-06,1.369860287549011e-06,8.595741616424935e-07,5.470751130673494e-06,3.0554110577885773e-06,6.778722736778418e-06,1.1862920505110598e-06,8.869424701453399e-07
176,2.262509537298067e-06,1.5089772048569887e-06,2.317059647647267e-06,2.5184060728680003e-06,2.6595706617408947e-06,1.114693662470762e-06,1.558402155137326e-06,2.216960133771413e-06,1.654726052882377e-06,1.3701074659676903e-06,8.719897717232423e-07,5.453958301763395e-06,3.106876131849358e-06,6.586598600156283e-06,1.1629741177176044e-06,9.045443167215447e-07
177,2.338525968936305e-06,1.5018617763509495e-06,2.2994754271757107e-06,2.5360723882287658e-06,2.5998396741820835e-06,1.0703361032079313e-06,1.5687593229257631e-06,2.2348042853598204e-06,1.6574227157859296e-06,1.3769370082826516e-06,8.862256234540763e-07,5.428577442898841e-06,3.153393863093393e-06,6.362722538180016e-06,1.1401221234408235e-06,9.268261681561262e-07
178,2.4160822631200192e-06,1.497002942599495e-06,2.275687501935002e-06,2.554648346722428e-06,2.5428217285170895e-06,1.0339710026235512e-06,1.5805375541890152e-06,2.24917585651463e-06,1.6621257724367224e-06,1.3903673228760185e-06,9.021281237125775e-07,5.396453499181369e-06,3.1949304341310662e-06,6.114710108351669e-06,1.1179339106927485e-06,9.53422205715997e-07
179,2.493923301804282e-06,1.4943212465141494e-06,2.2462398959453626e-06,2.572667927512236e-06,2.488333066937226e-06,1.0054624976147072e-06,1.5937761431498669e-06,2.2595703388389913e-06,1.6684062735709849e-06,1.4102462063318245e-06,9.195297891796359e-07,5.358734519990454e-06,3.231167102095129e-06,5.8507968690790785e-06,1.09681157936199e-06,9.838830919513586e-07
180,2.570517133181269e-06,1.4936945593382506e-06,2.2115705838869666e-06,2.5888443494863324e-06,2.436856177142705e-06,9.845705005988904e-07,1.6087025158916105e-06,2.2653503080969278e-06,1.6756283929521296e-06,1.4362185913263628e-06,9.3823510962296e-07,5.315656137349666e-06,3.261453536982235e-06,5.578702071641718e-06,1.0773219166168627e-06,1.0176687784829903e-06
181,2.6440014533700887e-06,1.4949364327696047e-06,2.1722067428473953e-06,2.602198297678687e-06,2.389272421684214e-06,9.709490739383197e-07,1.6256368482577303e-06,2.2659004754715554e-06,1.6829913139388727e-06,1.4677029152221088e-06,9.579469259848685e-07,5.266689998665521e-06,3.2848071971514296e-06,5.305101546412996e-06,1.0600527316542751e-06,1.054194045437628e-06
182,2.712296938845562e-06,1.4977825830010513e-06,2.128965999162325e-06,2.612007413496289e-06,2.346495844325542e-06,9.641225120188384e-07,1.644841337838684e-06,2.260884814958985e-06,1.6896802223324036e-06,1.5038913997097555e-06,9.782336185564934e-07,5.210939906728908e-06,3.300069876209784e-06,5.035523515099478e-06,1.0454619255037403e-06,1.0928876847192698e-06
183,2.7733276439985326e-06,1.5019268347248922e-06,2.083024644290389e-06,2.6177245342952153e-06,2.3092613842875454e-06,9.635046577975129e-07,1.666368699778644e-06,2.250437170834858e-06,1.6951341579319876e-06,1.5437941785548214e-06,9.98575832289856e-07,5.147527298645867e-06,3.306151658984306e-06,4.774395384268214e-06,1.0338238083853927e-06,1.133190689156692e-06
184,2.825247538308273e-06,1.5071356965156815e-06,2.0358243845765567e-06,2.6189901501175435e-06,2.278099585865095e-06,9.684512666457645e-07,1.6900002569298963e-06,2.2351362011566316e-06,1.699168911267695e-06,1.586340976837823e-06,1.018463814112074e-06,5.07577973573856e-06,3.3022487557928184e-06,4.525140326370801e-06,1.0252586081743816e-06,1.174519931506631e-06
185,2.8666683949652067e-06,1.5133160815952136e-06,1.9888566869089345e-06,2.6157230410942704e-06,2.2533185250245206e-06,9.78265971917613e-07,1.7153087707367581e-06,2.215755821069222e-06,1.7018776800023102e-06,1.6305101197676573e-06,1.0374860192172352e-06,4.995280587704937e-06,3.2880295129228534e-06,4.29036444639451e-06,1.0197613914062402e-06,1.2162485439892291e-06
186,2.8968873668857617e-06,1.520467628152402e-06,1.9434414306655757e-06,2.608170373471151e-06,2.234940939174033e-06,9.921823636006115e-07,1.7417760717083185e-06,2.192971229660606e-06,1.7035327719079362e-06,1.675442867329437e-06,1.0553491320318813e-06,4.905947296137789e-06,3.2636687917094343e-06,4.0720603189141304e-06,1.0172179309080054e-06,1.2576996593959851e-06
187,2.9160186918499644e-06,1.5285953068494446e-06,1.9006053536495427e-06,2.5968697221057408e-06,2.222666980306797e-06,1.009392953273545e-06,1.7688717686343932e-06,2.167216598987501e-06,1.7044951244352403e-06,1.7205008656438847e-06,1.0718149407837454e-06,4.808119212522715e-06,3.229584850102883e-06,3.871713617263931e-06,1.01746122527863e-06,1.29820534664808e-06
188,2.9248849289793824e-06,1.5376290542241656e-06,1.8610530915757387e-06,2.58261922713045e-06,2.2158529146600796e-06,1.029089278585137e-06,1.7960663588356818e-06,2.1387292203948114e-06,1.7050341191165354e-06,1.7651817420501498e-06,1.086637090124699e-06,4.702556575986941e-06,3.1860366248258414e-06,3.690315415435569e-06,1.0203422193768025e-06,1.3372892071018983e-06
189,2.92464297479926e-06,1.5473523069970778e-06,1.8252023988616347e-06,2.5665334355840667e-06,2.2134774495100704e-06,1.0504606810872566e-06,1.8228283011687307e-06,2.107665242237629e-06,1.705188262886304e-06,1.8089297810336332e-06,1.0995721914544925e-06,4.590445800748325e-06,3.13300544293149e-06,3.5283356996932763e-06,1.0257337228870308e-06,1.3748632069905342e-06
190,2.9163814498341467e-06,1.5574250782259041e-06,1.7932920186995157e-06,2.5501112393787243e-06,2.21415098662938e-06,1.0726645687547592e-06,1.848676410624771e-06,2.074214764277258e-06,1.7047808666928897e-06,1.851086782984678e-06,1.1104069184216345e-06,4.4735280855698666e-06,3.0705564775933735e-06,3.3857517330655807e-06,1.0334721908512688e-06,1.4112669193083207e-06
191,2.901012586396596e-06,1.5675423934257935e-06,1.7654959227553957e-06,2.535204444096197e-06,2.216270658393826e-06,1.094831451881446e-06,1.8732667054577016e-06,2.0387339794945065e-06,1.703548512359079e-06,1.891086826441735e-06,1.1189633667363762e-06,4.3541858378979506e-06,2.9993584909214033e-06,3.2622032539806263e-06,1.0433147980889257e-06,1.447107772962427e-06
192,2.879493930857776e-06,1.5775470672232452e-06,1.741938674308019e-06,2.5238535837672373e-06,2.2183395257031103e-06,1.1161892030439465e-06,1.8963864998759547e-06,2.0018310500403868e-06,1.7013143953573924e-06,1.928621359285748e-06,1.125137582238722e-06,4.235218405216843e-06,2.9209013528655517e-06,3.1572002429285597e-06,1.0549968508413208e-06,1.4830152635444808e-06
193,2.8530967597622497e-06,1.587345537111161e-06,1.7226070624123323e-06,2.518040945590777e-06,2.2192725650927035e-06,1.1362493520447368e-06,1.917849490319685e-06,1.9642839271097956e-06,1.6981046821887932e-06,1.963516106652591e-06,1.1289379297833146e-06,4.119338395433863e-06,2.83729698281188e-06,3.0702277431270073e-06,1.0683801318181335e-06,1.519477729400226e-06
194,2.8234322741019463e-06,1.5967595389338423e-06,1.707233464545035e-06,2.519520814521776e-06,2.2184425382296024e-06,1.1548542199558517e-06,1.9374825335309822e-06,1.926808922511517e-06,1.6940916060349158e-06,1.9954792506967842e-06,1.1304310996639335e-06,4.008713158062205e-06,2.7508902354102405e-06,3.0006688395774313e-06,1.0835207032340533e-06,1.5568166030295359e-06
195,2.792200039491109e-06,1.605512072412836e-06,1.6952247586758911e-06,2.5298266085830783e-06,2.215488800216123e-06,1.1720634165664791e-06,1.955269193125781e-06,1.8898463192409295e-06,1.6894127316927728e-06,2.0240265376424788e-06,1.129663328341021e-06,3.904812398431693e-06,2.6639455991574697e-06,2.9475970932630197e-06,1.100557058535943e-06,1.5952135248243038e-06
196,2.760925151308433e-06,1.6133235768008468e-06,1.6856815230644647e-06,2.5502946946614493e-06,2.2101982869418786e-06,1.1880708988719645e-06,1.971478471337446e-06,1.8535038816474827e-06,1.6840425753807043e-06,2.048665691554874e-06,1.1266604140183992e-06,3.808507017423355e-06,2.578532919917116e-06,2.909586111096917e-06,1.119567616789621e-06,1.6347128045473843e-06
197,2.7309050575064156e-06,1.619959120252308e-06,1.677544482610465e-06,2.5819569160596536e-06,2.202544411495612e-06,1.203188718798758e-06,1.986665310969228e-06,1.817676619959497e-06,1.6777785563215862e-06,2.0692249108133104e-06,1.1214240647479748e-06,3.720156054646684e-06,2.4965660513658176e-06,2.8846418249832485e-06,1.1405231637732966e-06,1.6751861131293985e-06
198,2.7032362703237795e-06,1.625180440773348e-06,1.6698363186801345e-06,2.6253957595353823e-06,2.1926547458350147e-06,1.2177884679348192e-06,2.001580450201133e-06,1.782252997977619e-06,1.6703530771009336e-06,2.0860468956273266e-06,1.1138532430124107e-06,3.639575492063344e-06,2.4198426323435525e-06,2.870230639365449e-06,1.163268006529141e-06,1.7162649679108394e-06
199,2.6787701873440784e-06,1.6286597535082297e-06,1.6617994100336781e-06,2.6806644217526845e-06,2.1806971045089247e-06,1.2322235787789559e-06,2.0170325001282138e-06,1.7472756819995363e-06,1.6616975544419017e-06,2.0998193667635794e-06,1.1036884774352948e-06,3.5660184775477926e-06,2.3500341873741645e-06,2.8634179272934833e-06,1.1874984827759936e-06,1.7572635537071742e-06
200,2.6580664316804664e-06,1.6299041951445952e-06,1.6527937527970748e-06,2.7472606720397407e-06,2.166919516336518e-06,1.2467776298273394e-06,2.033724997265747e-06,1.7130020866800604e-06,1.6521731613815985e-06,2.111238522746207e-06,1.090603576080429e-06,3.498267167341335e-06,2.2887038906782884e-06,2.8612190277159583e-06,1.212788062229702e-06,1.7971537357275654e-06
201,2.6413847784146496e-06,1.6282888547610438e-06,1.6421624533054168e-06,2.8241313058033063e-06,2.151858864025008e-06,1.261599464791832e-06,2.05212657895639e-06,1.679899305378868e-06,1.6425363361072687e-06,2.120870204976058e-06,1.074437198695499e-06,3.434839344200076e-06,2.237300512913359e-06,2.861073730386234e-06,1.2386225168513194e-06,1.8346572315431666e-06
202,2.6287166182212673e-06,1.6232577871362201e-06,1.629332465630719e-06,2.909706219279643e-06,2.1364584362833526e-06,1.2766429650586016e-06,2.0724545113430076e-06,1.648581015436661e-06,1.6337207211028652e-06,2.129206974506015e-06,1.0553522278234803e-06,3.3742492452240614e-06,2.1970195938336644e-06,2.8611351508425274e-06,1.2643849214832244e-06,1.8684567410849323e-06
203,2.619910987720569e-06,1.614548714351727e-06,1.614091153953353e-06,3.0020020711834832e-06,2.121915448777069e-06,1.2916563315985382e-06,2.094766986593495e-06,1.6196698551991505e-06,1.6266352813211678e-06,2.136677047128386e-06,1.0337475541504882e-06,3.315209578275744e-06,2.168626400361475e-06,2.8601542239927732e-06,1.2893249234315086e-06,1.8974343451252819e-06
204,2.6148030410307107e-06,1.6022857250930337e-06,1.596788136244343e-06,3.0988253759349233e-06,2.109386952420514e-06,1.3062183424277768e-06,2.1190201608817594e-06,1.5936615698068426e-06,1.6220229444242783e-06,2.1435409046395637e-06,1.010068667675542e-06,3.256784346431309e-06,2.152384781848421e-06,2.8571229094168153e-06,1.3125870802345238e-06,1.9207974556389962e-06
205,2.613176281351808e-06,1.586941503408853e-06,1.578302203554731e-06,3.198018257214925e-06,2.0997982857490285e-06,1.3198315557021059e-06,2.144994420372505e-06,1.5709227575141396e-06,1.620379904607178e-06,2.149794296449509e-06,9.84741244332623e-07,3.1985817702920247e-06,2.1480918622055712e-06,2.8512064887438374e-06,1.3333226731537403e-06,1.9380449752756996e-06
206,2.6146398047337723e-06,1.5692084441799505e-06,1.559798260515884e-06,3.2976791823941743e-06,2.0937863791292085e-06,1.332042055957259e-06,2.172216389535666e-06,1.5518119655044996e-06,1.6219579988589054e-06,2.1551559478879443e-06,9.582135819984143e-07,3.14089191694054e-06,2.155146948807495e-06,2.8421643961634724e-06,1.3508172054649488e-06,1.948896751145341e-06
207,2.6186132309106415e-06,1.5498395450337964e-06,1.5424787812353679e-06,3.3963488881942262e-06,2.0916497674771343e-06,1.3424813148468208e-06,2.200019220156787e-06,1.536744526939331e-06,1.6267934686073775e-06,2.159110827480032e-06,9.309790849837128e-07,3.0845791543067132e-06,2.1725937471063065e-06,2.830655066885202e-06,1.3645514516543075e-06,1.9533124707008737e-06
208,2.624405847310706e-06,1.5295646534718098e-06,1.5274869748605564e-06,3.4931622122271175e-06,2.0932885643174992e-06,1.350855648330549e-06,2.227685990206628e-06,1.5261048539720103e-06,1.6346811302307184e-06,2.1609557771218276e-06,9.035244733177517e-07,3.0307349920079116e-06,2.1991391984337575e-06,2.8179282670267394e-06,1.374226546902856e-06,1.9515121354501548e-06
209,2.6312529789309333e-06,1.5090859255653254e-06,1.515879799257574e-06,3.587955180912635e-06,2.098231525678999e-06,1.3570239748197994e-06,2.254560299852214e-06,1.5201228770072389e-06,1.6451603549690556e-06,2.159870683297187e-06,8.762523720427324e-07,2.9803182095330967e-06,2.233167782446919e-06,2.8053063237860748e-06,1.379802426738227e-06,1.943848601806224e-06
210,2.638247134825818e-06,1.4890480043588977e-06,1.5085772033622273e-06,3.6813274953668755e-06,2.1057672017247783e-06,1.3611219624657396e-06,2.2800805057144904e-06,1.5188315477386463e-06,1.657662062209278e-06,2.1550106662699744e-06,8.494683768594069e-07,2.934031141046569e-06,2.2727252145452767e-06,2.793951970162228e-06,1.3814717508717844e-06,1.9306497749986393e-06
211,2.644248232642021e-06,1.46998346251607e-06,1.5063249196283832e-06,3.774635188437149e-06,2.115064159811134e-06,1.363570070214439e-06,2.3037438106804258e-06,1.5220971005745762e-06,1.6717694508814258e-06,2.1455869765750507e-06,8.234427101054989e-07,2.8924856684047157e-06,2.31551590028032e-06,2.7848308557690566e-06,1.3795377851512246e-06,1.9122150295195055e-06
212,2.648006904902705e-06,1.4523288960627112e-06,1.5096906043200702e-06,3.869816762521799e-06,2.1251666016215624e-06,1.3649630122552791e-06,2.325048628218576e-06,1.5296671305664884e-06,1.687342159924248e-06,2.1310745302371323e-06,7.984644363779098e-07,2.8564525866029035e-06,2.3590057313283827e-06,2.7786714515768367e-06,1.3743566989717496e-06,1.8888516911872803e-06
213,2.6485993381231695e-06,1.4364951480975173e-06,1.5190968413908658e-06,3.968986465272077e-06,2.134912434727998e-06,1.3659689732907446e-06,2.343474329734702e-06,1.5411771630851215e-06,1.704380518071277e-06,2.111551049080847e-06,7.748249746251897e-07,2.8269504377754797e-06,2.4006112286637575e-06,2.775881381735266e-06,1.3663980026821172e-06,1.8608221743260639e-06
214,2.6458619765181886e-06,1.4229044650553042e-06,1.5348751293848331e-06,4.073928628831186e-06,2.142995141673984e-06,1.3673012257504728e-06,2.3584942348411423e-06,1.5561129591231814e-06,1.7227779497772035e-06,2.0878096936605587e-06,7.52756632700606e-07,2.805159646607157e-06,2.43792913395218e-06,2.7764054742652797e-06,1.356233218498095e-06,1.828351919206819e-06
215,2.6404269702388446e-06,1.4119799758283646e-06,1.557254018431988e-06,4.1857359140710864e-06,2.1482857454766543e-06,1.369698595816454e-06,2.3695441774800733e-06,1.5737782347488408e-06,1.7421894686982772e-06,2.061054190671498e-06,7.324038735614232e-07,2.792282805457824e-06,2.4690272848178407e-06,2.779615273414565e-06,1.3444029132206428e-06,1.791790998901032e-06
216,2.6333316655871516e-06,1.404105035348998e-06,1.5862681089102524e-06,4.304683463575698e-06,2.1501895154998324e-06,1.3738406839992191e-06,2.3759041361601622e-06,1.5932741420951553e-06,1.7621133797519943e-06,2.0324560286266593e-06,7.138558090698633e-07,2.789376126213652e-06,2.492744071765274e-06,2.7843678177797718e-06,1.33134179113662e-06,1.7517496006865761e-06
217,2.6255289557497065e-06,1.3995494445817826e-06,1.6217023062278783e-06,4.430306297130605e-06,2.1487408119508243e-06,1.380235722336837e-06,2.376611120002019e-06,1.6134673237445481e-06,1.7820999962109381e-06,2.0029210100930776e-06,6.97185902672457e-07,2.7971457790817345e-06,2.5088340604003636e-06,2.7892114278412765e-06,1.3174216523768425e-06,1.7090874571844344e-06
218,2.6176323304728162e-06,1.3983828901376177e-06,1.6631461197523812e-06,4.56163806840065e-06,2.144431537882167e-06,1.3891905735463746e-06,2.370578915150639e-06,1.6330215268466715e-06,1.8019097027027124e-06,1.9730926636012197e-06,6.82455440801479e-07,2.815809071113592e-06,2.5178367047993852e-06,2.792532906267183e-06,1.302998880074577e-06,1.6648581127221113e-06
219,2.6099167399270196e-06,1.4004323567365631e-06,1.7101041684420242e-06,4.69746467526816e-06,2.1379983253156416e-06,1.4009089066802743e-06,2.356903578325609e-06,1.6506416364393397e-06,1.8215216383808658e-06,1.9434215706456305e-06,6.697307685029694e-07,2.8451031024880656e-06,2.520698202622095e-06,2.792566978760781e-06,1.2883882749551648e-06,1.6202559886327696e-06
220,2.6023425318231143e-06,1.4053074738853646e-06,1.762054731455128e-06,4.836377785845359e-06,2.1303282622215787e-06,1.4156500087453905e-06,2.3351355036856092e-06,1.665462583655456e-06,1.841049210349501e-06,1.9142049232260807e-06,6.591481778064409e-07,2.884367591804044e-06,2.51837740196967e-06,2.787518409921947e-06,1.2737783672093956e-06,1.5764878995695612e-06
221,2.5944942604397133e-06,1.412467670552702e-06,1.8183994629681165e-06,4.976559396450425e-06,2.1224073901683534e-06,1.4338317757268558e-06,2.3053377808802163e-06,1.6772462841285235e-06,1.8606585740082144e-06,1.8855803322707285e-06,6.509406525847049e-07,2.9326124373477373e-06,2.511698777428379e-06,2.775949102891901e-06,1.2591452218023195e-06,1.534588017185667e-06
222,2.585525608297734e-06,1.4213216079311016e-06,1.8783370233234764e-06,5.1154423454114945e-06,2.1151731192189026e-06,1.4559926350007424e-06,2.267954143873599e-06,1.6862049960021036e-06,1.8805048569400427e-06,1.8575105578720533e-06,6.453760345441852e-07,2.9886185019587385e-06,2.501441937022444e-06,2.757109425570423e-06,1.2442170624382802e-06,1.4953242535981983e-06
223,2.5741874064047616e-06,1.4313469922809098e-06,1.9407427102987032e-06,5.2495007856849855e-06,2.109346242355481e-06,1.4826315034329976e-06,2.2236785480196674e-06,1.6926871444410647e-06,1.9006522945888033e-06,1.8298584888011685e-06,6.426811227680882e-07,3.051145358814102e-06,2.488426267793437e-06,2.7308459623406053e-06,1.228509227855993e-06,1.4592882449356443e-06
224,2.559008244014897e-06,1.4421535287979318e-06,2.0041562415632254e-06,5.374387378140439e-06,2.105389983013454e-06,1.5140502074350907e-06,2.1734434352165227e-06,1.6970445437617055e-06,1.9209848432024147e-06,1.8025700735335387e-06,6.430254859880397e-07,3.1191737721551174e-06,2.473442654244196e-06,2.6972376717705833e-06,1.2114159016974888e-06,1.4270947834793481e-06
225,2.538695515844082e-06,1.4534229026035713e-06,2.0669508242983646e-06,5.485468546486544e-06,2.1035772780673137e-06,1.5502860610384347e-06,2.118394041088702e-06,1.6996760287945102e-06,1.941160237325058e-06,1.7758403388631901e-06,6.465597083224148e-07,3.1920046633027573e-06,2.457091599641146e-06,2.656402644141845e-06,1.1923225560848376e-06,1.3995062531957366e-06
226,2.512648607634262e-06,1.464799483577987e-06,2.1275945500999885e-06,5.578579021487034e-06,2.1041306096486022e-06,1.591125580114233e-06,2.0597295385069096e-06,1.701044640855032e-06,1.9606206044833773e-06,1.75014729030766e-06,6.53436501806709e-07,3.2691088947310166e-06,2.439675301273647e-06,2.6085973100581633e-06,1.1707148099875958e-06,1.3773719557365711e-06
227,2.4812989265127675e-06,1.4758603401736647e-06,2.184788646874894e-06,5.650686922071915e-06,2.1074254718760173e-06,1.636155090770847e-06,1.998578425284646e-06,1.7015876397936564e-06,1.978596560376357e-06,1.7261597798584361e-06,6.637656808035408e-07,3.349808114837383e-06,2.421250813148883e-06,2.5543775662962627e-06,1.1462853560967826e-06,1.3614692220401044e-06
228,2.446038172862136e-06,1.4861439901675221e-06,2.2373942243394495e-06,5.700263935735366e-06,2.114114847763968e-06,1.6847795633422301e-06,1.936025584974205e-06,1.7015753642345605e-06,1.994112384809292e-06,1.7045900440881205e-06,6.77548334052103e-07,3.4330280392399354e-06,2.401816967514368e-06,2.4945966606499754e-06,1.1189989358669645e-06,1.352389056470148e-06
229,2.4087612661586124e-06,1.495170122347893e-06,2.284241123161517e-06,5.727370582394338e-06,2.125039500650376e-06,1.7362033589639734e-06,1.8731054848546623e-06,1.7010023969091979e-06,2.0061260163091434e-06,1.686048240667835e-06,6.946567848574831e-07,3.5173524479270055e-06,2.381485172274031e-06,2.4302560023275363e-06,1.0890321929381089e-06,1.350493877189915e-06
230,2.3713341672947395e-06,1.5025053806765452e-06,2.3239542715952117e-06,5.733560217263682e-06,2.1410018756031006e-06,1.7894843305264412e-06,1.810664893159181e-06,1.6995595470734726e-06,2.0137932590397427e-06,1.6709463754190509e-06,7.148691169802817e-07,3.6013765413096294e-06,2.3605097590288356e-06,2.362379138232536e-06,1.0566267692913071e-06,1.3559096597443586e-06
231,2.335322802166033e-06,1.5078404088801988e-06,2.3549330354184192e-06,5.721646011561767e-06,2.1625696810219473e-06,1.8436960535914228e-06,1.7492446000781362e-06,1.6966631110926678e-06,2.0166439089542655e-06,1.6594614667039442e-06,7.3791648297395e-07,3.6841205692351495e-06,2.3391632699506624e-06,2.2919419822423845e-06,1.0220549697802498e-06,1.3685320669975255e-06
232,2.302034474369874e-06,1.5109256280066865e-06,2.37554246616007e-06,5.695318285880727e-06,2.189987575008404e-06,1.8980515744557052e-06,1.6890977343380852e-06,1.6915384526513694e-06,2.014611603333099e-06,1.6515259920496417e-06,7.634958312820148e-07,3.7652775275185626e-06,2.3175258140363022e-06,2.219851115735839e-06,9.857520595631333e-07,1.388033824378589e-06
233,2.272640498369213e-06,1.5114313035724039e-06,2.3844193921385183e-06,5.658641220194304e-06,2.223178191444664e-06,1.951874654134889e-06,1.630348252504759e-06,1.683417150307519e-06,2.0080449896892147e-06,1.6468360425206611e-06,7.912581005990418e-07,3.845287560240243e-06,2.2953496543057723e-06,2.1469964528603434e-06,9.483824559992756e-07,1.413862103212985e-06
234,2.2481792308518388e-06,1.508901959875409e-06,2.380760366363617e-06,5.615534237264489e-06,2.261758404527036e-06,2.0045078738615203e-06,1.57320205126356e-06,1.6717939949279983e-06,1.9977122491887696e-06,1.644897855289997e-06,8.208389367517305e-07,3.925319972847332e-06,2.2721831982460354e-06,2.0742568986713913e-06,9.107038946938397e-07,1.445235555222993e-06
235,2.229455051749581e-06,1.5027912081324742e-06,2.364526114753029e-06,5.569331808578452e-06,2.305042352594225e-06,2.0553185339246074e-06,1.5180588970424584e-06,1.6565517596595182e-06,1.984716371735984e-06,1.6451417891792265e-06,8.519502938671378e-07,4.007101459578865e-06,2.2477193447460327e-06,2.002407656926141e-06,8.733902682144412e-07,1.4811599811109673e-06
236,2.216926962241689e-06,1.4925631608535008e-06,2.3365039324393224e-06,5.522468062661329e-06,2.3520510236890314e-06,2.103808236555672e-06,1.4654710189379853e-06,1.6378547183653142e-06,1.9703163337762048e-06,1.6470958916676414e-06,8.844650104741772e-07,4.0925192059423075e-06,2.2220701498475466e-06,1.9320727942013913e-06,8.369528204965048e-07,1.5204590278531098e-06
237,2.2106269458387836e-06,1.47791535844343e-06,2.298133826185896e-06,5.476385026280248e-06,2.401518615854825e-06,2.1496475602624827e-06,1.4160412362270827e-06,1.6159436254986733e-06,1.955725566761412e-06,1.6505222265026176e-06,9.184345310391948e-07,4.183147197195767e-06,2.1957481000592787e-06,1.8638088383477959e-06,8.017373015119889e-07,1.561801631801291e-06
238,2.210159885351826e-06,1.459015196516285e-06,2.251142870987441e-06,5.431711390556261e-06,2.451984457522166e-06,2.192540680961905e-06,1.3703484778630696e-06,1.5910614183597788e-06,1.941965515000716e-06,1.6554103110023322e-06,9.54035061323674e-07,4.2799041424149355e-06,2.1694204597503087e-06,1.7982090595911512e-06,7.679857019772732e-07,1.6037378373279514e-06
239,2.214860609249774e-06,1.4365540601888396e-06,2.197256615596927e-06,5.3885165256469475e-06,2.5020458471041206e-06,2.2321028510410956e-06,1.3288930941423899e-06,1.5635431198912872e-06,1.929781345879862e-06,1.6618497691912803e-06,9.914798624952938e-07,4.382890255993796e-06,2.1436504878561025e-06,1.7358486869458973e-06,7.35943466758399e-07,1.6447669022619222e-06
240,2.224054157020067e-06,1.4116021364070701e-06,2.138105896653227e-06,5.346439126066099e-06,2.550519118933503e-06,2.267887213475166e-06,1.292023286872709e-06,1.5338705660230067e-06,1.9196064392807054e-06,1.6698877057105373e-06,1.0309529389478639e-06,4.491325243536492e-06,2.1188237563772593e-06,1.6771263459892343e-06,7.059078120245731e-07,1.6833977385620806e-06
241,2.2372150981106986e-06,1.3854032607326753e-06,2.075178328818927e-06,5.304748574470738e-06,2.5962816599856123e-06,2.2994259608302614e-06,1.2598576990513173e-06,1.5025808688506755e-06,1.9116109594955804e-06,1.6794355302812205e-06,1.072569310495908e-06,4.60350748111808e-06,2.095273209672508e-06,1.6221939525430538e-06,6.781819172153914e-07,1.7181616044853454e-06
242,2.253922245587176e-06,1.359211218835736e-06,2.0097982856290056e-06,5.26247671628266e-06,2.638056833226368e-06,2.3262366909126375e-06,1.2322467518532975e-06,1.4701593829461493e-06,1.905811993302911e-06,1.6902251917479463e-06,1.1163391043473688e-06,4.716859450234585e-06,2.07341605659761e-06,1.5709839931294452e-06,6.530149163002525e-07,1.7476550493325105e-06
243,2.273740216029648e-06,1.334187376519152e-06,1.9432277749125747e-06,5.218620661366664e-06,2.67449482433544e-06,2.347931271444726e-06,1.2087805868032878e-06,1.4370291615589252e-06,1.9021407238032422e-06,1.7017734602239875e-06,1.162179503857723e-06,4.828232415413304e-06,2.053765361194574e-06,1.5233101314852488e-06,6.305799524135511e-07,1.7706889168210905e-06
244,2.2961966808002517e-06,1.311347688968026e-06,1.8767870696635884e-06,5.1723280829273414e-06,2.7044915979755584e-06,2.364438016705935e-06,1.188846725320338e-06,1.4035884753653535e-06,1.9004353701757837e-06,1.7133514997016992e-06,1.2099896290968538e-06,4.934400974316487e-06,2.0368334315460495e-06,1.4790548254168991e-06,6.109846468507296e-07,1.7864531565241233e-06
245,2.320887549564398e-06,1.2915305273871935e-06,1.8118590850163184e-06,5.1230263050246045e-06,2.7274580115695106e-06,2.376197254965987e-06,1.1717313968653891e-06,1.3703122376955316e-06,1.900422068428467e-06,1.72404837171197e-06,1.2596695375774178e-06,5.0323740978329305e-06,2.023013368653449e-06,1.4382867338912609e-06,5.942994472005293e-07,1.7945767947218949e-06
246,2.347622928226415e-06,1.2753770008013185e-06,1.749817340542713e-06,5.070539199450124e-06,2.743345494937346e-06,2.3842120186870527e-06,1.1567056324715883e-06,1.3379196017898156e-06,1.9017209393308955e-06,1.7329804515132311e-06,1.3110343440195333e-06,5.119322500530919e-06,2.012493011428797e-06,1.4011775853543845e-06,5.805869566179354e-07,1.7951067684595888e-06
247,2.376451271369768e-06,1.2633328677741192e-06,1.6919579312671358e-06,5.0152159196514426e-06,2.75242117726917e-06,2.389901357257779e-06,1.1430737083642587e-06,1.3073971385129756e-06,1.9039519845391953e-06,1.7395553484352416e-06,1.363779086641897e-06,5.192383781831395e-06,2.005175557029794e-06,1.367868357588062e-06,5.699051609445582e-07,1.7884779082068652e-06
248,2.407468794688601e-06,1.2556420040633413e-06,1.639439138021899e-06,4.957991415776845e-06,2.7549629509431135e-06,2.3948018666686725e-06,1.1302497988602854e-06,1.2798032267351306e-06,1.906970038884771e-06,1.7436631442999169e-06,1.4176098160036058e-06,5.248789549578322e-06,2.00062057168246e-06,1.338442817102141e-06,5.622848621826916e-07,1.7754731922942304e-06
249,2.4405578323982117e-06,1.2523072112123387e-06,1.5932337384883321e-06,4.9002815438399865e-06,2.7510772001377768e-06,2.400277868657869e-06,1.117899774502323e-06,1.2560625085537284e-06,1.9109759740890396e-06,1.7457389576825623e-06,1.4724080649144749e-06,5.286460879007967e-06,1.9981174508931657e-06,1.3129956299882824e-06,5.57726551407955e-07,1.757141598273303e-06
250,2.4752441526206826e-06,1.2530490016744264e-06,1.5541203691790862e-06,4.843743978122921e-06,2.740676350975344e-06,2.4073685442780714e-06,1.1060780676366846e-06,1.236886443565196e-06,1.9163267402902386e-06,1.746672717123652e-06,1.5282179372601357e-06,5.304676570392058e-06,1.9969078492494456e-06,1.2917756800866806e-06,5.56226251631956e-07,1.734657565790104e-06
251,2.5106574946092595e-06,1.2572890671066648e-06,1.5226940300237514e-06,4.790039277089279e-06,2.7234822253107515e-06,2.416733380524152e-06,1.0952295739148076e-06,1.2227743939663915e-06,1.923274470083093e-06,1.7475736820306832e-06,1.585057904499901e-06,5.304140443394357e-06,1.9963574168843085e-06,1.2752987745609271e-06,5.577959744227256e-07,1.7091481000811208e-06
252,2.5455292444877595e-06,1.2641623181374629e-06,1.499352617541618e-06,4.740685533856892e-06,2.69900728343221e-06,2.428595545147416e-06,1.0860063227986478e-06,1.2140213162837287e-06,1.9318405267995967e-06,1.7495094753999494e-06,1.6427537480656204e-06,5.286292398007051e-06,1.995904509021758e-06,1.264245830762065e-06,5.624710609214567e-07,1.6815985969081488e-06
253,2.5782562097848398e-06,1.2725920994882827e-06,1.484262883279356e-06,4.697007798976363e-06,2.6666884944057235e-06,2.442692935607811e-06,1.0790313036627178e-06,1.2107360118061428e-06,1.941781907569898e-06,1.7533428973431647e-06,1.7008912382711586e-06,5.252671611103572e-06,1.994919175565131e-06,1.2592273522079532e-06,5.703025523982101e-07,1.6529003686210921e-06
254,2.6070055486338936e-06,1.2814896842451392e-06,1.4773468834253704e-06,4.660112844311797e-06,2.6262531530838914e-06,2.458320987665441e-06,1.0747673684493093e-06,1.2129188491685184e-06,1.9526648415806587e-06,1.75965357768809e-06,1.7588067520229384e-06,5.205033086139992e-06,1.9927538692605393e-06,1.2606517457373261e-06,5.813282200811188e-07,1.623898226290006e-06
255,2.6297675311717375e-06,1.290039599146942e-06,1.478306482355552e-06,4.630768254553434e-06,2.578089879530142e-06,2.474436649345146e-06,1.0734873096639296e-06,1.220561636401292e-06,1.964111379745011e-06,1.7687027915520482e-06,1.8155915833934691e-06,5.145751796265952e-06,1.989007877386121e-06,1.2687147482387315e-06,5.955318330654658e-07,1.5953058569839254e-06
256,2.644452049023606e-06,1.2978723345270033e-06,1.4866610769340443e-06,4.609145451517703e-06,2.523374094079454e-06,2.489707180805842e-06,1.0752809716875947e-06,1.2336639263135751e-06,1.976075306949995e-06,1.7804523466638444e-06,1.8702137458363033e-06,5.077753715062083e-06,1.983714526135315e-06,1.2834190738394892e-06,6.128000191506775e-07,1.567597520366045e-06
257,2.6492826478566544e-06,1.304975978700963e-06,1.5017817402030766e-06,4.59459051186904e-06,2.463886483326944e-06,2.502571246309231e-06,1.0801135532829609e-06,1.2521480689185028e-06,1.9888831357356676e-06,1.794673371556139e-06,1.921758813399117e-06,5.0039666175029565e-06,1.9772522166223947e-06,1.3046540201172732e-06,6.328888068946454e-07,1.5410383960358802e-06
258,2.6433824146065234e-06,1.3114522375163065e-06,1.522945094906493e-06,4.58558883864153e-06,2.4016207314136824e-06,2.511472695237508e-06,1.0879635553188893e-06,1.2757673115338036e-06,2.00299257414972e-06,1.8110937006952107e-06,1.969607671004464e-06,4.9267251109608644e-06,1.970119276049038e-06,1.3323197033180822e-06,6.554065078042813e-07,1.5158127824485566e-06
259,2.6269990967760034e-06,1.317331397148576e-06,1.5494110111541966e-06,4.579883326836084e-06,2.3384045726788986e-06,2.5151887921687384e-06,1.0989653384274878e-06,1.3041037311510603e-06,2.0186884222223004e-06,1.82941019054801e-06,2.0134048494844653e-06,4.847413336670289e-06,1.9627703656200434e-06,1.366346218323629e-06,6.798162971406204e-07,1.4920935457407376e-06
260,2.6011136654554974e-06,1.3225060062451712e-06,1.5804681589477332e-06,4.5746487878744085e-06,2.275734895791348e-06,2.513064901582698e-06,1.1134182178472764e-06,1.3366807416393019e-06,2.0359051757640907e-06,1.8491678725392986e-06,2.0528937815595704e-06,4.766403054613578e-06,1.9555226343182717e-06,1.4065969521306423e-06,7.054845989693828e-07,1.4700219261569315e-06
261,2.566889884694014e-06,1.326700641899999e-06,1.6154172746211667e-06,4.5666833065545364e-06,2.214831780794364e-06,2.505104904258261e-06,1.1316400360354554e-06,1.37313205346542e-06,2.0541678545809543e-06,1.86972397794649e-06,2.087801422962254e-06,4.683289389164081e-06,1.948504467647078e-06,1.4527854334356905e-06,7.31784685870085e-07,1.4497011621731222e-06
262,2.52548612596063e-06,1.3294574122843081e-06,1.6535591991374072e-06,4.552595848150271e-06,2.1567841532264376e-06,2.491934776059875e-06,1.1538158291401367e-06,1.4133263416887932e-06,2.072596541644221e-06,1.890370723965904e-06,2.11782228671333e-06,4.597373865353059e-06,1.9416534636148174e-06,1.5044239892409678e-06,7.58186607035266e-07,1.4312724560345877e-06
263,2.4781662787799104e-06,1.3302057666165588e-06,1.6942593106402868e-06,4.529056677678026e-06,2.102646204770844e-06,2.4746667831829537e-06,1.1800018496979197e-06,1.4573819259420842e-06,2.0900369594219078e-06,1.910509468619232e-06,2.1425944513557283e-06,4.508195225753554e-06,1.9347386776329304e-06,1.5607757674066487e-06,7.842498098869874e-07,1.4150227268964491e-06
264,2.4263380851506778e-06,1.3284076615535542e-06,1.7370358927150068e-06,4.49323703871469e-06,2.0534158931031843e-06,2.4547379019761544e-06,1.2102826014423686e-06,1.5055880359546823e-06,2.1053828738393214e-06,1.929786183238783e-06,2.1615996319284644e-06,4.415875397392842e-06,1.9274035487534194e-06,1.6208227946741356e-06,8.095645162404829e-07,1.4014041822132623e-06
265,2.3713623807203657e-06,1.323675656438165e-06,1.7815426387418366e-06,4.4433835323458e-06,2.010000027664923e-06,2.433798778037495e-06,1.244922888039929e-06,1.5583028878162282e-06,2.117962151989427e-06,1.9481426261608552e-06,2.174116091521216e-06,4.321209978107953e-06,1.9192428641346565e-06,1.6832289050774673e-06,8.33763136958644e-07,1.3909078214525714e-06
266,2.3142911548003304e-06,1.315834139976383e-06,1.8274108396271403e-06,4.379232537377751e-06,1.97332415073825e-06,2.413648504285784e-06,1.2843730229133443e-06,1.6158720442707408e-06,2.127734410250161e-06,1.965752891520744e-06,2.179346091606917e-06,4.225537823500023e-06,1.9099382139454545e-06,1.7463262980702883e-06,8.565751796494904e-07,1.3838802023783806e-06
267,2.255772568240574e-06,1.3049636895754438e-06,1.8740593972495238e-06,4.3020111982387555e-06,1.944520430981807e-06,2.3961395547744125e-06,1.3291475118238941e-06,1.6785440223651393e-06,2.135182028732476e-06,1.982857784221722e-06,2.176594787782889e-06,4.130413720414356e-06,1.899469356867771e-06,1.8082730528871042e-06,8.778037857802572e-07,1.3804208648561697e-06
268,2.196183433591788e-06,1.2913854250600294e-06,1.920606641885894e-06,4.214051252134476e-06,1.9249428599240915e-06,2.3830077320879453e-06,1.3796887005643507e-06,1.7463759674854522e-06,2.14102563021784e-06,1.9995668184752753e-06,2.165377463632943e-06,4.037182132949824e-06,1.8882608889506344e-06,1.8673994133889497e-06,8.972635699076287e-07,1.3803947047803831e-06
269,2.1358785505219917e-06,1.2755188786969796e-06,1.9659389971883183e-06,4.118233747013242e-06,1.9159417379154434e-06,2.375678481447381e-06,1.4362835645980682e-06,1.8192054199389809e-06,2.1459569397222655e-06,2.0157118663339504e-06,2.1455145063953775e-06,3.9466707475729455e-06,1.877058239733064e-06,1.9224609702768314e-06,9.147815347190092e-07,1.383477902230818e-06
270,2.0754185224735864e-06,1.2576928694289348e-06,2.0088966514223054e-06,4.017440780218992e-06,1.9186116233533416e-06,2.375147420823223e-06,1.499066498049414e-06,1.8967176747797583e-06,2.150452413999259e-06,2.0307917678268583e-06,2.117234133039186e-06,3.859201940404967e-06,1.8666025841740196e-06,1.9725804720037277e-06,9.301973402635069e-07,1.3891609066790596e-06
271,2.0156788897488703e-06,1.2380646564571297e-06,2.048496940898206e-06,3.914100411003931e-06,1.9336911577642594e-06,2.3819481490519084e-06,1.5680696173811429e-06,1.978512679415577e-06,2.1546657772419263e-06,2.0440069458187386e-06,2.0811977152091226e-06,3.7748934557173045e-06,1.8574198032122e-06,2.017036713901662e-06,9.433067180022598e-07,1.3967585956998647e-06
272,1.9578267476443734e-06,1.2167021288685836e-06,2.084126755728366e-06,3.8099063883398313e-06,1.9615848251485326e-06,2.396156024018232e-06,1.6432150654427328e-06,2.0641148675619264e-06,2.1584148933642962e-06,2.0543920313841207e-06,2.038411742579457e-06,3.693992698357558e-06,1.849877365362571e-06,2.0551173176229886e-06,9.538713124759914e-07,1.4055083540943833e-06
273,1.903226208086674e-06,1.1937692172499162e-06,2.115634782938179e-06,3.7057207105281415e-06,2.002400530937675e-06,2.417488246284275e-06,1.7242842400289062e-06,2.1529410022476403e-06,2.161299827630407e-06,2.06101215139937e-06,1.9900495593735313e-06,3.6170422380488797e-06,1.8443318156431773e-06,2.0860782582283e-06,9.617779582801785e-07,1.414671421404929e-06
274,1.8533150208670902e-06,1.1696959357766938e-06,2.1432768948197463e-06,3.601579073746001e-06,2.0559364207704964e-06,2.4455876222824005e-06,1.8109610979802093e-06,2.2442181112024224e-06,2.162943471472091e-06,2.0630676562665348e-06,1.937223192254713e-06,3.5448680315045736e-06,1.8411241031402118e-06,2.109298766154416e-06,9.671917552947972e-07,1.4235241254871752e-06
275,1.8094475054787928e-06,1.1451961767468067e-06,2.1675627381117655e-06,3.4967908946621734e-06,2.1216465398994123e-06,2.4803357831795855e-06,1.9028641022091763e-06,2.3368940545939673e-06,2.1631659729934618e-06,2.059797113304547e-06,1.8808118954196734e-06,3.4784755338076454e-06,1.8404379817136077e-06,2.1246484156285636e-06,9.70512747160306e-07,1.4313580084555444e-06
276,1.772740208729034e-06,1.121111059769273e-06,2.18910636803048e-06,3.390161520513332e-06,2.198683868903382e-06,2.5218941015821103e-06,1.999463881746331e-06,2.4296203027251607e-06,2.1619251710161092e-06,2.050353415357363e-06,1.8214342922109804e-06,3.4189524926413478e-06,1.8422412484099517e-06,2.132732854994082e-06,9.722150058545555e-07,1.4376169362181e-06
277,1.7439909593316188e-06,1.09822535172021e-06,2.2085042529347448e-06,3.280296847034516e-06,2.2860390342613094e-06,2.5704301981610875e-06,2.0999433741380257e-06,2.520870967894106e-06,2.1592199192290364e-06,2.0339499310196318e-06,1.7594905111916493e-06,3.367403249780519e-06,1.8464091461676987e-06,2.1347065450603308e-06,9.72794615573183e-07,1.4420284895853839e-06
278,1.7236617322548722e-06,1.0771688729612695e-06,2.2261955009985783e-06,3.165946415953582e-06,2.3826655963772886e-06,2.625805770521034e-06,2.2030940600971155e-06,2.6092171453059112e-06,2.1551770643617753e-06,2.0102737006113193e-06,1.695197046745682e-06,3.3248206110200898e-06,1.8528719497478474e-06,2.131805398517137e-06,9.728387833658223e-07,1.4445972611425254e-06
279,1.7118609246023855e-06,1.0583777643762956e-06,2.2423358056343873e-06,3.046343182208296e-06,2.4874745851363472e-06,2.6874068050520653e-06,2.307277860139959e-06,2.693581457382894e-06,2.150114543446795e-06,1.9798138612448877e-06,1.6286986249833098e-06,3.2918802929446284e-06,1.8615810820406022e-06,2.125006844934085e-06,9.73032525779835e-07,1.4455435290441298e-06
280,1.7083252292576996e-06,1.0420818935852858e-06,2.2567889166755424e-06,2.9214464596901275e-06,2.5992273177001718e-06,2.754088698586146e-06,2.410470861872375e-06,2.7733004436015575e-06,2.1443561849432424e-06,1.9438086119104104e-06,1.5602911415205852e-06,3.268851177740736e-06,1.8723454804832633e-06,2.115039418569563e-06,9.740418868721805e-07,1.4452495005606142e-06
281,1.7124491143379939e-06,1.0283161144157847e-06,2.269250854968957e-06,2.7919951347266777e-06,2.716517213076424e-06,2.8242744967849793e-06,2.510447656688873e-06,2.8481162813424833e-06,2.1379587139886443e-06,1.9038761304796787e-06,1.4905832518675687e-06,3.2557193264158403e-06,1.884794434848389e-06,2.1026169643684993e-06,9.763938682885484e-07,1.4441582494281054e-06
282,1.7233637702997056e-06,1.0169734381548765e-06,2.279397585588117e-06,2.6593705080825506e-06,2.8378769706657726e-06,2.8962097921576225e-06,2.6050879997327466e-06,2.918248749865968e-06,2.1305678325655637e-06,1.861617654242938e-06,1.420441000992644e-06,3.252315850723306e-06,1.8985530267323663e-06,2.0885808020294296e-06,9.804552981135977e-07,1.4426379584358942e-06
283,1.740034766334833e-06,1.0079457068954094e-06,2.286964260053741e-06,2.5253481752560294e-06,2.9617725525105666e-06,2.9681221164005197e-06,2.6926059862690505e-06,2.984446337507781e-06,2.1214389346242075e-06,1.8183851489360692e-06,1.3507777635035384e-06,3.2582501543976676e-06,1.913431103816547e-06,2.073798606710725e-06,9.86488097717079e-07,1.4409375172573859e-06
284,1.7613822156555065e-06,1.001308316209995e-06,2.2917619866893114e-06,2.391815750468686e-06,3.0864286542206294e-06,3.0381430976975114e-06,2.771502383524476e-06,3.0478539460521113e-06,2.1096253315336144e-06,1.7752274191136695e-06,1.2823784115234316e-06,3.2727448284230925e-06,1.929407431120278e-06,2.0590309737848172e-06,9.946867220326085e-07,1.4392600427206989e-06
285,1.7864053088322947e-06,9.973747966332272e-07,2.293644575529153e-06,2.260553813812411e-06,3.20972842705839e-06,3.104293100319831e-06,2.8402881439373047e-06,3.1097339242231194e-06,2.09433093525704e-06,1.7329531244101623e-06,1.2158476024038644e-06,3.294554731350391e-06,1.9464229390838e-06,2.044974808892222e-06,1.0051442267155462e-06,1.4378189762050347e-06
286,1.8142034480802758e-06,9.965526152620592e-07,2.2923963885643356e-06,2.133196222135774e-06,3.329322353648978e-06,3.1647796198705928e-06,2.897284422289379e-06,3.1712205498681217e-06,2.0753040036277464e-06,1.6922009851149476e-06,1.1516141471433907e-06,3.3219651344313914e-06,1.9642218353242335e-06,2.032333340619261e-06,1.017787977170372e-06,1.4368194208797639e-06
287,1.843853209473677e-06,9.991583100939028e-07,2.287594065905171e-06,2.011293554206234e-06,3.4429078634850207e-06,3.2183482899114455e-06,2.9407673829407384e-06,3.233209810104132e-06,2.053013752583864e-06,1.6534332416530128e-06,1.0899512021999357e-06,3.3528146545612825e-06,1.9824257803343216e-06,2.021719743755206e-06,1.0323462070810643e-06,1.4364604642585325e-06
288,1.87427042651133e-06,1.005353010708198e-06,2.2785817950471207e-06,1.896274165165957e-06,3.548591254121753e-06,3.2643146797176552e-06,2.969360815820981e-06,3.296349008348554e-06,2.028436384701214e-06,1.6169142593995944e-06,1.0310615512442383e-06,3.3846164377938253e-06,2.000718149907731e-06,2.01348449701712e-06,1.0483429766094061e-06,1.4369904952874215e-06
289,1.9041723566405054e-06,1.015193105580278e-06,2.264605295547754e-06,1.7893414919555508e-06,3.6451449193279064e-06,3.3022848376309736e-06,2.982357586849491e-06,3.361068229130854e-06,2.0026357280206313e-06,1.5827334360274776e-06,9.751902304162825e-07,3.4148197393264355e-06,2.018890572706603e-06,2.0076209794239138e-06,1.0651024900134358e-06,1.4387099984868681e-06
290,1.932205554538612e-06,1.0287072757271325e-06,2.2450392464079903e-06,1.69145838591135e-06,3.731970753018898e-06,3.331874605588819e-06,2.9798557797376842e-06,3.427643130964842e-06,1.9764734934120874e-06,1.5508227065599752e-06,9.226400397948726e-07,3.4411402446805616e-06,2.0367698195297874e-06,2.0037642611548165e-06,1.0818084194299746e-06,1.4418754725623819e-06
291,1.957267157591486e-06,1.0459309460662376e-06,2.2196171737660374e-06,1.6033613862865964e-06,3.808825416730701e-06,3.352686934989173e-06,2.962808121141344e-06,3.496267356826556e-06,1.950528150657063e-06,1.520985392696666e-06,8.736865661311462e-07,3.461869153043078e-06,2.054259300404047e-06,2.0012701348855264e-06,1.0976858041663332e-06,1.4466074766139859e-06
292,1.978799050368001e-06,1.0668709282418028e-06,2.188548475252078e-06,1.5255418961659816e-06,3.875618461739386e-06,3.364512467051877e-06,2.9330036901256054e-06,3.5670278469590466e-06,1.925102153031577e-06,1.4930180360951363e-06,8.285028424658024e-07,3.476037098007063e-06,2.071498076287555e-06,1.999369597751256e-06,1.1122606433243706e-06,1.4528832856318444e-06
293,1.996770904634375e-06,1.0914470744927383e-06,2.1524882204717497e-06,1.458255029686306e-06,3.932482855094118e-06,3.367501055987744e-06,2.8929026889495628e-06,3.6397251553356876e-06,1.900252289356702e-06,1.466861537972784e-06,7.871377466099362e-07,3.4833079558250405e-06,2.08886010634573e-06,1.9973283215604055e-06,1.1255113747089952e-06,1.4606115935335118e-06
294,2.0113901603179815e-06,1.1194993854430298e-06,2.1124477787468537e-06,1.4015461023444788e-06,3.979873353490894e-06,3.362091566005576e-06,2.845309322320911e-06,3.7137485704087268e-06,1.8759017678441993e-06,1.4425988225539698e-06,7.495119385324043e-07,3.4836697852725246e-06,2.1067006154830535e-06,1.9945183765065904e-06,1.1377773585006085e-06,1.4697604693452453e-06
295,2.0227686008221183e-06,1.1508635643974734e-06,2.06965615578083e-06,1.3552358842505613e-06,4.018352164712059e-06,3.3487051828967455e-06,2.7929721860577896e-06,3.7882442531169874e-06,1.8520552432107153e-06,1.4202810426591558e-06,7.154068493801164e-07,3.4771807279088066e-06,2.125078325164865e-06,1.9903496067435526e-06,1.1495112857424715e-06,1.4804389788276941e-06
296,2.0307053434274936e-06,1.1854248447891412e-06,2.025331390375334e-06,1.318902786268392e-06,4.0482481232486285e-06,3.327448355402833e-06,2.7382589454264647e-06,3.862461457435289e-06,1.8289670283107919e-06,1.3997756043477485e-06,6.844555077098069e-07,3.4639075389652627e-06,2.143696111776739e-06,1.9841142446806212e-06,1.1610763244433102e-06,1.4928737364426187e-06
297,2.034641802261893e-06,1.2230901515274673e-06,1.980504964382449e-06,1.2919316717905734e-06,4.069626374089329e-06,3.2980939403886224e-06,2.682995402751859e-06,3.93597640775099e-06,1.8071147070318598e-06,1.3807949689161374e-06,6.561504787066698e-07,3.44395041291705e-06,2.162119700748927e-06,1.9749267690092042e-06,1.172667212648723e-06,1.5073473948651215e-06
298,2.033736060497292e-06,1.263720871594129e-06,1.9360357436297164e-06,1.273612582058726e-06,4.082569804852e-06,3.260329241944998e-06,2.628427311826263e-06,4.008609843630663e-06,1.7870056129938943e-06,1.3631071714023817e-06,6.298829919412292e-07,3.417438081939944e-06,2.180122431108903e-06,1.9618775051524404e-06,1.1842931742644463e-06,1.5241295069028825e-06
299,2.026941761057345e-06,1.3071239723976372e-06,1.8926885585119045e-06,1.2632282434125928e-06,4.08745505721161e-06,3.2140233822580443e-06,2.575252318595206e-06,4.080057254047435e-06,1.7689832121092294e-06,1.3467600972883494e-06,6.050266295895739e-07,3.3844723567464466e-06,2.197896674777857e-06,1.9443058950241418e-06,1.1958046388052451e-06,1.5433903969067827e-06
300,2.0130924482476817e-06,1.3531338781624189e-06,1.851136549685215e-06,1.2601099343360659e-06,4.085015559927075e-06,3.1593417346440313e-06,2.523735488719152e-06,4.149486784510843e-06,1.7531600163103205e-06,1.3320918536551979e-06,5.81050122121022e-07,3.3449882383779534e-06,2.2160274956603434e-06,1.9220194252314666e-06,1.2069931389393262e-06,1.565134998031504e-06
301,1.991109559367701e-06,1.4016990715876755e-06,1.8119076649090254e-06,1.2636533620383834e-06,4.076197693169572e-06,3.0967352622570734e-06,2.47388513660907e-06,4.2154252027922545e-06,1.7394312885184327e-06,1.319548709424099e-06,5.576131020431983e-07,3.298543706192685e-06,2.235358973478502e-06,1.895350859926535e-06,1.2176903146082082e-06,1.5891979185343512e-06
302,1.960311687777834e-06,1.4528723666021583e-06,1.775326847793424e-06,1.2732700142291982e-06,4.061997768462953e-06,3.026909010608265e-06,2.425605602060302e-06,4.276008546919884e-06,1.7275455896367785e-06,1.309569630622291e-06,5.34603840295166e-07,3.2442193093754917e-06,2.2568582507485115e-06,1.865007329440194e-06,1.2277519750830786e-06,1.6152909913858985e-06
303,1.9206603051473155e-06,1.5067066813437553e-06,1.7415244063007054e-06,1.28832124035479e-06,4.043444817845487e-06,2.9508124861288883e-06,2.3787793165142315e-06,4.3293639604664315e-06,1.717285384783066e-06,1.3025970897272673e-06,5.120991154289936e-07,3.1807975998251752e-06,2.2814600642851025e-06,1.8317710620529817e-06,1.2369502235503924e-06,1.6430409424840527e-06
304,1.8728437942796485e-06,1.5631318721570131e-06,1.710555440058791e-06,1.3081621569989796e-06,4.021636551513434e-06,2.8696317593077276e-06,2.3332951022911146e-06,4.3738363202850605e-06,1.7086364630651608e-06,1.2990311010508453e-06,4.902622737068147e-07,3.1071798192254584e-06,2.3099573101531265e-06,1.7962705365917172e-06,1.2449177319530035e-06,1.6720040900483716e-06
305,1.818160465678066e-06,1.6218668709966077e-06,1.6824987594083292e-06,1.3323283950945178e-06,3.9976253111140704e-06,2.784773389908264e-06,2.2890625996156614e-06,4.408015044146441e-06,1.7017672249221216e-06,1.2990932408605444e-06,4.692500132201857e-07,3.022865340128187e-06,2.343000642036231e-06,1.7589799423985596e-06,1.2512464788744849e-06,1.701686857352448e-06
306,1.7582214051620236e-06,1.6823889296545391e-06,1.6573940619903058e-06,1.3607349476648378e-06,3.972177043684693e-06,2.6978107589930014e-06,2.2460421973770354e-06,4.4307630640887325e-06,1.6968533714343961e-06,1.3027370735262226e-06,4.492172096307138e-07,2.9283018011744376e-06,2.3811422341672433e-06,1.7203558211348915e-06,1.2556818775306269e-06,1.731522398409815e-06
307,1.6946615053525428e-06,1.7439841661489964e-06,1.6351150774598288e-06,1.3937303954637306e-06,3.945632596896e-06,2.61033211136683e-06,2.2042824197329394e-06,4.441417297093251e-06,1.6939203897905248e-06,1.3096633365380083e-06,4.3041091123298104e-07,2.8249485667266328e-06,2.4249115720809635e-06,1.6809317191448183e-06,1.2582354222671646e-06,1.760788509262985e-06
308,1.629033448560395e-06,1.8058797617457357e-06,1.6153241190732207e-06,1.4319487447084499e-06,3.918006562467033e-06,2.5237491156827285e-06,2.1639223623553025e-06,4.440093038499303e-06,1.692832988910678e-06,1.3194275850324139e-06,4.132278265928971e-07,2.715030839661712e-06,2.4749076368141575e-06,1.6412817852376306e-06,1.2591212580889994e-06,1.7885784479143566e-06
309,1.5628037192105484e-06,1.867385416136274e-06,1.5975056605036633e-06,1.4760464676691002e-06,3.8892435940919e-06,2.4391916981275763e-06,2.125139143507345e-06,4.4278942261394195e-06,1.6934110845052148e-06,1.331570548527803e-06,3.981906675598336e-07,2.601109660958715e-06,2.531795102869357e-06,1.6019168633916119e-06,1.2585946843570192e-06,1.8138688011137202e-06
310,1.497326414125597e-06,1.9279298683757634e-06,1.5810728038036019e-06,1.5264963556101084e-06,3.859447049084247e-06,2.3574910908771945e-06,2.0880809516009898e-06,4.406917745409495e-06,1.6955464572106647e-06,1.3456496866312495e-06,3.859183096363374e-07,2.485643039356077e-06,2.5961596243832188e-06,1.5632551904843324e-06,1.2568214648787254e-06,1.8356054792285832e-06
311,1.4338228540042312e-06,1.9869540894528293e-06,1.5655323290141899e-06,1.5835107380231955e-06,3.828958208861761e-06,2.2792064734108764e-06,2.0528595380382154e-06,4.380060769369949e-06,1.6992649720068063e-06,1.3611994470391338e-06,3.771057453240922e-07,2.3707150833474053e-06,2.6683033105039324e-06,1.5256536070504982e-06,1.253839192556195e-06,1.8528133548116677e-06
312,1.3733704231390267e-06,2.0437932720876086e-06,1.550581174961561e-06,1.6470486953065586e-06,3.7983145211602508e-06,2.204651223527619e-06,2.0196495108821826e-06,4.350668580608188e-06,1.7047372094844272e-06,1.37771559704607e-06,3.7250296510851523e-07,2.2580563223264056e-06,2.7481121025249746e-06,1.489387261083684e-06,1.249573250847597e-06,1.8648200498105541e-06
313,1.3168611655436858e-06,2.097725423209638e-06,1.5360396583902686e-06,1.7169004798155144e-06,3.7681357091271488e-06,2.1338853138240517e-06,1.9888491243482917e-06,4.322094426936041e-06,1.7122121819175344e-06,1.3946410273611988e-06,3.729175962769839e-07,2.1493008278553576e-06,2.8350390384637458e-06,1.4546325206032842e-06,1.2438802820954163e-06,1.8715423821016382e-06
314,1.264953952057064e-06,2.1481536073921347e-06,1.5217045739554878e-06,1.7928481675570444e-06,3.738914001088108e-06,2.0667713240308943e-06,1.9611493012984e-06,4.297321710068546e-06,1.7219208669361574e-06,1.4113627369320923e-06,3.792220770119317e-07,2.0462359717788575e-06,2.9280923093850048e-06,1.4215472765160108e-06,1.236666632404488e-06,1.873638943926222e-06
315,1.21804743804195e-06,2.1947143175703154e-06,1.5073139146706343e-06,1.8748006169258148e-06,3.710812835667429e-06,2.003169812799249e-06,1.9373946805349543e-06,4.278770908027371e-06,1.7340289616502204e-06,1.427244132578778e-06,3.9235854684912985e-07,1.9508074596066108e-06,3.025777310883426e-06,1.3903917689447944e-06,1.228024171642611e-06,1.8724209085985396e-06
316,1.1762896507622894e-06,2.2371954340619606e-06,1.4926983651334168e-06,1.9627807200538705e-06,3.6836905158134523e-06,1.9431528101175445e-06,1.918326382299229e-06,4.26823800397133e-06,1.748625918072907e-06,1.441652083823334e-06,4.1336608036816946e-07,1.8649016610860093e-06,3.126180226014521e-06,1.3615974658398847e-06,1.2182717893094502e-06,1.8696247541047344e-06
317,1.1396205948177244e-06,2.27533519444377e-06,1.4779729340712064e-06,2.056766284567847e-06,3.6573348734595813e-06,1.8870798774478736e-06,1.9043953460350104e-06,4.266840906859389e-06,1.765720866215777e-06,1.4539988422243678e-06,4.4338927617701186e-07,1.7901613496801646e-06,3.227331143270524e-06,1.3357401842030436e-06,1.2079423408572274e-06,1.8672068956535285e-06
318,1.1077922583027112e-06,2.308696474233499e-06,1.4635945543975045e-06,2.156541537350451e-06,3.631696207854611e-06,1.8354896368102937e-06,1.895717404534232e-06,4.27503829684978e-06,1.7852157280963108e-06,1.4638567753155152e-06,4.836535809634769e-07,1.7279772044201041e-06,3.3276166543991395e-06,1.3134311668028534e-06,1.1977420815152885e-06,1.867172776403349e-06
319,1.0803705350927338e-06,2.3367164621587876e-06,1.4502654601241898e-06,2.261677275674993e-06,3.6069517044829897e-06,1.7888895921146913e-06,1.8921023898535826e-06,4.292859045670238e-06,1.8068570436623568e-06,1.4711388807486842e-06,5.354755499173811e-07,1.6795352537916485e-06,3.4259282099136866e-06,1.2952215578791339e-06,1.1884334462813853e-06,1.8713897107924984e-06
320,1.0568303613803903e-06,2.3587772366718057e-06,1.4387780377093758e-06,2.37155121291103e-06,3.5833216708935686e-06,1.7476204787066846e-06,1.893081391026076e-06,4.320237912921268e-06,1.8302772810479412e-06,1.476179786802578e-06,6.002898506800698e-07,1.6457868567123957e-06,3.5215598613409425e-06,1.2816065020071596e-06,1.1806960251272066e-06,1.8814341351738897e-06
321,1.0367579939632166e-06,2.3742028701543494e-06,1.4298849091509657e-06,2.485287480029598e-06,3.5607345020605333e-06,1.7118656398385163e-06,1.897954963267721e-06,4.357237678995101e-06,1.8551520152059145e-06,1.4795698472434087e-06,6.79626032138592e-07,1.627387927660142e-06,3.6140914147081588e-06,1.273062433208993e-06,1.1750432086020266e-06,1.8985382138222781e-06
322,1.019972979450163e-06,2.3823498021905084e-06,1.424221424819897e-06,2.60163140226531e-06,3.5385961943760664e-06,1.6817076500151642e-06,1.9058745170398495e-06,4.404084995861164e-06,1.8812800791187554e-06,1.4819528296326424e-06,7.751137516114907e-07,1.6247064717111328e-06,3.7033932054172893e-06,1.2700052389792597e-06,1.171792528058599e-06,1.9235943898549103e-06
323,1.0064558823725495e-06,2.3828272406483936e-06,1.4222891888100368e-06,2.718834094515768e-06,3.5158769948385057e-06,1.6571632511104459e-06,1.915863565117134e-06,4.461068537679718e-06,1.908451991060686e-06,1.4840127032359719e-06,8.885824746370776e-07,1.6378849900957969e-06,3.789672414768056e-06,1.272709601524498e-06,1.1710739371282816e-06,1.95714993324848e-06
324,9.962120671668745e-07,2.375646113501006e-06,1.424457153894269e-06,2.8345840144130884e-06,3.49154715954569e-06,1.6382032768618423e-06,1.92678152510581e-06,4.52841276528657e-06,1.9362676291955657e-06,1.4864893067314293e-06,1.0221104689731318e-06,1.6669607799187851e-06,3.8734316363606175e-06,1.2812751964431887e-06,1.1728455870791397e-06,1.999378945579885e-06
325,9.891854209129398e-07,2.3612077516387185e-06,1.4309100953484298e-06,2.9459989643140594e-06,3.465092691593995e-06,1.624745877240865e-06,1.9374062023657545e-06,4.606255242003968e-06,1.9641052286233564e-06,1.4900708705703091e-06,1.177916016624476e-06,1.7121214924740838e-06,3.9553866585853285e-06,1.2956274883281521e-06,1.1768958635542838e-06,2.05004645756223e-06
326,9.851994666715217e-07,2.340165988538135e-06,1.4415706245826668e-06,3.0497567941997894e-06,3.4367054228247907e-06,1.6166057863711628e-06,1.9467072277210304e-06,4.6947248725076876e-06,1.9912271123320015e-06,1.4952607082801008e-06,1.3582058101593177e-06,1.7739497628609965e-06,4.036457183420948e-06,1.3155071957654242e-06,1.1828442806178098e-06,2.1085029140396733e-06
327,9.839320144475094e-07,2.313214666034556e-06,1.456071456372828e-06,3.142466758654215e-06,3.4070570844143725e-06,1.613431473551347e-06,1.954130929058675e-06,4.793958622345185e-06,2.016934225657435e-06,1.502302668379693e-06,1.5650746738490283e-06,1.8533725550067394e-06,4.117748405189274e-06,1.340471651724002e-06,1.190144737959438e-06,2.1737310691093545e-06
