,EMG1,EMG2,EMG3,EMG4,EMG5,EMG6,EMG7,EMG8,EMG9,EMG10,EMG11,EMG12,EMG13,EMG14,EMG15,EMG16
0,8.151858026647232e-07,3.6427145370110775e-07,1.1675831911351639e-07,2.953385056752165e-07,2.972056604417054e-07,5.0477585904571386e-08,6.225700754528605e-08,1.755437221404706e-07,4.113639060684053e-07,2.115152313852322e-07,-3.208738799886807e-07,4.0944283940912413e-07,2.3024225391462006e-07,2.717488149600114e-07,3.151980540743865e-07,6.101460624518313e-07
1,9.151028335523718e-07,4.828114965543475e-07,1.487799243669564e-07,3.843573197879917e-07,6.167976660224507e-07,2.3682712640850174e-07,2.876480520759357e-07,3.2815830191728435e-07,4.921092192367589e-07,4.2979395509107747e-07,4.590769824445586e-08,8.740459618431258e-07,3.4922984591072303e-07,4.7531619021187163e-07,4.155686329915722e-07,7.067476771917057e-07
2,1.018150821576693e-06,6.021854655972293e-07,1.8181016357737172e-07,4.702407739008568e-07,9.250808158161288e-07,4.191391968830121e-07,5.094802759221196e-07,4.782490572160646e-07,5.772785313237539e-07,6.398056153160463e-07,3.967322598184658e-07,1.329656878738572e-06,4.741043742559948e-07,6.69109623388181e-07,5.147102145265557e-07,8.045314748691481e-07
3,1.1228826953760749e-06,7.202428735565158e-07,2.152403152627883e-07,5.517241836443601e-07,1.2194775354950288e-06,5.934232960882129e-07,7.237889499567679e-07,6.250126198927114e-07,6.662412049029986e-07,8.403751909467247e-07,7.254634818911406e-07,1.7732535544079396e-06,6.043161260109334e-07,8.522375953858815e-07,6.104665570037346e-07,9.022872307498525e-07
4,1.2282496163494082e-06,8.354403321338026e-07,2.486393197819056e-07,6.277010890436512e-07,1.4975674214377616e-06,7.568575218640157e-07,9.275312541602732e-07,7.677217283869202e-07,7.586313397313607e-07,1.0304472206564786e-06,1.0270873061640934e-06,2.2016763127599788e-06,7.392824600832592e-07,1.0236995708969376e-06,7.010335576873743e-07,9.991669163342383e-07
5,1.3336326479133213e-06,9.469571572699918e-07,2.818362898692564e-07,6.973379158945548e-07,1.7569892864054185e-06,9.078305843575078e-07,1.11885836643385e-06,9.056379892879582e-07,8.544412274612152e-07,1.2090713211705592e-06,1.2979823997396875e-06,2.611593071360982e-06,8.783989489677955e-07,1.1823710801007722e-06,7.848923398884154e-07,1.0946773189262525e-06
6,1.438615279280406e-06,1.054523623002886e-06,3.148893765164205e-07,7.601141137428263e-07,1.995376884695776e-06,1.0457331494488149e-06,1.2970361394307408e-06,1.0379432540537324e-06,9.539973262120523e-07,1.3753809126301116e-06,1.5359373560212514e-06,2.99960855988357e-06,1.0210427900560112e-06,1.3270598513372967e-06,8.609175746973136e-07,1.1885626630006121e-06
7,1.5427412718087316e-06,1.1581001672669643e-06,3.47965928541845e-07,8.157405285024797e-07,2.2104156856025357e-06,1.1706992352971207e-06,1.4620617447258218e-06,1.1637382332968485e-06,1.0577832384624794e-06,1.5285531222004947e-06,1.7399838442947282e-06,3.362612658202998e-06,1.1665820657543936e-06,1.4566187103459885e-06,9.285591842883086e-07,1.2806244707456676e-06
8,1.6453767653949738e-06,1.2576516610459773e-06,3.8125280971814045e-07,8.641091838941104e-07,2.4000870157261488e-06,1.2833450918636914e-06,1.6141976089790872e-06,1.2820476600029816e-06,1.166224443309587e-06,1.6678328007381559e-06,1.9101788288572945e-06,3.6981473766961778e-06,1.3144198029123162e-06,1.5701044305454253e-06,9.878107868309398e-07,1.3706137973142192e-06
9,1.7456318208430378e-06,1.3530799886712874e-06,4.149444725236551e-07,9.053243944032653e-07,2.5630081243673227e-06,1.3845276203219177e-06,1.7536697111722543e-06,1.3918110109023197e-06,1.2795817269829351e-06,1.7927126777970255e-06,2.0474291391043164e-06,4.004576862744053e-06,1.464020259651831e-06,1.6669911091018728e-06,1.0389483503709898e-06,1.4582608180572387e-06
10,1.8423238401625388e-06,1.444222359289762e-06,4.4924279121260366e-07,9.397152368363869e-07,2.6986337590083175e-06,1.475187982990858e-06,1.88063455881724e-06,1.491976135654419e-06,1.3979501674501954e-06,1.903181475501839e-06,2.1533963873407704e-06,4.281133410679313e-06,1.6148286723870509e-06,1.7473796512926088e-06,1.0822758596227081e-06,1.5433182105278873e-06
11,1.933993963277138e-06,1.530899400608939e-06,4.84335369386318e-07,9.678029765046032e-07,2.8072671468904652e-06,1.5562702561454598e-06,1.995321821246288e-06,1.5817545362943917e-06,1.5212603185763197e-06,1.9998004658328682e-06,2.2304305878639583e-06,4.527951262220121e-06,1.7661170992827424e-06,1.8120474705519474e-06,1.1180316471504727e-06,1.6255266452038293e-06
12,2.0190586917858353e-06,1.6129992461974036e-06,5.203949956151344e-07,9.902446099657442e-07,2.8900049627683947e-06,1.6286402954810846e-06,2.0981779476011865e-06,1.6608690971440198e-06,1.6492373619054229e-06,2.083498025159317e-06,2.28140436733116e-06,4.74605602218275e-06,1.916884694953581e-06,1.8622651634716287e-06,1.1463879252226302e-06,1.7045857603165898e-06
13,2.096155666180517e-06,1.6904787251287314e-06,5.575968220777023e-07,1.007745397716881e-06,2.948644065981341e-06,1.6929908449368277e-06,2.189876741586623e-06,1.7296049860778023e-06,1.7813799164656775e-06,2.155214266656453e-06,2.3094155399775468e-06,4.937205874241775e-06,2.0659507193208767e-06,1.8994885180316266e-06,1.1674709139226439e-06,1.7802073293745922e-06
14,2.1644791580831377e-06,1.7632404777984197e-06,5.961091314147623e-07,1.0209932416010611e-06,2.985446095861212e-06,1.7497775174077702e-06,2.271164908142062e-06,1.7886551115296372e-06,1.917029701034989e-06,2.2156170790764407e-06,2.3175069033404454e-06,5.103500325606214e-06,2.2122893447848144e-06,1.925105703580345e-06,1.1814818860991331e-06,1.8522002836851693e-06
15,2.223798379322677e-06,1.8310222292235377e-06,6.360618948652311e-07,1.0306859623839967e-06,3.0027461771540653e-06,1.7991920165564866e-06,2.3426726422512474e-06,1.8388530777947539e-06,2.055457152273394e-06,2.2649854077660825e-06,2.3085344266892173e-06,5.246824058688238e-06,2.3554031823800466e-06,1.9403389466020785e-06,1.1889127778767473e-06,1.920501581719917e-06
16,2.2741289602807025e-06,1.8934676976700812e-06,6.775130147767203e-07,1.037588692507536e-06,3.0026404507148855e-06,1.8411704782155768e-06,2.4048862413746816e-06,1.880898150390175e-06,2.1958044243028797e-06,2.303214091182432e-06,2.285143259716313e-06,5.368414196380108e-06,2.495392747327209e-06,1.9462177026040977e-06,1.190619086282292e-06,1.9851167324691525e-06
17,2.3153307171220554e-06,1.9503613246341565e-06,7.204169813314684e-07,1.0425128592668655e-06,2.986997164746464e-06,1.875525147859528e-06,2.458272715748828e-06,1.915166385703919e-06,2.336969687697331e-06,2.3299706014561646e-06,2.249773235377767e-06,5.468816042913094e-06,2.632703106145752e-06,1.9435043972054663e-06,1.1876330056594349e-06,2.0460057100681897e-06
18,2.346915165364031e-06,2.0017954745193874e-06,7.646020429310272e-07,1.046230625090666e-06,2.957716531757684e-06,1.9022358477395454e-06,2.5033178692494204e-06,1.9416724820938757e-06,2.4777264775294915e-06,2.3450376130896224e-06,2.204697469991258e-06,5.5481694121709745e-06,2.76793554349899e-06,1.9326596376527945e-06,1.1809317758627742e-06,2.1030006273189793e-06
19,2.3681753720412476e-06,2.0481210379259954e-06,8.097658795881285e-07,1.0494027009490993e-06,2.9169639468006897e-06,1.921686424091699e-06,2.5403777267213516e-06,1.960227388737357e-06,2.617048681571241e-06,2.3486194052295182e-06,2.1520837802323553e-06,5.60656231191397e-06,2.9018570042697673e-06,1.9139970599410255e-06,1.1713652488082901e-06,2.155807983896741e-06
20,2.3785731225586874e-06,2.089771595290284e-06,8.555253497385928e-07,1.0525518905330612e-06,2.8672248970827876e-06,1.934598370420053e-06,2.569572535804254e-06,1.970775415682748e-06,2.754230888394154e-06,2.341386117763056e-06,2.0939851456570337e-06,5.644303716554136e-06,3.035292656367174e-06,1.8879287190408474e-06,1.1596736584699835e-06,2.2040789346363503e-06
21,2.3780626694325303e-06,2.1270892862243183e-06,9.015363486139038e-07,1.0560831248886758e-06,2.811223412795399e-06,1.9417411624582245e-06,2.5909096310597835e-06,1.9737327467368287e-06,2.8886757932145976e-06,2.3243126669428408e-06,2.0322300337637804e-06,5.662114231796883e-06,3.168816248541057e-06,1.855060820678178e-06,1.146468987387651e-06,2.247495998731751e-06
22,2.3670386638495433e-06,2.1602288366883033e-06,9.476068300662959e-07,1.0603379707740159e-06,2.7517600705456136e-06,1.9437109858840407e-06,2.604468413804519e-06,1.9700481455088066e-06,3.019634643159162e-06,2.2984718358251584e-06,1.968345811187011e-06,5.661240500171053e-06,3.302513714924151e-06,1.8161490564318552e-06,1.1321849304044715e-06,2.285818071701097e-06
23,2.3461522911618785e-06,2.1892172007678877e-06,9.93714833373039e-07,1.065636200751199e-06,2.6914900107611438e-06,1.940899586880361e-06,2.610402084344636e-06,1.9609100330423144e-06,3.1460648360360673e-06,2.264942077002197e-06,1.9035889610573718e-06,5.643481461106953e-06,3.4359697659635874e-06,1.7721234033959132e-06,1.1170446201834546e-06,2.31888269756215e-06
24,2.316403070405776e-06,2.2141249107488657e-06,1.0399391871354295e-06,1.0722597195210235e-06,2.6327904156460656e-06,1.93358460728266e-06,2.608765954451285e-06,1.9473859581840762e-06,3.2666499757443606e-06,2.2248953355907765e-06,1.8389736301057637e-06,5.611103625678456e-06,3.568390727609211e-06,1.724148454105202e-06,1.101076329140677e-06,2.3466366942913167e-06
25,2.27932024373074e-06,2.2351652719278324e-06,1.0863666068526783e-06,1.080411955453052e-06,2.5778059220944046e-06,1.9220822358396233e-06,2.599443166106925e-06,1.9303172131562255e-06,3.3800131444868683e-06,2.179668874535748e-06,1.775265017110792e-06,5.56657182557467e-06,3.698837286597437e-06,1.6735122133986856e-06,1.0841965505752429e-06,2.369228463761332e-06
26,2.2368597420956376e-06,2.2526394758252265e-06,1.13302261889119e-06,1.0902407625943954e-06,2.5284711677027237e-06,1.9069083188815453e-06,2.5823865821955438e-06,1.9104761533127567e-06,3.4848644047989523e-06,2.130676517897091e-06,1.7130262895074281e-06,5.512068085912335e-06,3.8266531231046285e-06,1.621425513890978e-06,1.0663550388340774e-06,2.387090839803362e-06
27,2.191062215910781e-06,2.2668166900927457e-06,1.1798450864771826e-06,1.1019532633219483e-06,2.4864096828562485e-06,1.8888601081608977e-06,2.558016823022863e-06,1.8887271562985135e-06,3.579843566389029e-06,2.0793289835708e-06,1.652694249695086e-06,5.449016626511049e-06,3.951881818067613e-06,1.5689795434448938e-06,1.0476645057945817e-06,2.4008871194675822e-06
28,2.143717291511881e-06,2.2778271341272447e-06,1.22667836340609e-06,1.1159327107465512e-06,2.4528760729634757e-06,1.8689519829443794e-06,2.5274274464365874e-06,1.865971029045271e-06,3.6632945847898303e-06,2.0270660877111976e-06,1.5946101102484216e-06,5.377976431922415e-06,4.075256747728056e-06,1.5172315623392384e-06,1.0284007327656412e-06,2.411298171608715e-06
29,2.0961693383456084e-06,2.285605809026381e-06,1.2732649867819336e-06,1.1327343009723382e-06,2.4288027968588096e-06,1.848237523321149e-06,2.4922363011155547e-06,1.8429646504993622e-06,3.7333343538757464e-06,1.975333119732996e-06,1.5390447090293443e-06,5.298986346341314e-06,4.197782258682555e-06,1.4672058506489365e-06,1.0089223755338857e-06,2.4188357811265193e-06
30,2.049270791661627e-06,2.289991791422172e-06,1.3193061219072749e-06,1.152962869429504e-06,2.414831382167342e-06,1.8276736245754502e-06,2.454195893169317e-06,1.8202282699819675e-06,3.7881047969853448e-06,1.9254468384893624e-06,1.4862648694442055e-06,5.212040337759708e-06,4.320321060342685e-06,1.4197793834128038e-06,9.896519740542898e-07,2.423781154012133e-06
31,2.0034144841207058e-06,2.2910149462159747e-06,1.3646216868884293e-06,1.1771681007569176e-06,2.4112652680097526e-06,1.8080836835578772e-06,2.4148595508215584e-06,1.7980480221243276e-06,3.825820633761222e-06,1.8785017542015785e-06,1.4365924313084275e-06,5.11738432908426e-06,4.4434411888861485e-06,1.375602431518911e-06,9.710720860351443e-07,2.426113553240477e-06
32,1.9585967949625816e-06,2.2891956037028487e-06,1.4092324709488967e-06,1.2058238273288234e-06,2.4180282315006367e-06,1.7901054875292896e-06,2.3755035387872954e-06,1.776532375762002e-06,3.844733991463159e-06,1.8353569734264295e-06,1.3903867319686261e-06,5.015638453574758e-06,4.567476276415303e-06,1.3351565110541687e-06,9.536578912074859e-07,2.425446296397535e-06
33,1.9145440432458135e-06,2.2856607942833307e-06,1.4532288435974604e-06,1.2393292084574025e-06,2.4347072995505986e-06,1.7741513954215351e-06,2.337198147666947e-06,1.7557522838419078e-06,3.843409765381037e-06,1.7966423553872312e-06,1.3479607231377e-06,4.9078213054400365e-06,4.692631983512251e-06,1.2988709207141796e-06,9.378280114558177e-07,2.421144201170189e-06
34,1.8709165466659585e-06,2.2819920986552315e-06,1.4965627452659468e-06,1.2779848135680025e-06,2.460609680412029e-06,1.7605352018793498e-06,2.3008284196729464e-06,1.7358731845832405e-06,3.821215512672651e-06,1.7627985996720844e-06,1.309490159205051e-06,4.7952587357416955e-06,4.819017891347837e-06,1.2671385306890722e-06,9.239567657107705e-07,2.4125494983102055e-06
35,1.8275007285978443e-06,2.2798968883983606e-06,1.5389739378596125e-06,1.321949045394363e-06,2.494736755729028e-06,1.7497068779600147e-06,2.2670324574059477e-06,1.717122418808733e-06,3.7787235224230467e-06,1.734197882316465e-06,1.2749378561256177e-06,4.6794244608123536e-06,4.946626062194229e-06,1.2402591193758203e-06,9.123800126271355e-07,2.3990936529963482e-06
36,1.7842900185719639e-06,2.2809811027746003e-06,1.5800953783777603e-06,1.371206475836597e-06,2.53571643184074e-06,1.7423573766701763e-06,2.23617686978742e-06,1.699654567100113e-06,3.7178581478219243e-06,1.7112745190901226e-06,1.244008093167254e-06,4.56182936311135e-06,5.075276720471443e-06,1.2184344290490956e-06,9.03366353229686e-07,2.3802921645375325e-06
37,1.741434479888558e-06,2.286741667840075e-06,1.6196004524975843e-06,1.4255748401563654e-06,2.5817669380704733e-06,1.7392947500783726e-06,2.2084812433467087e-06,1.683552409894675e-06,3.641637685038242e-06,1.6945146650443068e-06,1.2161705323100549e-06,4.443996234134952e-06,5.2044270846406645e-06,1.201764113851976e-06,8.970971297460318e-07,2.355801575542925e-06
38,1.6991063176120585e-06,2.298573167723418e-06,1.6572186092504442e-06,1.4847070229919912e-06,2.6306718590932432e-06,1.7412206548315116e-06,2.184230624779788e-06,1.6690138004325487e-06,3.5535749669680818e-06,1.68433089233815e-06,1.190746856471735e-06,4.327466713155327e-06,5.3328567199746415e-06,1.1901931222836113e-06,8.936846327742296e-07,2.3256139880972946e-06
39,1.657379756057735e-06,2.31764235892659e-06,1.6926051457420655e-06,1.5480447513661953e-06,2.6797989757451645e-06,1.7485654302823153e-06,2.1638581837365733e-06,1.6564818008404252e-06,3.457145552066988e-06,1.6810142701168895e-06,1.1670160968972459e-06,4.213765596112029e-06,5.458487434586025e-06,1.1835261144712127e-06,8.931875879255572e-07,2.290273930096972e-06
40,1.6162267752806118e-06,2.3447433954039493e-06,1.7252292200048657e-06,1.6147893980981803e-06,2.7263460609187418e-06,1.7614365210504497e-06,2.14781985831498e-06,1.6465269296867264e-06,3.3556648795992357e-06,1.6848163680580025e-06,1.1443336542849843e-06,4.104266431360043e-06,5.5784903968949576e-06,1.1815604671204736e-06,8.955884993314142e-07,2.2509302374610614e-06
41,1.575636380137766e-06,2.3802769579105037e-06,1.7543893556021774e-06,1.683985311258612e-06,2.767854642151128e-06,1.779700322001397e-06,2.136492813844647e-06,1.639599805448089e-06,3.2523842952232447e-06,1.6960061074800002e-06,1.1222690987266168e-06,3.999968324776656e-06,5.68945187514887e-06,1.1842185701361504e-06,9.007730859892644e-07,2.209138004180772e-06
42,1.5357598426911691e-06,2.4243511188339738e-06,1.779307034524688e-06,1.754695807431608e-06,2.8026772567687946e-06,1.8031669407437185e-06,2.1302625105885137e-06,1.6358665463937999e-06,3.1504030552823577e-06,1.7148053328864686e-06,1.1007124268607338e-06,3.901324402691102e-06,5.787328150455663e-06,1.1915584022314687e-06,9.085278483725439e-07,2.1665442668812067e-06
43,1.4969793629404515e-06,2.476906466282776e-06,1.7992546704902239e-06,1.8261364232145658e-06,2.830108344410186e-06,1.8317075705723324e-06,2.1296054891723803e-06,1.6351803114409373e-06,3.052445812986522e-06,1.7413127713407554e-06,1.0798685484145228e-06,3.8082958051941247e-06,5.867416773874961e-06,1.2036570479030813e-06,9.185236296442308e-07,2.124682734555131e-06
44,1.4598478966907957e-06,2.5377857694703934e-06,1.8137093051964518e-06,1.8976640678169532e-06,2.850229091532007e-06,1.8651744363231208e-06,2.1349865271702344e-06,1.6371451385548303e-06,2.960758972115992e-06,1.7754814699062763e-06,1.0601226006981356e-06,3.720600894795222e-06,5.924822885136479e-06,1.2204675461762506e-06,9.303183382664805e-07,2.084943539697841e-06
45,1.4249216071963942e-06,2.606731491891179e-06,1.8224549994580939e-06,1.968664577376114e-06,2.863600084346394e-06,1.9032407542604165e-06,2.1466960592340804e-06,1.641227065763441e-06,2.877093519154933e-06,1.8170547421819313e-06,1.041859277643501e-06,3.637957327513128e-06,5.955444808974482e-06,1.241753671807583e-06,9.434168364159665e-07,2.048602455757015e-06
46,1.3926044324813218e-06,2.683337806078284e-06,1.8255630437490603e-06,2.0384383846163056e-06,2.870868722358885e-06,1.945345011288784e-06,2.164812152851855e-06,1.646894254248712e-06,2.8026770881607467e-06,1.8654652525639193e-06,1.025341105679688e-06,3.560199058358002e-06,5.957053710988565e-06,1.2670944198436055e-06,9.573283290766862e-07,2.0168039269261327e-06
47,1.363082042132537e-06,2.7670089453631494e-06,1.823303169803847e-06,2.106111006333814e-06,2.8724667511859837e-06,1.9907353377051838e-06,2.189268327057798e-06,1.6537932546006616e-06,2.738180545624029e-06,1.9198060828235084e-06,1.0106769091607166e-06,3.4872988659390034e-06,5.929983874613484e-06,1.2958878137628793e-06,9.715959293912918e-07,1.990503176282772e-06
48,1.3362908359926404e-06,2.85698712157362e-06,1.8160922296738288e-06,2.170591389233201e-06,2.8685786430092624e-06,2.0384959644145407e-06,2.219906980503862e-06,1.6618920468067356e-06,2.683713011015584e-06,1.9788589981873357e-06,9.978311694068213e-07,3.419359391804556e-06,5.877054510863399e-06,1.3273595666165333e-06,9.858376536447507e-07,1.97040176109714e-06
49,1.311900887717544e-06,2.952453729696162e-06,1.8044843974663491e-06,2.2306660067216134e-06,2.859290573241329e-06,2.0875230113616404e-06,2.2564782987158447e-06,1.6714420534165708e-06,2.6389525870250973e-06,2.0411036108258944e-06,9.86639802498791e-07,3.356584765279118e-06,5.802687799174731e-06,1.3606223808553087e-06,9.997814083264891e-07,1.9568771399332935e-06
50,1.2893810485687743e-06,3.052582155412563e-06,1.789111285305538e-06,2.285214485200008e-06,2.8447174226375815e-06,2.136502910353507e-06,2.2985933579771802e-06,1.682755200007276e-06,2.6034362867395627e-06,2.104751781188952e-06,9.768841899354806e-07,3.2992262380349077e-06,5.711678261993178e-06,1.394740625486584e-06,1.0132845853026296e-06,1.949929753613113e-06
51,1.2681764416226319e-06,3.1564115135380397e-06,1.7705856187359e-06,2.3333767449754926e-06,2.825093160300228e-06,2.183897387575904e-06,2.345623896314964e-06,1.6960059562836226e-06,2.576790724937049e-06,2.167870803834768e-06,9.684322172580416e-07,3.24757224217971e-06,5.608217674273002e-06,1.4287300057944755e-06,1.0263337639235442e-06,1.9492062073013333e-06
52,1.247914503367354e-06,3.2626093737078124e-06,1.7495190725878793e-06,2.37457340624723e-06,2.8008807072201012e-06,2.2279151975464644e-06,2.3965731388384646e-06,1.7111834631877348e-06,2.5587429231497064e-06,2.2284938089736317e-06,9.613012730675342e-07,3.2020783914475945e-06,5.495466633189486e-06,1.4615304684989595e-06,1.0389913068417762e-06,1.9541239289004003e-06
53,1.2284803400385673e-06,3.3693370943211485e-06,1.7266671818226346e-06,2.4084568951687242e-06,2.7728143163670166e-06,2.2665922340002342e-06,2.450008783915614e-06,1.728120189571086e-06,2.549003670636988e-06,2.2846444236720533e-06,9.555500344549105e-07,3.1635589786468856e-06,5.375636346516756e-06,1.4920044192396721e-06,1.051324414283983e-06,1.964051534695194e-06
54,1.2098961384139651e-06,3.474324007730113e-06,1.7030236787453932e-06,2.434901414055015e-06,2.74176113267618e-06,2.298090827583911e-06,2.5041545207818367e-06,1.7465577601082686e-06,2.547124759686411e-06,2.3344233383049363e-06,9.511192008518113e-07,3.133215612198362e-06,5.2504297231736766e-06,1.5189714562721898e-06,1.06334107041194e-06,1.9784380388395173e-06
55,1.1921421570659959e-06,3.575086675590039e-06,1.6797681978401431e-06,2.4540275625207147e-06,2.708446377528003e-06,2.3210538130249127e-06,2.5571639257469214e-06,1.7662216934142937e-06,2.5524004844024313e-06,2.3762155562070126e-06,9.477841820971813e-07,3.1124245686356764e-06,5.121537582600305e-06,1.541370097229187e-06,1.074934537210808e-06,1.996827263756827e-06
56,1.1751153945062037e-06,3.6691681262554462e-06,1.6581166535438627e-06,2.4661377809899907e-06,2.673195878667758e-06,2.334773155836707e-06,2.60751139245291e-06,1.786805917363369e-06,2.563962059271989e-06,2.4088576654956345e-06,9.45271487360624e-07,3.1024239927147225e-06,4.990781849177471e-06,1.5585420867790755e-06,1.0859135553103442e-06,2.01882756567297e-06
57,1.158756126687032e-06,3.7543097850338e-06,1.6391441398138524e-06,2.471505735351863e-06,2.6358406086913565e-06,2.3391224436740734e-06,2.654327691012327e-06,1.8079133732225545e-06,2.581093758858097e-06,2.431692538372162e-06,9.434498169813942e-07,3.1040657772074514e-06,4.859802751156141e-06,1.5703634619441467e-06,1.0961031521995834e-06,2.0440803864647422e-06
58,1.143161336280003e-06,3.828568085768723e-06,1.623647828475549e-06,2.4702152778047934e-06,2.595854817276185e-06,2.334352714013148e-06,2.6974501394189015e-06,1.8291125454434057e-06,2.603567122278622e-06,2.4444992603020845e-06,9.424076752622065e-07,3.117739209997707e-06,4.729664387833255e-06,1.5770906289775406e-06,1.1053750298455686e-06,2.072162481074163e-06
59,1.1285258159101854e-06,3.890436336592149e-06,1.6120986861847081e-06,2.4622561602567237e-06,2.5526617105289585e-06,2.3209174471411254e-06,2.7371254649194433e-06,1.8500593368240192e-06,2.6317141496369905e-06,2.447258807505648e-06,9.423585436424372e-07,3.143481579163172e-06,4.600777548111982e-06,1.5791884880355104e-06,1.113600664841138e-06,2.1024895537117528e-06
60,1.114995652759533e-06,3.938972641272671e-06,1.6046724073496135e-06,2.4477785831327093e-06,2.5058662862964585e-06,2.2994280787201935e-06,2.7735704225550853e-06,1.8704772095450595e-06,2.6661351820689973e-06,2.439994541300578e-06,9.435288460009595e-07,3.1811534038453056e-06,4.47316764428147e-06,1.5773060061469557e-06,1.120617307464271e-06,2.134343180434113e-06
61,1.1025919364384833e-06,3.973869410457778e-06,1.6013169239119674e-06,2.4272965206451313e-06,2.455229822894573e-06,2.2706305567910223e-06,2.8066445167510125e-06,1.8899747906825175e-06,2.7073319576323093e-06,2.4229985604908274e-06,9.461575452214209e-07,3.2305452132052406e-06,4.346907187904998e-06,1.572236599541326e-06,1.1262265434751632e-06,2.166915005034316e-06
62,1.0912286103737739e-06,3.995418706222089e-06,1.6018095073373012e-06,2.4017711565739927e-06,2.4006198411628144e-06,2.2352639853695737e-06,2.8357447608548e-06,1.9078874258308233e-06,2.755635495665551e-06,2.397210268403555e-06,9.505527972383749e-07,3.2913620833090134e-06,4.222465256592663e-06,1.5648448839645218e-06,1.1302477643107519e-06,2.1992746108449995e-06
63,1.080786003982652e-06,4.004397549936462e-06,1.605758015796216e-06,2.372586215387109e-06,2.3422294678044844e-06,2.193942605774107e-06,2.8599026255953494e-06,1.9233100175403995e-06,2.811337104333905e-06,2.3642440278265105e-06,9.570848861913377e-07,3.3630842296165865e-06,4.100691869974387e-06,1.5560780080835e-06,1.1326021765671254e-06,2.2304008223712415e-06
64,1.0711895266713483e-06,4.0019183094177e-06,1.6125455625196557e-06,2.3414219718565133e-06,2.28082665829164e-06,2.1472748323705366e-06,2.8780202581796784e-06,1.935323101225168e-06,2.8746661732541575e-06,2.3260367103302236e-06,9.661223407188164e-07,3.4447683806736336e-06,3.982414687461728e-06,1.5469583728878144e-06,1.1333118090434462e-06,2.2593855949041077e-06
65,1.0624272248482885e-06,3.98923875485827e-06,1.6213023792993314e-06,2.310037261579047e-06,2.217700460849557e-06,2.096122527981901e-06,2.889168622404582e-06,1.943234523089369e-06,2.9455560628479866e-06,2.284506752517546e-06,9.779950433022204e-07,3.5349220410059627e-06,3.867997223011133e-06,1.53847673071423e-06,1.1324294706327615e-06,2.285674602245348e-06
66,1.0544984937747992e-06,3.967508277238004e-06,1.6310167817112734e-06,2.2800407021364704e-06,2.154408750948453e-06,2.041742357117015e-06,2.8928233796462563e-06,1.946659739704187e-06,3.0234843763988767e-06,2.2414555854120936e-06,9.929731221990906e-07,3.6315809611061527e-06,3.757207517078593e-06,1.5314820834740324e-06,1.1300535729633184e-06,2.3091165161513498e-06
67,1.0474121897338803e-06,3.937480203622841e-06,1.6407927758874705e-06,2.252795194309947e-06,2.0925450110484712e-06,1.9856853019723377e-06,2.8889357912592623e-06,1.9454403654462875e-06,3.1076251263088274e-06,2.198599476713639e-06,1.0112217698242448e-06,3.7325811459093857e-06,3.649411264397805e-06,1.5266166891169062e-06,1.1264300044139235e-06,2.3297813093029337e-06
68,1.0413117232147567e-06,3.899276267130722e-06,1.6500975705596526e-06,2.229456861050224e-06,2.033572894205947e-06,1.9295242588129725e-06,2.8778684067330087e-06,1.939494311639537e-06,3.1972299584760445e-06,2.157540288841299e-06,1.0327524796765747e-06,3.835861491362267e-06,3.5438868781901404e-06,1.5242872868080614e-06,1.1219827372347384e-06,2.347708758782497e-06
69,1.036562029496107e-06,3.85233419127841e-06,1.658797328468687e-06,2.210982732697924e-06,1.9787237097389017e-06,1.874613312713744e-06,2.8602887249595817e-06,1.928654655067799e-06,3.2919494132385374e-06,2.1196393806452707e-06,1.0573935327364743e-06,3.939675638415815e-06,3.4401194517392732e-06,1.524681438848815e-06,1.1172246165696193e-06,2.3627131476567137e-06
70,1.0336481247011106e-06,3.795637888456127e-06,1.6669531775068785e-06,2.198057006104011e-06,1.928956705331786e-06,1.822005043855012e-06,2.837039850742424e-06,1.9125731132139303e-06,3.391847374434877e-06,2.08589651066096e-06,1.0847861552266942e-06,4.042714300859482e-06,3.3380159072645604e-06,1.5278165191287944e-06,1.1126448611393623e-06,2.374260116350409e-06
71,1.0330085932350964e-06,3.7281577686331155e-06,1.6745899432742156e-06,2.1910340850883343e-06,1.884996733881762e-06,1.7724537850591883e-06,2.8089399444052997e-06,1.8908297642229845e-06,3.4970868161462754e-06,2.056891860030123e-06,1.1144195911370748e-06,4.144147121736503e-06,3.2379844697664e-06,1.5335533084206216e-06,1.1086626402317e-06,2.3814595439026448e-06
72,1.034957814357756e-06,3.649285847578616e-06,1.6816282140103336e-06,2.1899290690099013e-06,1.847464112460309e-06,1.7264154014207096e-06,2.7765292466274257e-06,1.8632722370858159e-06,3.6075566706569483e-06,2.0327639343459605e-06,1.1456827531472985e-06,4.243567384427998e-06,3.1408341361639684e-06,1.5415619540401424e-06,1.1056729154265115e-06,2.383211738452167e-06
73,1.0396958701225816e-06,3.5590753467442816e-06,1.6878972099216535e-06,2.1944571309116565e-06,1.8169839882699245e-06,1.6840559524173698e-06,2.7399175054514665e-06,1.830342893527863e-06,3.722691803883953e-06,2.0132094875674077e-06,1.1778779768012454e-06,4.340857011371587e-06,3.0475062176245e-06,1.5513787124840412e-06,1.1041165885309482e-06,2.378409570750635e-06
74,1.0473551655603242e-06,3.4582381822454155e-06,1.693061374373326e-06,2.204189535345153e-06,1.794143005323286e-06,1.645316159148708e-06,2.6988541821163194e-06,1.793090708770836e-06,3.841396381991944e-06,1.997497222009098e-06,1.2102495129955738e-06,4.436016452630919e-06,2.958758486611672e-06,1.562597383980144e-06,1.1044610552608091e-06,2.366105749879768e-06
75,1.05806091672514e-06,3.3480221202232907e-06,1.696505072885867e-06,2.218781269081704e-06,1.7793619114791067e-06,1.6100668230497167e-06,2.652957506257687e-06,1.7528616066277857e-06,3.96193157466341e-06,1.9844889729851426e-06,1.2421211929989944e-06,4.5289658083996435e-06,2.874970898476895e-06,1.5749853669077125e-06,1.1071022445547338e-06,2.345668472932113e-06
76,1.0719982299258253e-06,3.2301176644922167e-06,1.6973567839059613e-06,2.2380464312574916e-06,1.7727942749950185e-06,1.5782947974896076e-06,2.6019572804379146e-06,1.7110109555974507e-06,4.081911534191689e-06,1.972732717680492e-06,1.273060797075393e-06,4.61929111347417e-06,2.7960842865556195e-06,1.588410858424666e-06,1.1122870825006488e-06,2.3169125544459673e-06
77,1.08942947030683e-06,3.106575191139801e-06,1.694717517175558e-06,2.2617712551939567e-06,1.774255759834421e-06,1.5501691461501708e-06,2.545832917841987e-06,1.6688724198819631e-06,4.198555873823592e-06,1.960714392223566e-06,1.302912890613939e-06,4.705958684334813e-06,2.7215808445199976e-06,1.602743680916058e-06,1.12007320107716e-06,2.2801291004610935e-06
78,1.1106310707896664e-06,2.97959505612321e-06,1.6879635434207259e-06,2.2894505718671866e-06,1.7832011979475191e-06,1.5259522057295487e-06,2.4847637270171394e-06,1.6278048917104709e-06,4.3089732983854306e-06,1.9471984045586706e-06,1.3316895478856458e-06,4.787094255298562e-06,2.6505821251607147e-06,1.6178219524114098e-06,1.1303032475851766e-06,2.2360334817012705e-06
79,1.1358223161106378e-06,2.851203461729835e-06,1.6769165374204004e-06,2.3202020557136094e-06,1.798803066759926e-06,1.5058722334452384e-06,2.4189472142661003e-06,1.5891333316403178e-06,4.410183897036381e-06,1.9313969545070034e-06,1.359444255607624e-06,4.859981480303204e-06,2.5821625959907117e-06,1.6334073008464268e-06,1.1425999150967308e-06,2.185733761253244e-06
80,1.1651113184758733e-06,2.723034474712556e-06,1.6617795570126887e-06,2.3528999408640873e-06,1.820118666429013e-06,1.4900571890733822e-06,2.348509468964264e-06,1.5540868944432409e-06,4.499153202587979e-06,1.912901235251651e-06,1.386215974145264e-06,4.921411702895897e-06,2.5157170326566994e-06,1.6491449553056577e-06,1.1563836175246196e-06,2.1306911349248774e-06
81,1.1984289158158412e-06,2.5963605889080706e-06,1.6429427877475693e-06,2.3863497337120695e-06,1.8461995015396036e-06,1.478552914120386e-06,2.2736584779563273e-06,1.5237958206285372e-06,4.573278024089369e-06,1.8917045341063481e-06,1.4119988836823268e-06,4.9682812156784705e-06,2.4511436560538523e-06,1.6646083656589506e-06,1.1708984526063233e-06,2.072542643277613e-06
82,1.235488021120923e-06,2.4722360208040516e-06,1.6208502852577439e-06,2.419312595743184e-06,1.8760377699814755e-06,1.4713840262814547e-06,2.1949497170399344e-06,1.4992359416607636e-06,4.631061575721336e-06,1.8683953527613251e-06,1.4366975675125611e-06,4.998116489574973e-06,2.3887471246734017e-06,1.6793859288167053e-06,1.1852508129512608e-06,2.012859150338143e-06
83,1.2757937476647921e-06,2.351524674353301e-06,1.5959797984534346e-06,2.4504225055321896e-06,1.908516225687902e-06,1.468556068258536e-06,2.1133904666645968e-06,1.4811289921205838e-06,4.672340169092777e-06,1.844108678415925e-06,1.4601392163050542e-06,5.009322313270176e-06,2.328936282357629e-06,1.6931055714396503e-06,1.1985233375585237e-06,1.9530865227991587e-06
84,1.318668987024473e-06,2.2347825382171277e-06,1.5688224922733057e-06,2.4782266788054223e-06,1.942519917019369e-06,1.4699509054110174e-06,2.0302636433190716e-06,1.4699203769835998e-06,4.697857017305475e-06,1.8201871862764163e-06,1.4821618794748743e-06,5.001167484336374e-06,2.271961473502438e-06,1.705403341364057e-06,1.2099817435061827e-06,1.894679871168382e-06
85,1.363307041624525e-06,2.122165167121544e-06,1.5398111672637013e-06,2.501400409663453e-06,1.9770452527363483e-06,1.4751980434053502e-06,1.946837490800483e-06,1.4658258988925147e-06,4.708624750229052e-06,1.7979549164873515e-06,1.5026480727078533e-06,4.973642869135277e-06,2.2178135798151853e-06,1.7159638192181096e-06,1.219263971989015e-06,1.8391540560953485e-06
86,1.4088546564811365e-06,2.013503540723238e-06,1.509319809395768e-06,2.518949481668696e-06,2.011159164065796e-06,1.4836238308964346e-06,1.864247662120365e-06,1.4688641077288292e-06,4.7057268074479526e-06,1.7787014721184193e-06,1.521422689119619e-06,4.927401295965217e-06,2.166185231789111e-06,1.7246546725822912e-06,1.2264351153913104e-06,1.7879268485422854e-06
87,1.4544294093765035e-06,1.908538987104623e-06,1.477787651116461e-06,2.530282279396346e-06,2.0439614196461457e-06,1.494318487120371e-06,1.7836017164438694e-06,1.478862405250739e-06,4.690575448983456e-06,1.7636964005306083e-06,1.5381117856204315e-06,4.863872677129766e-06,2.1165422613071543e-06,1.7316045662743264e-06,1.2318710317285689e-06,1.742126407990416e-06
88,1.499075315879243e-06,1.8071948218206491e-06,1.4458091429782304e-06,2.5351898126043785e-06,2.0746794088254553e-06,1.5063212981889913e-06,1.7060536499235856e-06,1.4954462235068609e-06,4.665016412350836e-06,1.7541605085467968e-06,1.5521223454582287e-06,4.785371174733612e-06,2.0683894867864465e-06,1.737153455860106e-06,1.236045457494741e-06,1.7025235195695605e-06
89,1.5418235507609042e-06,1.7097297098974987e-06,1.414070028917254e-06,2.5338309564574667e-06,2.102736060328899e-06,1.5188449139118095e-06,1.6326845992955291e-06,1.5180169029662177e-06,4.6309705517065955e-06,1.7511946165574697e-06,1.5628174479060946e-06,4.694964079569676e-06,2.0215166428848734e-06,1.7417614719217047e-06,1.239379637326347e-06,1.669610311934232e-06
90,1.5818981372807613e-06,1.6166928094217593e-06,1.383205209410144e-06,2.5267945711015046e-06,2.1276278905880847e-06,1.531396204979503e-06,1.5643307914990638e-06,1.5457700768229403e-06,4.589891536904239e-06,1.7556759979459199e-06,1.5697903110665475e-06,4.59609615180567e-06,1.9760206008783194e-06,1.7459474459885037e-06,1.2422074881525993e-06,1.6437682350473984e-06
91,1.6188606010582767e-06,1.5287322900272574e-06,1.3537260683487044e-06,2.5151502361085472e-06,2.148777342029616e-06,1.5437407060641505e-06,1.5015579766239727e-06,1.5777588465543646e-06,4.5425082271022805e-06,1.7681994264221226e-06,1.5730103035140791e-06,4.492118988370258e-06,1.9322076646612013e-06,1.7502397168363591e-06,1.244774368614108e-06,1.6253734697474275e-06
92,1.6525175426773036e-06,1.4463792836569153e-06,1.3260582537423305e-06,2.500296839668953e-06,2.1655527386345233e-06,1.5557618066359891e-06,1.4447851728949173e-06,1.6129233995801533e-06,4.489191911371484e-06,1.789099938210569e-06,1.5727151221535751e-06,4.38591283378366e-06,1.8905176990660979e-06,1.7550897382976357e-06,1.247227830166319e-06,1.614737351649735e-06
93,1.6827030667386459e-06,1.3699191375777924e-06,1.3005717276993158e-06,2.483624371866232e-06,2.177340837744006e-06,1.567286060879371e-06,1.3943964193969906e-06,1.6501287249274036e-06,4.430767205590831e-06,1.818483204630159e-06,1.5691933366254897e-06,4.2797843377434005e-06,1.8514301299247606e-06,1.7607765154740797e-06,1.24962392021945e-06,1.6119987993663826e-06
94,1.7091368012176628e-06,1.2994173097157752e-06,1.277519188664724e-06,2.4662439981610747e-06,2.183561566792953e-06,1.57796983580884e-06,1.3507413072846116e-06,1.6883261021621935e-06,4.369009271088977e-06,1.8562533985858068e-06,1.562694655810046e-06,4.175612089029594e-06,1.8153089852118462e-06,1.7674382948142094e-06,1.2519443886660012e-06,1.6170922454588613e-06
95,1.7313686177889697e-06,1.2348977803013695e-06,1.2569505985167538e-06,2.4489164801052507e-06,2.1836692090270267e-06,1.5872824706296934e-06,1.3140838701492535e-06,1.7267359070538207e-06,4.306336867933363e-06,1.9021639383354638e-06,1.5535000958480118e-06,4.074974646256769e-06,1.7822921821620684e-06,1.7752294664154617e-06,1.2541145298954469e-06,1.6297487025279975e-06
96,1.7487672639411892e-06,1.176567440285702e-06,1.2386793765748252e-06,2.4321037614054437e-06,2.177116220072783e-06,1.594540439906712e-06,1.284558071360505e-06,1.7648271464867109e-06,4.245096454962157e-06,1.955845122506221e-06,1.5419767432470347e-06,3.979101624616706e-06,1.752342532523153e-06,1.7843821632880022e-06,1.2560662741816246e-06,1.6495004058759425e-06
97,1.7606412162325569e-06,1.1249131944310907e-06,1.2223297691587994e-06,2.4160688037225835e-06,2.1633366914413214e-06,1.5990264284419778e-06,1.2621341725601715e-06,1.8020912397738774e-06,4.187147007133379e-06,2.016791221276535e-06,1.5285445473506765e-06,3.888722260506238e-06,1.7254012819148516e-06,1.7951182379351923e-06,1.2578386822413015e-06,1.6756927552037817e-06
98,1.766542374831448e-06,1.0805908776312408e-06,1.2074983059252878e-06,2.4009129481418235e-06,2.141936377688717e-06,1.600229186752217e-06,1.2465998769913947e-06,1.8378484895781311e-06,4.133885190082623e-06,2.0842900773200086e-06,1.5136712851685516e-06,3.803988400142945e-06,1.7014647329098122e-06,1.8075636805302437e-06,1.2595864347805941e-06,1.7074749302841347e-06
99,1.766518590264155e-06,1.0442167208817403e-06,1.1939742848667049e-06,2.3864826957504593e-06,2.11299923638859e-06,1.5980742679005855e-06,1.2375395011118543e-06,1.8712408595026732e-06,4.086295827878206e-06,2.157319165444001e-06,1.497898930332626e-06,3.724610018702653e-06,1.6805277901851085e-06,1.8217144527461553e-06,1.2614698539640236e-06,1.7438140442388968e-06
100,1.7610299102653865e-06,1.0162279242776438e-06,1.1818463135400011e-06,2.372305911544488e-06,2.0771459836561003e-06,1.5929700027778846e-06,1.2343470040103728e-06,1.9013395972023448e-06,4.044792157283855e-06,2.2345553314542295e-06,1.481778326104655e-06,3.6501140211937003e-06,1.6625355138419418e-06,1.837438945136345e-06,1.263602219586434e-06,1.7835590568019556e-06
101,1.7506184832928045e-06,9.968692708985258e-07,1.1714131687315271e-06,2.357702466082833e-06,2.035244431081447e-06,1.5856284905266378e-06,1.2363301436485292e-06,1.9273142770847403e-06,4.009043457961988e-06,2.314527374747742e-06,1.4657407263018475e-06,3.579961529072763e-06,1.6474660098014377e-06,1.8544844684407682e-06,1.266108992943438e-06,1.8254555021311943e-06
102,1.7356413577377875e-06,9.862784931629336e-07,1.163009744022314e-06,2.3419603867517467e-06,1.9881333988351125e-06,1.576803761620861e-06,1.242832254725015e-06,1.9486942678611967e-06,3.978048809176731e-06,2.39572474599213e-06,1.450018931587487e-06,3.5134228776726106e-06,1.635459493067801e-06,1.872419687172515e-06,1.2691412393472088e-06,1.8680815112335902e-06
103,1.7162000984173557e-06,9.84590905333557e-07,1.1568775709852508e-06,2.3244085271180847e-06,1.9366820786571066e-06,1.5671186862883864e-06,1.2532728271899475e-06,1.965626183858781e-06,3.950516045219725e-06,2.4765679971095523e-06,1.4346156721048515e-06,3.4494271843327775e-06,1.6268464013482082e-06,1.8905928505400312e-06,1.2728294037532352e-06,1.9097808353019464e-06
104,1.6922379999494123e-06,9.919545712018124e-07,1.153122227521383e-06,2.304386001524582e-06,1.8820400869915104e-06,1.5569775012313447e-06,1.26714025766587e-06,1.978928572910621e-06,3.925281117276224e-06,2.5554022537609233e-06,1.4192704796313492e-06,3.3866670412255283e-06,1.6220732300051633e-06,1.9082457246092632e-06,1.2772981113366736e-06,1.948629609533395e-06
105,1.663737805735532e-06,1.0084609655315457e-06,1.151783214526249e-06,2.28124498178119e-06,1.825724311707276e-06,1.5465090981113214e-06,1.283995715854558e-06,1.989893221556411e-06,3.901361000806425e-06,2.630672585935085e-06,1.4034713409536627e-06,3.323938108009912e-06,1.621576229042356e-06,1.9247008050945067e-06,1.2826885398072917e-06,1.982502493063079e-06
106,1.6308731877508093e-06,1.0340828336725004e-06,1.152988214686454e-06,2.2544608041383542e-06,1.7694335897585812e-06,1.5356242117304277e-06,1.3034432024732353e-06,1.999980452745665e-06,3.877737748027529e-06,2.7012085905358713e-06,1.3866222726076749e-06,3.260428885150043e-06,1.6256316830105087e-06,1.9394709307010596e-06,1.2890828798840448e-06,2.009298193229087e-06
107,1.593985066315699e-06,1.068636109715106e-06,1.1570340494180165e-06,2.2237656502938695e-06,1.7148353403532737e-06,1.5242432238721449e-06,1.3250270226804313e-06,2.0105607749580295e-06,3.853433707419473e-06,2.7663596897472792e-06,1.3683429112849823e-06,3.195782539370897e-06,1.6342764376993895e-06,1.952318217033425e-06,1.2964049059321635e-06,2.0272170948911953e-06
108,1.5535113487367168e-06,1.1117609130281832e-06,1.1643080592653817e-06,2.189212194826953e-06,1.6635293993744572e-06,1.512548078172488e-06,1.348148199852492e-06,2.022740637616653e-06,3.827947579114381e-06,2.825810286260546e-06,1.34864994168085e-06,3.130003528985181e-06,1.6473387826312322e-06,1.963288401931271e-06,1.3044108625386087e-06,2.0350047074967406e-06
109,1.5100958099698954e-06,1.162937422598886e-06,1.1752027889381228e-06,2.151146120526412e-06,1.6170488752389146e-06,1.501068258741988e-06,1.3720654623831867e-06,2.0372640922966645e-06,3.801445088459516e-06,2.8793146310098636e-06,1.327848025959319e-06,3.063374715202921e-06,1.6645009023469036e-06,1.972624216285661e-06,1.3127304017865393e-06,2.0322107404495223e-06
110,1.4647926283962432e-06,1.2214991090284547e-06,1.1901414411235132e-06,2.1100625720959567e-06,1.576759238642371e-06,1.4905910589701442e-06,1.395924681699169e-06,2.0545303333106263e-06,3.774400193353447e-06,2.9266607937838873e-06,1.3063309141287977e-06,2.996494677978043e-06,1.685374529996279e-06,1.9805628007834588e-06,1.3208483765101227e-06,2.0193668078073406e-06
111,1.4190840709137852e-06,1.2866127791277836e-06,1.2095878607301255e-06,2.066379770318843e-06,1.5437555543323877e-06,1.4820158242915847e-06,1.4188400586541626e-06,2.0747605443548133e-06,3.7471414653910256e-06,2.9677519957923708e-06,1.2845243742600345e-06,2.930427133479017e-06,1.7095832612481316e-06,1.987175491209119e-06,1.3280545228431997e-06,1.997850280046974e-06
112,1.3746556077228695e-06,1.3572582562910785e-06,1.2339368815537997e-06,2.020276585097895e-06,1.518862547983738e-06,1.4762138992317506e-06,1.4400743561951222e-06,2.0982050285063738e-06,3.7196905421029055e-06,3.0026353141957652e-06,1.2628773809510729e-06,2.8668310762432402e-06,1.7368220389063085e-06,1.9923710734744267e-06,1.3335153123618905e-06,1.9694433841819515e-06
113,1.333149173374176e-06,1.4322267341381454e-06,1.2633867265543923e-06,1.9717330325541566e-06,1.5027316490025885e-06,1.4738934579133068e-06,1.4591586786653126e-06,2.1252067222844163e-06,3.6917169445052325e-06,3.0314862918763704e-06,1.2417789754498757e-06,2.8079166485242817e-06,1.7669248794080866e-06,1.9960489564115675e-06,1.3365276202924981e-06,1.9358749954614902e-06
114,1.2960688217119255e-06,1.510129613481246e-06,1.2979273773273888e-06,1.920763061924852e-06,1.4959777737102324e-06,1.475498955029491e-06,1.4758045944545908e-06,2.156097689294264e-06,3.662415468729478e-06,3.05447531283222e-06,1.2214675992667544e-06,2.756174075992942e-06,1.7998942984844408e-06,1.9982159658956594e-06,1.3367999656579481e-06,1.8985759774046326e-06
115,1.2647814788650636e-06,1.5894595664715338e-06,1.337459042008048e-06,1.8676362365852895e-06,1.4992789065128684e-06,1.4811675840363238e-06,1.4897480818353595e-06,2.1911023961739178e-06,3.6303568217461017e-06,3.0714935127485145e-06,1.2019972979310073e-06,2.7139729133392334e-06,1.8358815773195352e-06,1.9988907965252694e-06,1.3345374311305551e-06,1.8586552841386621e-06
116,1.2405014889485623e-06,1.668725778764316e-06,1.381949292649767e-06,1.8128821847264584e-06,1.5133655331587278e-06,1.4907205782488986e-06,1.5007395259321824e-06,2.2303853877648897e-06,3.593502849044562e-06,3.0819887835140062e-06,1.1832490824342657e-06,2.683222621127025e-06,1.8752476146960447e-06,1.9979437347518163e-06,1.3302730757292776e-06,1.816987904709241e-06
117,1.224260541531832e-06,1.7465729782109154e-06,1.431513327199467e-06,1.7570957894246093e-06,1.5389008838164215e-06,1.5036801861050221e-06,1.5086613867156833e-06,2.2741472269437344e-06,3.5496585930626158e-06,3.085186814714436e-06,1.16500858570081e-06,2.6652104215868913e-06,1.9186609248693142e-06,1.9951452465689865e-06,1.3246043800156894e-06,1.7743049801951326e-06
118,1.2169072830781388e-06,1.8218622529824868e-06,1.4863704135762806e-06,1.700741667624564e-06,1.5763727694423385e-06,1.5193095102845944e-06,1.5136116455265576e-06,2.3225719060613226e-06,3.4972987251011466e-06,3.0806060305417765e-06,1.1471180207884993e-06,2.6605764975602803e-06,1.96704248476738e-06,1.990414124361661e-06,1.3180275876491653e-06,1.731225464908745e-06
119,1.2191210638890034e-06,1.8937984736720603e-06,1.546720863877639e-06,1.644108745142278e-06,1.6260920657165199e-06,1.5366789760342475e-06,1.5158903348398042e-06,2.375625338875736e-06,3.4361941538510814e-06,3.0684417525730423e-06,1.1295881561384714e-06,2.669337456706433e-06,2.021329882117767e-06,1.984013202472101e-06,1.3109212338444837e-06,1.6882147757826249e-06
120,1.2313991719050933e-06,1.9620281241585374e-06,1.6126102270199542e-06,1.5873756704271808e-06,1.6882323134215634e-06,1.554838420141993e-06,1.5159074593597146e-06,2.432893644429029e-06,3.3673631243649922e-06,3.0495417422333713e-06,1.11256200595198e-06,2.6909146343808682e-06,2.0822177387050024e-06,1.9764810307294335e-06,1.3035809528177263e-06,1.6454931175163313e-06
121,1.254033808679022e-06,2.0265109056189787e-06,1.6838162115680763e-06,1.5306824108112993e-06,1.762837262121501e-06,1.5731061590578526e-06,1.5140514171240612e-06,2.4936097384962945e-06,3.2924685486447103e-06,3.025089593375985e-06,1.0961788027250568e-06,2.724171236892797e-06,2.1500421222290558e-06,1.968342359030394e-06,1.2962153857815372e-06,1.6029879517239321e-06
122,1.2871273720077422e-06,2.0871973719250214e-06,1.7597858543604725e-06,1.47420364473842e-06,1.8498477285414025e-06,1.5912470230800225e-06,1.510643437523976e-06,2.5568522703151563e-06,3.213188174436567e-06,2.996236397375901e-06,1.0804832693403847e-06,2.7674494606111375e-06,2.224799968012013e-06,1.959880783838302e-06,1.2889558382759423e-06,1.5604438782544695e-06
123,1.3306477737760522e-06,2.143790051044846e-06,1.8396634435853646e-06,1.4182636936052132e-06,1.949193186374798e-06,1.6093476060554907e-06,1.5060467992192927e-06,2.621748206865372e-06,3.1310053800515057e-06,2.963820922629548e-06,1.0654552058585956e-06,2.818592332834814e-06,2.3061842016875254e-06,1.9512131768773156e-06,1.28194592237366e-06,1.5176914165950069e-06
124,1.3844839446485111e-06,2.1957170667221704e-06,1.922397796490779e-06,1.3634522993901135e-06,2.060882792469877e-06,1.6275497713888666e-06,1.5007771464594959e-06,2.6875318704865614e-06,3.0473919238320683e-06,2.928302947014116e-06,1.0510972108525065e-06,2.8750058388353983e-06,2.393633125899749e-06,1.942599831147209e-06,1.2754226990196539e-06,1.4749337036906978e-06
125,1.4484796776787117e-06,2.242169410011756e-06,2.006839767996726e-06,1.3106222168304363e-06,2.184991557177186e-06,1.645954409466024e-06,1.4954507741344066e-06,2.7534718541625424e-06,2.963948151976455e-06,2.889918752743149e-06,1.0375024845439268e-06,2.9337593476537593e-06,2.486430049355195e-06,1.9346635031117297e-06,1.2696747760225102e-06,1.432878853873304e-06
126,1.5224257613938125e-06,2.2821393492540964e-06,2.091779661840002e-06,1.260726432227408e-06,2.321517411097004e-06,1.664761820290507e-06,1.4906184852729833e-06,2.818764593729877e-06,2.8822309684434893e-06,2.848794227764511e-06,1.0248908111243336e-06,2.9916191706905412e-06,2.583785976674803e-06,1.92828069614312e-06,1.2649144026119859e-06,1.3926429508270008e-06
127,1.6059956477910902e-06,2.314601486798579e-06,2.175950926796025e-06,1.2146340576866299e-06,2.4702230291986996e-06,1.6844131848517563e-06,1.4866445688230619e-06,2.8824852392188956e-06,2.8034524982048416e-06,2.8048442602705142e-06,1.0136103705773635e-06,3.0451136143722916e-06,2.6848710339256365e-06,1.9242694960162743e-06,1.2611832438482848e-06,1.3554916983777089e-06
128,1.6986869049587192e-06,2.338828951713097e-06,2.2579922913682195e-06,1.1730488559333997e-06,2.6305973072827963e-06,1.7055126939363418e-06,1.4837054269048824e-06,2.943606641249124e-06,2.7283374571488284e-06,2.757662898768606e-06,1.004088266568605e-06,3.090841760946194e-06,2.7888196463156564e-06,1.9231703771383964e-06,1.2583699294406928e-06,1.3225976721448283e-06
129,1.7998406989273405e-06,2.354565089052877e-06,2.3363767875386837e-06,1.1364832184101295e-06,2.801884608380158e-06,1.7285940051215463e-06,1.4818668482763525e-06,3.0009855204388746e-06,2.657178302741546e-06,2.7066392523545203e-06,9.967525215406192e-07,3.1259191974450875e-06,2.8946682736838834e-06,1.9252054567598725e-06,1.2563292923330732e-06,1.294948737861639e-06
130,1.9086814822812704e-06,2.3618807647013254e-06,2.4094692220900726e-06,1.1052409269679611e-06,2.9830372574093782e-06,1.7539659496908846e-06,1.4811859851380037e-06,3.0532219868751013e-06,2.5899345006664635e-06,2.6512669892837856e-06,9.919796781694616e-07,3.148298569912071e-06,3.0012322151889026e-06,1.9302866263689535e-06,1.2549879466701402e-06,1.2733909641188396e-06
131,2.024268544537023e-06,2.3609765002298384e-06,2.475796385440011e-06,1.0794256198610332e-06,3.1726649702143018e-06,1.781763851609858e-06,1.481787083626658e-06,3.0984658388155034e-06,2.5262841169092605e-06,2.591437988754251e-06,9.900698669807363e-07,3.15690722993142e-06,3.1070522283111213e-06,1.938027671609177e-06,1.2543359641916224e-06,1.2586993223427406e-06
132,2.145393310940273e-06,2.3521899356778793e-06,2.5342964861983092e-06,1.0589658639224791e-06,3.3691353719473015e-06,1.8121096538737828e-06,1.4838668719814373e-06,3.1344032744058053e-06,2.4657130547857375e-06,2.5274950058573247e-06,9.912255593915312e-07,3.151661194566072e-06,3.21045128910002e-06,1.947817631304451e-06,1.2543435049301706e-06,1.251571329120047e-06
133,2.2705155955963405e-06,2.3359996362482058e-06,2.584316796002198e-06,1.0436635898051768e-06,3.570699976762839e-06,1.845173327070735e-06,1.487674688933594e-06,3.158593055951203e-06,2.407707615305058e-06,2.46000434921047e-06,9.95539448479095e-07,3.1333679896763628e-06,3.3096833005628553e-06,1.958914702058444e-06,1.2548860274881968e-06,1.2525378859022906e-06
134,2.397745918004963e-06,2.3128526391874918e-06,2.6254582003186327e-06,1.0332547011257347e-06,3.775421371419818e-06,1.8810592590149783e-06,1.4935605119761462e-06,3.1690427422500834e-06,2.351949850457006e-06,2.3895464797993906e-06,1.0030060944902369e-06,3.1034718742243704e-06,3.403275842321447e-06,1.9705212435021644e-06,1.25570101972822e-06,1.2618842947298221e-06
135,2.5249356551234864e-06,2.2830604224242204e-06,2.657509911061895e-06,1.0274220597498033e-06,3.9809362307708015e-06,1.9196413409985136e-06,1.5020695249001472e-06,3.1647236089134624e-06,2.2984024479755477e-06,2.3168183395217106e-06,1.0135462513830892e-06,3.0636339578937443e-06,3.4904953855835523e-06,1.981938341429235e-06,1.2563779317552906e-06,1.2796391286979978e-06
136,2.6499334315753163e-06,2.2469060575136686e-06,2.680570074780299e-06,1.0258123630980564e-06,4.184307710604267e-06,1.960489514368687e-06,1.5139416469860032e-06,3.145789830754983e-06,2.247270986922158e-06,2.2428464840194894e-06,1.0270025608095797e-06,3.0153391225199105e-06,3.5714973283650984e-06,1.992757655140023e-06,1.2564085752236093e-06,1.3056054624076521e-06
137,2.7707769425579417e-06,2.2047763765046935e-06,2.6952554457527636e-06,1.028139155728103e-06,4.382199144829082e-06,2.0029297595845645e-06,1.5299846103667164e-06,3.1134477907647814e-06,2.1989220692941688e-06,2.168933583941651e-06,1.0431226155855797e-06,2.9598200896664226e-06,3.6468986760781985e-06,2.002840741512032e-06,1.2552919218140676e-06,1.3393953389878302e-06
138,2.885588419367815e-06,2.1571967686248672e-06,2.702811473457056e-06,1.0342576020622048e-06,4.57136158095925e-06,2.0461960944404144e-06,1.5509889079805238e-06,3.0695604508685007e-06,2.153835908669837e-06,2.0964068387513237e-06,1.0615714506348532e-06,2.8982980957982983e-06,3.7171402589375203e-06,2.012090044911074e-06,1.252582411871926e-06,1.3804944566947177e-06
139,2.992428781149179e-06,2.104827788083803e-06,2.7049745414635183e-06,1.0440854081930273e-06,4.749147455474465e-06,2.089574129637396e-06,1.5777389034154514e-06,3.0161821547456138e-06,2.1125475541270368e-06,2.0264459938617214e-06,1.0819517846807148e-06,2.8321961997149547e-06,3.7821967017653046e-06,2.0202681962527146e-06,1.2478144352095908e-06,1.4283489626048155e-06
140,3.089456325119185e-06,2.0484218990635957e-06,2.7036171626559208e-06,1.0574822568018844e-06,4.91377723227922e-06,2.1324259823229323e-06,1.6109551071468577e-06,2.95526019249979e-06,2.075514522222273e-06,1.9600249638263547e-06,1.1038164924659209e-06,2.7630730271692786e-06,3.841674397165651e-06,2.0269479619032194e-06,1.2404554605067428e-06,1.4823532297957104e-06
141,3.175229661389915e-06,1.988716732158966e-06,2.700369310882327e-06,1.0742570591284206e-06,5.0643922237111625e-06,2.1740624049078856e-06,1.6511537958186594e-06,2.8885561525816782e-06,2.0430219457158886e-06,1.8979178883398929e-06,1.126675246062909e-06,2.6923772675602476e-06,3.894891694228661e-06,2.0315761644097692e-06,1.2300546211416513e-06,1.5417454772347936e-06
142,3.248808200117034e-06,1.92641069772786e-06,2.6963744397049036e-06,1.0942487435586398e-06,5.201070756220237e-06,2.2135516309571493e-06,1.6985958909670688e-06,2.8176128380619e-06,2.0152365130233717e-06,1.8407644640448693e-06,1.1500115087844241e-06,2.6212955539077187e-06,3.940782597047916e-06,2.0336053508827947e-06,1.2164877285738092e-06,1.6055860786767914e-06
143,3.3096071506759233e-06,1.8623057307628597e-06,2.6921923451135692e-06,1.117313079567951e-06,5.3248200254229874e-06,2.2496378402269833e-06,1.7533579867995606e-06,2.743698825231621e-06,1.9922739560592397e-06,1.7891048461611685e-06,1.173350090148764e-06,2.550798607355682e-06,3.97790098476513e-06,2.032541178792346e-06,1.200053768363995e-06,1.6728758500651713e-06
144,3.357210447013781e-06,1.7974323436379042e-06,2.6877750665828517e-06,1.143227089718582e-06,5.437436113124052e-06,2.2808750970903588e-06,1.8153869777304633e-06,2.667856023831383e-06,1.9741231852455976e-06,1.7433185278434835e-06,1.196351025593838e-06,2.481712070056476e-06,4.0047114972412024e-06,2.0280095951855113e-06,1.1813369173648368e-06,1.742672444715906e-06
145,3.391353796391153e-06,1.7329898231492334e-06,2.682461214333422e-06,1.1716248931825391e-06,5.541182169607934e-06,2.30592294232584e-06,1.8844349601425648e-06,2.591029040326784e-06,1.9605102433146034e-06,1.703545695393327e-06,1.2188782779316274e-06,2.4146761720485366e-06,4.019974009791665e-06,2.0200274374748243e-06,1.1609906744987815e-06,1.8140950704030787e-06
146,3.412073050575614e-06,1.670155871442867e-06,2.6750183093183756e-06,1.2019802358761735e-06,5.638294584681235e-06,2.3238885046215093e-06,1.959945508806356e-06,2.514099816129923e-06,1.9508681652106167e-06,1.6696493148370628e-06,1.2410425147954877e-06,2.3500950789686405e-06,4.02297697911217e-06,2.0091607011040667e-06,1.1396288675343055e-06,1.8863491423228278e-06
147,3.4197450920612012e-06,1.6099146691558469e-06,2.6638302082173666e-06,1.233639445682661e-06,5.730429032542871e-06,2.334592739922772e-06,2.0410466334517452e-06,2.4378205664839222e-06,1.9444559827408933e-06,1.6411961348842797e-06,1.2631943440641097e-06,2.2881679860805686e-06,4.013611943832831e-06,1.9962673821748317e-06,1.1178106581820346e-06,1.9588930936217093e-06
148,3.414841961265756e-06,1.5530150446208255e-06,2.6472644313289697e-06,1.2659455719021657e-06,5.818280605824254e-06,2.3385911465833615e-06,2.1267035867701164e-06,2.3627931717150753e-06,1.9405339841842914e-06,1.6174924832688403e-06,1.2858165696917063e-06,2.2289831843010255e-06,3.992394152986374e-06,1.9821100521621684e-06,1.0960085820990387e-06,2.031539725970317e-06
149,3.397662476666438e-06,1.5000437792643314e-06,2.6240636470724196e-06,1.2984212764553361e-06,5.901457376599751e-06,2.3368707999955827e-06,2.215925330482253e-06,2.2895400266772693e-06,1.9384861553178047e-06,1.5977072822583107e-06,1.3093539506897524e-06,2.1726736429256946e-06,3.960439339313934e-06,1.967182609826083e-06,1.074556359618438e-06,2.104277293130072e-06
150,3.3684089410474575e-06,1.4514796619056898e-06,2.5935390615470494e-06,1.3308882070075504e-06,5.978447413228919e-06,2.330411089606278e-06,2.3078251278398585e-06,2.2185482346185855e-06,1.937885454959825e-06,1.5809857375753516e-06,1.3340998807100424e-06,2.1195809058823738e-06,3.919295943221489e-06,1.9517159336827466e-06,1.0536173035321202e-06,2.1769812295013805e-06
151,3.3275441906499185e-06,1.4076605083469227e-06,2.55553749300308e-06,1.3634067674434434e-06,6.0466153154094104e-06,2.319888190184922e-06,2.40144128534958e-06,2.1501935047435445e-06,1.938513373978585e-06,1.5665231188312404e-06,1.3601757127701303e-06,2.070282811857577e-06,3.870580107338794e-06,1.935749433536934e-06,1.0331884489163344e-06,2.2492458945780075e-06
152,3.2760885314551573e-06,1.3687594234749602e-06,2.510341587082396e-06,1.3960589196157104e-06,6.1023741280543215e-06,2.305618679054248e-06,2.4954857418585246e-06,2.0846531051721312e-06,1.9402674883341406e-06,1.5537202428389935e-06,1.3875237824528002e-06,2.025439756939121e-06,3.8155398457953095e-06,1.9193101261756387e-06,1.013211077677262e-06,2.3202987958635467e-06
153,3.215626575033703e-06,1.3348408499578113e-06,2.458609899949777e-06,1.4287415284535267e-06,6.141673663919419e-06,2.2876226968040317e-06,2.5882678283417037e-06,2.021941763313887e-06,1.942978315714251e-06,1.5423677953938324e-06,1.4158781667232072e-06,1.9855963249053066e-06,3.7547707503410002e-06,1.9026651320864623e-06,9.93779965032227e-07,2.3889746042105996e-06
154,3.1480175838050795e-06,1.305904495952271e-06,2.401314779679922e-06,1.4610935832041847e-06,6.1607623000329856e-06,2.265658718836607e-06,2.677774077803558e-06,1.961975053952868e-06,1.9462672322682304e-06,1.5326171233574194e-06,1.4447685401317934e-06,1.9511287705213147e-06,3.6882369452346245e-06,1.8864254010003138e-06,9.752437457503934e-07,2.4538462084830443e-06
155,3.0750880709383373e-06,1.2818450706294308e-06,2.3396083617069013e-06,1.4925491868304796e-06,6.15697815561649e-06,2.2393084613752263e-06,2.7617116108648238e-06,1.9045697149579455e-06,1.949461561170126e-06,1.5247127114709933e-06,1.47358569049178e-06,1.9224056924959453e-06,3.6155617664713346e-06,1.8714113547847712e-06,9.580871420301871e-07,2.5134880482051747e-06
156,2.9985931978273074e-06,1.2624252969557185e-06,2.274628201072976e-06,1.5224726576211846e-06,6.129272682414212e-06,2.2082638813632033e-06,2.837610188413085e-06,1.849525266443015e-06,1.951531853943319e-06,1.5187378700479593e-06,1.5016393457362138e-06,1.9000077811856008e-06,3.5363603630660707e-06,1.8584379285866955e-06,9.427517844327137e-07,2.56670818940794e-06
157,2.92028982052047e-06,1.2473496687242687e-06,2.2073665797583395e-06,1.5503180805235635e-06,6.078285565707145e-06,2.172673565156246e-06,2.9032317026463086e-06,1.79685840946901e-06,1.951142191523242e-06,1.514573676637826e-06,1.5281361100124894e-06,1.8847574884736167e-06,3.4504592055529367e-06,1.8481492280602969e-06,9.295480207354237e-07,2.612622922907183e-06
158,2.841809691425767e-06,1.2363397910949352e-06,2.1387500392159666e-06,1.5757338177645806e-06,6.006004908615029e-06,2.133275464421616e-06,2.957144996178669e-06,1.7469830780273689e-06,1.9468701014346272e-06,1.511990222183315e-06,1.5521390953899735e-06,1.8774969931224892e-06,3.3580798882858533e-06,1.840914818349328e-06,9.186655111846576e-07,2.65061793233935e-06
159,2.7644183116449277e-06,1.229090227286329e-06,2.0698259920643664e-06,1.59858043896099e-06,5.915261018541964e-06,2.0912432963182937e-06,2.9990453517335884e-06,1.7006333920617198e-06,1.937510016043062e-06,1.5106595091734566e-06,1.5726121763824135e-06,1.8788181107277533e-06,3.2600237691468826e-06,1.8367989707662188e-06,9.10245190686407e-07,2.680347624682495e-06
160,2.6889326564210695e-06,1.225176608905698e-06,2.00177311794351e-06,1.6188841060686806e-06,5.809302399097887e-06,2.0478650938944547e-06,3.0296182931653996e-06,1.6585935633255742e-06,1.9223635926834117e-06,1.510118976569269e-06,1.5885226819630605e-06,1.8889462988173902e-06,3.1576960777339815e-06,1.8356208973717341e-06,9.044460506303165e-07,2.7017753556066736e-06
161,2.6158493736487496e-06,1.2240813978197384e-06,1.935761683680668e-06,1.6367472306955002e-06,5.691496438415739e-06,2.004253769963879e-06,3.0500985511419116e-06,1.6214654226798894e-06,1.9014159991271458e-06,1.5098794354623072e-06,1.5989243866106415e-06,1.907787104244428e-06,3.0528772628504913e-06,1.8370369007169843e-06,9.014397087735911e-07,2.7150677477092678e-06
162,2.5455796407994586e-06,1.2253530080001761e-06,1.8728898379327143e-06,1.6522418331152169e-06,5.565113318478828e-06,1.9612683224525907e-06,3.061785241938226e-06,1.5896127837540697e-06,1.8753012157801954e-06,1.5096062601157976e-06,1.6030187041695218e-06,1.935067995887206e-06,2.94739618194553e-06,1.84056339145706e-06,9.013501979766381e-07,2.720324958445291e-06
163,2.478664663640522e-06,1.2287352650116851e-06,1.8141580716291208e-06,1.6653169148022638e-06,5.433216915680405e-06,1.919657490768289e-06,3.0656916366617655e-06,1.5632479902502342e-06,1.8451142180575413e-06,1.5091229589865443e-06,1.6002435628363582e-06,1.970464377585126e-06,2.8429237250137684e-06,1.8455766747157907e-06,9.041880048345274e-07,2.7174246658713437e-06
164,2.4158393983192486e-06,1.2341394128533448e-06,1.7603956238077863e-06,1.675733770371005e-06,5.298587870946101e-06,1.8802213252743868e-06,3.0624816454689718e-06,1.5425298625822665e-06,1.8121904352438973e-06,1.5082327361163848e-06,1.5903995481397627e-06,2.013576915603523e-06,2.7409638700486804e-06,1.8513529977529566e-06,9.097956530934792e-07,2.7061531176940254e-06
165,2.357904599995772e-06,1.241534387736319e-06,1.7122359569001727e-06,1.6830770802835927e-06,5.163542390960413e-06,1.8437956085659186e-06,3.052710082815279e-06,1.5275501355346996e-06,1.7778750828766137e-06,1.5065720151377124e-06,1.5737548316243088e-06,2.0638193350478357e-06,2.6429492829177445e-06,1.8571982122767647e-06,9.178168948460158e-07,2.6864831136430764e-06
166,2.3055075709551244e-06,1.2509063532040602e-06,1.6701578714485866e-06,1.6869096372338889e-06,5.0298242765696695e-06,1.811143630722884e-06,3.0370746345114057e-06,1.518214274251501e-06,1.7433419024152082e-06,1.5035954288676593e-06,1.5510741107599005e-06,2.1203571375898224e-06,2.550273614158233e-06,1.862672245891299e-06,9.277027862226535e-07,2.658770843894972e-06
167,2.258989928663852e-06,1.2622700191920772e-06,1.6344931403911809e-06,1.6869918374003046e-06,4.89878603579996e-06,1.7829312773578436e-06,3.0164053759208846e-06,1.5141411734420616e-06,1.7095675060764547e-06,1.4986088052169237e-06,1.523524304170472e-06,2.1821145213478907e-06,2.4642307156079153e-06,1.8677632087847242e-06,9.387764045346335e-07,2.6237580111735507e-06
168,2.2184387911219164e-06,1.2756367047231883e-06,1.6053829530392316e-06,1.6833678205641062e-06,4.771597212894906e-06,1.7597234832601533e-06,2.991479051415616e-06,1.5146825421979474e-06,1.6774097624761266e-06,1.4907942010164492e-06,1.4924361559063795e-06,2.247861661357352e-06,2.3859702248756716e-06,1.872838704339423e-06,9.503684271822121e-07,2.582446459870408e-06
169,2.1839326285191263e-06,1.2909631646441607e-06,1.5827297768710789e-06,1.6762652996044513e-06,4.649182862733466e-06,1.7418864630860364e-06,2.962888205419243e-06,1.5190509048846298e-06,1.6476614461812219e-06,1.479284014084776e-06,1.4590401951314342e-06,2.316377040749705e-06,2.316456306217211e-06,1.8783880495384068e-06,9.619835305641178e-07,2.5360004307493307e-06
170,2.155766690922706e-06,1.308113448677422e-06,1.5661861135096973e-06,1.6659577041124528e-06,4.531995032239846e-06,1.7294925632408408e-06,2.931041906534118e-06,1.52645738335847e-06,1.6210923742236473e-06,1.4633156688739871e-06,1.424333613600227e-06,2.3865849853847543e-06,2.2563626120112977e-06,1.8847765719665577e-06,9.734121188237999e-07,2.485712182484373e-06
171,2.134455053213526e-06,1.3268268556803716e-06,1.5552048711808711e-06,1.6527065555545131e-06,4.419811202045649e-06,1.7223594631927464e-06,2.8962576391691553e-06,1.5361931338407551e-06,1.5985103583526297e-06,1.4424434820428911e-06,1.389091574013616e-06,2.4575749565485387e-06,2.20597988979865e-06,1.8921885511965973e-06,9.847043525307248e-07,2.4329278538920453e-06
172,2.120524735898099e-06,1.3467124675618204e-06,1.5491119843844784e-06,1.636743696439395e-06,4.311675119493254e-06,1.7201515246510327e-06,2.8588835282250116e-06,1.5476586184311648e-06,1.5807256295258824e-06,1.4167610714795507e-06,1.3539491665546206e-06,2.5284835166532013e-06,2.1652328913982436e-06,1.9006660871320634e-06,9.960364926491606e-07,2.378875446596738e-06
173,2.1142584933411725e-06,1.3672650675273998e-06,1.5471423572493163e-06,1.618276287529221e-06,4.2060868021666415e-06,1.7224016138732387e-06,2.819353832860064e-06,1.5603322274667698e-06,1.5683955484211895e-06,1.3869660772657696e-06,1.3194821133236738e-06,2.5983096352062285e-06,2.1338052116696437e-06,1.9100862235122553e-06,1.0076122938759739e-06,2.3244961402445875e-06
174,2.115524903338135e-06,1.3879249158413036e-06,1.5484619363783835e-06,1.5976136670089969e-06,4.101413021992028e-06,1.728498118400759e-06,2.778099873302063e-06,1.5737118142629969e-06,1.5619379559517482e-06,1.3541222958368564e-06,1.286219811276844e-06,2.665808159620509e-06,2.1112504141705415e-06,1.9201193849246513e-06,1.0196391134985581e-06,2.2704021225623864e-06
175,2.1237385429032483e-06,1.4082335748569237e-06,1.5522162399574633e-06,1.5753658389217306e-06,3.9962610512675095e-06,1.7377192787045666e-06,2.735386109813421e-06,1.5873304230408447e-06,1.561576836014569e-06,1.3193048439843365e-06,1.254575440581227e-06,2.7295811741940986e-06,2.0969434270849712e-06,1.930300006374451e-06,1.0322866864149359e-06,2.216924104287295e-06
176,2.13789894489131e-06,1.427975896547271e-06,1.5575493039277869e-06,1.55246746874286e-06,3.889575424463407e-06,1.749266025442394e-06,2.6912491846847023e-06,1.6008347295995768e-06,1.5673788767464716e-06,1.2834279437760894e-06,1.2247673376603377e-06,2.788338321966821e-06,2.0899253211394046e-06,1.9401722920798874e-06,1.0456126910203103e-06,2.1641812767177243e-06
177,2.1566382007391835e-06,1.4471404445243075e-06,1.5635458400401343e-06,1.5299580822268826e-06,3.780535647274306e-06,1.7622966584852955e-06,2.645611226866443e-06,1.6140251921934823e-06,1.5792299755707298e-06,1.2472429284627686e-06,1.196817773640499e-06,2.841119385559502e-06,2.0888293263811844e-06,1.94936191441248e-06,1.0595335492144332e-06,2.1122053844047012e-06
178,2.1783040964765013e-06,1.4658066623307365e-06,1.5692048381422415e-06,1.5087161209292516e-06,3.6685544773439867e-06,1.7759677503698264e-06,2.598434715804143e-06,1.6268485660393898e-06,1.5968126079870505e-06,1.2113319688802511e-06,1.170635867330889e-06,2.8872545963202868e-06,2.091980099090927e-06,1.957604543240247e-06,1.0738785383144196e-06,2.0610468298586557e-06
179,2.201165712314666e-06,1.4841728444751074e-06,1.5735530923085694e-06,1.4893157026926602e-06,3.553517860825417e-06,1.7893960612704299e-06,2.5497499705713374e-06,1.6393699256095867e-06,1.6196208064604475e-06,1.176101368755453e-06,1.1461084761242061e-06,2.9260790151793758e-06,2.0976291117730936e-06,1.964862778001202e-06,1.0884879156728801e-06,2.010711050663603e-06
180,2.2236578995959485e-06,1.502634001521915e-06,1.5758284569669755e-06,1.4720138274594672e-06,3.4360774154789988e-06,1.8016137191189968e-06,2.499527944545828e-06,1.65170250435047e-06,1.647006905517164e-06,1.141844701910085e-06,1.123102008569008e-06,2.9567020130966897e-06,2.1041826739880286e-06,1.9714195994016037e-06,1.1032941634382354e-06,1.9610193542382293e-06
181,2.244429339801825e-06,1.5217043636381659e-06,1.5756047876804043e-06,1.456814218779087e-06,3.317677121927059e-06,1.811700090787906e-06,2.4475044519975478e-06,1.6638938432779639e-06,1.6782354254115559e-06,1.1088007817000518e-06,1.1013814561117842e-06,2.978130582263436e-06,2.11026186457183e-06,1.97778173760097e-06,1.118356103685539e-06,1.9116210319042252e-06
182,2.262185410919029e-06,1.5418389359592708e-06,1.5728307733444637e-06,1.4435687721784167e-06,3.2001958039751767e-06,1.8190627164231503e-06,2.3931397096760665e-06,1.6758258782305261e-06,1.712526800022469e-06,1.077118127448664e-06,1.0805800852505326e-06,2.98970593632666e-06,2.114599844084888e-06,1.9845363286745905e-06,1.1338296683074057e-06,1.862173484544739e-06
183,2.275624322994753e-06,1.5633175936513005e-06,1.5678464418810435e-06,1.4320664256650016e-06,3.0854358937061347e-06,1.8236409927455923e-06,2.335843059253455e-06,1.6872035142236018e-06,1.7490865570033167e-06,1.0468051921203954e-06,1.0603010892291426e-06,2.9914439081873797e-06,2.1159006288195773e-06,1.9922855286143767e-06,1.1498739203909517e-06,1.8125475404893818e-06
184,2.28361921875291e-06,1.5862031225903318e-06,1.561394122596076e-06,1.4220553206353287e-06,2.9747967052534285e-06,1.8258524283191904e-06,2.2753529563898074e-06,1.697667015023961e-06,1.7872447103259575e-06,1.0177976368559034e-06,1.040272919591929e-06,2.9839042366706596e-06,2.1127579490976258e-06,2.001527849924554e-06,1.1665497072829327e-06,1.7629105344693981e-06
185,2.285440322388089e-06,1.6103203915554194e-06,1.5545200046267828e-06,1.413254203833278e-06,2.8691922474096327e-06,1.826313817920277e-06,2.2120003248871934e-06,1.7069655330342366e-06,1.826760790859322e-06,9.901357246213637e-07,1.0204331907992816e-06,2.967700635082664e-06,2.103795345410573e-06,2.0124917243686786e-06,1.1837633458092526e-06,1.7135903059734756e-06
186,2.28076096200085e-06,1.6352594041445573e-06,1.5483295056837934e-06,1.405428744629399e-06,2.769062150612611e-06,1.8255800551297035e-06,2.1466735730696793e-06,1.7150251936716617e-06,1.867951076980573e-06,9.641155267220166e-07,1.0008848963418973e-06,2.9431182389145386e-06,2.0881298237581824e-06,2.025071496151749e-06,1.2012341658726699e-06,1.6648235739093456e-06
187,2.269441734062781e-06,1.6604102297229178e-06,1.5437522292506383e-06,1.3984394889348416e-06,2.6744578067161943e-06,1.8240838340022667e-06,2.0805212602448e-06,1.7218166238712363e-06,1.9114243472922e-06,9.402855001684871e-07,9.817623043851498e-07,2.9100695538022934e-06,2.065874105409477e-06,2.03885834140878e-06,1.2184843899244779e-06,1.6166556806578423e-06
188,2.2513937052197026e-06,1.685035201941411e-06,1.5414404627319978e-06,1.392171426943843e-06,2.585282837308194e-06,1.8221763365606266e-06,2.014613183749034e-06,1.7271549965958252e-06,1.95774445870403e-06,9.193009099487629e-07,9.631315861506966e-07,2.8682553251026394e-06,2.038206137707248e-06,2.053223095621626e-06,1.234899979294077e-06,1.5690702484203172e-06
189,2.2267106933538755e-06,1.708406318672076e-06,1.5417457280080037e-06,1.3864222924621689e-06,2.5016232849813526e-06,1.8201398018806962e-06,1.9497806263970575e-06,1.7306136160108982e-06,2.0073052095042853e-06,9.017623730501021e-07,9.450311517589081e-07,2.81743944182546e-06,2.0068989410512977e-06,2.067435179926549e-06,1.2498310611411335e-06,1.52213958971336e-06
190,2.195795986806666e-06,1.7300113505203688e-06,1.5447132959078656e-06,1.3808763358480094e-06,2.4239633470768493e-06,1.8182309366841187e-06,1.8866667569060277e-06,1.7316002291752468e-06,2.0603816005432767e-06,8.881302341851488e-07,9.275930939718299e-07,2.7578529218120696e-06,1.9737066382924944e-06,2.080734414169271e-06,1.262635605046098e-06,1.4760175159452105e-06
191,2.1592540932685874e-06,1.749761135509044e-06,1.550135635836986e-06,1.375235438141845e-06,2.3531175741716207e-06,1.8167419160433756e-06,1.8258450741697774e-06,1.7295404081520021e-06,2.117199055584773e-06,8.787418446461028e-07,9.110937219491809e-07,2.690562541813331e-06,1.9400632375117555e-06,2.0924114609792884e-06,1.272696855756162e-06,1.4308473178229217e-06
192,2.1177221072164164e-06,1.7680658120176426e-06,1.5576947330892578e-06,1.3694159098182505e-06,2.2899397516528983e-06,1.8159622120294585e-06,1.7678538008471149e-06,1.724025702027063e-06,2.1778654905386256e-06,8.738986322900692e-07,8.95908046623093e-07,2.617488008829085e-06,1.9071443710663301e-06,2.102016680861575e-06,1.2795112646057516e-06,1.3867667243483815e-06
193,2.0717889619107695e-06,1.7856769995583832e-06,1.5671107917002219e-06,1.3635881869088525e-06,2.2350931558891773e-06,1.8160912867784176e-06,1.7131468666521566e-06,1.7148161717469956e-06,2.2422156283912465e-06,8.739212770158038e-07,8.824600950579413e-07,2.540969560529315e-06,1.876013983160674e-06,2.1095288778162487e-06,1.2827792741726277e-06,1.3440247776162295e-06
194,2.021979832360452e-06,1.8033660771820435e-06,1.5781828468160832e-06,1.3580075222246316e-06,2.1890214798231553e-06,1.8171875116476849e-06,1.6621068033180542e-06,1.7017222423015492e-06,2.3097603938585036e-06,8.791204011570354e-07,8.711830010546076e-07,2.463201411507792e-06,1.847668657012169e-06,2.115266049829165e-06,1.2824467848553117e-06,1.3030343074291174e-06
195,1.9688827846239568e-06,1.821653662188261e-06,1.5907421922116674e-06,1.3528220214771143e-06,2.1519618577831386e-06,1.81913545509221e-06,1.6151285950289212e-06,1.6844881499978925e-06,2.3797649385315925e-06,8.897300873471518e-07,8.624560086287751e-07,2.385916338233124e-06,1.8230194137906442e-06,2.1196264950584517e-06,1.2787999805238576e-06,1.2642605763030182e-06
196,1.9133891047652244e-06,1.840732704309883e-06,1.6046235641222656e-06,1.348016445299557e-06,2.1239232235244453e-06,1.821692655407908e-06,1.572620671698577e-06,1.662840336907983e-06,2.4513814609733726e-06,9.058507280926043e-07,8.565621659868247e-07,2.3103578408184014e-06,1.802884664180434e-06,2.1228835202883016e-06,1.2725306311239592e-06,1.2280489410717e-06
197,1.85672535599533e-06,1.8605522534693312e-06,1.6196447574225265e-06,1.3434955805138316e-06,2.1047451496829514e-06,1.8246982479116713e-06,1.534965390331471e-06,1.6367180206882785e-06,2.5238510858582146e-06,9.27419907479817e-07,8.536994492056354e-07,2.2373557099214195e-06,1.7879897909715147e-06,2.1251827481529615e-06,1.2645881201919561e-06,1.194535177211847e-06
198,1.8001804635554955e-06,1.8809485261091132e-06,1.6355347482514276e-06,1.3392062776034056e-06,2.094216304010351e-06,1.828329120554885e-06,1.502580674541244e-06,1.6064573065658889e-06,2.596760188460037e-06,9.54242441563066e-07,8.539884812726317e-07,2.1674323813538644e-06,1.7789441047460672e-06,2.1267334264210675e-06,1.25594186971799e-06,1.1636918376588844e-06
199,1.744820594313287e-06,1.9017311713641605e-06,1.6519079925183151e-06,1.3351830917520826e-06,2.0920821618341913e-06,1.83316162703039e-06,1.4759986103435104e-06,1.5727237872332085e-06,2.670212166471406e-06,9.860797340309266e-07,8.574332012612176e-07,2.100981509142946e-06,1.7762067410797382e-06,2.1279436224427874e-06,1.2474465737123562e-06,1.1354643658286233e-06
200,1.691390841317542e-06,1.9226852277400443e-06,1.6683808912607557e-06,1.3314874688289741e-06,2.097910407187151e-06,1.8399528671306042e-06,1.455827119315551e-06,1.5362801493044077e-06,2.7447977011813637e-06,1.0227082094843061e-06,8.638709722317585e-07,2.038481890668103e-06,1.7800488462008367e-06,2.1293267339876624e-06,1.23978429791373e-06,1.1098954379534773e-06
201,1.640386571961235e-06,1.9435053790240886e-06,1.6846964675165494e-06,1.3281151625293346e-06,2.1109749456158525e-06,1.8493346149826916e-06,1.4426164793011792e-06,1.497822003054483e-06,2.8213688932897106e-06,1.0638781274458384e-06,8.729529562033882e-07,1.9806055506684345e-06,1.790497581812244e-06,2.1313791719740608e-06,1.233454641662166e-06,1.087171891100982e-06
202,1.5922113713430145e-06,1.96372807368382e-06,1.700722615363034e-06,1.3250195251404097e-06,2.130314000799968e-06,1.8616587090999818e-06,1.4367297307151016e-06,1.4579314881832426e-06,2.900710177472987e-06,1.1092403121484582e-06,8.841612943375562e-07,1.928144573965761e-06,1.8072831453026296e-06,2.13458161480906e-06,1.2288318739193614e-06,1.067583599095708e-06
203,1.5472799481387856e-06,1.9827268894682615e-06,1.7163577032083089e-06,1.3222992277849076e-06,2.154926273618755e-06,1.8770415674615636e-06,1.4382781240091428e-06,1.4170582867017662e-06,2.9832772505960594e-06,1.158344505534229e-06,8.968904035414375e-07,1.8818291345366309e-06,1.8298011317608802e-06,2.139384397723727e-06,1.2262191129077884e-06,1.0514183919430663e-06
204,1.505969201833676e-06,1.999759675710258e-06,1.7314145576706382e-06,1.3203495735864005e-06,2.1838841608236854e-06,1.895479322572621e-06,1.4470994370378165e-06,1.3755542185800663e-06,3.0691070876486053e-06,1.2107385669090942e-06,9.106011860506524e-07,1.842168899214687e-06,1.8571032757147155e-06,2.146109125230743e-06,1.2258449539245088e-06,1.0388631632449014e-06
205,1.468494700355525e-06,2.0139947199867647e-06,1.7455905005616024e-06,1.3197863609419946e-06,2.2162392095599996e-06,1.9168794643039818e-06,1.4627556136990576e-06,1.333821954582037e-06,3.157810873482202e-06,1.2660815953679717e-06,9.249458342077381e-07,1.8093919720427378e-06,1.8879817025719375e-06,2.1548616792847885e-06,1.227838588072395e-06,1.0299679242948892e-06
206,1.4348437977998242e-06,2.0245116494646006e-06,1.758579182517784e-06,1.3212431722439148e-06,2.2509195592955673e-06,1.941044312457263e-06,1.484569180910775e-06,1.292493422547518e-06,3.2486033392546677e-06,1.3241274340080146e-06,9.39759915220401e-07,1.7834774510941981e-06,1.9211864702689988e-06,2.165500710693196e-06,1.2322158055640463e-06,1.0246742759953273e-06
207,1.4048086832533274e-06,2.0303784223656365e-06,1.7701675594250945e-06,1.3252648847924581e-06,2.2868414741989784e-06,1.9677581801584815e-06,1.5116768564692674e-06,1.2524798290987963e-06,3.3404643817428613e-06,1.3845729153441441e-06,9.549631627061779e-07,1.764277688498851e-06,1.9557063859241514e-06,2.177623336508505e-06,1.238910333298227e-06,1.022870208271265e-06
208,1.3780838091018754e-06,2.0308553526122817e-06,1.7801986372879016e-06,1.3323495626121737e-06,2.3231061807294358e-06,1.996895128864074e-06,1.5430329765938777e-06,1.214833276932931e-06,3.4324100443440266e-06,1.446930041797966e-06,9.70465322789292e-07,1.751668701011082e-06,1.990941735593385e-06,2.19052260009684e-06,1.2478531578204134e-06,1.0244259173582358e-06
209,1.3543337116375008e-06,2.0256227836886707e-06,1.7885192691410005e-06,1.3430319816798752e-06,2.359046347526697e-06,2.0283714194108314e-06,1.5773514120038958e-06,1.180541224011904e-06,3.5236691916207362e-06,1.5105734118733263e-06,9.861197071880123e-07,1.7455688128264873e-06,2.0266592793149444e-06,2.2031179306346845e-06,1.2589961757130316e-06,1.0292268992365974e-06
210,1.3331915620377996e-06,2.0148791408182873e-06,1.7950149662081463e-06,1.3579288357567226e-06,2.394123532208438e-06,2.0620791392413074e-06,1.6130804622299984e-06,1.1504203181536205e-06,3.6136467749743556e-06,1.5749316923962847e-06,1.0017177345288694e-06,1.745801990195914e-06,2.062801853268801e-06,2.2139280506851357e-06,1.2722476292777651e-06,1.0372026387235976e-06
211,1.314263442755709e-06,1.9992247057427437e-06,1.79965489557177e-06,1.3777215993746493e-06,2.427795451316444e-06,2.097964723426963e-06,1.648527691178598e-06,1.1251208153383997e-06,3.7017749444513818e-06,1.639588573211699e-06,1.01699901102015e-06,1.751997226409834e-06,2.0993216206943303e-06,2.221165214690242e-06,1.2874352310102459e-06,1.0482819234165998e-06
212,1.2971427349517373e-06,1.9793773337146844e-06,1.802451000493819e-06,1.4030641324510498e-06,2.459387937489876e-06,2.136079077972735e-06,1.6821317872535927e-06,1.1051390871496265e-06,3.7873606452175784e-06,1.704158087761292e-06,1.0316941205860912e-06,1.7636626531578877e-06,2.1362361424190357e-06,2.2229861254581136e-06,1.3043368989334057e-06,1.0623071443291107e-06
213,1.2813833211447265e-06,1.9559314832396995e-06,1.803386934649388e-06,1.4344544696824336e-06,2.488006612571276e-06,2.17644482809249e-06,1.7127296881962034e-06,1.0908006221307697e-06,3.869414492905204e-06,1.7680874396007333e-06,1.0455909508842831e-06,1.780377592829065e-06,2.173884437603503e-06,2.2178841264248923e-06,1.322685729517527e-06,1.0790050829577058e-06
214,1.2665143261989936e-06,1.929349879618419e-06,1.8024669990792145e-06,1.4721445103186711e-06,2.512621011562866e-06,2.21886045758574e-06,1.73963051052132e-06,1.08225624061179e-06,3.946538028088287e-06,1.8305671099536129e-06,1.0585241271637769e-06,1.8019945359620537e-06,2.2129979022659307e-06,2.205111568406263e-06,1.3421247664651031e-06,1.0980140981409035e-06
215,1.2521667059204543e-06,1.9001185860916095e-06,1.7998299487308631e-06,1.516106582954044e-06,2.532329900014248e-06,2.262788931330127e-06,1.7624439096670827e-06,1.0795120476256263e-06,4.017036658943403e-06,1.8905967298545718e-06,1.0702857405746412e-06,1.8287708388896936e-06,2.2544130487635416e-06,2.184925556438294e-06,1.3622227554818283e-06,1.1189446379407542e-06
216,1.2382000518497084e-06,1.8688466826482834e-06,1.7957116075686097e-06,1.5660336758276604e-06,2.5465692386182e-06,2.307351755984837e-06,1.7808584620673424e-06,1.0824977065009748e-06,4.079245763147352e-06,1.9471967448140116e-06,1.0806007750509705e-06,1.8613453044792333e-06,2.2987491980725815e-06,2.158475269955003e-06,1.3825822240469354e-06,1.141489272625463e-06
217,1.2246959272100816e-06,1.8361999629934464e-06,1.79032929847756e-06,1.621388099801236e-06,2.5551051346379853e-06,2.3513633708435575e-06,1.7946008873936938e-06,1.091202440709616e-06,4.131901980652087e-06,1.9996725777680027e-06,1.0892486887165927e-06,1.9005589145568864e-06,2.346375550738976e-06,2.127393895043837e-06,1.4029001620778397e-06,1.165531725194222e-06
218,1.2118486400299846e-06,1.8027448565846497e-06,1.7838728133815624e-06,1.681497237556817e-06,2.5579444553372603e-06,2.3933315205870692e-06,1.8034972679168953e-06,1.105813025735686e-06,4.174326352934778e-06,2.047778167627641e-06,1.096237626593481e-06,1.947235359309589e-06,2.397641934627698e-06,2.093409440812802e-06,1.4229241163070757e-06,1.1911344014875126e-06
219,1.1998950942629115e-06,1.7688553554450634e-06,1.7764943918499903e-06,1.745589683723814e-06,2.5553209927270035e-06,2.4314632914674236e-06,1.8074184320081713e-06,1.1266876634348963e-06,4.206198670417422e-06,2.091658816484055e-06,1.1018386048922086e-06,2.002034864277125e-06,2.453065386681936e-06,2.0581487835064193e-06,1.4424052698581e-06,1.2184010119192266e-06
220,1.1891122691559086e-06,1.7347518230746231e-06,1.7682427268661812e-06,1.8127069185359143e-06,2.547671424621853e-06,2.4638193689996966e-06,1.8061782207802623e-06,1.1541750254726626e-06,4.22704009173602e-06,2.131578590984224e-06,1.1064358575677101e-06,2.0654088469924514e-06,2.5132426249431335e-06,2.0230926200816956e-06,1.4610713739575795e-06,1.2473464332048599e-06
221,1.1798079109518414e-06,1.7006103664221123e-06,1.759089406568409e-06,1.8816196185113033e-06,2.5354481712944505e-06,2.4886494157888536e-06,1.7995907237862403e-06,1.188459681012555e-06,4.235865730355091e-06,2.167642701249872e-06,1.1103765790331006e-06,2.1376018096523566e-06,2.578633289021616e-06,1.989659733516736e-06,1.4785678836129425e-06,1.2778377834264764e-06
222,1.1723133454514154e-06,1.6666126160263974e-06,1.7490417418952139e-06,1.9509171404961124e-06,2.5188681486497905e-06,2.5047670173800267e-06,1.787631423255193e-06,1.2294990698851384e-06,4.231319668757457e-06,2.1996986176989117e-06,1.113947275733053e-06,2.218659891649813e-06,2.6494575187400104e-06,1.959309599534186e-06,1.4944037167454065e-06,1.3096077191761336e-06
223,1.1669767381709915e-06,1.632871227675565e-06,1.7382095633183343e-06,2.0192287825854735e-06,2.497805056996369e-06,2.5117903778921954e-06,1.7704896408933594e-06,1.277010927745774e-06,4.212204265571693e-06,2.2273249788644594e-06,1.1174107144033325e-06,2.3084387400591772e-06,2.72571004560333e-06,1.93347988735081e-06,1.5079764276131298e-06,1.3423665514615603e-06
224,1.1640958150015416e-06,1.5993532324829319e-06,1.7267582206639834e-06,2.085332044582705e-06,2.471864400541156e-06,2.510112915675823e-06,1.7484469251395262e-06,1.3305058204910025e-06,4.178082746617639e-06,2.249777438674378e-06,1.1210215590373295e-06,2.406573422880713e-06,2.8071985803861186e-06,1.913395659229622e-06,1.5187018187593295e-06,1.3759412168638385e-06
225,1.1638332516956383e-06,1.5659589408466815e-06,1.7147604639821096e-06,2.148023662136562e-06,2.4406131491981114e-06,2.5005798997283914e-06,1.721712480136275e-06,1.3893488749324806e-06,4.129606230617442e-06,2.2660023311518545e-06,1.125019143720489e-06,2.512414709114944e-06,2.8935635756057758e-06,1.8999513638518448e-06,1.5261765149402642e-06,1.4102793640595106e-06
226,1.166182308084732e-06,1.532709863760371e-06,1.7020555182262056e-06,2.205964162229253e-06,2.403930053120793e-06,2.4840965097486056e-06,1.6904104578028164e-06,1.4527884522567345e-06,4.068394608011226e-06,2.2749361956025027e-06,1.129602069168899e-06,2.6250355978968484e-06,2.984266283864144e-06,1.8937507078531506e-06,1.5302269519622796e-06,1.4453210044050521e-06
227,1.170949308804264e-06,1.4998624970637355e-06,1.6881968643662721e-06,2.257743931787248e-06,2.3623359153431544e-06,2.461475031160675e-06,1.6547612226680318e-06,1.519960852761896e-06,3.99660418724465e-06,2.276027513289925e-06,1.1348733996431476e-06,2.7433866597860507e-06,3.0786034413616464e-06,1.8952294818247325e-06,1.5307969053129528e-06,1.480915805577276e-06
228,1.1777289116178567e-06,1.467843394497434e-06,1.6724624578406003e-06,2.3021245294473023e-06,2.317121224839523e-06,2.433539669171991e-06,1.6152948209115653e-06,1.589988799831678e-06,3.916424262867884e-06,2.269559159140111e-06,1.140785871269129e-06,2.866533696454274e-06,3.175836826263915e-06,1.904747570206398e-06,1.527815767126103e-06,1.5168365010119952e-06
229,1.1858966850935722e-06,1.4370849184485744e-06,1.6539563902122245e-06,2.3382797723234616e-06,2.270172816906626e-06,2.4012773434747898e-06,1.5729396336473435e-06,1.662187016937826e-06,3.829707849604384e-06,2.2564832309400917e-06,1.1471263239192195e-06,2.9938154609424053e-06,3.2754203064424805e-06,1.922561902769101e-06,1.5212152803524537e-06,1.5527708574634247e-06
230,1.1946542490755673e-06,1.4079157017556332e-06,1.6318659364454117e-06,2.3659615584554835e-06,2.2235693410214048e-06,2.365923271818652e-06,1.5289372132435839e-06,1.736171824857709e-06,3.7380277561953236e-06,2.237990836526403e-06,1.1535335059053922e-06,3.1248187230843064e-06,3.377132764507993e-06,1.9487057738734876e-06,1.5110647928060774e-06,1.5882781930847743e-06
231,1.2031771204908274e-06,1.380526992010747e-06,1.6057612737839825e-06,2.3855576702665266e-06,2.1791751577146186e-06,2.3289909496989802e-06,1.4846158402475183e-06,1.8117200934913478e-06,3.6432217995329003e-06,2.2152390775339913e-06,1.1595597082831123e-06,3.2592100005204208e-06,3.4809267320807506e-06,1.9829510303594727e-06,1.4976441766267997e-06,1.6227822486486762e-06
232,1.2108138095186462e-06,1.3549595989495124e-06,1.575696706345626e-06,2.3979944299122013e-06,2.1384164714249546e-06,2.292243509852892e-06,1.4411545219130714e-06,1.8885116450819051e-06,3.5478873086000103e-06,2.1892934013106324e-06,1.1648280764676272e-06,3.3965225712756057e-06,3.58658910416275e-06,2.0249537378646363e-06,1.4813773256102033e-06,1.6555876208336819e-06
233,1.217166898147361e-06,1.331121844042742e-06,1.5420300606021847e-06,2.404511140635537e-06,2.102253903516859e-06,2.257584515348159e-06,1.399465165313915e-06,1.966001576845049e-06,3.4553143765412996e-06,2.1610488951238864e-06,1.1692289299318002e-06,3.535950884226479e-06,3.6934796240670736e-06,2.074413594507759e-06,1.4627237899702769e-06,1.685958366111024e-06
234,1.2220188030226414e-06,1.3088310233188163e-06,1.505171107202685e-06,2.406442643787734e-06,2.071304786351864e-06,2.2268736547545286e-06,1.3601824199645664e-06,2.0434593130654258e-06,3.3690031541794084e-06,2.1310992769728404e-06,1.1729508344957552e-06,3.6762098421570572e-06,3.800505538270294e-06,2.1310331761934044e-06,1.4421314549264877e-06,1.7133327842859425e-06
235,1.225249627281985e-06,1.2878358253214863e-06,1.4655007246958607e-06,2.405105557634085e-06,2.046028602789856e-06,2.201756263338929e-06,1.3236912223864478e-06,2.120005990400563e-06,3.2921697153374943e-06,2.0997118261956366e-06,1.1762936237633075e-06,3.8155625575128886e-06,3.906419490036137e-06,2.19433960477186e-06,1.420026749541642e-06,1.7375497694193917e-06
236,1.2268134446556557e-06,1.267849917302797e-06,1.4234365090695283e-06,2.4017206078004475e-06,2.026820903921578e-06,2.1836445117662187e-06,1.2901870895547894e-06,2.194543150305708e-06,3.227434497958678e-06,2.0669764852210803e-06,1.1794773541442164e-06,3.9519990252975345e-06,4.0103226175656e-06,2.263599537062581e-06,1.3967724374758171e-06,1.758928870590852e-06
237,1.2266984505205735e-06,1.2486294740398046e-06,1.3794894425660377e-06,2.3972692434331348e-06,2.0139490724701694e-06,2.173838532075508e-06,1.2597716149185587e-06,2.2656363704085875e-06,3.1767121934146367e-06,2.0330453490977835e-06,1.1825869731362158e-06,4.083390733182613e-06,4.111936414830735e-06,2.3378859713967114e-06,1.3726160472920153e-06,1.7782262306384556e-06
238,1.2248859935089586e-06,1.230019195758479e-06,1.334257117684233e-06,2.392315970636168e-06,2.0074588224357584e-06,2.173584792108764e-06,1.2325200868241555e-06,2.3314933506563453e-06,3.14123830023122e-06,1.998261764933978e-06,1.1855715156346348e-06,4.207537100916883e-06,4.211398924434051e-06,2.416135219138583e-06,1.3477014223688863e-06,1.7965215825937007e-06
239,1.2213740722883298e-06,1.2119094758252512e-06,1.2883705130071776e-06,2.3869054872284656e-06,2.007195782945792e-06,2.1839744290280534e-06,1.2085329284820352e-06,2.390147388322386e-06,3.1216206405733606e-06,1.9630761147200736e-06,1.1882421711994166e-06,4.322194311747125e-06,4.3087968376013515e-06,2.4970975975758836e-06,1.3221125033513278e-06,1.8150455270485156e-06
240,1.21617772567273e-06,1.1942102014317985e-06,1.2424230701421798e-06,2.3806031767693878e-06,2.012881664464307e-06,2.2058390074561584e-06,1.1880554245082225e-06,2.439818923423982e-06,3.1178643318878613e-06,1.927903153078812e-06,1.1903208730510245e-06,4.425187993107608e-06,4.403750757926969e-06,2.5793115177462405e-06,1.295870263877902e-06,1.8349855953784826e-06
241,1.2092425501338293e-06,1.1769491719884278e-06,1.1969410717567563e-06,2.372690600412051e-06,2.024136298651918e-06,2.239763536886289e-06,1.1715912346368306e-06,2.4792754182068307e-06,3.129373806552824e-06,1.8931079872228944e-06,1.1915349260423409e-06,4.5146194746048654e-06,4.495254718088199e-06,2.6611942864298144e-06,1.2689571610957272e-06,1.857322257208585e-06
242,1.2004075571736123e-06,1.1603882392461232e-06,1.1524333166821357e-06,2.3624441486108036e-06,2.0405397668793657e-06,2.286106122007383e-06,1.1598687545726411e-06,2.5080229442839426e-06,3.1549421940266947e-06,1.8590886627794258e-06,1.1916722340630381e-06,4.589101678157166e-06,4.581712489673841e-06,2.741118097181149e-06,1.2414668921378475e-06,1.8827283746397638e-06
243,1.1895511354908402e-06,1.144979900981038e-06,1.109454289775899e-06,2.3493453796145547e-06,2.0618134529407173e-06,2.3449266247441415e-06,1.1536842402098144e-06,2.5262714711558657e-06,3.1927764734930298e-06,1.82634362803605e-06,1.190538404188171e-06,4.6479296795805595e-06,4.660926232082101e-06,2.81736699865344e-06,1.213735126793563e-06,1.911557225314928e-06
244,1.1768316665803908e-06,1.1312014228229282e-06,1.0685806943591653e-06,2.3331417437305656e-06,2.0879698360266824e-06,2.415929960471527e-06,1.1537425730742088e-06,2.5346758875743493e-06,3.240572423515372e-06,1.795528908065352e-06,1.187852844759688e-06,4.69110714021304e-06,4.730114802950774e-06,2.8880417139061725e-06,1.186253832578834e-06,1.943906037501624e-06
245,1.1627665327493532e-06,1.1194572770660484e-06,1.0303243751455524e-06,2.31384236035402e-06,2.1192898050129214e-06,2.498548144056251e-06,1.1605677531887481e-06,2.5339614171668637e-06,3.295581972339921e-06,1.7674845149379348e-06,1.1832141167792804e-06,4.7192082157792715e-06,4.786272230352894e-06,2.9510340608181335e-06,1.1594445957337475e-06,1.979729801748191e-06
246,1.1480480235866265e-06,1.1100971588403416e-06,9.950868132729544e-07,2.291755337788041e-06,2.1561530037701623e-06,2.592100313014983e-06,1.174472614287158e-06,2.524707014195949e-06,3.3546923192199927e-06,1.7431417947067241e-06,1.176220021537e-06,4.733050292460737e-06,4.82675655972641e-06,3.0041776149130607e-06,1.1335285785832967e-06,2.0189882996892257e-06
247,1.1333045697446173e-06,1.1034195459161353e-06,9.631675634553553e-07,2.2675317470070053e-06,2.1988247908917452e-06,2.6958888582232897e-06,1.1955498882261452e-06,2.5074505296535127e-06,3.414664253591199e-06,1.7233467079241047e-06,1.166670787101612e-06,4.733222489764591e-06,4.8496766805891025e-06,3.045580269918179e-06,1.1085828976174745e-06,2.061721965532806e-06
248,1.1190211887747842e-06,1.0996077203021312e-06,9.347809467220102e-07,2.242120352340973e-06,2.247312827711052e-06,2.8092106636706802e-06,1.223673352558061e-06,2.482921722816268e-06,3.4725624291421427e-06,1.70871486203733e-06,1.1547040147570896e-06,4.719796849644143e-06,4.8539242509040475e-06,3.0740179832950045e-06,1.0846841008779618e-06,2.1079464742238848e-06
249,1.1056065731951298e-06,1.0987091333410455e-06,9.100922462953568e-07,2.2166376284853416e-06,2.301333142739535e-06,2.9313707236035675e-06,1.2585199237614376e-06,2.4521432558944665e-06,3.5260903949653784e-06,1.6995545519323203e-06,1.1407718483898299e-06,4.692443974472831e-06,4.839041669677087e-06,3.089202210727119e-06,1.0620070705806984e-06,2.1574721942826645e-06
250,1.0934787718644617e-06,1.1007344693536637e-06,8.892577962300731e-07,2.19222771335602e-06,2.3603065177828587e-06,3.061732604660305e-06,1.299626059314649e-06,2.416369582384625e-06,3.573503444853669e-06,1.6958247035550963e-06,1.1255022392944677e-06,4.650669116017138e-06,4.804999255908418e-06,3.091686581882697e-06,1.040814528201836e-06,2.20985322880864e-06
251,1.0830657223568647e-06,1.1057672949128675e-06,8.72412966243059e-07,2.1699374292202628e-06,2.423306132773495e-06,3.199744256773353e-06,1.3464635860460724e-06,2.3769468128779095e-06,3.6132427238463024e-06,1.6971122875498216e-06,1.109551588194738e-06,4.593946462196807e-06,4.751863689490182e-06,3.082400046836075e-06,1.0213605963343638e-06,2.2644780569562364e-06
252,1.0747339557814716e-06,1.1139407488531486e-06,8.596422221681372e-07,2.1505982096268687e-06,2.489014305088862e-06,3.3448953690786453e-06,1.3985022804914975e-06,2.335154856607995e-06,3.6438267508178882e-06,1.7026663855302184e-06,1.0935410499550353e-06,4.5219389889928245e-06,4.679743369972427e-06,3.0622622513592295e-06,1.0037847554856441e-06,2.3206533747432017e-06
253,1.0687278162557266e-06,1.125337780894565e-06,8.509750852183977e-07,2.1347599868543574e-06,2.5558361641857857e-06,3.4966243533004013e-06,1.4552332765965967e-06,2.292067281633925e-06,3.664193066063699e-06,1.711521300877026e-06,1.0780914461382106e-06,4.434878532360249e-06,4.589255894534531e-06,3.032191885507934e-06,9.880547103414906e-07,2.3775781293731088e-06
254,1.0651301159110335e-06,1.1399468553710499e-06,8.463633820218027e-07,2.1227487012252455e-06,2.6222075302900754e-06,3.6541739726953058e-06,1.5161244596808915e-06,2.248441106519605e-06,3.6740880418174552e-06,1.7226434793848849e-06,1.0638576313708355e-06,4.3338717318891264e-06,4.481946827027053e-06,2.993195071193733e-06,9.73959015220361e-07,2.4342076090590262e-06
255,1.0638289297763719e-06,1.1576508207005367e-06,8.456352245059781e-07,2.1148314777777344e-06,2.6869094407869876e-06,3.816374496382382e-06,1.580523343083539e-06,2.2046682824339923e-06,3.674099932014352e-06,1.7349857610324647e-06,1.051483819975545e-06,4.220957634129549e-06,4.360137919280398e-06,2.9463403089004936e-06,9.611204781726638e-07,2.4891033406717487e-06
256,1.06453370541986e-06,1.1781937972449133e-06,8.4849298756155e-07,2.1113434345149014e-06,2.7491116492471853e-06,3.981415121950366e-06,1.647589767543776e-06,2.1608709772924157e-06,3.665314918933872e-06,1.7474792332995597e-06,1.041511166256026e-06,4.098927365171541e-06,4.226469567038138e-06,2.892764947502858e-06,9.490484235649495e-07,2.540440666737492e-06
257,1.066896036118397e-06,1.2011569108343874e-06,8.545798378325844e-07,2.112639429055161e-06,2.808115205641349e-06,4.146721551941821e-06,1.7163564827132262e-06,2.117140372193066e-06,3.648821240619785e-06,1.7591383162065213e-06,1.0343007893165415e-06,3.970930902256677e-06,4.08365507793073e-06,2.8336155972781224e-06,9.372649784470298e-07,2.586277805057045e-06
258,1.0707025332739192e-06,1.2259763551596349e-06,8.635468630966233e-07,2.118929780079996e-06,2.8631322575200466e-06,4.308974709351732e-06,1.7859682120921032e-06,2.0737446727715407e-06,3.625340217498182e-06,1.7692930552758368e-06,1.0300015152164506e-06,3.839982062920897e-06,3.934562589544318e-06,2.769899717120508e-06,9.254306029000932e-07,2.624980595340913e-06
259,1.0759766519776243e-06,1.2520184171435401e-06,8.750377189255651e-07,2.130158141912906e-06,2.9132737907450457e-06,4.464229095419324e-06,1.8559791724001116e-06,2.0311496323479145e-06,3.5950928048827543e-06,1.7776982646852941e-06,1.0285496537322456e-06,3.7086554333677992e-06,3.782281096222478e-06,2.7024592786069417e-06,9.13348920778566e-07,2.6555866506616027e-06
260,1.082878498964649e-06,1.2786897593282013e-06,8.886229911692329e-07,2.1459638287250826e-06,2.9575074448005177e-06,4.608131583203166e-06,1.926450150462608e-06,1.9898792843804635e-06,3.557800557094457e-06,1.7843956064386502e-06,1.0296913505992729e-06,3.5790657953162655e-06,3.629914586401221e-06,2.6319924727727157e-06,9.008746527573492e-07,2.67799270483072e-06
261,1.0915259422612556e-06,1.3055168243308609e-06,9.037875422343216e-07,2.165676600139739e-06,2.9946001181331513e-06,4.73630512243549e-06,1.997736364545498e-06,1.9503309953149375e-06,3.5128897279991825e-06,1.7895404113291432e-06,1.0330293770269291e-06,3.4528596548514604e-06,3.4803355914277296e-06,2.558992003006471e-06,8.878691555764729e-07,2.6929322600983153e-06
262,1.1019093564064253e-06,1.332181797212015e-06,9.200143855058164e-07,2.188316081531452e-06,3.0233518608998416e-06,4.844941730340834e-06,2.0701303628771684e-06,1.912641708919329e-06,3.4600340536682333e-06,1.7933161212214758e-06,1.038068986910034e-06,3.3310832094286175e-06,3.3361679264650984e-06,2.4837676624610075e-06,8.74279773283444e-07,2.7016906092114533e-06
263,1.1139264310636066e-06,1.3585647311409108e-06,9.3691347438803e-07,2.2126769840202576e-06,3.0430431128885046e-06,4.9314940566700934e-06,2.143600558283736e-06,1.8766844371193727e-06,3.3996465487285893e-06,1.7958088470975835e-06,1.0442644066320788e-06,3.2140845020020792e-06,3.1998564611738565e-06,2.4067096803300254e-06,8.602677785439565e-07,2.7056403717778786e-06
264,1.1274601207179074e-06,1.3847991201746856e-06,9.542692162672123e-07,2.2375825833210488e-06,3.0537069140528192e-06,4.995142932378505e-06,2.217730613268481e-06,1.8421802706801532e-06,3.332780477643011e-06,1.796856417993721e-06,1.051096627209718e-06,3.1015853380293375e-06,3.0736265531605036e-06,2.3286228654754378e-06,8.462399429214888e-07,2.7058639124854453e-06
265,1.142397263626775e-06,1.4112776739755875e-06,9.719452034170298e-07,2.2621647202878905e-06,3.05602713362285e-06,5.036712156219063e-06,2.2917716307823802e-06,1.8087875153811566e-06,3.2606074744513e-06,1.7960705256642688e-06,1.0581237262261717e-06,2.9928964928556445e-06,2.9593981708785285e-06,2.250792331226559e-06,8.327290132538101e-07,2.7030131579059394e-06
266,1.158615393226837e-06,1.438551451474574e-06,9.89753260759745e-07,2.285938677691781e-06,3.050948170682231e-06,5.057995183354568e-06,2.3646458897749184e-06,1.77610537667192e-06,3.1840223813575886e-06,1.7930917789117815e-06,1.0649524060786806e-06,2.8871641343834287e-06,2.858731776214896e-06,2.1747231727965594e-06,8.202364973576046e-07,2.697385924740328e-06
267,1.1760495145943157e-06,1.467176229167936e-06,1.00742267563476e-06,2.308633252711862e-06,3.0392367262037284e-06,5.060849410057608e-06,2.4348918331409464e-06,1.743712306990337e-06,3.1035303923549857e-06,1.7878550736801256e-06,1.0712147919212722e-06,2.7836064542125505e-06,2.772812965157013e-06,2.1018291845885743e-06,8.091569889488729e-07,2.6891449660869887e-06
268,1.1947687135969644e-06,1.4976300897131232e-06,1.0246480314085263e-06,2.3299266715214976e-06,3.0212757871402455e-06,5.046618631863027e-06,2.500711327127577e-06,1.7113174915246423e-06,3.019404079967966e-06,1.7805788966759586e-06,1.0765896038705212e-06,2.6817663846238964e-06,2.702502781777825e-06,2.0332715642771897e-06,7.997563817852795e-07,2.678483560442013e-06
269,1.2149199345343403e-06,1.5302957066495481e-06,1.0411112838021612e-06,2.349282468091615e-06,2.9972082123956804e-06,5.0161549737052265e-06,2.560219547778692e-06,1.6788843004587828e-06,2.9322074656433172e-06,1.7715409950202103e-06,1.0807980625233163e-06,2.5816863122482066e-06,2.648397019273065e-06,1.9699309237925497e-06,7.921509496020878e-07,2.665554474403097e-06
270,1.236597433444311e-06,1.5653991000442088e-06,1.0565145653845864e-06,2.36598332579649e-06,2.9672515318059027e-06,4.970145798768261e-06,2.611791948032222e-06,1.646561078273023e-06,2.843400627762301e-06,1.760982681481419e-06,1.083564874100533e-06,2.4838344090710157e-06,2.6108128370556737e-06,1.912478911472963e-06,7.863066759988875e-07,2.650261851930305e-06
271,1.2597980715550119e-06,1.6029308902432293e-06,1.0706877833426013e-06,2.379291260955134e-06,2.93189946659798e-06,4.909315762947487e-06,2.6542939606856904e-06,1.6145181240334593e-06,2.755404653812507e-06,1.7492073543014066e-06,1.0846227013553867e-06,2.388846389103532e-06,2.589739553819582e-06,1.86151195911979e-06,7.820641680310839e-07,2.632223613060484e-06
272,1.2844892242585621e-06,1.6426509148141376e-06,1.083645436291256e-06,2.388591470903372e-06,2.8918458499807597e-06,4.834377184492591e-06,2.6870902000734764e-06,1.5829532044375505e-06,2.6710474438264117e-06,1.7366345363974107e-06,1.0838242045057945e-06,2.297378815972979e-06,2.584822447974464e-06,1.8176144447910655e-06,7.791885439246019e-07,2.611022392698199e-06
273,1.310668943010183e-06,1.684167267793145e-06,1.0955005016885662e-06,2.3935005995697925e-06,2.8476891733083385e-06,4.745844879869726e-06,2.709940131516355e-06,1.5522530397361726e-06,2.5929854386566736e-06,1.7237534098508135e-06,1.081296200009989e-06,2.210181867505452e-06,2.5953845238850834e-06,1.7813175404702349e-06,7.774929281342298e-07,2.586475527026458e-06
274,1.338327759598335e-06,1.7270258204567496e-06,1.1063752965666897e-06,2.394026783821843e-06,2.7997099372392195e-06,4.643930648756777e-06,2.7229528955392546e-06,1.5230121830788544e-06,2.5234808885809255e-06,1.7110771716696673e-06,1.077463302590569e-06,2.128220437146858e-06,2.6204707209732923e-06,1.7530475079747749e-06,7.770043419640238e-07,2.5586330061821435e-06
275,1.3673991631435637e-06,1.7707533987406238e-06,1.116429155278858e-06,2.390727337474449e-06,2.747970378150097e-06,4.5287176231787574e-06,2.7266400923956623e-06,1.4958533306132369e-06,2.464352577053754e-06,1.6990937821946933e-06,1.0728931249447964e-06,2.052679341709097e-06,2.6588836465508575e-06,1.7330572442480734e-06,7.780097175558708e-07,2.5275676727732045e-06
276,1.397806135533526e-06,1.814812092304448e-06,1.1259081082473936e-06,2.3846459894776875e-06,2.69263416243642e-06,4.400587417762897e-06,2.7219543582936737e-06,1.4712649002081367e-06,2.416928728673956e-06,1.688238380052335e-06,1.0681284440420927e-06,1.984811397212483e-06,2.7091629947325823e-06,1.7213235812380697e-06,7.809188750075523e-07,2.493246652502961e-06
277,1.4295117384986594e-06,1.858533132835919e-06,1.1351230674256496e-06,2.3769797094398255e-06,2.634188104581846e-06,4.260609189320881e-06,2.7102182692065087e-06,1.4495493106609699e-06,2.3820597720287616e-06,1.6789201027921249e-06,1.06363864953008e-06,1.9257266088758676e-06,2.769573879450241e-06,1.7175052922864462e-06,7.86088128747504e-07,2.4556165850708943e-06
278,1.4624495934800957e-06,1.9011696440815071e-06,1.1444169234801077e-06,2.3687292921535665e-06,2.5734020562000193e-06,4.1106423457657574e-06,2.692961126909846e-06,1.4308581326010197e-06,2.360217894239849e-06,1.6714929963558733e-06,1.0598184475235747e-06,1.8762725765872335e-06,2.8382575168526687e-06,1.7210300878924078e-06,7.937404116103444e-07,2.414732726211914e-06
279,1.496384214476223e-06,1.9420715220615774e-06,1.1541366623210036e-06,2.360547134112265e-06,2.511134361801162e-06,3.9531730374671565e-06,2.671703637726523e-06,1.4152858061667384e-06,2.351639850389853e-06,1.6661500879337042e-06,1.0569529420081993e-06,1.8370512902876002e-06,2.9135175280948806e-06,1.7312326918334285e-06,8.039595454377603e-07,2.3707487910708633e-06
280,1.5308272841552134e-06,1.980853705069611e-06,1.1645612592134875e-06,2.3527180114591174e-06,2.44818889871612e-06,3.7910182019208117e-06,2.6477254107508296e-06,1.4029653702259262e-06,2.3564331263705025e-06,1.6628849566973803e-06,1.055211946719007e-06,1.8085426798909413e-06,2.993987085109676e-06,1.7473888377961956e-06,8.166826084964052e-07,2.3238364340804354e-06
281,1.5650655209369306e-06,2.017455453090045e-06,1.1758760779331542e-06,2.3451771332882686e-06,2.38530158203351e-06,3.6269659047286255e-06,2.6218897295819004e-06,1.3940888672758287e-06,2.3745524170120242e-06,1.6615481148166477e-06,1.0547309406952271e-06,1.7912493428881987e-06,3.078519613221334e-06,1.768640422487267e-06,8.316779710725658e-07,2.2741908385570163e-06
282,1.5982515641335964e-06,2.05203918540618e-06,1.1882944736756598e-06,2.337619635343002e-06,2.3231467124915488e-06,3.4634510555496612e-06,2.5945511003609455e-06,1.3888219862191713e-06,2.4057028837201636e-06,1.6619370923113342e-06,1.05572246172571e-06,1.7857272016119733e-06,3.1659429455484486e-06,1.7939679558956387e-06,8.485402359577668e-07,2.222126481494334e-06
283,1.6294812589229297e-06,2.0847737754681617e-06,1.2021961163452134e-06,2.3297264782785396e-06,2.2622527680723918e-06,3.3024221576063372e-06,2.5655192733952033e-06,1.3872143420364514e-06,2.4493067884509337e-06,1.6639581592382014e-06,1.0585137895570909e-06,1.7924627054504243e-06,3.2548502554699208e-06,1.8222265659294632e-06,8.66724139363163e-07,2.1681394663046768e-06
284,1.6578709772503595e-06,2.1156805292788012e-06,1.2180967018185136e-06,2.32137648994597e-06,2.202896822033777e-06,3.145380016385919e-06,2.534113298842808e-06,1.389197731461248e-06,2.5045087219653843e-06,1.6677878234662162e-06,1.0634689921186382e-06,1.8116984976058074e-06,3.3434687335157243e-06,1.852134781099971e-06,8.85609276295287e-07,2.1128278301769544e-06
285,1.6826991332855241e-06,2.1446465565975018e-06,1.236486726369391e-06,2.312703017226863e-06,2.1450938276787505e-06,2.993422990168374e-06,2.4993316873065783e-06,1.3945942806830539e-06,2.570156507661572e-06,1.673807547652995e-06,1.070884688616876e-06,1.843328607650749e-06,3.4297737767227308e-06,1.8822992848375003e-06,9.045644973941369e-07,2.056694889177893e-06
286,1.7035498269583631e-06,2.17155238251978e-06,1.2577027094743825e-06,2.3040050260703555e-06,2.088638765019585e-06,2.847286981150971e-06,2.4601175490991384e-06,1.4030782824567447e-06,2.6447822762762794e-06,1.6823466767723518e-06,1.0809455986005835e-06,1.8869187955805938e-06,3.5119939064666268e-06,1.9114201517838527e-06,9.229853736776505e-07,2.0000270147959745e-06
287,1.7202875770545267e-06,2.196454780852989e-06,1.2819000655733277e-06,2.2956112579084815e-06,2.03314331662857e-06,2.7074673785526042e-06,2.415725622332956e-06,1.4141877477828063e-06,2.726564040596218e-06,1.6935264936952072e-06,1.0936915441350412e-06,1.941832260821199e-06,3.5891632645651963e-06,1.9385584232200007e-06,9.402896073804296e-07,1.942994153847512e-06
288,1.7328403162214374e-06,2.2197119357009218e-06,1.3090785010688862e-06,2.2877385058889534e-06,1.978144861999489e-06,2.574378352937476e-06,2.366117575253554e-06,1.4274354439360015e-06,2.813268135231493e-06,1.7073053288672226e-06,1.1089697859943748e-06,2.007359623599767e-06,3.661222911608609e-06,1.96324278623872e-06,9.559015519293271e-07,1.8858644746909363e-06
289,1.7410089726525555e-06,2.2418865914663194e-06,1.3390810512172172e-06,2.280356899127236e-06,1.9232922999722147e-06,2.448456488278417e-06,2.3121451591710836e-06,1.4424220519152881e-06,2.9022825479287344e-06,1.7235535511708189e-06,1.126442732235081e-06,2.0827284933777923e-06,3.7286680642063277e-06,1.9853549434384194e-06,9.693085105967882e-07,1.8291115593356297e-06
290,1.7445102745578627e-06,2.263477975123088e-06,1.371568406166974e-06,2.273139406125246e-06,1.8684527321564705e-06,2.3301974919775985e-06,2.2553539620030257e-06,1.458846426258103e-06,2.990838660200409e-06,1.7420173631650173e-06,1.145673486694929e-06,2.1669689536564926e-06,3.7921411610658714e-06,2.0049290853482165e-06,9.801810689750826e-07,1.7733171156293317e-06
291,1.7432130934447135e-06,2.2847046898076513e-06,1.406009657236353e-06,2.2655701142120252e-06,1.8136632218706815e-06,2.2201297117738425e-06,2.1975459501999935e-06,1.4764070509347154e-06,3.0764211528096783e-06,1.7622436438593457e-06,1.1662479428430898e-06,2.2587580605429555e-06,3.852209798564678e-06,2.0220473300494115e-06,9.884198416949029e-07,1.7189537999936188e-06
292,1.7373450880673425e-06,2.3054209736075117e-06,1.441660032891201e-06,2.257171120269701e-06,1.7590395983732644e-06,2.1187310462828356e-06,2.140385245260184e-06,1.4946793810618318e-06,3.157257713705894e-06,1.7836100335486923e-06,1.1878907984697202e-06,2.356378512748326e-06,3.909209395238344e-06,2.0368478010669764e-06,9.940907299888664e-07,1.6662261286847094e-06
293,1.727472140747553e-06,2.3251011395530037e-06,1.477515478993149e-06,2.2477212799959306e-06,1.7047752332078306e-06,2.026349767816297e-06,2.08519353705921e-06,1.5130910770691457e-06,3.2326418337559623e-06,1.8054548499828646e-06,1.210508079167172e-06,2.4577739885672873e-06,3.963041121863908e-06,2.049554363841247e-06,9.973904531438132e-07,1.6150828952393672e-06
294,1.7142884894361088e-06,2.3428587733145778e-06,1.5123149953543096e-06,2.23735139754197e-06,1.6511994308231907e-06,1.9431542135483803e-06,2.0329113078870558e-06,1.5310357923624455e-06,3.3028088413023308e-06,1.8271973524378023e-06,1.2341043743157637e-06,2.5606186602681164e-06,4.0130200820539485e-06,2.0604602020261838e-06,9.986938163593119e-07,1.5653838785963007e-06
295,1.6984766415131605e-06,2.357591649672173e-06,1.5446759728861162e-06,2.2264531027728457e-06,1.5987552812142607e-06,1.869077751445889e-06,1.9841412264002815e-06,1.5480435027362619e-06,3.3683782462006243e-06,1.848406581953612e-06,1.2586325185167446e-06,2.662452952649835e-06,4.057854600506728e-06,2.069839242977324e-06,9.985488388372001e-07,1.5170795349461938e-06
296,1.6807371324757618e-06,2.3683169825272706e-06,1.5733769522127983e-06,2.2154321603747958e-06,1.5478797399152747e-06,1.8037856973725212e-06,1.9392481444572235e-06,1.563923153483948e-06,3.42972562348175e-06,1.8688430756221382e-06,1.2838848908355897e-06,2.760977048773498e-06,4.095807101631905e-06,2.077936931130371e-06,9.975495196164072e-07,1.4702404262906668e-06
297,1.6617966265105777e-06,2.374480835398405e-06,1.5976347478582944e-06,2.204473285391888e-06,1.4989382295730517e-06,1.7466939705079228e-06,1.8985392644369752e-06,1.5788150374002839e-06,3.4866053389741924e-06,1.8884630625798932e-06,1.3094828291141671e-06,2.854388271468788e-06,4.125007843387798e-06,2.0851394435189366e-06,9.961889567623862e-07,1.4249802084030756e-06
298,1.642316816603271e-06,2.3759786498631856e-06,1.6171726235674793e-06,2.193483832074613e-06,1.4523177027888228e-06,1.6970174472964957e-06,1.8624213418255956e-06,1.593082455778818e-06,3.538083619841893e-06,1.9073367929468094e-06,1.334933774968231e-06,2.9415527960590566e-06,4.143719193968047e-06,2.092034111897527e-06,9.948245646641415e-07,1.3814278164119862e-06
299,1.6228745876022508e-06,2.3729644919697786e-06,1.6320652159772227e-06,2.182210120624407e-06,1.4085733574249951e-06,1.653868827454405e-06,1.831380358561165e-06,1.6070919396479386e-06,3.582721819322607e-06,1.92550340806054e-06,1.3596676962380876e-06,3.02200300844658e-06,4.1505166036912616e-06,2.0991937578847626e-06,9.937638424945042e-07,1.339734437472818e-06
300,1.6040618432898945e-06,2.365691034808702e-06,1.6425223443381232e-06,2.170408590469884e-06,1.368441677313102e-06,1.6163961661068229e-06,1.8058526093322265e-06,1.6210615413318255e-06,3.618929085849088e-06,1.94291441919803e-06,1.3830591624532471e-06,3.0958866189345364e-06,4.144515847932343e-06,2.1069483431523815e-06,9.933413342664646e-07,1.3000653698446364e-06
301,1.5865412243961124e-06,2.354424042106191e-06,1.6487381109038504e-06,2.1579683090495845e-06,1.3327007450944067e-06,1.583882668712782e-06,1.7861909445422228e-06,1.6350285571800849e-06,3.645378167605176e-06,1.9596099239101394e-06,1.4045064406344e-06,3.163884036540015e-06,4.125546647565137e-06,2.115342325535548e-06,9.938946975937422e-07,1.2626201539155193e-06
302,1.5710023654894852e-06,2.3393254893795904e-06,1.6508053928789744e-06,2.1449245514118717e-06,1.3020308760544824e-06,1.55582489841774e-06,1.7727197909674404e-06,1.6488278726545393e-06,3.6613996031843048e-06,1.9759856513265472e-06,1.4234790044730155e-06,3.227022920126136e-06,4.094149410397345e-06,2.124254020961122e-06,9.957042215827345e-07,1.227659034780269e-06
303,1.5581113851720028e-06,2.32034373861812e-06,1.6487041078139025e-06,2.1313529645564194e-06,1.2769793000747046e-06,1.5320289589545148e-06,1.7657087642551504e-06,1.6621029005596845e-06,3.6672713068171195e-06,1.9928043440568853e-06,1.4394321741088403e-06,3.2863734746174948e-06,4.051532168407955e-06,2.133551768202735e-06,9.989640055378963e-07,1.1954779736960454e-06
304,1.5484634948170584e-06,2.297263199410373e-06,1.6424025701019958e-06,2.1172196971905142e-06,1.2579888523955198e-06,1.5126208279160875e-06,1.7652947120041555e-06,1.6744563834106493e-06,3.664228381225135e-06,2.0109219226501395e-06,1.4517369612752592e-06,3.342697066983606e-06,3.999609568475463e-06,2.14310533926304e-06,1.00375744690445e-06,1.1663530476745095e-06
305,1.542514447938838e-06,2.269909634190593e-06,1.6319913320005143e-06,2.1023315290959617e-06,1.2454208152093859e-06,1.4978784375342634e-06,1.771465362784795e-06,1.6856232795228496e-06,3.654058629777055e-06,2.0310462086752145e-06,1.4597956922386168e-06,3.3961977870374057e-06,3.941009686417013e-06,2.1526457028342444e-06,1.0100307391658443e-06,1.1405088345352539e-06
306,1.5405330593694068e-06,2.2383604981667157e-06,1.6177448699021132e-06,2.0864177322918003e-06,1.2395713554612665e-06,1.4880165721259228e-06,1.7840212027767383e-06,1.6954628429616566e-06,3.6384701146034582e-06,2.0536756917685803e-06,1.4632553515895965e-06,3.4465026667399287e-06,3.878870177986034e-06,2.1616663700486444e-06,1.0175896655755918e-06,1.1181521439163843e-06
307,1.5425902687477998e-06,2.2030240630830834e-06,1.6001420182024556e-06,2.0692186270464796e-06,1.240670640413896e-06,1.4831143069124729e-06,1.802477843832459e-06,1.7038427363831868e-06,3.618618360319134e-06,2.0790800992816868e-06,1.4621376492630199e-06,3.4928256905033396e-06,3.8164069937463595e-06,2.1695441535821345e-06,1.0260989856906156e-06,1.099528911231175e-06
308,1.5485990955963757e-06,2.1645240137110634e-06,1.5798559522858603e-06,2.0505123331343113e-06,1.2488257420291352e-06,1.4831651208835394e-06,1.8260288196689697e-06,1.7106020869500797e-06,3.594965377026553e-06,2.1072268049128632e-06,1.4568308091502887e-06,3.534173158877109e-06,3.7564526755522175e-06,2.17585530594157e-06,1.0350796009057325e-06,1.0849174674407446e-06
309,1.5584298368694565e-06,2.12344676604288e-06,1.5576469382544296e-06,2.0300957831179115e-06,1.2639681982577953e-06,1.4880982512396145e-06,1.8536269621525175e-06,1.7155506888448618e-06,3.5673637995957606e-06,2.137716460722127e-06,1.44798828809174e-06,3.5695114825183556e-06,3.701217575717188e-06,2.18061300724003e-06,1.0439609794049856e-06,1.0745955226713517e-06
310,1.5719945743685182e-06,2.080122311270218e-06,1.534228627181637e-06,2.0077105626057758e-06,1.2859030182890032e-06,1.497715815663315e-06,1.884129080305894e-06,1.7184335292736345e-06,3.535207179261581e-06,2.169771820412493e-06,1.4363804767035475e-06,3.5978701360058564e-06,3.6523427118439262e-06,2.1842585431859454e-06,1.0522041955835336e-06,1.0688380919999472e-06
311,1.5891766733290523e-06,2.034598510739419e-06,1.5102284802163086e-06,1.982975569123542e-06,1.3144480041222075e-06,1.5116207333666918e-06,1.9163978560956586e-06,1.7189645141254746e-06,3.4976056789685587e-06,2.202241720601048e-06,1.422729279159287e-06,3.6183810671920884e-06,3.6111272794039174e-06,2.1875168295187274e-06,1.059391789424765e-06,1.0679018513122934e-06
312,1.609696091523532e-06,1.9868282773148584e-06,1.4861671887627958e-06,1.9554889365658987e-06,1.3495704747245664e-06,1.5292252077843705e-06,1.949327897789781e-06,1.7169090066797286e-06,3.4536813029049685e-06,2.2335948373643825e-06,1.4076010431903143e-06,3.63033338628045e-06,3.5788027078508502e-06,2.19120101147627e-06,1.065196785524337e-06,1.0719956722600277e-06
313,1.633051506495904e-06,1.936920395189059e-06,1.46237034968428e-06,1.925099517712805e-06,1.3914095856580955e-06,1.5498080502959556e-06,1.981883805978579e-06,1.712057013439648e-06,3.4029554924888504e-06,2.2619608130680105e-06,1.3913897219772588e-06,3.6333513112422937e-06,3.556715405904432e-06,2.196010888952834e-06,1.0693095839942687e-06,1.0812928311792248e-06
314,1.6585318288149426e-06,1.8852270673245028e-06,1.4389073316032223e-06,1.8921021941212834e-06,1.4401443362232348e-06,1.572511842118803e-06,2.0131965915699436e-06,1.7041781007846965e-06,3.3455493295439456e-06,2.285352342793963e-06,1.3743068886182611e-06,3.6276842512590017e-06,3.5462746358719724e-06,2.2024557508675107e-06,1.0714126597968421e-06,1.0959760864900192e-06
315,1.6852828752686164e-06,1.8321972422735063e-06,1.4156556227676528e-06,1.8571747263921877e-06,1.4958247830871736e-06,1.5963171880476195e-06,2.042656774544107e-06,1.693144288017508e-06,3.28204546969687e-06,2.302099993731111e-06,1.3563786769897855e-06,3.614412499422734e-06,3.54869899509213e-06,2.210921690288372e-06,1.07119450986573e-06,1.1162527247598231e-06
316,1.7123935129333415e-06,1.778206464414159e-06,1.3924551082722273e-06,1.8211418560016327e-06,1.558308206430348e-06,1.6201207077007696e-06,2.0699681538278354e-06,1.6791089345906657e-06,3.2132294209747532e-06,2.311270787932851e-06,1.3375556345594391e-06,3.595361356079058e-06,3.5648065325258615e-06,2.2217437731738172e-06,1.0684328708596127e-06,1.1422989907222963e-06
317,1.7389090733364122e-06,1.7235194765145878e-06,1.369246504058891e-06,1.784777610391342e-06,1.6272745921847335e-06,1.6428873113723006e-06,2.0951947034602504e-06,1.6625507642430952e-06,3.139899651345588e-06,2.31276261986856e-06,1.3179099171373796e-06,3.5727894198305892e-06,3.595065100943514e-06,2.2352168752159342e-06,1.0631404245345855e-06,1.1741623073193573e-06
318,1.7638924562409543e-06,1.6682922178292559e-06,1.346097083085082e-06,1.7487410660655356e-06,1.702205248547864e-06,1.663768574589145e-06,2.1187829470453065e-06,1.644186188251905e-06,3.0626914628302215e-06,2.3070272983697903e-06,1.297743651020031e-06,3.5491333013713562e-06,3.6398638993899232e-06,2.251592306466272e-06,1.055619578387956e-06,1.2116868141373877e-06
319,1.7866999556103225e-06,1.6125825242554623e-06,1.3231071844717953e-06,1.7135721655607084e-06,1.7823149310367484e-06,1.6821772749615417e-06,2.141476115137915e-06,1.624808191236715e-06,2.9819867196697026e-06,2.294670714893698e-06,1.2775027673097845e-06,3.5269027180767653e-06,3.6997424231694114e-06,2.271047604232421e-06,1.0463292444775077e-06,1.2544963257973504e-06
320,1.8072513622178103e-06,1.556405534453406e-06,1.3003450580279405e-06,1.6797080657892457e-06,1.8665283193528946e-06,1.6978431071046755e-06,2.1641002802078283e-06,1.6050951263303731e-06,2.8980361979012663e-06,2.276169832368199e-06,1.257606638691752e-06,3.5085320381070234e-06,3.7753421804531476e-06,2.293583983554504e-06,1.0356781897326546e-06,1.3020357068907724e-06
321,1.8259632128420693e-06,1.4997417302703577e-06,1.2779455787607324e-06,1.647575846819507e-06,1.9535396507618626e-06,1.7108020761096833e-06,2.187308841528526e-06,1.5854839613225362e-06,2.8110996535440243e-06,2.251801742159816e-06,1.2383691603950685e-06,3.4960875358748974e-06,3.8671354593077785e-06,2.318953646936298e-06,1.0239258592968054e-06,1.3536419080416304e-06
322,1.8433973786597404e-06,1.4424814142165146e-06,1.256238944604795e-06,1.6176889943067274e-06,2.0418928787805494e-06,1.721265331523472e-06,2.211392217716666e-06,1.5661870012453536e-06,2.7214497348713272e-06,2.2218410569590576e-06,1.2199975881599394e-06,3.4909945605822728e-06,3.9752515341030115e-06,2.346687544135401e-06,1.0112321194010463e-06,1.4085853229898879e-06
323,1.8599523320539292e-06,1.3844594504567072e-06,1.2356830566292437e-06,1.5905915247825198e-06,2.1299877727321135e-06,1.7294457297673397e-06,2.2361891308579593e-06,1.5473113239938863e-06,2.6294248736271327e-06,2.1869108182401176e-06,1.2025795397482466e-06,3.493916916680324e-06,4.099590210672118e-06,2.3760734380043046e-06,9.977717562683602e-07,1.466083386574511e-06
324,1.875759370395777e-06,1.3256195162323984e-06,1.21667579229445e-06,1.5667046320012896e-06,2.215995105371702e-06,1.735511486381287e-06,2.261068656879549e-06,1.5289437684870412e-06,2.5356144146669816e-06,2.148125220771513e-06,1.1861234273003383e-06,3.504750477560332e-06,4.239993599509674e-06,2.4060207532966095e-06,9.838278217529852e-07,1.525323261325623e-06
325,1.8906788171787406e-06,1.2661507747505824e-06,1.199500072137387e-06,1.5462668401013008e-06,2.297825476751172e-06,1.7397087587495435e-06,2.2849883750937572e-06,1.511134531330477e-06,2.440927395894359e-06,2.1068579238616697e-06,1.1706990583313399e-06,3.5227182736039445e-06,4.396166864653138e-06,2.434972414224994e-06,9.697945295891019e-07,1.5854302407548882e-06
326,1.9043108874491317e-06,1.2065043860768757e-06,1.184438354423723e-06,1.5294003243080392e-06,2.3733024316978753e-06,1.7424669878714258e-06,2.3066578308861832e-06,1.4938962994175881e-06,2.3464233448233297e-06,2.064407334609428e-06,1.156527127046878e-06,3.546594342694429e-06,4.567431427370478e-06,2.461020828142968e-06,9.560759594210876e-07,1.645362039316175e-06
327,1.9160236984916257e-06,1.147329417247852e-06,1.1718695808097151e-06,1.5161766255079644e-06,2.4404754616063807e-06,1.7443252365561907e-06,2.3247256501992116e-06,1.477309090805002e-06,2.2531692859995575e-06,2.0218226500403053e-06,1.1438917702005081e-06,3.5749290246673384e-06,4.752588693503464e-06,2.482237715733436e-06,9.429794653370286e-07,1.7039082847460085e-06
