,EMG1,EMG2,EMG3,EMG4,EMG5,EMG6,EMG7,EMG8,EMG9,EMG10,EMG11,EMG12,EMG13,EMG14,EMG15,EMG16
0,2.424773744987323e-07,-4.121674606660223e-08,4.907420607579657e-07,1.8473294605188506e-07,3.684764861904975e-07,6.898982693895467e-07,4.3890328771900556e-07,6.872574194482478e-07,1.0008018884655728e-06,7.665387983947192e-07,1.192017242937642e-07,4.957243077512517e-07,7.931490513323021e-07,2.5116370809957973e-09,1.3397575142014097e-07,-2.6696606886636993e-09
1,3.8462174169702715e-07,4.711769797413054e-08,5.655987763893616e-07,2.820059083683356e-07,4.753743201999344e-07,8.66232788006806e-07,5.938041254855768e-07,7.95628525104686e-07,1.5707014936137265e-06,9.032546555041429e-07,2.206841539067277e-07,5.91416411518612e-07,9.948724947094862e-07,1.2870152717699697e-07,1.820730125939145e-07,2.7715295107295286e-07
2,5.23281096192956e-07,1.3372717308318346e-07,6.410647401272243e-07,3.824050822804741e-07,5.85758574029067e-07,1.044449420839856e-06,7.432746750620696e-07,9.049279545577331e-07,2.123697743244255e-06,1.0403259575494714e-06,3.179569689932534e-07,6.883991600170516e-07,1.20033733023046e-06,2.506183865349159e-07,2.3161964172135533e-07,5.440360439664792e-07
3,6.56809957004738e-07,2.1740444520509193e-07,7.160129079649775e-07,4.855573215690712e-07,6.982691580197767e-07,1.220640758635017e-06,8.855093833229337e-07,1.0123590936170033e-06,2.6536942661889534e-06,1.1755890617145193e-06,4.1051408699687613e-07,7.868577742535248e-07,1.4049816469326659e-06,3.66621468538494e-07,2.820199226497677e-07,7.948660686190197e-07
4,7.835679836277867e-07,2.9730376503552773e-07,7.893606857206038e-07,5.910855320568615e-07,8.115652826179483e-07,1.3919393068092307e-06,1.01887802892111e-06,1.1154684318505525e-06,3.154767231307949e-06,1.3072401177723724e-06,4.979699241416741e-07,8.868681599496216e-07,1.6054086010172959e-06,4.7560637609969556e-07,3.3270321181396066e-07,1.0271664556497427e-06
5,9.019376229468267e-07,3.7283656502099586e-07,8.601330454173792e-07,6.986100509618647e-07,9.244326282270834e-07,1.5567186200473975e-06,1.142038568370293e-06,1.2122977036910095e-06,3.621603276120972e-06,1.4338300023811952e-06,5.8005441504942e-07,9.883493197448977e-07,1.7996795263416115e-06,5.769987587782142e-07,3.831068000689474e-07,1.239166006219218e-06
6,1.0104205255027758e-06,4.435312116160551e-07,9.275133214662976e-07,8.077176562995992e-07,1.0359501989920256e-06,1.7144532326154419e-06,1.2540022956268789e-06,1.3014272693163845e-06,4.049918222941093e-06,1.5541641268545135e-06,6.565791140431622e-07,1.091026417428941e-06,1.9871296957675506e-06,6.70591180545429e-07,4.327270232260291e-07,1.4295831105648977e-06
7,1.1078486161747623e-06,5.090155453470009e-07,9.908849555499159e-07,9.179142586972598e-07,1.1456262031746762e-06,1.865377738053495e-06,1.3541473294831295e-06,1.3819608101156052e-06,4.436757603915565e-06,1.6671810929115958e-06,7.273836921435286e-07,1.1944173999056538e-06,2.1678299263874275e-06,7.564078154591754e-07,4.812225475479888e-07,1.5974077582897085e-06
8,1.1936582383836052e-06,5.691004263272352e-07,1.0498787691280712e-06,1.0285858829661294e-06,1.253333023906943e-06,2.0101440948360072e-06,1.442224722703994e-06,1.453467794798811e-06,4.780770305256848e-06,1.771842986519734e-06,7.923067963015154e-07,1.2978372343156486e-06,2.3420728633144634e-06,8.34751126551581e-07,5.284356844106272e-07,1.7419694302791618e-06
9,1.2680512168162071e-06,6.238397932848437e-07,1.1043762725973972e-06,1.1389707793111218e-06,1.3590495711191985e-06,2.149555685679288e-06,1.5183753442996668e-06,1.5158353940930116e-06,5.08243228254987e-06,1.8670481186206968e-06,8.512332633853981e-07,1.4004327975309692e-06,2.510119847166818e-06,9.063331450587572e-07,5.742851618107815e-07,1.8632109478845e-06
10,1.3318922914508805e-06,6.734954551778758e-07,1.1544001454423565e-06,1.248180232126957e-06,1.462630284760021e-06,2.284340216305654e-06,1.583124091239201e-06,1.5690532012114e-06,5.343867022517333e-06,1.9516013437232573e-06,9.042246819933584e-07,1.5012987225484743e-06,2.6720601214299788e-06,9.72283892752505e-07,6.18648078259817e-07,1.961882939188672e-06
11,1.3864569225945106e-06,7.184399354422515e-07,1.1999315441128875e-06,1.3553075900923414e-06,1.5637428628182764e-06,2.4149337769966347e-06,1.6372994268522983e-06,1.613131236067749e-06,5.56807612691541e-06,2.0243519209257512e-06,9.51636727043852e-07,1.5997021364764065e-06,2.827648693912658e-06,1.0339757577143588e-06,6.613370080625136e-07,2.039517127800926e-06
12,1.4332940073995176e-06,7.591089164403121e-07,1.240790401811519e-06,1.4595706414069e-06,1.66194405161615e-06,2.5413154419836036e-06,1.6818539244050307e-06,1.648275833034904e-06,5.758235049866719e-06,2.0845278311848827e-06,9.940799549252779e-07,1.6953501930124643e-06,2.9762691228800717e-06,1.0927898137178648e-06,7.021646963484664e-07,2.0982486121981585e-06
13,1.4741872972623214e-06,7.960670971572035e-07,1.2766759681337015e-06,1.5603659356422419e-06,1.7568378251313394e-06,2.6629464675631143e-06,1.7176400434147706e-06,1.6750948218278765e-06,5.91768698912224e-06,2.1320562670552564e-06,1.0322302803110102e-06,1.788549341011514e-06,3.1171141596592343e-06,1.149980377871117e-06,7.41011416911504e-07,2.140570744987059e-06
14,1.5109994630562448e-06,8.300933106606067e-07,1.3073595309744658e-06,1.6571822323800818e-06,1.8482664555089348e-06,2.7788377128992114e-06,1.7452758326749926e-06,1.6945455234906511e-06,6.050109827445972e-06,2.1676269905016896e-06,1.0666469942151806e-06,1.8801334777822095e-06,3.2494737359308893e-06,1.2066443088103266e-06,7.778413836483587e-07,2.1690225195562283e-06
15,1.545434113247597e-06,8.621455218213255e-07,1.332923146028524e-06,1.7494694683459286e-06,1.9364394821924197e-06,2.887732603286127e-06,1.765177662213544e-06,1.7076612639086581e-06,6.159170304690593e-06,2.1924892049989428e-06,1.097689593727145e-06,1.9712035915847635e-06,3.373018837962819e-06,1.2637213499746284e-06,8.127142006767574e-07,2.185892762563926e-06
16,1.5789106377445781e-06,8.932181633787647e-07,1.3538721435742004e-06,1.836615067917201e-06,2.021908387065645e-06,2.9883374215561215e-06,1.7776867452996784e-06,1.715315473219261e-06,6.247970705294634e-06,2.208134753093614e-06,1.12551921395143e-06,2.0628371559531714e-06,3.4880382732907632e-06,1.322006039277188e-06,8.458262924192823e-07,2.1930899716904504e-06
17,1.6125587787545437e-06,9.24230843344189e-07,1.3710151367240988e-06,1.9180593119311876e-06,2.1053767779677035e-06,3.079497020410873e-06,1.783191515140708e-06,1.7182236482759614e-06,6.318793044295395e-06,2.216003613852236e-06,1.150169778431867e-06,2.1558597627788395e-06,3.5955308946366263e-06,1.382139222758022e-06,8.775283848656231e-07,2.1921419458060642e-06
18,1.647214806621954e-06,9.560067083774413e-07,1.3852066291420956e-06,1.993410613598521e-06,2.1874302645704124e-06,3.16027761488522e-06,1.7822212095648084e-06,1.717158564510782e-06,6.373035821606241e-06,2.21732510731078e-06,1.171652041886452e-06,2.2507060310603353e-06,3.6969973370885356e-06,1.4445494230240974e-06,9.082673192668606e-07,2.18418892962257e-06
19,1.68340229309626e-06,9.892825881809327e-07,1.3971718390977977e-06,2.062389413077086e-06,2.2683081580704245e-06,3.23001952101034e-06,1.7755000825348529e-06,1.7131456240225657e-06,6.4111550661184796e-06,2.21313827203048e-06,1.1900169637007938e-06,2.347403977198216e-06,3.7939617618558896e-06,1.5094048410697385e-06,9.384949714571371e-07,2.169996118648445e-06
20,1.721360603523447e-06,1.024751497896434e-06,1.4075422102536352e-06,2.1246062324513793e-06,2.3478055422839773e-06,3.288422443738293e-06,1.7639393243396974e-06,1.707423061767302e-06,6.432741963396242e-06,2.204357605656821e-06,1.2053406651820212e-06,2.4456249347620687e-06,3.887502617503213e-06,1.5766118276433273e-06,9.686322794750697e-07,2.1500926080249996e-06
21,1.7611035672240407e-06,1.0631872699653968e-06,1.4169966461985848e-06,2.1793722744824508e-06,2.425348053012185e-06,3.3356142545932285e-06,1.748582114655391e-06,1.7012014852752972e-06,6.436810876673339e-06,2.1917538013119575e-06,1.2176617043425696e-06,2.544673102845037e-06,3.9780296184075985e-06,1.6458090881371775e-06,9.990706029405034e-07,2.124979338290083e-06
22,1.8024360937526178e-06,1.1055572193494271e-06,1.4262927263309827e-06,2.2256851947168525e-06,2.5002382412558848e-06,3.372079438304482e-06,1.7305341709220698e-06,1.6954354630642916e-06,6.422118845110506e-06,2.175935993976428e-06,1.226957704179938e-06,2.6434500315964153e-06,4.065302050579546e-06,1.7163576760850743e-06,1.0301210582699075e-06,2.0952214941717153e-06
23,1.844968294406966e-06,1.1529757254468393e-06,1.436178842225424e-06,2.262350778483943e-06,2.5719856157343637e-06,3.3984079595875754e-06,1.710858799477385e-06,1.6907328481009753e-06,6.3872401335863274e-06,2.157385728101624e-06,1.2331779592189325e-06,2.740524587796478e-06,4.148520323708986e-06,1.7874062899183744e-06,1.0619290025171927e-06,2.061373168384827e-06
24,1.8881744831278768e-06,1.2065625614761107e-06,1.4473546136844254e-06,2.288181441191462e-06,2.6405245405399336e-06,3.414994173786177e-06,1.6904323593064969e-06,1.687365542396492e-06,6.33038276076012e-06,2.1364209151384663e-06,1.2362479876787796e-06,2.834316432040117e-06,4.226438458677536e-06,1.8580483336464989e-06,1.0944284374216771e-06,2.023893487224013e-06
25,1.931412214604685e-06,1.2673464096707173e-06,1.4604972892217933e-06,2.3022799577867475e-06,2.706133879132517e-06,3.421863491574382e-06,1.6698619548395703e-06,1.685303069518085e-06,6.249586328931313e-06,2.1131312643324135e-06,1.2360819697054493e-06,2.9233638974313884e-06,4.297675217791568e-06,1.927453118204874e-06,1.1273570719640963e-06,1.983209045349055e-06
26,1.9739218456340577e-06,1.3362003287401371e-06,1.4762554636017926e-06,2.3043723215743004e-06,2.7691328223724803e-06,3.418648253093973e-06,1.6495437946646042e-06,1.6842523527753668e-06,6.14380389341595e-06,2.087435753473636e-06,1.2326919805770198e-06,3.0066432352476597e-06,4.361231937105688e-06,1.994846175361889e-06,1.1603392141666921e-06,1.939894583335597e-06
27,2.014894426404945e-06,1.4138034920876388e-06,1.4952079017347808e-06,2.2950537728184035e-06,2.829657527505271e-06,3.404583595399252e-06,1.6297852804488127e-06,1.6837644344829069e-06,6.014118816156264e-06,2.059236467886476e-06,1.2262994361564621e-06,3.083762159925881e-06,4.416854970645304e-06,2.0593821066874907e-06,1.1930004266437795e-06,1.8948438342984519e-06
28,2.053503039224252e-06,1.500693028643423e-06,1.5178149646937718e-06,2.275817045163178e-06,2.8876182448584605e-06,3.3785266486252548e-06,1.6108803993527922e-06,1.6834075179760211e-06,5.863950719893607e-06,2.0285637898857e-06,1.2173115237996505e-06,3.1548468096456607e-06,4.464942001532662e-06,2.120053466340502e-06,1.2250038456354854e-06,1.8493307745222586e-06
29,2.088898169315193e-06,1.5973557251793585e-06,1.5443451325948566e-06,2.2488409482485994e-06,2.9426639867346865e-06,3.3392128682731103e-06,1.5931348650686124e-06,1.68287139211325e-06,5.698158781826987e-06,1.9956140120597696e-06,1.2061932578083646e-06,3.22016947363278e-06,4.506064111497084e-06,2.1756774615162044e-06,1.2559902465805127e-06,1.8049070272147456e-06
30,2.120344527836927e-06,1.7042711764497724e-06,1.5748039562648688e-06,2.216615587525851e-06,2.9941277583480958e-06,3.285803759212247e-06,1.5768587505420703e-06,1.6819474631129225e-06,5.521828200657545e-06,1.960686153585236e-06,1.1934089020108924e-06,3.279742463483453e-06,4.540468847784571e-06,2.2249952186506624e-06,1.2855643399399511e-06,1.7631622661903328e-06
31,2.1473892584145953e-06,1.8219667387445304e-06,1.608909087265208e-06,2.1815501619004006e-06,3.0411245401688633e-06,3.218443652289181e-06,1.562309425652009e-06,1.6804981971179218e-06,5.339419589705599e-06,1.9241674939440765e-06,1.1795020460340674e-06,3.3331319738056166e-06,4.567842598885638e-06,2.2669308898468284e-06,1.3133862554939526e-06,1.725492437974775e-06
32,2.1697948698457995e-06,1.9511455988670664e-06,1.6461064038130695e-06,2.145727311290644e-06,3.082825135741827e-06,3.1385155031387958e-06,1.549660107312188e-06,1.6784720002563888e-06,5.154478147577009e-06,1.8865479495973317e-06,1.1651339148227395e-06,3.3795908787748797e-06,4.587280739469329e-06,2.3008141880576447e-06,1.33921175014234e-06,1.6930044887528928e-06
33,2.1873312204711366e-06,2.092736316605155e-06,1.6856414078298369e-06,2.110832128443692e-06,3.118678274759759e-06,3.0485214245398555e-06,1.5390877253939415e-06,1.675885563348697e-06,4.969802178455546e-06,1.8483088614794302e-06,1.1509579942314443e-06,3.418344372438299e-06,4.59748774959992e-06,2.3263155153373285e-06,1.3627834530798599e-06,1.6665243023075144e-06
34,2.1997507709156964e-06,2.2477074172214337e-06,1.7266727861517691e-06,2.0781486204662817e-06,3.148345506680201e-06,2.9517186657376745e-06,1.5308656183112385e-06,1.6727681845802662e-06,4.787792591331963e-06,1.8097409904025537e-06,1.1374659322417017e-06,3.448806955734351e-06,4.59731600028809e-06,2.3431614776693604e-06,1.3837155347724587e-06,1.6466065885480549e-06
35,2.207003314671054e-06,2.416776327761822e-06,1.7683110108975845e-06,2.0485654957014602e-06,3.17140794915777e-06,2.851672906105354e-06,1.5252931498223016e-06,1.6691779694827508e-06,4.610677345822317e-06,1.7708678552623812e-06,1.1249356799257487e-06,3.470675595581431e-06,4.586324288655176e-06,2.3509210779551066e-06,1.4014815649937887e-06,1.6335385954937627e-06
36,2.2094524648579285e-06,2.6002480014595976e-06,1.8095409710154288e-06,2.0225910290552192e-06,3.187224653181847e-06,2.7518285072274743e-06,1.5225352863496644e-06,1.665288946127839e-06,4.440498922298575e-06,1.7315679525251391e-06,1.1134566017057792e-06,3.4839561052874274e-06,4.564890756543478e-06,2.349070035356473e-06,1.4154431810943498e-06,1.6273859460890152e-06
37,2.20788916906035e-06,2.798015859577651e-06,1.849183083854757e-06,2.000382644446757e-06,3.195152511441294e-06,2.655202234855807e-06,1.5225714978981665e-06,1.6614013589136357e-06,4.278949636086938e-06,1.6918372300145764e-06,1.1029987295814966e-06,3.4889749551406395e-06,4.533840447742354e-06,2.3372930272454226e-06,1.4249416780115178e-06,1.6280438356962302e-06
38,2.203328406637687e-06,3.0095766286125186e-06,1.8860010173153917e-06,1.9818183928257864e-06,3.194869926856487e-06,2.564280103692584e-06,1.5252800202143734e-06,1.6578244033179098e-06,4.127270447416655e-06,1.651970597106933e-06,1.0935425313224877e-06,3.4864095633324683e-06,4.493889352033848e-06,2.315808610397195e-06,1.4295082623341023e-06,1.6352115587146506e-06
39,2.1967545706377574e-06,3.233947161065405e-06,1.91884975824391e-06,1.966566209279707e-06,3.1865588496553767e-06,2.4810604023638964e-06,1.5305078030480126e-06,1.6547579123749203e-06,3.986295716678867e-06,1.6124981606331e-06,1.0851919814052708e-06,3.4773255056832636e-06,4.445252178341515e-06,2.285450056837355e-06,1.4290234021611992e-06,1.648319661151075e-06
40,2.188984678459479e-06,3.469544755628029e-06,1.9467524353646685e-06,1.954057753550516e-06,3.170982575553199e-06,2.4071092590518253e-06,1.5380608452518226e-06,1.6522847363248369e-06,3.8564591353651025e-06,1.5739668711445647e-06,1.0781513244294175e-06,3.463095477354024e-06,4.387634681595053e-06,2.2473923901219617e-06,1.4236520330178313e-06,1.6665302908797958e-06
41,2.180598780331734e-06,3.7141378576520275e-06,1.9689471174198548e-06,1.9433989173538634e-06,3.149433382294933e-06,2.343547332359358e-06,1.5477095289106236e-06,1.6504252356328019e-06,3.737717243261083e-06,1.5367939736396775e-06,1.0726148018880295e-06,3.4451102785413126e-06,4.320560501200421e-06,2.2028079053012893e-06,1.4136555266529558e-06,1.6888678287852644e-06
42,2.1718385019394234e-06,3.964868321713837e-06,1.9849595507474135e-06,1.933333460773476e-06,3.1234488493072067e-06,2.291004200168584e-06,1.5592428354570847e-06,1.6491349489268884e-06,3.6295460867888628e-06,1.5012717389473726e-06,1.068689834124005e-06,3.424454098819492e-06,4.243800669062154e-06,2.1527444387642374e-06,1.3992908757752561e-06,1.7143877909107832e-06
43,2.16257540111676e-06,4.218345374707879e-06,1.994619914559883e-06,1.92233832066876e-06,3.0944850846921287e-06,2.2496230919103733e-06,1.5724752959780955e-06,1.648264984871937e-06,3.531078370923825e-06,1.4676242855648435e-06,1.0663928621070226e-06,3.401770654516779e-06,4.157725532810541e-06,2.098150172314385e-06,1.3808538163567529e-06,1.7422737502067526e-06
44,2.1524480622078958e-06,4.470859094201648e-06,1.997928891010357e-06,1.9088700329550815e-06,3.0638785596795117e-06,2.2191218924107257e-06,1.5871767499392584e-06,1.6476444703014705e-06,3.441296634748835e-06,1.4360493501526364e-06,1.0656979831038465e-06,3.3773178719043406e-06,4.063413519911623e-06,2.0399450985122407e-06,1.3587657427800047e-06,1.7719105214635844e-06
45,2.1410752926016783e-06,4.718667088379133e-06,1.9949149749927045e-06,1.89167707367608e-06,3.0330695741200633e-06,2.19885461230621e-06,1.6029934869426941e-06,1.647287074962197e-06,3.359158933077705e-06,1.4067094234689058e-06,1.0665486482825235e-06,3.351127789049937e-06,3.962441144292414e-06,1.9791164472858193e-06,1.3336183035899833e-06,1.8029909809638147e-06
46,2.1282264523438137e-06,4.95819893474503e-06,1.9856735612977977e-06,1.8700240690641175e-06,3.0037512555171223e-06,2.1878395525986634e-06,1.6193836031628857e-06,1.6474683169663699e-06,3.283635014488751e-06,1.3796882510974106e-06,1.0687899357123308e-06,3.323235186663105e-06,3.856649661630963e-06,1.9167239786406866e-06,1.3061496982624417e-06,1.8355321162734265e-06
47,2.113930843689757e-06,5.186105066636639e-06,1.9704860207129643e-06,1.843730089350811e-06,2.9777403542267655e-06,2.1847891540250913e-06,1.6355587234742111e-06,1.6485393619895066e-06,3.21364083681049e-06,1.35507040933777e-06,1.0721103099331964e-06,3.293890729434101e-06,3.748202740706306e-06,1.853784006365209e-06,1.2771520567147687e-06,1.8696927370933795e-06
48,2.098532302567265e-06,5.399253867967999e-06,1.9498532117793643e-06,1.8130341190072826e-06,2.9566652514609734e-06,2.188203942679596e-06,1.6504995601565709e-06,1.65068159704546e-06,3.147968989355954e-06,1.3331383057516443e-06,1.0760509342593378e-06,3.263624563633797e-06,3.639679294935961e-06,1.7911331983973879e-06,1.2473891289472474e-06,1.905538795235816e-06
49,2.082627649455081e-06,5.594800364113885e-06,1.924485199880239e-06,1.7784036142340513e-06,2.941730744127472e-06,2.1965209087901175e-06,1.663142502940597e-06,1.6537976785673634e-06,3.0853485579662657e-06,1.31441369698354e-06,1.0800532441068577e-06,3.2331005056449585e-06,3.5338150394578005e-06,1.7293994452421982e-06,1.2176126854929196e-06,1.9429545769201732e-06
50,2.0668679112729862e-06,5.770344746771612e-06,1.8953016999105653e-06,1.7404385475232748e-06,2.9337257605160856e-06,2.208264707080516e-06,1.672675351830393e-06,1.657493262907371e-06,3.024536076160386e-06,1.2994755879143001e-06,1.0835212101079429e-06,3.202856159066815e-06,3.4330999763228637e-06,1.6691113489370513e-06,1.188597812009849e-06,1.9816457789097846e-06
51,2.0518146854395133e-06,5.924136441109484e-06,1.8633630001272454e-06,1.699916095195165e-06,2.9332030359129544e-06,2.2222273879925447e-06,1.678701592096089e-06,1.6611114781357567e-06,2.964450990737566e-06,1.2887780897520948e-06,1.0858932591765393e-06,3.173084208390108e-06,3.3395808932815895e-06,1.6107766032297395e-06,1.1610737155140927e-06,2.021082378061064e-06
52,2.0380049848542947e-06,6.05519786967348e-06,1.8296770116898698e-06,1.6578353426132768e-06,2.9406640856517916e-06,2.2377271790338697e-06,1.6811489860275052e-06,1.6638730989753365e-06,2.9043799959710962e-06,1.2825865066948279e-06,1.0866796376557325e-06,3.1435091370060106e-06,3.254799510417048e-06,1.5548223733960219e-06,1.1356160435196901e-06,2.0604154612357766e-06
53,2.0260245315326307e-06,6.16313101808393e-06,1.7950107482743643e-06,1.6153125273778142e-06,2.9566547296243505e-06,2.2548419501220108e-06,1.6800718016160184e-06,1.6650877651319541e-06,2.843986074055791e-06,1.2809956681557722e-06,1.0854280149131367e-06,3.1133457817275554e-06,3.1797784739035726e-06,1.501517278560713e-06,1.1126273289869638e-06,2.098512339864881e-06
54,2.0163820882186524e-06,6.247520542260938e-06,1.7598865088996193e-06,1.5734050458299746e-06,2.9817295313970076e-06,2.274367017714763e-06,1.6755318090394402e-06,1.664331741793047e-06,2.7831082379652137e-06,1.2839788902981084e-06,1.08169869684691e-06,3.0813879296223443e-06,3.115114326924978e-06,1.4509665297612708e-06,1.0923799867354475e-06,2.1341437037611314e-06
55,2.0093200077314784e-06,6.307283517254841e-06,1.7247426191350224e-06,1.533055950936057e-06,3.0162705791701676e-06,2.297426294860286e-06,1.6675473617089779e-06,1.6615203379300655e-06,2.721662489522018e-06,1.2914247335728694e-06,1.0751309899908146e-06,3.0462409251585606e-06,3.0611139029370747e-06,1.4031418414593716e-06,1.0750289056420611e-06,2.166192378577394e-06
56,2.00474307452507e-06,6.34045889019533e-06,1.6900460958659005e-06,1.495148668536502e-06,3.060232235469666e-06,2.325027102808171e-06,1.6560296060858476e-06,1.6568552083956886e-06,2.659669130531677e-06,1.3031934920759632e-06,1.0655293198312827e-06,3.0065950354351204e-06,3.0179147992910176e-06,1.3578861531513942e-06,1.0605879416743778e-06,2.193741242304367e-06
57,2.002239208142095e-06,6.344572453872308e-06,1.6562488960284476e-06,1.4604933283981603e-06,3.1129600266695848e-06,2.3578340322450414e-06,1.6407897140939186e-06,1.6506706243873472e-06,2.597198194661378e-06,1.3191826493250926e-06,1.0529005725187233e-06,2.9615031218098577e-06,2.9856312978092974e-06,1.3148922460431315e-06,1.0489183529435772e-06,2.2160414541883546e-06
58,2.0011000689736017e-06,6.3173870938547794e-06,1.6237272257383222e-06,1.4297147706251697e-06,3.17319524245452e-06,2.3961513691493045e-06,1.6217061075208627e-06,1.6432442062370871e-06,2.5343222119992124e-06,1.3392776506155304e-06,1.03747009389823e-06,2.910694977688966e-06,2.964439579776309e-06,1.2736979517946044e-06,1.0397611008796313e-06,2.232425793390521e-06
59,2.000332304879106e-06,6.25774448011032e-06,1.592811887884988e-06,1.4031837163699528e-06,3.2392178282404342e-06,2.440000375352558e-06,1.5988969063292915e-06,1.6347010119529772e-06,2.4712375493827012e-06,1.36324380730428e-06,1.0196577505084616e-06,2.8548023074185217e-06,2.954445885926244e-06,1.2337474787245704e-06,1.0328411466907832e-06,2.2421807661125823e-06
60,1.998766758031539e-06,6.166137372264375e-06,1.5638201115069778e-06,1.3810382836891262e-06,3.308946730349316e-06,2.489180236110149e-06,1.572731958237748e-06,1.6250892501355362e-06,2.4083138024714752e-06,1.3907459855238373e-06,9.99974588378867e-07,2.7952872066694674e-06,2.9554088713423582e-06,1.194553728876512e-06,1.02799948930261e-06,2.244465158299415e-06
61,1.9953450715183307e-06,6.044740628915378e-06,1.5370138124778786e-06,1.3632147346587077e-06,3.379955967253714e-06,2.543259967289762e-06,1.543756580055183e-06,1.614536644839735e-06,2.345877570883423e-06,1.4214586764525541e-06,9.789079588490236e-07,2.734060137740568e-06,2.966519406089399e-06,1.1558944786521577e-06,1.0252149770994545e-06,2.238455876638755e-06
62,1.9894382044444395e-06,5.89696183618027e-06,1.5125160328121312e-06,1.3494839379648165e-06,3.4495816973239384e-06,2.601526990538061e-06,1.512650797697204e-06,1.6033692106751059e-06,2.2839906191929783e-06,1.4551760646254917e-06,9.568871893375682e-07,2.673032475154544e-06,2.9863233458946806e-06,1.1179111845122193e-06,1.0245012773843812e-06,2.2237068020579547e-06
63,1.9809573717639308e-06,5.726872515416518e-06,1.4902540924460853e-06,1.33953031970307e-06,3.5151712815296414e-06,2.6628978883126038e-06,1.4801863194051262e-06,1.5921394725736444e-06,2.2225405920093523e-06,1.491913144518261e-06,9.343078748088939e-07,2.6139600386448872e-06,3.012828321172516e-06,1.0810458217724945e-06,1.025838360926491e-06,2.200460933132802e-06
64,1.9701905792998455e-06,5.538847756930566e-06,1.4699925106827505e-06,1.3329910821368268e-06,3.5743380460549855e-06,2.7258198137531537e-06,1.447116513799983e-06,1.581523159595459e-06,2.1615399130436093e-06,1.5318705386047914e-06,9.11531862589604e-07,2.5586454794036327e-06,3.043858594749752e-06,1.0458642362957997e-06,1.02921019023402e-06,2.169706911902239e-06
65,1.9574942997289786e-06,5.337419627133658e-06,1.4514061810641577e-06,1.3294088332936389e-06,3.625173555050007e-06,2.7882497874776437e-06,1.4141171222557123e-06,1.5721229754914049e-06,2.1012200609236897e-06,1.5752422164679393e-06,8.888443420779107e-07,2.509102429648792e-06,3.077565900100308e-06,1.0129050823216399e-06,1.034645113899757e-06,2.1329497585536803e-06
66,1.943029102986327e-06,5.127103616336375e-06,1.4340785774234736e-06,1.3281971551694708e-06,3.6664112120614312e-06,2.8477800942571957e-06,1.3818806856619848e-06,1.5643177549397786e-06,2.041860226268527e-06,1.6220503057039055e-06,8.664089704405933e-07,2.4673849042351293e-06,3.1127233126027822e-06,9.826306198491524e-07,1.042169637757915e-06,2.0918140539866025e-06
67,1.926693136965362e-06,4.912048286735579e-06,1.4174705178849778e-06,1.3286798698283493e-06,3.6974734585263935e-06,2.9019410248415517e-06,1.3512067070417076e-06,1.5582444745722103e-06,1.983663086860726e-06,1.6720671594637398e-06,8.44260286755064e-07,2.4352759927537547e-06,3.148535743275223e-06,9.554146617706352e-07,1.0517172512418605e-06,2.0477299483326554e-06
68,1.908296082541291e-06,4.695636094736961e-06,1.400956290613164e-06,1.3301698315211761e-06,3.718421499760067e-06,2.94862158367157e-06,1.3229429842066815e-06,1.55389786457839e-06,1.9267713765516068e-06,1.7247813900568654e-06,8.223573873672926e-07,2.414116313312548e-06,3.184305536669953e-06,9.315325523725484e-07,1.0630830893121223e-06,2.0018649155951797e-06
69,1.8878171717067612e-06,4.480286066953741e-06,1.3838654540199163e-06,1.3320546814438357e-06,3.729872251566649e-06,2.9864101217174366e-06,1.297884649902144e-06,1.5512934671006038e-06,1.8712755018565965e-06,1.7794155084514247e-06,8.006849722704595e-07,2.404786079678424e-06,3.2193405952911576e-06,9.111833339166e-07,1.0759397723601101e-06,1.9551748111703914e-06
70,1.8654826367188784e-06,4.267571768375923e-06,1.3655058690052301e-06,1.3338627381279793e-06,3.7328183611848896e-06,3.014676960741217e-06,1.2767242171301522e-06,1.5506107814509253e-06,1.8171505013034577e-06,1.834972928824021e-06,7.793286321221978e-07,2.407748552739128e-06,3.2528775093162197e-06,8.945066225152644e-07,1.0898583337490042e-06,1.908390836007393e-06
71,1.8415795536202377e-06,4.05859411684416e-06,1.345278496434026e-06,1.3352916939918444e-06,3.728286546986194e-06,3.0334211605795536e-06,1.2599950113985324e-06,1.552228049623931e-06,1.7642052920735668e-06,1.890238619616239e-06,7.584601824058901e-07,2.423122385288536e-06,3.2838167666754053e-06,8.815666060812405e-07,1.1043288992944152e-06,1.861986453503352e-06
72,1.8162244940024746e-06,3.854456422258061e-06,1.3228858053215226e-06,1.3362153904042396e-06,3.7170013793613775e-06,3.0430496387694267e-06,1.248009069633257e-06,1.5566155332972355e-06,1.712143978170509e-06,1.943762795691335e-06,7.382642388000573e-07,2.450729952815267e-06,3.310583270177263e-06,8.723377652087097e-07,1.1188209021480086e-06,1.816242782145737e-06
73,1.7893465099231177e-06,3.656597800745355e-06,1.2984619847440582e-06,1.3366494242541223e-06,3.699307872602834e-06,3.0442069962728915e-06,1.2408763669127118e-06,1.5641442539075548e-06,1.6607240351778128e-06,1.9940123379672545e-06,7.188842622047036e-07,2.4900680465624943e-06,3.331441217654451e-06,8.666867644908574e-07,1.1328353855343263e-06,1.7713290382192055e-06
74,1.7609230087786206e-06,3.4667904468251476e-06,1.272490798119957e-06,1.3366460316705683e-06,3.675351537962283e-06,3.037605220587391e-06,1.2385864597456639e-06,1.5749427746528427e-06,1.609832164783354e-06,2.039725126402081e-06,7.004203252121727e-07,2.5402848800190746e-06,3.345155389094922e-06,8.643450178747307e-07,1.1459024870634507e-06,1.727269430514518e-06
75,1.7312679511841195e-06,3.2868630063316482e-06,1.2455836898396108e-06,1.3362280268636846e-06,3.645296167377011e-06,3.0237826958941692e-06,1.2410344115059305e-06,1.5888692816363464e-06,1.5594041290254325e-06,2.0801641512071403e-06,6.829705874607545e-07,2.600283613754026e-06,3.3515041138703907e-06,8.649032566210039e-07,1.1576070617013473e-06,1.6839273907764642e-06
76,1.701084509429574e-06,3.118362546173816e-06,1.2183358193120642e-06,1.3354655763715241e-06,3.609412314840818e-06,3.002943508635524e-06,1.2479834191172563e-06,1.6055253614697284e-06,1.5093477128822966e-06,2.115005907409017e-06,6.666915451306814e-07,2.6689085267659806e-06,3.351222813372445e-06,8.678517110237937e-07,1.167695070354447e-06,1.6411709316643635e-06
77,1.6712505445949315e-06,2.9622960878335133e-06,1.191350177433689e-06,1.3345728005145733e-06,3.5679995654299243e-06,2.9750492834040814e-06,1.259056975396738e-06,1.6242569000566557e-06,1.4595410506559214e-06,2.1440120821051394e-06,6.51826268512219e-07,2.745038263860996e-06,3.345463595759648e-06,8.72671311589523e-07,1.1761846708846826e-06,1.5990796430546673e-06
78,1.6426200824209611e-06,2.8190091409857356e-06,1.1652787702560061e-06,1.333893649009302e-06,3.521213861123277e-06,2.9400619938574105e-06,1.2737719996333995e-06,1.644168027588001e-06,1.4098643758513931e-06,2.166864066228277e-06,6.386627861446757e-07,2.82748224374599e-06,3.335291936546381e-06,8.789141598432062e-07,1.1833937454233353e-06,1.5579768125340305e-06
79,1.6159672069006782e-06,2.688238586857228e-06,1.1407535838671924e-06,1.3338219641493024e-06,3.468944640370159e-06,2.8981766839677803e-06,1.2915869258357316e-06,1.6641728162725434e-06,1.3603076860918896e-06,2.1833100377392203e-06,6.274580601748922e-07,2.914825251506069e-06,3.3216013990152675e-06,8.861935396712884e-07,1.1898542977141158e-06,1.5183036256361061e-06
80,1.5919181965234129e-06,2.5693193614464282e-06,1.1182743194301408e-06,1.3347156013244687e-06,3.4108683414253944e-06,2.849997290639421e-06,1.3119940973531447e-06,1.68307817366137e-06,1.3111609508641513e-06,2.1934095778423026e-06,6.183880637393656e-07,3.005446978968588e-06,3.305318106907454e-06,8.94132838612979e-07,1.196179265878421e-06,1.4804750278624381e-06
81,1.5708322695208769e-06,2.4614128784738766e-06,1.0981648365860797e-06,1.3368255422960113e-06,3.346720684679925e-06,2.7966009699967562e-06,1.3346486467961817e-06,1.6996330289006467e-06,1.2631207891306514e-06,2.1976332518227883e-06,6.115306735214735e-07,3.0977117980315556e-06,3.2876085746353506e-06,9.023565623489572e-07,1.2029807132223171e-06,1.4447872254609228e-06
82,1.5527369447126958e-06,2.3636138637359735e-06,1.0806132076344876e-06,1.3402759722897212e-06,3.276697705028433e-06,2.7394454571943284e-06,1.3594353859620401e-06,1.7125568156042744e-06,1.2171746964398916e-06,2.196799999981665e-06,6.068828782540675e-07,3.19020389580447e-06,3.269956173329576e-06,9.104990925128399e-07,1.2108198207050906e-06,1.4114024357216774e-06
83,1.5373261831327155e-06,2.274951676658691e-06,1.0657187775886208e-06,1.3450745294489536e-06,3.201741179637556e-06,2.6801362807400343e-06,1.3863990519470949e-06,1.7207091815046682e-06,1.1743647262949958e-06,2.191929334105827e-06,6.04420423865454e-07,3.2819625795599197e-06,3.2540438124143797e-06,9.18239596207546e-07,1.2201255819252343e-06,1.3804068831565194e-06
84,1.5239705850107322e-06,2.1944232083186614e-06,1.0535051271865455e-06,1.3511020088550007e-06,3.1234683360112365e-06,2.6201327274772225e-06,1.4155807324277409e-06,1.7233938577241794e-06,1.1356167315870567e-06,2.1840537035156024e-06,6.041491576398914e-07,3.3726639175510845e-06,3.2414740927968863e-06,9.253808903260614e-07,1.2311205910863756e-06,1.3518569514995603e-06
85,1.5117466132837743e-06,2.121071563465348e-06,1.0439573233378755e-06,1.358125916426202e-06,3.0437576308095867e-06,2.5605795992187783e-06,1.4468686748862888e-06,1.7205222978886942e-06,1.1016700489106377e-06,2.1740576970992077e-06,6.061125504451779e-07,3.4626324603151023e-06,3.2334762947719247e-06,9.318628993987111e-07,1.2438144260497129e-06,1.3257553721797884e-06
86,1.4995406070351009e-06,2.0539796543941522e-06,1.037082134597368e-06,1.3658662580748702e-06,2.964262080114139e-06,2.5023846869919934e-06,1.4799473485160752e-06,1.7124767288845243e-06,1.0730865629786433e-06,2.1625922694938626e-06,6.103994669488355e-07,3.552615289282108e-06,3.230735663091368e-06,9.377026119294503e-07,1.2580356930601625e-06,1.3020251773415266e-06
87,1.4862587381795476e-06,1.992213205177999e-06,1.0328988110061936e-06,1.3740234143742716e-06,2.8861210462671674e-06,2.4463744434105007e-06,1.5143396633468433e-06,1.6998437991289453e-06,1.050394059831209e-06,2.1500388121551857e-06,6.171730642925597e-07,3.6434079319908187e-06,3.2333621627791225e-06,9.429683718778796e-07,1.2734384445292542e-06,1.2805332208571233e-06
88,1.4710905890773439e-06,1.9349056946547145e-06,1.0313935277530332e-06,1.3822475298275618e-06,2.8099025898169077e-06,2.3932949255263744e-06,1.5494642909119252e-06,1.6832794283841449e-06,1.0343021581672413e-06,2.136548999378652e-06,6.266743971083294e-07,3.7355351532206284e-06,3.240903471417947e-06,9.47754101381755e-07,1.2895077072887595e-06,1.261099213420365e-06
89,1.4537254951454705e-06,1.8813989338488565e-06,1.032546482397272e-06,1.3901405021664104e-06,2.7356443660305304e-06,2.3436804206920024e-06,1.5846725960271275e-06,1.6635168216740372e-06,1.0257564628340801e-06,2.1221601891028053e-06,6.391741178665075e-07,3.829093010291281e-06,3.252337764411056e-06,9.521413829644419e-07,1.3056134586434276e-06,1.2434605929759656e-06
90,1.4344350681031685e-06,1.8311903975885548e-06,1.0363797439128557e-06,1.3972777458656111e-06,2.6629349308080565e-06,2.2977855466042247e-06,1.6192609178407678e-06,1.6413345043149604e-06,1.0257695338577777e-06,2.106830996898106e-06,6.549047838920887e-07,3.9236662827885094e-06,3.2660794308727286e-06,9.56256564237931e-07,1.32104762797566e-06,1.2272682966512397e-06
91,1.413984412044823e-06,1.7838307221540764e-06,1.0429215868932648e-06,1.403180504054454e-06,2.5910111390866533e-06,2.255662026307321e-06,1.6524535350877077e-06,1.617452271469988e-06,1.0352262755849334e-06,2.090376680818399e-06,6.740127371033974e-07,4.0182668194769026e-06,3.2800155265008766e-06,9.603555577162858e-07,1.334988525974177e-06,1.21212363911766e-06
92,1.393404831404663e-06,1.73901951157914e-06,1.052140902179641e-06,1.407313296918138e-06,2.518822622897054e-06,2.217286169374869e-06,1.6834820176342152e-06,1.5924672396218118e-06,1.0548023271536784e-06,2.0724797220475414e-06,6.965395701573235e-07,4.1114292170805746e-06,3.2916466007278703e-06,9.647675703662113e-07,1.3464781174497026e-06,1.1975813701834277e-06
93,1.3737215842183977e-06,1.696721055722934e-06,1.0639512161024878e-06,1.4091924348027588e-06,2.4451252657512917e-06,2.1826093095287576e-06,1.711823045953063e-06,1.5668592011273617e-06,1.084982819129142e-06,2.052781617385867e-06,7.224240504622525e-07,4.201550008014768e-06,3.2985029651467657e-06,9.697533220448545e-07,1.3544740906889748e-06,1.1831436091277881e-06
94,1.3557532316753056e-06,1.6570761898907186e-06,1.0782643964847886e-06,1.4085399695071944e-06,2.3686711334589645e-06,2.1514809410462085e-06,1.7373123408789317e-06,1.541066927607714e-06,1.1261675677914662e-06,2.0309324348920557e-06,7.51514551992071e-07,4.287323196520139e-06,3.2987351721543607e-06,9.754412212870899e-07,1.357924875121906e-06,1.1682972942191615e-06
95,1.3400512714901844e-06,1.620200392156815e-06,1.0950299777722343e-06,1.4053859133637072e-06,2.2884406470729204e-06,2.123551743134213e-06,1.7599242462399595e-06,1.5155891338841944e-06,1.1788103655830853e-06,2.0066106330120777e-06,7.835849950098604e-07,4.368083522965306e-06,3.291433919174904e-06,9.818791157570897e-07,1.3558426419136606e-06,1.152546366809717e-06
96,1.3269300131822483e-06,1.5860443990727256e-06,1.1142454287026237e-06,1.4000748217668109e-06,2.2038677297747217e-06,2.098299191123354e-06,1.7794458029810266e-06,1.4909730928610497e-06,1.2434483370412758e-06,1.9795289148663283e-06,8.183321140956957e-07,4.443984409772752e-06,3.2764226813256635e-06,9.891309646783689e-07,1.347408411897208e-06,1.1354622677731662e-06
97,1.3164913371010987e-06,1.5544116308433612e-06,1.135954783750222e-06,1.3931629999886132e-06,2.1150460631170333e-06,2.075143909475269e-06,1.795329083026704e-06,1.467731041726711e-06,1.3206004191945421e-06,1.9493964454197536e-06,8.553640580889149e-07,4.515984931335065e-06,3.2537599575736823e-06,9.973206468346295e-07,1.3321234083673871e-06,1.116799551103361e-06
98,1.3086461920771004e-06,1.5250893477952068e-06,1.1602720580172693e-06,1.3852533269020083e-06,2.022868788117845e-06,2.053565661984965e-06,1.8067671802865565e-06,1.4463492565729483e-06,1.4107035909108605e-06,1.915975860547508e-06,8.942485932794999e-07,4.585651665177664e-06,3.223477322896008e-06,1.00661780397606e-06,1.309929360042295e-06,1.0965534075519464e-06
99,1.3031557117336985e-06,1.4979165281042258e-06,1.1874257345241673e-06,1.3768510877507916e-06,1.9289853753736593e-06,2.0331837363459966e-06,1.8129248785810859e-06,1.4273412930219103e-06,1.5141512418816763e-06,1.8792844557965652e-06,9.34611134707252e-07,4.654894971923021e-06,3.1858677067247017e-06,1.0172233041887456e-06,1.2811498481640517e-06,1.0748913275023294e-06
100,1.299634316207295e-06,1.4726811183903331e-06,1.217736794862622e-06,1.3682787182889475e-06,1.8354870148005551e-06,2.013737932783278e-06,1.813164716233163e-06,1.411209797420929e-06,1.6312972764354184e-06,1.8396553558955422e-06,9.761571895366264e-07,4.7257580697767554e-06,3.141994759177932e-06,1.0293265251608651e-06,1.2462593283516676e-06,1.0520745525188471e-06
101,1.2975401228450845e-06,1.4489669167040924e-06,1.2514918457581616e-06,1.3596535169225178e-06,1.744469685489902e-06,1.9950062913821804e-06,1.8071083234068414e-06,1.398351226532354e-06,1.76237167631903e-06,1.7975570414819584e-06,1.0185679313582982e-06,4.800187772345714e-06,3.093810073513218e-06,1.0430177401910739e-06,1.2057056578470438e-06,1.028418455085377e-06
102,1.2962977051903226e-06,1.4261511650830122e-06,1.2888185029808367e-06,1.3509355070588555e-06,1.6577515118317336e-06,1.976845677126375e-06,1.7946088350981515e-06,1.388991437367162e-06,1.9074235213096543e-06,1.7534820910852625e-06,1.0613764459699877e-06,4.879695539488972e-06,3.0437497573425432e-06,1.0582350890587144e-06,1.1599270581030532e-06,1.004219678192155e-06
103,1.2955470806943095e-06,1.403552744887153e-06,1.329672702541267e-06,1.3420227470881595e-06,1.5768037191758122e-06,1.9593439366148296e-06,1.7757938441690876e-06,1.3831532193834528e-06,2.066315560044697e-06,1.7080702610020778e-06,1.1039338852693138e-06,4.965050796058456e-06,2.9941927764731675e-06,1.074791727088675e-06,1.1094703445418617e-06,9.796699663720052e-07
104,1.2952975657054474e-06,1.3805393317362705e-06,1.3739091198756546e-06,1.3328260078107975e-06,1.5027749625992945e-06,1.9428343591913656e-06,1.7510942873610323e-06,1.380636780521515e-06,2.23868330329212e-06,1.6622236500794589e-06,1.1454823257726014e-06,5.056197734549805e-06,2.9471375100179127e-06,1.0924509939733107e-06,1.055083105105596e-06,9.548812062967266e-07
105,1.2958426072524063e-06,1.3565504425378141e-06,1.4213194949702534e-06,1.3232715085989705e-06,1.4365383451878334e-06,1.9277038014979066e-06,1.7211112931701091e-06,1.3810247024752154e-06,2.423913569713034e-06,1.6169772327078404e-06,1.1853310471603279e-06,5.152350862145124e-06,2.904197775669667e-06,1.1110157610797288e-06,9.977215078261836e-07,9.300387281524202e-07
106,1.2975527916706439e-06,1.3311814049071335e-06,1.4715834099245999e-06,1.3132436384502159e-06,1.3787491557129965e-06,1.914195878049004e-06,1.6864802773929778e-06,1.3837496298174604e-06,2.6212632686329826e-06,1.5732312006732897e-06,1.2230752978226046e-06,5.252138801971337e-06,2.8668146447840493e-06,1.1303766902766102e-06,9.384659000513859e-07,9.05536374206703e-07
107,1.300761941703177e-06,1.3042821503657643e-06,1.5242185696947666e-06,1.3025408083728978e-06,1.3299178130003582e-06,1.9023612401130778e-06,1.6479579208493248e-06,1.3882377991302547e-06,2.8300219319892185e-06,1.5315883772111405e-06,1.258672981320694e-06,5.353805675562597e-06,2.836412341104241e-06,1.1504578638399248e-06,8.784302771308509e-07,8.81960806161971e-07
108,1.305815119236388e-06,1.2758914919380283e-06,1.5786301108944778e-06,1.2909496887739906e-06,1.2904847329199522e-06,1.892089126946361e-06,1.6065950216512043e-06,1.3940504822948817e-06,3.049500232643475e-06,1.492357979275368e-06,1.2922753280741323e-06,5.455492094287425e-06,2.8143557547541417e-06,1.1711339881036001e-06,8.18725680515349e-07,8.59990195112937e-07
109,1.313161218704769e-06,1.246127223735994e-06,1.6342170073701747e-06,1.2784263694788145e-06,1.2608353038012605e-06,1.8830880962905186e-06,1.5637208205456771e-06,1.4009609191153153e-06,3.2788901065362523e-06,1.4556467282050798e-06,1.3239806034150931e-06,5.555492887710203e-06,2.80193147218113e-06,1.1922545135858788e-06,7.6041256440489e-07,8.403380748039838e-07
110,1.3233436365566237e-06,1.215248340097704e-06,1.6904540132675859e-06,1.265201126070704e-06,1.24123728143464e-06,1.8748254546481202e-06,1.5207269432564904e-06,1.4089778124594622e-06,3.517317851934147e-06,1.4214905246762243e-06,1.3537291482749538e-06,5.652376844289527e-06,2.8004667384677807e-06,1.2137674833903873e-06,7.044272659154571e-07,8.237126387590677e-07
111,1.3368846949600886e-06,1.183757324335732e-06,1.7469378925858287e-06,1.251705081446434e-06,1.2317688795884366e-06,1.866541943282597e-06,1.478847332590792e-06,1.4182949338925669e-06,3.7641317731745515e-06,1.389990622996736e-06,1.3813327792985427e-06,5.74496698993129e-06,2.8113233809679424e-06,1.2358103766538212e-06,6.515477141918024e-07,8.107440040081395e-07
112,1.3542039611370173e-06,1.1523258268340116e-06,1.8033931118138846e-06,1.2384251814810563e-06,1.2322808399928227e-06,1.8573554790232137e-06,1.4390748464574826e-06,1.4291512813017155e-06,4.018975998810575e-06,1.3613578943849468e-06,1.4065411923727471e-06,5.83226215989409e-06,2.8356600461706127e-06,1.2586646396767514e-06,6.024009562745982e-07,8.019299563475515e-07
113,1.3756674497161736e-06,1.121614900236218e-06,1.8596212956965637e-06,1.2258155438290826e-06,1.2423844712477369e-06,1.846339824363123e-06,1.4021785683551222e-06,1.4416775369503773e-06,4.281425614653275e-06,1.3358085815480012e-06,1.4291095385019268e-06,5.913385905304711e-06,2.8741823282043554e-06,1.2826214710414892e-06,5.574819665413523e-07,7.976226539403842e-07
114,1.401679695537398e-06,1.092159632993248e-06,1.9154296429949483e-06,1.2142929227250694e-06,1.261469106788494e-06,1.8325274794010566e-06,1.368736528068431e-06,1.4558185077223796e-06,4.550620500038107e-06,1.3134029096431172e-06,1.4487984549523722e-06,5.987615318420723e-06,2.927012615987879e-06,1.3078947311874025e-06,5.171999227597817e-07,7.980447322146959e-07
115,1.4326670231135179e-06,1.0643574431343335e-06,1.970600631597694e-06,1.204275725662558e-06,1.2887654921911868e-06,1.8149335043568837e-06,1.3391841432208859e-06,1.4713522043782896e-06,4.825275658159378e-06,1.2939726339928215e-06,1.465280388739195e-06,6.0544650787297985e-06,2.9936370359813955e-06,1.334602220696762e-06,4.819727198861693e-07,8.033270717653269e-07
116,1.4689513430807602e-06,1.0385076912233892e-06,2.0248931916223522e-06,1.1961976714654978e-06,1.3234429537954672e-06,1.7927151562729764e-06,1.313863404034071e-06,1.4879797797262738e-06,5.103786311037472e-06,1.2772044187339758e-06,1.4781071913760295e-06,6.113735394253739e-06,3.0729149548045687e-06,1.362735252864841e-06,4.5232197859714657e-07,8.135458416129704e-07
117,1.5106342264770463e-06,1.0148266854951879e-06,2.0779871219540696e-06,1.1904506481777164e-06,1.3646566620527995e-06,1.7654389670883765e-06,1.2930109251664584e-06,1.5054392680432895e-06,5.384045052294458e-06,1.262832515030787e-06,1.4868652160319312e-06,6.16546801492634e-06,3.163166800444782e-06,1.392122955629513e-06,4.2888743520005487e-07,8.287445865429352e-07
118,1.5575495117109324e-06,9.934307114413393e-07,2.129341764625574e-06,1.1872895371047027e-06,1.411469032879501e-06,1.733275093052659e-06,1.2767207238690044e-06,1.5235791862256127e-06,5.663086532483673e-06,1.2507827427212886e-06,1.4914077645823934e-06,6.209811701368636e-06,3.262292781867387e-06,1.4224421515818187e-06,4.1236495089297864e-07,8.48944424736022e-07
119,1.609293297388867e-06,9.74359778198373e-07,2.178084950919077e-06,1.1867759551841072e-06,1.4627367844827565e-06,1.6969584141738407e-06,1.2649393226817396e-06,1.5423616970531578e-06,5.93692206222161e-06,1.2411228000211896e-06,1.4919759975606733e-06,6.246802106371681e-06,3.3678735349547805e-06,1.453245986470684e-06,4.034694406750796e-07,8.74175894940049e-07
120,1.6653475275019258e-06,9.57644032344022e-07,2.2230559880648776e-06,1.188816884464057e-06,1.517150451539516e-06,1.6575370968571144e-06,1.257455762284887e-06,1.5618367777931542e-06,6.20079251016902e-06,1.233892619349973e-06,1.4891301907512705e-06,6.276088501749838e-06,3.4772800590227546e-06,1.4839710142781542e-06,4.0298264954063413e-07,9.045793790862189e-07
121,1.7252000062505736e-06,9.433302118999028e-07,2.262971925524562e-06,1.1932834054317972e-06,1.5734406763144483e-06,1.6160733961292586e-06,1.2538769582597632e-06,1.5821266401093373e-06,6.44973021841401e-06,1.2290152792143212e-06,1.4835558694458862e-06,6.296643423331612e-06,3.5878316688385638e-06,1.5139070995859944e-06,4.1183314063924604e-07,9.404972560461503e-07
122,1.788331527232802e-06,9.314404334186499e-07,2.2966040184270877e-06,1.2000923128512849e-06,1.6305476981893846e-06,1.5734680947724152e-06,1.253651598827849e-06,1.603385438461735e-06,6.678891748159231e-06,1.2263129468691659e-06,1.475935450966608e-06,6.306529736108866e-06,3.696970857892752e-06,1.5421424698782106e-06,4.31149972356621e-07,9.824136394934595e-07
123,1.854189132209079e-06,9.219216963652966e-07,2.3229254792244595e-06,1.2091787661237003e-06,1.6876088082562342e-06,1.5305084668077859e-06,1.2561909056501686e-06,1.625693453399734e-06,6.883349622084449e-06,1.225515606737342e-06,1.466962116273814e-06,6.303009966782031e-06,3.802375344612895e-06,1.5675872725326912e-06,4.622891694435332e-07,1.0307906009619545e-06
124,1.922305814344496e-06,9.146541399444083e-07,2.3412453004046803e-06,1.2204525625651769e-06,1.7438721070287249e-06,1.488089946987093e-06,1.2610420467506786e-06,1.6489489323427411e-06,7.057878522986721e-06,1.2262568518965559e-06,1.4573270445340431e-06,6.283165310893526e-06,3.90196224572035e-06,1.5891593009178167e-06,5.068199096300763e-07,1.0859490730855402e-06
125,1.992394967572129e-06,9.095321738524538e-07,2.3512831443993135e-06,1.2337889618078679e-06,1.7987179405824195e-06,1.4473967812230415e-06,1.2679648347563992e-06,1.6729047825730297e-06,7.19732804300512e-06,1.228083675198458e-06,1.4476182095056666e-06,6.2446291806842864e-06,3.9937528618443874e-06,1.6060285965980126e-06,5.664698830273379e-07,1.148021782762689e-06
126,2.064204649581757e-06,9.065522541371101e-07,2.353120111130378e-06,1.2489900471580032e-06,1.8517375936305566e-06,1.4098663922530584e-06,1.2768315004536902e-06,1.6973572604602608e-06,7.297443655588531e-06,1.2304358137014253e-06,1.4382582700066137e-06,6.1859379599876934e-06,4.075589620295825e-06,1.6177494909253424e-06,6.430749491853192e-07,1.2169917622579695e-06
127,2.137246060937325e-06,9.058067430692052e-07,2.3470617014286963e-06,1.265756128277516e-06,1.902669000040542e-06,1.376989584474628e-06,1.2874812536936696e-06,1.7222533222331883e-06,7.355670162196251e-06,1.2326381303707439e-06,1.4294932837558434e-06,6.106487513488796e-06,4.144909011861415e-06,1.624208395381541e-06,7.38538612699405e-07,1.2928380098882742e-06
128,2.210619482567011e-06,9.073705202855616e-07,2.333509268722346e-06,1.283737876963797e-06,1.951227057964187e-06,1.3501294957853954e-06,1.2996923260005024e-06,1.7475892693020811e-06,7.371516023834326e-06,1.234005391236586e-06,1.4213687828693638e-06,6.006400136782402e-06,4.198783441316771e-06,1.6254226457462157e-06,8.547942183619567e-07,1.3756744850611345e-06
129,2.282971863387716e-06,9.11185483535498e-07,2.3128748445292547e-06,1.3025861765664506e-06,1.9970624169553976e-06,1.3304610162782101e-06,1.3132219151931872e-06,1.7732808419339124e-06,7.346256123373165e-06,1.2340042143180477e-06,1.4137234209696528e-06,5.8864838098739715e-06,4.234186128126355e-06,1.6213695958553696e-06,9.937968374905462e-07,1.4657343994836896e-06
130,2.352495432933246e-06,9.170289446062388e-07,2.285499758876621e-06,1.3219527144176474e-06,2.0398885789991207e-06,1.3189813198893853e-06,1.327786063614517e-06,1.799128040132536e-06,7.282143515757937e-06,1.2323420198532062e-06,1.4062274653137243e-06,5.748211702590264e-06,4.24849246391308e-06,1.6120880018617893e-06,1.1575624539097568e-06,1.5632137445624724e-06
131,2.416949296731226e-06,9.245354435854928e-07,2.2515440972210465e-06,1.3414945831746429e-06,2.0796079533324163e-06,1.3165089049058034e-06,1.3430519627666903e-06,1.82476833915689e-06,7.1815187202661885e-06,1.2289606177717865e-06,1.3984519646719424e-06,5.5936341865093356e-06,4.240212019350602e-06,1.598012105363275e-06,1.3482179560693576e-06,1.6681189965434028e-06
132,2.4738019369593167e-06,9.332217782546825e-07,2.2109238444004e-06,1.3608531407354542e-06,2.1162977836965525e-06,1.323677544051104e-06,1.3587553211271132e-06,1.8495793267960947e-06,7.0463216133100735e-06,1.224004176759397e-06,1.3899862001175124e-06,5.425280859312259e-06,4.209526821589564e-06,1.5801832319492205e-06,1.5679669046408445e-06,1.7802442873135165e-06
133,2.520581980896585e-06,9.425508234904222e-07,2.1634336257374584e-06,1.3796091184491743e-06,2.150076514061276e-06,1.340950334630963e-06,1.3748164100024962e-06,1.8726317846324496e-06,6.878363478600404e-06,1.2177942317908022e-06,1.3805604249930752e-06,5.246083816904401e-06,4.158191091715681e-06,1.5601347367330982e-06,1.8189921386720289e-06,1.8992795257832979e-06
134,2.555373667877689e-06,9.520646547401758e-07,2.1090446689245393e-06,1.3972780727092186e-06,2.181003178928991e-06,1.3686339783143317e-06,1.3912886859291476e-06,1.8927761262959147e-06,6.679979205186458e-06,1.2107627732287187e-06,1.3700891716642306e-06,5.05921121987615e-06,4.088899949722901e-06,1.539586656570698e-06,2.103417308703629e-06,2.024926280948555e-06
135,2.57723067522353e-06,9.61523470197716e-07,2.048181553462868e-06,1.4132925343188843e-06,2.209087007553761e-06,1.4068845643876389e-06,1.4082080314522514e-06,1.908875725600941e-06,6.454349724906067e-06,1.2033619475666323e-06,1.3586840084396254e-06,4.867752196374698e-06,4.004627338425974e-06,1.5201615558673222e-06,2.423268531405901e-06,2.1569170879929732e-06
136,2.5862603393812283e-06,9.709856120589156e-07,1.981784396930124e-06,1.4269636661298893e-06,2.2343033098064126e-06,1.4556857554899308e-06,1.4255114350769655e-06,1.9200829556920257e-06,6.2053790080899956e-06,1.1960088834871437e-06,1.3466873892956918e-06,4.674366217341991e-06,3.908245067431843e-06,1.5032235103891284e-06,2.7803242943898233e-06,2.2949702807051937e-06
137,2.5832960468473766e-06,9.8080196446581e-07,1.9111349136203806e-06,1.4375344250024401e-06,2.256541455458159e-06,1.5147881122735685e-06,1.4430455534919391e-06,1.9259940106760097e-06,5.937467903631589e-06,1.1890144495224133e-06,1.3346324332305915e-06,4.481035044138221e-06,3.8023337392087814e-06,1.4898385031740686e-06,3.1759469426110345e-06,2.438777229498964e-06
138,2.5693504042824033e-06,9.915008522272982e-07,1.8376077304741702e-06,1.4443285874844968e-06,2.2755952842007385e-06,1.5836614317648315e-06,1.4605643765566895e-06,1.926631118439521e-06,5.655358872214733e-06,1.1824944443269103e-06,1.3230934248028864e-06,4.289039254016449e-06,3.689026890599527e-06,1.4807910343650296e-06,3.6109888962085406e-06,2.5880274909385494e-06
139,2.545210890957809e-06,1.0036107369622182e-06,1.7625290851983919e-06,1.446914413207737e-06,2.2912844679704665e-06,1.6614914654862473e-06,1.4776803556691256e-06,1.9223496900759948e-06,5.363977153054873e-06,1.1763527785566939e-06,1.3125557900218537e-06,4.099205731207476e-06,3.569895930915985e-06,1.4765849712894347e-06,4.085717534687701e-06,2.7423533154237947e-06
140,2.5113566382707776e-06,1.0175386789385431e-06,1.6871855519497087e-06,1.4452297580467853e-06,2.3035600229843106e-06,1.7472157385236086e-06,1.4938433405213878e-06,1.913780070504737e-06,5.068213501536068e-06,1.1703483614391879e-06,1.3033909072562436e-06,3.912223866214908e-06,3.4459875314274114e-06,1.4774436787886528e-06,4.599743087117115e-06,2.9011338184442033e-06
141,2.468065140003433e-06,1.033553708905987e-06,1.6128912129173032e-06,1.439608515225471e-06,2.312421359478983e-06,1.8396101398655283e-06,1.508443518575846e-06,1.9017890739038661e-06,4.772700885016561e-06,1.16420405395294e-06,1.2958754635565123e-06,3.7288046104660987e-06,3.3181062621752665e-06,1.4833851135451141e-06,5.151967802947279e-06,3.063286023444477e-06
142,2.415573566117842e-06,1.051815496910295e-06,1.5409835181078352e-06,1.4306553870080913e-06,2.3177809011448872e-06,1.9373843097062934e-06,1.5210466401828828e-06,1.8873813571054575e-06,4.481613804583813e-06,1.1577152582358566e-06,1.2901801119706958e-06,3.5497343121162985e-06,3.1872295053289913e-06,1.4943423398844883e-06,5.7404794027118126e-06,3.227155490236804e-06
143,2.3542674934556717e-06,1.0723962547322787e-06,1.47269902827681e-06,1.4190260533748975e-06,2.3195373962316535e-06,2.0391921282888663e-06,1.5316283132776305e-06,1.871533336544814e-06,4.19846934417193e-06,1.150798714465941e-06,1.2863283205088139e-06,3.3759403048172528e-06,3.0547807588836915e-06,1.5102064058505685e-06,6.36233885866571e-06,3.3904537615868256e-06
144,2.284815576514155e-06,1.0952919984510509e-06,1.4090225875947506e-06,1.405288708003216e-06,2.317800543424967e-06,2.1435400798230315e-06,1.5406267676171477e-06,1.8550473549295747e-06,3.925975000105385e-06,1.1434437729196924e-06,1.2841518645314302e-06,3.2084951766955717e-06,2.9226424106173876e-06,1.5307872763602038e-06,7.013338281779921e-06,3.5501919123179433e-06
145,2.2081792704136315e-06,1.12039748917512e-06,1.350619149944014e-06,1.3899224967300146e-06,2.312971223823523e-06,2.2486836001889383e-06,1.5487589344610712e-06,1.8385373045180433e-06,3.665999590634668e-06,1.135604424143853e-06,1.2832599863270995e-06,3.048460536899678e-06,2.792991658243475e-06,1.5558041202911232e-06,7.687833459469068e-06,3.7026678147044244e-06
146,2.1255601835330934e-06,1.1474505177089943e-06,1.29783418247783e-06,1.373305398738372e-06,2.305593741345377e-06,2.3526563964737427e-06,1.5567364076884873e-06,1.822539842268909e-06,3.419686792311693e-06,1.1271394161925937e-06,1.2830596691675632e-06,2.896675774032171e-06,2.668098252455244e-06,1.5849030329924821e-06,8.378803316714276e-06,3.843666286497301e-06
147,2.038356358443041e-06,1.176026725601202e-06,1.2507085749097802e-06,1.3556446181075398e-06,2.29621762462212e-06,2.4534832346380655e-06,1.56506507125004e-06,1.8075872426317665e-06,3.1877409123896866e-06,1.1178829850840023e-06,1.2828550532079605e-06,2.7537180835251126e-06,2.550229114999848e-06,1.6176413383804779e-06,9.07841004367604e-06,3.969011648426416e-06
148,1.9481104370729343e-06,1.2056117007678922e-06,1.2090236470979597e-06,1.336969847160358e-06,2.285432658061109e-06,2.5494505279667743e-06,1.5739617440044535e-06,1.7941365216975053e-06,2.970801240964726e-06,1.1077863806222517e-06,1.2819924227571888e-06,2.620106651537638e-06,2.441672432668189e-06,1.6535134592393215e-06,9.77899429397838e-06,4.0752923488772385e-06
149,1.8564234284426871e-06,1.2356772693479483e-06,1.17239638419416e-06,1.317270894937473e-06,2.2739041946668416e-06,2.6393486864605645e-06,1.5833204226914064e-06,1.7824640780171423e-06,2.769599554846874e-06,1.0969744820502545e-06,1.279987838272831e-06,2.4965265026036244e-06,2.3446958281129687e-06,1.692076577547998e-06,1.0473628333120558e-05,4.160338847582641e-06
150,1.7648382775255368e-06,1.265694250844313e-06,1.1403760243085239e-06,1.29672813819268e-06,2.262271313889375e-06,2.722702786909586e-06,1.592740769229942e-06,1.772639172438117e-06,2.5847891510142724e-06,1.0856681428065106e-06,1.2765967877271014e-06,2.3837821651355434e-06,2.261344330558116e-06,1.733061035911533e-06,1.1155481533115488e-05,4.223260565505329e-06
151,1.6747353802029974e-06,1.2950768626946213e-06,1.1124772697181801e-06,1.2758518193776945e-06,2.2510601928516327e-06,2.7998737681194865e-06,1.6016696563878347e-06,1.764506689004502e-06,2.416728534629549e-06,1.074057133090161e-06,1.2717973607491937e-06,2.2825292335059343e-06,2.193241293185469e-06,1.7763884433165256e-06,1.1816596121782493e-05,4.264140129584633e-06
152,1.5873037441953741e-06,1.323120978769158e-06,1.0881431133890658e-06,1.2554023140034426e-06,2.2406724798840125e-06,2.8718444034783784e-06,1.6095712669527678e-06,1.7576183864052406e-06,2.2654565264050497e-06,1.06222242676489e-06,1.2656717154607239e-06,2.1931158634377295e-06,2.1415393796933244e-06,1.8221929670827368e-06,1.244731168096794e-05,4.283542527697904e-06
153,1.5035576283673441e-06,1.349051370884201e-06,1.0666802918747441e-06,1.2361982278688042e-06,2.231320121590204e-06,2.9398177855818996e-06,1.6159840108614663e-06,1.7512167050392295e-06,2.130808241560605e-06,1.0501676351201683e-06,1.2582497978822443e-06,2.115686149491862e-06,2.1069908715649946e-06,1.8708460200587703e-06,1.3036974198385272e-05,4.282116639571846e-06
154,1.4243059150631667e-06,1.3721932346321354e-06,1.047229686986241e-06,1.2190070047271675e-06,2.2229689459186966e-06,3.004973962107247e-06,1.620535738200067e-06,1.744395574808847e-06,2.012505431995801e-06,1.0379044163196285e-06,1.249443819585572e-06,2.0503853486999365e-06,2.0900648478236004e-06,1.922840878709562e-06,1.3575605775385718e-05,4.260597843689859e-06
155,1.3501032046305243e-06,1.3920760989472135e-06,1.0288487823265347e-06,1.2045367245065654e-06,2.2154568016949123e-06,3.0683990761964483e-06,1.6230608460778275e-06,1.7364180917999242e-06,1.910144058483811e-06,1.0255108867556487e-06,1.2391484450602842e-06,1.9975098227633416e-06,2.0910114220751565e-06,1.9785804815837436e-06,1.4055184428502555e-05,4.220104421223078e-06
156,1.2813026199825582e-06,1.4083580168308132e-06,1.0107316508914924e-06,1.1934024122135753e-06,2.2087122616316134e-06,3.130953304276044e-06,1.623693966227105e-06,1.7270040458578024e-06,1.8232037832701e-06,1.0131911751398313e-06,1.2274207380161552e-06,1.957557146167942e-06,2.1098053803956433e-06,2.0382255320852332e-06,1.4469213594743577e-05,4.162348017514686e-06
157,1.218201718311823e-06,1.4207868724527843e-06,9.9245462229029e-07,1.1860481874354272e-06,2.202864606601089e-06,3.193126122909731e-06,1.6227767768408195e-06,1.7163546140555885e-06,1.7511712060088636e-06,1.0013052335069036e-06,1.2145391845958091e-06,1.9311250501712972e-06,2.146090013460718e-06,2.101613630785026e-06,1.4811107561509102e-05,4.089623048415285e-06
158,1.1611202524725107e-06,1.4293770390088266e-06,9.740782357173391e-07,1.1827085457971864e-06,2.1981514524308036e-06,3.255017685724511e-06,1.6206657562672017e-06,1.7048873239127035e-06,1.6936258551058358e-06,9.90318489906985e-07,1.2008976097034235e-06,1.9187253779504468e-06,2.1992099922998517e-06,2.168219149738528e-06,1.5073371626694827e-05,4.004626631979828e-06
159,1.1103453826740896e-06,1.4345726856423996e-06,9.560474151914904e-07,1.1834518504298315e-06,2.194734141558954e-06,3.316324543360851e-06,1.6176069080203856e-06,1.6929411328942043e-06,1.6501980031164204e-06,9.807495988189046e-07,1.186888225085899e-06,1.9206683254008853e-06,2.268239088653259e-06,2.2371946506688124e-06,1.5248490051751801e-05,3.9101420620827614e-06
160,1.0660729483527788e-06,1.437141559989136e-06,9.389778396722519e-07,1.188286360571987e-06,2.1926099005458334e-06,3.376282338840562e-06,1.6137619326985706e-06,1.6806564236350152e-06,1.6205026690320664e-06,9.731487637476997e-07,1.1728310019316934e-06,1.9370245231880404e-06,2.352011055738873e-06,2.3075124180312465e-06,1.5330629160987513e-05,3.8086742589502838e-06
161,1.0284259501984398e-06,1.4379586663613642e-06,9.234741220108056e-07,1.1972268670864923e-06,2.1916334583760055e-06,3.433707489275006e-06,1.609321307873409e-06,1.6679867640343226e-06,1.6040872623555008e-06,9.680724521593003e-07,1.1589153451979714e-06,1.9676034319217885e-06,2.4492348656900705e-06,2.3781170435822905e-06,1.5317104669884094e-05,3.7021646794506306e-06
162,9.974672663216417e-07,1.437904973398758e-06,9.100790234708742e-07,1.21025872884855e-06,2.191539302274733e-06,3.487149607321333e-06,1.6045177216503736e-06,1.6547644781823392e-06,1.6003771829571989e-06,9.66053597147863e-07,1.1452234537632414e-06,2.0119148593814956e-06,2.558624042838502e-06,2.4479935622605607e-06,1.5209217425708496e-05,3.591874095559639e-06
163,9.73147468048775e-07,1.437804180515905e-06,8.993153868785822e-07,1.227303039889539e-06,2.191970603950271e-06,3.535094896370957e-06,1.5995033278869367e-06,1.6407611515525613e-06,1.6086956204798058e-06,9.675672149569375e-07,1.1318635848001808e-06,2.0691032806130298e-06,2.678981552285786e-06,2.5161891862235757e-06,1.5012292789646147e-05,3.478505323783623e-06
164,9.552495728341835e-07,1.4383396151905226e-06,8.91699171634856e-07,1.248265962044987e-06,2.192583075127237e-06,3.576211186748955e-06,1.5942685660964297e-06,1.625694465103243e-06,1.6283435387685535e-06,9.729964918365055e-07,1.1190715318652092e-06,2.1379177762313798e-06,2.809213095676131e-06,2.5818890935146394e-06,1.4734894389010071e-05,3.362530181010746e-06
165,9.43410092977211e-07,1.4400244885780833e-06,8.877019017653889e-07,1.2730859948099475e-06,2.193191495438768e-06,3.6095588932436795e-06,1.588673657338643e-06,1.609239117766031e-06,1.6585814582935051e-06,9.826179964085625e-07,1.1071946908238494e-06,2.2168050191035707e-06,2.948171234056777e-06,2.644531120866757e-06,1.4387429125140434e-05,3.244516969955124e-06
166,9.372248535365114e-07,1.4432053595961184e-06,8.877171681983832e-07,1.3016947551847037e-06,2.1938492206509295e-06,3.6346921574331184e-06,1.5825101943585565e-06,1.5910990526012073e-06,1.6985153111594187e-06,9.96603781642796e-07,1.096645707186633e-06,2.3041402481287566e-06,3.0944033821500914e-06,2.703800849001454e-06,1.3980448292250055e-05,3.125280854392159e-06
167,9.363472842587156e-07,1.4480988249286604e-06,8.920300374683148e-07,1.3339504929943835e-06,2.194810465217244e-06,3.6516987830845e-06,1.5756454378252093e-06,1.5710607652838322e-06,1.74706572418106e-06,1.015002760011352e-06,1.0878767823152708e-06,2.3984671431857936e-06,3.2460467201253397e-06,2.7594017449129187e-06,1.3523076113498146e-05,3.0058070986129954e-06
168,9.404798850667213e-07,1.45491466694556e-06,9.007811346134875e-07,1.3696576951801683e-06,2.196437292375212e-06,3.6612294594825424e-06,1.5682926089088631e-06,1.548934124393148e-06,1.8030657910057952e-06,1.0376904132175635e-06,1.0813118032426047e-06,2.498540343219134e-06,3.400920845772493e-06,2.8107433450649044e-06,1.3022315132172065e-05,2.887006933310765e-06
169,9.492971579384848e-07,1.4639997816729948e-06,9.139501713857826e-07,1.4086787012280017e-06,2.1991047501699914e-06,3.664434410695421e-06,1.561157467839204e-06,1.5244643273511996e-06,1.8653521860284592e-06,1.064329981751856e-06,1.0772375792883602e-06,2.6031416323777953e-06,3.5566430819588115e-06,2.8568566932545644e-06,1.2483597267355247e-05,2.7695321614115814e-06
170,9.623823234488023e-07,1.4758837620450243e-06,9.31366772409165e-07,1.4510018396751185e-06,2.2030837209315905e-06,3.662713105325693e-06,1.5552692404998885e-06,1.4973769609678704e-06,1.9327564738938213e-06,1.0943653700195692e-06,1.0757440680607383e-06,2.7108699217836107e-06,3.710629682113347e-06,2.896684695683485e-06,1.1911879749832633e-05,2.6538240044983376e-06
171,9.791942126418458e-07,1.4911892190629646e-06,9.527389293385819e-07,1.4966592895784551e-06,2.208444820312434e-06,3.657357046695366e-06,1.551686333126867e-06,1.467542690520968e-06,2.004046869340945e-06,1.1270561119163498e-06,1.0767464938637159e-06,2.8200323651163223e-06,3.860021218553478e-06,2.929510289022175e-06,1.1312351278862917e-05,2.5402624100568057e-06
172,9.99096649183502e-07,1.5104656491258932e-06,9.777131927873107e-07,1.5455723179580855e-06,2.2150748289640547e-06,3.649262445580619e-06,1.551316576722648e-06,1.43510957885015e-06,2.077886318649163e-06,1.1615897828115423e-06,1.080077068836612e-06,2.9285671160602536e-06,4.001612592799774e-06,2.9550901031850717e-06,1.0690534678854305e-05,2.429223325381418e-06
173,1.0214614716391463e-06,1.5340462002037863e-06,1.0059459121973831e-06,1.59747678050172e-06,2.2227760666867476e-06,3.6387843070750824e-06,1.554843532335678e-06,1.4005205747622499e-06,2.1528087780485704e-06,1.1972414692470646e-06,1.0856184056259709e-06,3.0339842652151824e-06,4.131843613419338e-06,2.9734189640949545e-06,1.0052140092359057e-05,2.321027543290941e-06
174,1.045749207961589e-06,1.5619810750389801e-06,1.0370977348440688e-06,1.6519581408704454e-06,2.2313915236449845e-06,3.6257652236228892e-06,1.5626780266354704e-06,1.3644419678913477e-06,2.227242543120031e-06,1.2334934578991352e-06,1.093369415480454e-06,3.1334187393794757e-06,4.24716128154191e-06,2.9846313552726206e-06,9.403041343629864e-06,2.2158676522122912e-06
175,1.0715156771912198e-06,1.594024977444569e-06,1.0707750851558932e-06,1.708505564300951e-06,2.240942734167339e-06,3.609826480734596e-06,1.5749360006869254e-06,1.3276808104207976e-06,2.2996414809502813e-06,1.2700610423173687e-06,1.1033770625472478e-06,3.2237999998375572e-06,4.344973459863671e-06,2.9893344696821774e-06,8.749403957736585e-06,2.113860918163171e-06
176,1.098448060086107e-06,1.6296316204644216e-06,1.1065285787814313e-06,1.7664970106907265e-06,2.251664289214722e-06,3.590831480271623e-06,1.5914384143337832e-06,1.2911471546643288e-06,2.3687146463024834e-06,1.3067992653033739e-06,1.1156480510958544e-06,3.3021059353110493e-06,4.424457446558355e-06,2.988852503895744e-06,8.09769897197178e-06,2.0152705055637865e-06
177,1.126458512906018e-06,1.6679639918437637e-06,1.1438848952828268e-06,1.8251168494575758e-06,2.2638685163304447e-06,3.569196184471e-06,1.6117015554898597e-06,1.255813633281267e-06,2.4336308399613214e-06,1.3435511477684212e-06,1.1301301687734024e-06,3.365681042484782e-06,4.486306980411114e-06,2.9849288031986597e-06,7.454436313672825e-06,1.92066448337319e-06
178,1.1556756199628554e-06,1.7079570732910797e-06,1.1823328170304312e-06,1.8832929867053906e-06,2.2778010712662244e-06,3.545836555489515e-06,1.6349460478090641e-06,1.222604074841811e-06,2.4939968705863256e-06,1.3800838486180041e-06,1.1467095638662702e-06,3.412407015136947e-06,4.53186004059194e-06,2.9792365593715675e-06,6.8257930234243615e-06,1.8307986483711667e-06
179,1.1862945183584923e-06,1.7483903615379732e-06,1.2212834965382324e-06,1.9397021453551477e-06,2.2935860518813177e-06,3.521833248504523e-06,1.6601852158013146e-06,1.1922594107812392e-06,2.549542924390092e-06,1.4161410334944175e-06,1.1652362905064952e-06,3.4405197107004235e-06,4.5626373015547285e-06,2.9731221639995895e-06,6.217388367659468e-06,1.7463779587332112e-06
180,1.2184776854850101e-06,1.7879482739410718e-06,1.260051385965244e-06,1.9928600199644448e-06,2.3112159613413485e-06,3.498021192986064e-06,1.6863742158479111e-06,1.165277006047196e-06,2.5997922172826114e-06,1.4514656366800144e-06,1.1856043756811979e-06,3.4484285591120013e-06,4.580260618065802e-06,2.9674873435236628e-06,5.634187136686153e-06,1.6679804755665248e-06
181,1.2524014782190994e-06,1.8253581770620527e-06,1.2978348533757756e-06,2.0413643698990262e-06,2.3305561669200334e-06,3.4746849902572286e-06,1.7125492688832848e-06,1.141959720820829e-06,2.6440708674590263e-06,1.4857106282896417e-06,1.207761554495145e-06,3.4350932590193913e-06,4.586242756467823e-06,2.9626551310570214e-06,5.080388019009612e-06,1.5961220742406477e-06
182,1.288303586755049e-06,1.8595908584389194e-06,1.3336793143946712e-06,2.084228308735852e-06,2.3513062474743212e-06,3.4514728462741705e-06,1.7379379562008952e-06,1.122541447366844e-06,2.6818744351192824e-06,1.5183323441832687e-06,1.2316095339990935e-06,3.4007915287140703e-06,4.5818085424608365e-06,2.9582772827814096e-06,4.5592930031099345e-06,1.531253629916255e-06
183,1.326409827520181e-06,1.889936459346887e-06,1.3664649852485797e-06,2.1210625529829864e-06,2.3729805465577127e-06,3.4274903402263106e-06,1.7620303207193428e-06,1.1072839873156494e-06,2.713279138516094e-06,1.5485337424508963e-06,1.2569573469466822e-06,3.3475554036512756e-06,4.5679340105513535e-06,2.953331857198685e-06,4.073232331926626e-06,1.47365950970662e-06
184,1.366811412141102e-06,1.9158590612896973e-06,1.394992698651957e-06,2.1519948433680493e-06,2.395062511457514e-06,3.401406705756642e-06,1.7845329094997199e-06,1.096456736347594e-06,2.7390591973964655e-06,1.5752505466483668e-06,1.2836042079896527e-06,3.278843802560588e-06,4.545320216247078e-06,2.9462441794212233e-06,3.6236008103819383e-06,1.423397064710823e-06
185,1.4094006730417517e-06,1.9367839753995093e-06,1.41821680967092e-06,2.177414777955973e-06,2.4172569686930062e-06,3.3716173508138255e-06,1.8052188533464045e-06,1.0902508028487156e-06,2.76046260554679e-06,1.5972684779335945e-06,1.3114131945363854e-06,3.1986865369257293e-06,4.514313957541648e-06,2.9352031109574034e-06,3.21099513395517e-06,1.380336413139807e-06
186,1.4538598107091642e-06,1.9520566096009415e-06,1.4355064032637888e-06,2.197671041886155e-06,2.4396501595221e-06,3.336710713974194e-06,1.8238933388776572e-06,1.0887649173493833e-06,2.7788972680283273e-06,1.6135345124823875e-06,1.340248224366327e-06,3.1109200100004706e-06,4.475033001630118e-06,2.918641966192528e-06,2.8353479199686885e-06,1.3441986275653034e-06
187,1.499662060288863e-06,1.9611160274636234e-06,1.4466910917827572e-06,2.2128759291801654e-06,2.46267883174194e-06,3.2961391590165137e-06,1.8405730367659908e-06,1.0921078058148408e-06,2.795711335326175e-06,1.6234952157830234e-06,1.3698495464044067e-06,3.0188373006223367e-06,4.42762624379723e-06,2.8956679069419277e-06,2.4960087846915876e-06,1.3145324699797308e-06
188,1.5460812882549842e-06,1.9637221206785125e-06,1.4518633356712913e-06,2.222909969985512e-06,2.486915547784794e-06,3.2505811660314244e-06,1.8556420340556726e-06,1.1004896343480392e-06,2.8120402685143903e-06,1.6272557956385927e-06,1.3997889940539802e-06,2.9251169266532953e-06,4.372585820644332e-06,2.866174493002889e-06,2.1918406284533455e-06,1.2907180458934352e-06
189,1.5921901323827792e-06,1.9600710839866637e-06,1.4512375125766362e-06,2.227520079785337e-06,2.512875830739895e-06,3.201672453008356e-06,1.869796423140692e-06,1.114170727192737e-06,2.8287329328305033e-06,1.6255434533150204e-06,1.4295036675526143e-06,2.8318823553690133e-06,4.3111238714923015e-06,2.8305928165422674e-06,1.9213545974154844e-06,1.2720672510763053e-06
190,1.636854438461302e-06,1.9507200268202225e-06,1.445248909347666e-06,2.2263726266539717e-06,2.541021590608759e-06,3.1513990998911297e-06,1.8839208730918805e-06,1.133327859527636e-06,2.8464202510519962e-06,1.6195193919133726e-06,1.4583311905072278e-06,2.740809112317782e-06,4.245376971663379e-06,2.789500195714816e-06,1.6828335793881503e-06,1.2579843502193022e-06
191,1.6787863467772272e-06,1.936350876841833e-06,1.4346618130218732e-06,2.219079234586377e-06,2.57179942712372e-06,3.1017001059383593e-06,1.8990662091414584e-06,1.157972579901495e-06,2.8656208617062246e-06,1.6104907394745022e-06,1.4855285300338345e-06,2.6531854824390294e-06,4.1781656370299975e-06,2.7433193955096934e-06,1.4744362292055032e-06,1.2480959674041504e-06
192,1.7166201917110828e-06,1.917543628495346e-06,1.4204591223404024e-06,2.205287999864016e-06,2.6055418899372925e-06,3.0543550459555042e-06,1.9164371964897987e-06,1.1879596353515948e-06,2.8867552560513276e-06,1.59967181117512e-06,1.5102951218236205e-06,2.569937407984793e-06,4.112429012710403e-06,2.6922938174440434e-06,1.2942989350176302e-06,1.24226274146946e-06
193,1.7489182149343698e-06,1.894751699082035e-06,1.4036176126408534e-06,2.1848668885468595e-06,2.6423384570180936e-06,3.0109000045063074e-06,1.9372434926338115e-06,1.2230618426024497e-06,2.9101142488096186e-06,1.5880636494490747e-06,1.5318272078968152e-06,2.4916289868449923e-06,4.050747406761694e-06,2.6368427739144686e-06,1.1406076541231081e-06,1.2404687654539524e-06
194,1.7742226938143408e-06,1.8684530848243634e-06,1.3849697946325252e-06,2.158105261783185e-06,2.6820132685964397e-06,2.972614347048455e-06,1.962474825852749e-06,1.263030168507076e-06,2.9358346905260894e-06,1.5763818343505266e-06,1.5494207955441427e-06,2.418414373101311e-06,3.995224025874052e-06,2.5780124350393447e-06,1.01159394218036e-06,1.2426727394108996e-06
195,1.7913250254379981e-06,1.8392319265508673e-06,1.3651966670642292e-06,2.1258254098550596e-06,2.7242010177812323e-06,2.9406905485785473e-06,1.992760580103498e-06,1.3075591450005899e-06,2.9638233794282286e-06,1.5650347439401568e-06,1.5625913420003907e-06,2.350032756585183e-06,3.947640715389021e-06,2.5175057543642826e-06,9.054534724926857e-07,1.248706126009903e-06
196,1.7995913089398704e-06,1.8076865621734078e-06,1.3448490422058003e-06,2.089353735437835e-06,2.7684441085058967e-06,2.9163436546119814e-06,2.028354855635565e-06,1.3562252322901222e-06,2.993620544948885e-06,1.5542088504672344e-06,1.5711465745286623e-06,2.285945962033903e-06,3.909617518046954e-06,2.4572291835984297e-06,8.202507742414326e-07,1.258257605346926e-06
197,1.7990663856011986e-06,1.774369376734137e-06,1.324318733231852e-06,2.050376201919295e-06,2.8142538351721855e-06,2.900653882232599e-06,2.0691626144681442e-06,1.4084782361737866e-06,3.0243495233796602e-06,1.5440399048961677e-06,1.5751732169576478e-06,2.2255863485181745e-06,3.8826165741340075e-06,2.3988318131169743e-06,7.538961891481886e-07,1.270925486992491e-06
198,1.7903594522536365e-06,1.7398992072159918e-06,1.3038116886557602e-06,2.010727092672894e-06,2.861133258224229e-06,2.8943359163831154e-06,2.114740586819334e-06,1.4636391787265553e-06,3.0548436334980013e-06,1.5347823730956252e-06,1.5749264481522599e-06,2.168618093114088e-06,3.867835299756873e-06,2.3435952137528876e-06,7.042367837983776e-07,1.286266300276712e-06
199,1.7744385597692733e-06,1.7050873238333064e-06,1.2833681016308037e-06,1.972157027384667e-06,2.9085792311718945e-06,2.8976402812535914e-06,2.1642936748193416e-06,1.5209265844257183e-06,3.0838405163856855e-06,1.52688365555095e-06,1.5706613495127183e-06,2.1150812548040395e-06,3.866077230606108e-06,2.2925391291520763e-06,6.692082053035413e-07,1.3037937522509707e-06
200,1.7523973185163512e-06,1.6709337028891208e-06,1.2628868319350325e-06,1.9361412511082354e-06,2.9560631105376696e-06,2.9103206435318993e-06,2.216671511170394e-06,1.5795670296193903e-06,3.110135741499314e-06,1.5209253392564515e-06,1.5625441187107492e-06,2.0653214679488463e-06,3.877603309940868e-06,2.246460270315352e-06,6.469159716638887e-07,1.3230049668453654e-06
201,1.7253679789452677e-06,1.6385498658883817e-06,1.2421921063064018e-06,1.9037814765987763e-06,3.002978189318042e-06,2.931649273839089e-06,2.27032548446306e-06,1.6388601674027287e-06,3.1326996120761194e-06,1.517481057081562e-06,1.5507361930973992e-06,2.0197917297760644e-06,3.901982357252356e-06,2.2059066937741267e-06,6.35594186429282e-07,1.343513565182933e-06
202,1.6946931771124176e-06,1.609069236759133e-06,1.2212023923640815e-06,1.8758017505960945e-06,3.0485411613217754e-06,2.9605864837078716e-06,2.3232873214039567e-06,1.698119620299287e-06,3.150741903209542e-06,1.5169737133697867e-06,1.535513130092554e-06,1.9789442588228417e-06,3.938014580704119e-06,2.171211572320731e-06,6.335322398575435e-07,1.365183102313863e-06
203,1.6620779257143156e-06,1.5835270922136037e-06,1.200064104359155e-06,1.8526176915026672e-06,3.091721500501377e-06,2.996039760459232e-06,2.373334670910932e-06,1.756641630135267e-06,3.1636617237526164e-06,1.5195864571196685e-06,1.5172327713540276e-06,1.9433029560847933e-06,3.983774067622849e-06,2.1425436722023484e-06,6.390468001321548e-07,1.3881051874708323e-06
204,1.6294496275243536e-06,1.562722138147849e-06,1.1790935136998929e-06,1.8344217473898011e-06,3.1313652429920845e-06,3.037043459212852e-06,2.4184022046537294e-06,1.8137701727809639e-06,3.1709158520341895e-06,1.5252622261938382e-06,1.4961904525589463e-06,1.913539498751863e-06,4.0368657949014375e-06,2.1199605392569882e-06,6.5052217748821e-07,1.4124533012936694e-06
205,1.5986690008280734e-06,1.5471263619702193e-06,1.1586155464607648e-06,1.8212072877080817e-06,3.1665160688799672e-06,3.0828397605879054e-06,2.457048960482101e-06,1.8689691975533672e-06,3.171959508614971e-06,1.5337594896116583e-06,1.4725144469314709e-06,1.890352065711759e-06,4.0949268670597e-06,2.1035130804687394e-06,6.665212209189164e-07,1.438358951185847e-06
206,1.5713360817085374e-06,1.5368765160707025e-06,1.13888907572906e-06,1.812810646731856e-06,3.1967143744516126e-06,3.1329422635537395e-06,2.4886638370162927e-06,1.9219003917686032e-06,3.1663194327476186e-06,1.5446817213350357e-06,1.4461921567480764e-06,1.874233679443786e-06,4.156021132979762e-06,2.093263274629206e-06,6.858857864562434e-07,1.4658526604920872e-06
207,1.5487264240296807e-06,1.5318168637567949e-06,1.1201480142901918e-06,1.8090553150321745e-06,3.222080515812909e-06,3.1871894737434527e-06,2.513251175393782e-06,1.972475208757342e-06,3.1536345139396542e-06,1.5575522665061674e-06,1.417232649849283e-06,1.8653372921244962e-06,4.218545594502656e-06,2.0891226593622728e-06,7.077247124492484e-07,1.4948056170261587e-06
208,1.5317858321075609e-06,1.5315567195971581e-06,1.1026546217006742e-06,1.8098225140464119e-06,3.2431239087847326e-06,3.245727256017727e-06,2.5309617654125513e-06,2.020741505831214e-06,3.1335297092342887e-06,1.5720394275477048e-06,1.3858451643090299e-06,1.8634562899223994e-06,4.2808585725655826e-06,2.0906970752543096e-06,7.31321544419131e-07,1.5248705495355673e-06
209,1.5211423468902092e-06,1.5355429408957647e-06,1.0867045433697686e-06,1.8149205030979898e-06,3.260442713516733e-06,3.30890466474681e-06,2.541689531091011e-06,2.0666785069451213e-06,3.1055371230883763e-06,1.5881335427913717e-06,1.3524829006703747e-06,1.868044786937733e-06,4.341139525070616e-06,2.0972663655137226e-06,7.560958451841354e-07,1.5555102171094488e-06
210,1.5171382388106548e-06,1.5431411248852085e-06,1.0726061202768244e-06,1.8239090672663484e-06,3.2746336391108712e-06,3.377124735016039e-06,2.5449426808872922e-06,2.110098672687358e-06,3.069290659286143e-06,1.6060253788920973e-06,1.317740409268751e-06,1.8783139093827666e-06,4.397604598366643e-06,2.1078369058646393e-06,7.816213993180028e-07,1.5861292047143529e-06
211,1.5198954819916658e-06,1.5536745834098116e-06,1.0606532341913236e-06,1.8360420739579385e-06,3.2864148032766867e-06,3.450678866842351e-06,2.5400282728972403e-06,2.15070015239472e-06,3.0247579773485144e-06,1.625829802285491e-06,1.282211530444708e-06,1.8934667417607386e-06,4.448837029779747e-06,2.1212051643601633e-06,8.075939972971659e-07,1.616155013426788e-06
212,1.5293804480374144e-06,1.5664129482376818e-06,1.0510792882857597e-06,1.850328206012717e-06,3.2966151567397162e-06,3.529588103325915e-06,2.526405120879308e-06,2.188222837371651e-06,2.9722233344153276e-06,1.6474591701543375e-06,1.2464479072119699e-06,1.9129399313398076e-06,4.494019573834544e-06,2.136002475936174e-06,8.338028527539554e-07,1.6449634895670557e-06
213,1.545397607596808e-06,1.5805918226510752e-06,1.0440279239216117e-06,1.8656434839689107e-06,3.305912500835348e-06,3.6134957844132934e-06,2.5039173601422763e-06,2.222544949036329e-06,2.912176907827591e-06,1.6706450902641428e-06,1.2110164097359097e-06,1.9364322483435865e-06,4.5329985410179e-06,2.1507819301859493e-06,8.601752867176241e-07,1.6718388251670378e-06
214,1.5675128153732707e-06,1.5955070546581494e-06,1.0395954644824738e-06,1.8808819659959134e-06,3.3145701147611394e-06,3.7016031383955716e-06,2.4727871998233526e-06,2.2535717157843977e-06,2.845407464358178e-06,1.6949362704931556e-06,1.1764804917158093e-06,1.9637828725632674e-06,4.566175623249494e-06,2.164223960516056e-06,8.867716845731127e-07,1.696196905265311e-06
215,1.5949914513776007e-06,1.6106222677038281e-06,1.0379041999713932e-06,1.895181868247829e-06,3.322355223754466e-06,3.7925872328256693e-06,2.4335517562086244e-06,2.2810447933914487e-06,2.773248517759016e-06,1.7196816652095438e-06,1.1432821620456369e-06,1.9949424446721532e-06,4.594194129953144e-06,2.1753648552840733e-06,9.136988673940746e-07,1.7179277535095334e-06
216,1.6268144753240353e-06,1.6256246095173791e-06,1.0391187870984909e-06,1.9081744063117436e-06,3.3285497947762887e-06,3.884562638401699e-06,2.38710857247224e-06,2.304466281911599e-06,2.697606007191797e-06,1.7440801253496768e-06,1.1116899755886145e-06,2.030004440214869e-06,4.6174726412836015e-06,2.1837611508587805e-06,9.410602782154341e-07,1.7374828173839167e-06
217,1.6617594417198595e-06,1.6404123906699809e-06,1.0433883843278981e-06,1.9200679171099026e-06,3.3320032120641736e-06,3.975265665663091e-06,2.334763198686948e-06,2.323114316414348e-06,2.6206468679003747e-06,1.7672458475106185e-06,1.0818663021916947e-06,2.0691603239170324e-06,4.635906486922086e-06,2.189587533362611e-06,9.68942985875624e-07,1.755593423241354e-06
218,1.698504845518383e-06,1.655000414205642e-06,1.0507896669134752e-06,1.931441672033068e-06,3.3313707945862282e-06,4.062446269279337e-06,2.278102951007993e-06,2.336085155555801e-06,2.5444622262735327e-06,1.7882844005295875e-06,1.0539385150702822e-06,2.1127052825518826e-06,4.6488809254970565e-06,2.193554870681889e-06,9.973944846288913e-07,1.772888719725632e-06
219,1.7357427685244261e-06,1.6693663210984754e-06,1.0613344507994965e-06,1.942869781299848e-06,3.3254755673759396e-06,4.144147708287705e-06,2.2187315381017273e-06,2.3424592565466035e-06,2.470885855594069e-06,1.8064712387013052e-06,1.027975755516303e-06,2.1611344956249526e-06,4.65534266713661e-06,2.196611245094725e-06,1.0264095773184462e-06,1.7896866470576693e-06
220,1.7722925928483748e-06,1.683360726205738e-06,1.0749857115763964e-06,1.9546275854451445e-06,3.313446901144689e-06,4.218603857478421e-06,2.158047646364571e-06,2.3416151134309206e-06,2.4013771117116628e-06,1.8214464307771412e-06,1.0039246686196037e-06,2.215089285446597e-06,4.653909392976058e-06,2.19967936572038e-06,1.0559296918003266e-06,1.8059711692409303e-06
221,1.8071708623924626e-06,1.6967597167466957e-06,1.0916148537545927e-06,1.966620823820279e-06,3.294638165701587e-06,4.283936898187833e-06,2.0971646773739944e-06,2.3335021093869794e-06,2.3369499501546968e-06,1.8332441170602168e-06,9.816056218523212e-07,2.2750975188046234e-06,4.643086336000947e-06,2.2035718690793783e-06,1.0858491345805108e-06,1.8214864743337523e-06
222,1.8395421765841637e-06,1.709333890207834e-06,1.1109500527205164e-06,1.9785055173334724e-06,3.2687295586583644e-06,4.338129952413782e-06,2.0369080201189584e-06,2.318756146510763e-06,2.2781768236746566e-06,1.8421831847383674e-06,9.607839007092821e-07,2.3413293103467776e-06,4.621267391536326e-06,2.2088989180287164e-06,1.1160180493047516e-06,1.8359150505464803e-06
223,1.86856566454073e-06,1.7207813356138427e-06,1.1326075386345801e-06,1.989889015705371e-06,3.236005598344775e-06,4.3793818421878956e-06,1.977800390797173e-06,2.298670867204836e-06,2.2253131122613895e-06,1.8487565193505204e-06,9.412521311601476e-07,2.4134914125072944e-06,4.5864669610302365e-06,2.2159013326635326e-06,1.1462105926248941e-06,1.84902213035519e-06
224,1.8933584828345592e-06,1.7305934864075936e-06,1.1562407701501594e-06,2.000509856176862e-06,3.19736680545248e-06,4.4064550503066525e-06,1.9200856457802867e-06,2.2749841875385094e-06,2.1786211317467704e-06,1.8535251274371585e-06,9.228629898683684e-07,2.490826350498388e-06,4.53629763497155e-06,2.224364518218933e-06,1.1760777978321555e-06,1.860628515494935e-06
225,1.913237759986115e-06,1.73803644608949e-06,1.1817190007391687e-06,2.0103388127559348e-06,3.15401994824937e-06,4.418714442351812e-06,1.8638773468969309e-06,2.2495055854318496e-06,2.1387187837741034e-06,1.8569494959977888e-06,9.055397735741283e-07,2.57217468132532e-06,4.4685116385817885e-06,2.2336694038971256e-06,1.2051657478520928e-06,1.8704430590239384e-06
226,1.928001896841853e-06,1.7422935884664463e-06,1.209152438452069e-06,2.0195861883710305e-06,3.107149129181361e-06,4.415863728949319e-06,1.8093641392354163e-06,2.223810137825306e-06,2.1066079016969405e-06,1.8592322479988468e-06,8.89282581615342e-07,2.656037792446503e-06,4.381853268025047e-06,2.242905368801532e-06,1.233001345615276e-06,1.8779365582815073e-06
227,1.9378980484905513e-06,1.7426566431728833e-06,1.2387240868580014e-06,2.028611346860795e-06,3.0577445527442855e-06,4.3975299711486494e-06,1.756931340370915e-06,2.199158252057347e-06,2.0833961663471244e-06,1.8603398937694096e-06,8.741212355819555e-07,2.740561868773288e-06,4.276735023504539e-06,2.250981844853174e-06,1.2591497729620904e-06,1.8823912521538589e-06
228,1.9433083556312517e-06,1.738652037400239e-06,1.2705068207687814e-06,2.037745982392259e-06,3.006682657337416e-06,4.363038128482302e-06,1.7071251203237735e-06,2.1765342768206695e-06,2.070030712762139e-06,1.8601667076671113e-06,8.600389453339904e-07,2.823477335540086e-06,4.155384365627206e-06,2.256710294602432e-06,1.2832457947893241e-06,1.8830915767706568e-06
229,1.944520107718194e-06,1.7301085056585046e-06,1.3043880471928896e-06,2.0471144412390653e-06,2.9549757762906656e-06,4.311708052715262e-06,1.660526074471888e-06,2.1566601241543157e-06,2.0671777266655246e-06,1.8586221543958365e-06,8.469349729717835e-07,2.902166072863872e-06,4.0213686080072495e-06,2.2588191020532508e-06,1.3050442347830995e-06,1.879545770799757e-06
230,1.9417707413937948e-06,1.717243978306393e-06,1.3400529046835608e-06,2.0565610731331287e-06,2.903829375901833e-06,4.2435218812990435e-06,1.6176663226670274e-06,2.1399822042260266e-06,2.0751869700237644e-06,1.8556432259027252e-06,8.346229750795099e-07,2.97396600937064e-06,3.878738696446015e-06,2.2559185061643645e-06,1.3244169488414263e-06,1.8716814108611309e-06
231,1.9353577745409907e-06,1.7007624973752067e-06,1.376977438929029e-06,2.0656865162217776e-06,2.854407039049497e-06,4.1596674628414765e-06,1.578991236962604e-06,2.126679756298664e-06,2.09408328176525e-06,1.8513116725124943e-06,8.228511434516224e-07,3.0365780136469634e-06,3.7313143681136974e-06,2.246563073060706e-06,1.3412904125045914e-06,1.8599837024123034e-06
232,1.9255891771918088e-06,1.6818284591747898e-06,1.4144648850699668e-06,2.073937320596508e-06,2.8076523034101716e-06,4.062623342911823e-06,1.544840347811402e-06,2.1166849218807303e-06,2.123541796462465e-06,1.846002973967935e-06,8.113768810422601e-07,3.088310587366118e-06,3.582396414147217e-06,2.2295352277242585e-06,1.3556277773541774e-06,1.8454749730587806e-06
233,1.91268655236768e-06,1.6618392848586925e-06,1.4517835891485002e-06,2.0807651962807592e-06,2.7643479062757866e-06,3.955728717409126e-06,1.5155117839411893e-06,2.1096705359698297e-06,2.162863975071781e-06,1.8403280622345442e-06,8.000717451657298e-07,3.1280902887649666e-06,3.4347045818789e-06,2.20420627575607e-06,1.3674438744010635e-06,1.8294583924599203e-06
234,1.8968729641151458e-06,1.6421251120944418e-06,1.4883740525783868e-06,2.085823778517337e-06,2.725183182843938e-06,3.8424681923503894e-06,1.4913782535734464e-06,2.105058297358797e-06,2.211049587085133e-06,1.8348842433946942e-06,7.889614583237354e-07,3.1554390604432364e-06,3.29035534968031e-06,2.170636002628495e-06,1.376833016569865e-06,1.8131731844927514e-06
235,1.878593830488778e-06,1.6237862407126375e-06,1.5239773370149097e-06,2.0890231722016256e-06,2.690645995962424e-06,3.7259224010803174e-06,1.4729366149366522e-06,2.1021585555145192e-06,2.26699874983868e-06,1.8300892242320971e-06,7.781828802550141e-07,3.1705677679768232e-06,3.1508773654705612e-06,2.1293128177140114e-06,1.3840609250561242e-06,1.797591980110144e-06
236,1.858577743928569e-06,1.6076951720093488e-06,1.5586075679391567e-06,2.0903654038698803e-06,2.6608983501678882e-06,3.6086028657740786e-06,1.4607410537792853e-06,2.1003893160852963e-06,2.329683597164159e-06,1.8262267353337463e-06,7.67914543829595e-07,3.174482477762354e-06,3.0172187828226475e-06,2.080877594917325e-06,1.3896124198778284e-06,1.7833993013283028e-06
237,1.837634268547474e-06,1.59453014166233e-06,1.5924213200809482e-06,2.0897488504359383e-06,2.6358459805120307e-06,3.4924955884549936e-06,1.455256144480947e-06,2.0993778293576733e-06,2.3981130104346545e-06,1.823530881467444e-06,7.583079867508177e-07,3.168935693756533e-06,2.8897742535081727e-06,2.0261609310526694e-06,1.3940748953919732e-06,1.7710731608588917e-06
238,1.81642001443506e-06,1.5848090205969396e-06,1.6255566169019208e-06,2.086920716500948e-06,2.615315773542348e-06,3.3791522247959345e-06,1.456730152855375e-06,2.0988441796804647e-06,2.4711948659049603e-06,1.822179428542586e-06,7.494279292050389e-07,3.156196612133904e-06,2.768547977540944e-06,1.966397970616275e-06,1.3979887556926237e-06,1.7609645903495125e-06
239,1.7953806441597185e-06,1.5789683130115563e-06,1.6580175441354837e-06,2.0815267676795132e-06,2.5990951250105407e-06,3.269810829097743e-06,1.4651622090361552e-06,2.0983781933090346e-06,2.5476745298528436e-06,1.822262423796197e-06,7.412178607434932e-07,3.1387654538671054e-06,2.6534278563886506e-06,1.9032854165199881e-06,1.4017995604777886e-06,1.7532603606803595e-06
240,1.7748105508473051e-06,1.577424272707567e-06,1.6896359937560166e-06,2.0731500016540624e-06,2.5867584978168003e-06,3.165473910091478e-06,1.4803368199923996e-06,2.0973325079655554e-06,2.6261337024198673e-06,1.8237660318756152e-06,7.335072955455776e-07,3.1191713225523126e-06,2.5444317030409647e-06,1.8388078327180871e-06,1.4058332987695212e-06,1.7478883701914777e-06
241,1.7548943234551641e-06,1.5805331901902367e-06,1.720095884542932e-06,2.061365688992352e-06,2.577467195685622e-06,3.0668623186194027e-06,1.501846902073606e-06,2.0949193814194617e-06,2.705000196978524e-06,1.8266140095537549e-06,7.260903263690386e-07,3.099871587206358e-06,2.441866137249631e-06,1.7749942472102452e-06,1.410232475839336e-06,1.744517213774505e-06
242,1.7356833068011142e-06,1.588473904067171e-06,1.7490265016295907e-06,2.0459053151470573e-06,2.5699748326048257e-06,2.974350483862656e-06,1.5290842414543305e-06,2.0903777402409513e-06,2.7826045736778333e-06,1.8307860518846645e-06,7.188696288436189e-07,3.083164032477969e-06,2.3464253855138747e-06,1.7137362940667987e-06,1.4149334058766384e-06,1.7426247290733345e-06
243,1.7170385517181256e-06,1.6011378522959572e-06,1.7760797576930555e-06,2.0268992603167042e-06,2.562792327904238e-06,2.888043915755473e-06,1.5612883003257457e-06,2.083088001039038e-06,2.8573434133279334e-06,1.8363496025326408e-06,7.119621711188094e-07,3.0710377106374034e-06,2.2591840791647423e-06,1.6566929624468474e-06,1.419707677931024e-06,1.741529929588566e-06
244,1.6986340988168722e-06,1.6180788931037518e-06,1.800871501369809e-06,2.0049965108572788e-06,2.554269385847636e-06,2.807915351076921e-06,1.5976818967511263e-06,2.0726709605578663e-06,2.9278954539895643e-06,1.8433936411682162e-06,7.056850915275858e-07,3.064994633669731e-06,2.1813971896588335e-06,1.6052641060840112e-06,1.424194451213247e-06,1.7404219839992453e-06
245,1.6800479458693948e-06,1.6385049702516777e-06,1.8228928346062268e-06,1.981194207784661e-06,2.542622224141215e-06,2.733833356411428e-06,1.637547209297502e-06,2.0591018519524605e-06,2.9933413218073627e-06,1.8520315176849768e-06,7.00470333510741e-07,3.0659673119180487e-06,2.1141967615073473e-06,1.5605964716363879e-06,1.4279231270793973e-06,1.7385003911027152e-06
246,1.6608363759214763e-06,1.6612818956184456e-06,1.8415840474704903e-06,1.9564722561844507e-06,2.5261310208108576e-06,2.6655491381250202e-06,1.6801842633275055e-06,2.0427323266867634e-06,3.0531395068709485e-06,1.8624242976798938e-06,6.967801612235402e-07,3.0744148029962944e-06,2.0583712904364565e-06,1.5235967443850514e-06,1.430412968511888e-06,1.7352070631160922e-06
247,1.6406069375126416e-06,1.6849617014814318e-06,1.8565466718771049e-06,1.9315121102393835e-06,2.503465142252511e-06,2.602796719283276e-06,1.7248800505758651e-06,2.024126790791041e-06,3.1070114464712145e-06,1.8747648806685806e-06,6.950336936993691e-07,3.0905183374870895e-06,2.0142897771786875e-06,1.4949563300329988e-06,1.4313549302902377e-06,1.7303905668860164e-06
248,1.619222303191779e-06,1.707898817728293e-06,1.8677314151513195e-06,1.9066830905071618e-06,2.4739438632623923e-06,2.545459587052265e-06,1.7709108477008257e-06,2.0038162432163664e-06,3.154802677973897e-06,1.8893013036095838e-06,6.955438041123985e-07,3.1143226375281223e-06,1.9819639924064306e-06,1.4751742334905129e-06,1.430754725533482e-06,1.724293816570167e-06
249,1.5970100078290203e-06,1.728496208618412e-06,1.8755049115698922e-06,1.8822438677130416e-06,2.4376157459723748e-06,2.493583864213808e-06,1.8174675451374396e-06,1.9821771310620524e-06,3.196398043206272e-06,1.906360482523371e-06,6.984820354029991e-07,3.1457712868719423e-06,1.961193153406805e-06,1.4645571127408773e-06,1.4289298383659936e-06,1.717373241114241e-06
250,1.5747188104851536e-06,1.745508031570314e-06,1.8805915957453764e-06,1.8585494811574836e-06,2.395062230998325e-06,2.4471600647032385e-06,1.863501597916874e-06,1.9595153348623807e-06,3.231754232541258e-06,1.9263010611542485e-06,7.038822002981922e-07,3.1846854017229173e-06,1.9516364503866747e-06,1.4631911117389669e-06,1.4263544791192442e-06,1.7100481583962225e-06
251,1.55327575773624e-06,1.7582396856786123e-06,1.883945621006512e-06,1.8360702376318229e-06,2.3470053095527765e-06,2.405879728246458e-06,1.907618806780478e-06,1.9362397011265117e-06,3.2610304436560636e-06,1.94945130603321e-06,7.116674332321623e-07,3.2307096625525534e-06,1.9527724083570426e-06,1.4709028443128852e-06,1.4234577133854612e-06,1.7025416240295994e-06
252,1.5336105939171076e-06,1.766495623796747e-06,1.8866156226344247e-06,1.8152223721524647e-06,2.2940549653283716e-06,2.369076016654777e-06,1.948161935817342e-06,1.91294645948663e-06,3.2846832347010994e-06,1.9760568398136076e-06,7.216771827679228e-07,3.283222970407488e-06,1.963917568081339e-06,1.4872856525068213e-06,1.420520456880426e-06,1.6948935143869666e-06
253,1.5166234191504125e-06,1.7703129198031566e-06,1.8896148776720355e-06,1.7962176768215722e-06,2.236785330320824e-06,2.3358386029257784e-06,1.98351709211154e-06,1.8903286291068855e-06,3.3034058458913793e-06,2.0061986350881014e-06,7.337019055703612e-07,3.3412504038258002e-06,1.9843701893186845e-06,1.5118128343987849e-06,1.417683874774086e-06,1.6870671170363442e-06
254,1.5031569806662893e-06,1.7697586616869918e-06,1.8937811602280376e-06,1.7790716351047741e-06,2.1759505847777286e-06,2.305133845342492e-06,2.0124903295466706e-06,1.8689700944150493e-06,3.3179150071537593e-06,2.039743238827733e-06,7.475244325725643e-07,3.403439158224554e-06,2.0134736646044144e-06,1.5439081149040854e-06,1.4149475647183464e-06,1.6790639335262521e-06
255,1.4939102663583087e-06,1.7649376259051032e-06,1.8996530880037702e-06,1.763670097230133e-06,2.1126054906483996e-06,2.2757695355032125e-06,2.034521684912601e-06,1.8491735988766608e-06,3.3287176316273724e-06,2.076367573806384e-06,7.62921693339867e-07,3.4681712366528993e-06,2.050469295042874e-06,1.5828852612499293e-06,1.4121303253166675e-06,1.6710309230755566e-06
256,1.489382247636391e-06,1.7560491524204077e-06,1.9074078174555775e-06,1.7497601689573767e-06,2.0480674818596974e-06,2.2462875615774686e-06,2.0495996307252863e-06,1.8309382690291012e-06,3.336154872261414e-06,2.1155442500222004e-06,7.796132393482145e-07,3.5338106114281383e-06,2.0943213455818424e-06,1.6278529391709437e-06,1.408895213301792e-06,1.6633061881419284e-06
257,1.4898862819857649e-06,1.7433806277049233e-06,1.916868836422418e-06,1.7368614799550362e-06,1.983744399948222e-06,2.215006640378015e-06,2.0579449415703925e-06,1.8140920343351286e-06,3.3408312542285307e-06,2.1564842033534164e-06,7.972095309274404e-07,3.5989083498895244e-06,2.143693177590448e-06,1.677703750918626e-06,1.40487023759359e-06,1.6563637981816948e-06
258,1.4955602674514272e-06,1.7273132772760332e-06,1.9275896469320898e-06,1.7241703635237939e-06,1.9209075808676947e-06,2.1802537354037146e-06,2.0597636061799226e-06,1.7984958166703553e-06,3.3440260306608503e-06,2.1982377063206784e-06,8.152190136645357e-07,3.662229842865334e-06,2.1970134543740283e-06,1.731204298155717e-06,1.3997723438984833e-06,1.650736397748444e-06
259,1.5063235296063216e-06,1.7083851084493927e-06,1.9389828368777535e-06,1.710542806995211e-06,1.8605171979299126e-06,2.1406883457060427e-06,2.055299143206877e-06,1.7841739026305747e-06,3.347717480580887e-06,2.2399838660575625e-06,8.331186124322606e-07,3.7227219194422752e-06,2.2525652863084533e-06,1.7871072672560301e-06,1.3934332271834826e-06,1.6469670130190027e-06
260,1.5218234236575999e-06,1.6873284249339139e-06,1.950382524507906e-06,1.694618035645142e-06,1.8031638833412523e-06,2.0956077523513866e-06,2.0450333994355567e-06,1.7712411957912693e-06,3.3543011702310172e-06,2.2812038188272987e-06,8.504218041915495e-07,3.7795503886235393e-06,2.308555559646806e-06,1.8441362067261674e-06,1.385753088260128e-06,1.6455680663840307e-06
261,1.5414295769976302e-06,1.6649864400443656e-06,1.961023620024093e-06,1.6750855614200871e-06,1.7491204962206778e-06,2.0450658376044857e-06,2.029735243633865e-06,1.7596977243893242e-06,3.366232671580145e-06,2.3215419249410737e-06,8.667012041743342e-07,3.83211757899758e-06,2.36307585200756e-06,1.900814268552552e-06,1.3767214137860999e-06,1.6470112467710888e-06
262,1.5642912917862357e-06,1.642154352650281e-06,1.970105602719862e-06,1.6510150628578764e-06,1.6984333093177976e-06,1.9897137452601983e-06,2.0102770100073843e-06,1.7493393875485154e-06,3.385719319230278e-06,2.3605640036750305e-06,8.816125412093028e-07,3.879917333215429e-06,2.4140845077038447e-06,1.955319691366702e-06,1.3665046895984958e-06,1.651717239010062e-06
263,1.589400719321385e-06,1.619466236252334e-06,1.9770120045324083e-06,1.6221094632649087e-06,1.6509747658785667e-06,1.9305292643580957e-06,1.987390573119514e-06,1.739878980583141e-06,3.414488387639702e-06,2.397632903117379e-06,8.949310539340267e-07,3.922280859399664e-06,2.4596095881879267e-06,2.005547364078578e-06,1.3554331140069584e-06,1.6599697136829535e-06
264,1.6155730909108953e-06,1.5973473155848076e-06,1.981518046839188e-06,1.5887717511536228e-06,1.6064357182756058e-06,1.8686790992046536e-06,1.961578670235789e-06,1.7310996586139132e-06,3.4536619572106635e-06,2.4319229936059003e-06,9.065461285029248e-07,3.958250518038196e-06,2.49804633712123e-06,2.0494238124154254e-06,1.3438644056495302e-06,1.671835222200081e-06
265,1.6414013802392104e-06,1.5759983627238562e-06,1.983806476298088e-06,1.551973090153058e-06,1.5642879416032255e-06,1.8055003454743764e-06,1.9332261659099183e-06,1.7228992826678166e-06,3.503765250095158e-06,2.462574181450618e-06,9.164211866218929e-07,3.986746914784374e-06,2.5283472320126655e-06,2.0853516875408307e-06,1.3320621193224869e-06,1.6871712631002982e-06
266,1.665356552543217e-06,1.5554530844988698e-06,1.9842767240088706e-06,1.5129994762628544e-06,1.5238043927486725e-06,1.7424126525252049e-06,1.902808759474874e-06,1.7152776280227266e-06,3.5648331986872564e-06,2.488880635628691e-06,9.24566371269996e-07,4.006955193149404e-06,2.55007216659072e-06,2.1124241250283024e-06,1.3201364504280677e-06,1.7056324345979313e-06
267,1.686038771486716e-06,1.5357525447611804e-06,1.9833129152986546e-06,1.4731860962513963e-06,1.484246127484066e-06,1.680732685490306e-06,1.8710845615397321e-06,1.708303208664406e-06,3.636591236783988e-06,2.5103238761167403e-06,9.31046398046799e-07,4.01872371039404e-06,2.5632635458567703e-06,2.1302060179585873e-06,1.3080426627800216e-06,1.7266181994518387e-06
268,1.7023985696289527e-06,1.5171395254754936e-06,1.9811643516481493e-06,1.4337240124153797e-06,1.4451964225783605e-06,1.6215276348213451e-06,1.8391390068732896e-06,1.7020080220907137e-06,3.7186633225928526e-06,2.5264059438489436e-06,9.360067497704824e-07,4.022799307785546e-06,2.568246683000404e-06,2.138489342240221e-06,1.2956404386731768e-06,1.7492495424446915e-06
269,1.7138246798787703e-06,1.5001084124793165e-06,1.977907665363098e-06,1.3955672951945434e-06,1.406837411986107e-06,1.5655805921444534e-06,1.808217492270584e-06,1.696235755700016e-06,3.8106583254753288e-06,2.5364058675443446e-06,9.396608135097103e-07,4.020807604763354e-06,2.5656322603147682e-06,2.1374122647323554e-06,1.2827301153654283e-06,1.7724545396746411e-06
270,1.7201651806999245e-06,1.48528995514441e-06,1.9734866104841227e-06,1.3594129564118787e-06,1.3699410816010152e-06,1.5134451499755816e-06,1.779507324483695e-06,1.6905479852024877e-06,3.912067188244727e-06,2.5392909104378926e-06,9.422255027851427e-07,4.014950835213465e-06,2.5564661417180932e-06,2.1276602690922916e-06,1.2690063927535728e-06,1.7951192979083914e-06
271,1.7217307982571735e-06,1.4732903534279649e-06,1.9678840986759128e-06,1.3257454450730336e-06,1.3355821436048814e-06,1.4655317337909371e-06,1.7540529455531372e-06,1.6842583063309318e-06,4.0221330646519414e-06,2.5339720558234153e-06,9.438863909729097e-07,4.007513477841648e-06,2.5421763012730435e-06,2.1104016955678997e-06,1.254002018523174e-06,1.8161898430284192e-06
272,1.7191898527488864e-06,1.4645708005717761e-06,1.961311807862702e-06,1.29496614476786e-06,1.3048609271180148e-06,1.422173077427631e-06,1.7327387760118678e-06,1.6766206756005945e-06,4.139884466576086e-06,2.519802596219198e-06,9.448188670316061e-07,4.000482266817405e-06,2.5242838757108052e-06,2.0870460549787996e-06,1.2371038561772738e-06,1.834680481986958e-06
273,1.7133046343323372e-06,1.4593735717881425e-06,1.9542703859750502e-06,1.2675259061141804e-06,1.2788105639843374e-06,1.3836874078304713e-06,1.7162218623311502e-06,1.6670976060343655e-06,4.264281717328032e-06,2.4969562368474125e-06,9.451777674700221e-07,3.995522849218143e-06,2.504179427367983e-06,2.059039524072036e-06,1.21768047043459e-06,1.849658585258427e-06
274,1.704660756133871e-06,1.4576859087403629e-06,1.9474678686644684e-06,1.2439320858036762e-06,1.2583505503104008e-06,1.3504354466440543e-06,1.7048513900686737e-06,1.6555028381282086e-06,4.394232873660969e-06,2.466411633554294e-06,9.450450471839511e-07,3.9941203431439535e-06,2.4831380311926653e-06,2.027781013076652e-06,1.1952995751426978e-06,1.860311485360693e-06
275,1.6935361442775212e-06,1.4592410121127365e-06,1.9416352128874153e-06,1.2246720183269486e-06,1.2442005185692475e-06,1.322798746920734e-06,1.6986458979593735e-06,1.6418843154664056e-06,4.528361778942901e-06,2.4295886447901474e-06,9.443995390560726e-07,3.997554612577903e-06,2.4624132242615354e-06,1.994601540677218e-06,1.1698982643644565e-06,1.866117162030038e-06
276,1.6798973607346998e-06,1.46353999351081e-06,1.937315996259209e-06,1.210168996610833e-06,1.2368394715887407e-06,1.3010822008497656e-06,1.6973100016291862e-06,1.6262653236226184e-06,4.664724492983146e-06,2.387914382164041e-06,9.431260591600024e-07,4.006703080150522e-06,2.4431677445350432e-06,1.960701763546994e-06,1.141768035896778e-06,1.8669829993128528e-06
277,1.6635302032161954e-06,1.4698514579778209e-06,1.9347256407317455e-06,1.2007705840608632e-06,1.236543306217335e-06,1.2854180571065317e-06,1.7002378559674355e-06,1.6084804388499422e-06,4.800720309211213e-06,2.3426406788504776e-06,9.41109655243935e-07,4.021893089260706e-06,2.4262932499407634e-06,1.9270260909808094e-06,1.1113757970820521e-06,1.8632081989492464e-06
278,1.6443215700297882e-06,1.4771717382990805e-06,1.9336935850123228e-06,1.1967471548979494e-06,1.2434651803459259e-06,1.2757322909806602e-06,1.7065303764285484e-06,1.588196540535664e-06,4.93320219623254e-06,2.2949591213756183e-06,9.384060484676171e-07,4.042933181727379e-06,2.412306486148682e-06,1.8941438063923873e-06,1.0791653887640663e-06,1.8553122031927919e-06
279,1.6225299803166167e-06,1.484212855499986e-06,1.9336508634117787e-06,1.1982903374018665e-06,1.257719514925838e-06,1.2718213837540842e-06,1.7151033191082576e-06,1.565033147241179e-06,5.058744347708247e-06,2.2460868856855183e-06,9.353105802126826e-07,4.069240223051943e-06,2.4013234655100376e-06,1.8622223375673388e-06,1.0454767030413374e-06,1.8438412580210115e-06
280,1.5988174511874278e-06,1.4895288501891646e-06,1.933670601497394e-06,1.2054710110205072e-06,1.2794165398741161e-06,1.2735264529460011e-06,1.7249132361303947e-06,1.5386825258546438e-06,5.174099560746938e-06,2.19712670547746e-06,9.322297049071039e-07,4.099923407475417e-06,2.3931107802693236e-06,1.8311497036578845e-06,1.0106285008115498e-06,1.829199263568954e-06
281,1.5740152002554371e-06,1.4918149029034046e-06,1.932577744178451e-06,1.218177062984742e-06,1.308612739836874e-06,1.2808608633989247e-06,1.7352576924946685e-06,1.5089861354302405e-06,5.276675298576492e-06,2.1489005387033087e-06,9.294957111274258e-07,4.133838269516367e-06,2.3872492718528714e-06,1.8007608885993793e-06,9.75078867770596e-07,1.8115974428377452e-06
282,1.5488446966184914e-06,1.490220223206129e-06,1.9291076406133764e-06,1.2360818588932508e-06,1.3452188995811308e-06,1.2939718556402967e-06,1.746006665364199e-06,1.4759680982507408e-06,5.36475061116177e-06,2.101989748199375e-06,9.272673279034388e-07,4.169726570200127e-06,2.383270867026587e-06,1.7710177438868862e-06,9.395052140500441e-07,1.7911933192606787e-06
283,1.5238478831614727e-06,1.484413142291026e-06,1.9221066222837966e-06,1.2586408960292335e-06,1.3889393133570106e-06,1.3130101659725572e-06,1.757570544212753e-06,1.4398605739260878e-06,5.4374899724122e-06,2.0569237336647707e-06,9.25504656407965e-07,4.206409600653681e-06,2.3807296029746414e-06,1.7420664400049833e-06,9.047302058476162e-07,1.76828320017555e-06
284,1.499530524147158e-06,1.4743884320156117e-06,1.910756907329645e-06,1.2851226074530226e-06,1.4392738376862396e-06,1.3380304710070033e-06,1.7705839727686057e-06,1.401130335811099e-06,5.495006375842398e-06,2.014253574740984e-06,9.239664143084405e-07,4.242811643617074e-06,2.3794478678145964e-06,1.7142378052920293e-06,8.715733626041704e-07,1.7433992546823436e-06
285,1.4764774828940084e-06,1.460321482120958e-06,1.8947317979784176e-06,1.314684380977876e-06,1.4956057716692441e-06,1.3689307998447017e-06,1.785546981396733e-06,1.3604462158789627e-06,5.53843614856575e-06,1.974457399657543e-06,9.222384615416603e-07,4.2777484680206725e-06,2.379888782755447e-06,1.6880514276872718e-06,8.407509084320369e-07,1.7173293881494e-06
286,1.455303523529323e-06,1.4426138706077054e-06,1.8741624662682378e-06,1.346448376358048e-06,1.557338183868908e-06,1.4054160359206507e-06,1.8026595953097786e-06,1.3185469911388285e-06,5.569738515342876e-06,1.9379098282717055e-06,9.198381205209945e-07,4.309791699714182e-06,2.38318343366761e-06,1.664186986390467e-06,8.128518341785737e-07,1.691073358196537e-06
287,1.4365762316054052e-06,1.421934409259002e-06,1.849415771243913e-06,1.3795428984569773e-06,1.6239293338022048e-06,1.4470245086736443e-06,1.821829201761944e-06,1.2760877980107888e-06,5.5911152591579895e-06,1.904957110198812e-06,9.163742161648333e-07,4.337474442992212e-06,2.390730624528325e-06,1.643382593002794e-06,7.883525949518004e-07,1.6656853444808015e-06
288,1.4208091682499825e-06,1.399106603261295e-06,1.820894529100385e-06,1.4131217477134013e-06,1.6947817031416617e-06,1.4931970911922941e-06,1.8427294887892562e-06,1.2335651795467726e-06,5.6043673577789935e-06,1.8758876672995157e-06,9.116329952995094e-07,4.359625330060264e-06,2.4038053653528727e-06,1.6263126931439702e-06,7.67637668420302e-07,1.6420650292354915e-06
289,1.4084379396296883e-06,1.3749323860559528e-06,1.7890650128197749e-06,1.4463663902898622e-06,1.7691102613869232e-06,1.543277225941178e-06,1.8649390965212504e-06,1.191316365948285e-06,5.61070424198467e-06,1.850782192441533e-06,9.055099327749701e-07,4.375458528967375e-06,2.4233941123194222e-06,1.6135160681520038e-06,7.509931548785539e-07,1.6208471282972875e-06
290,1.3997528454429007e-06,1.3500967877191842e-06,1.754618683601143e-06,1.4784810348511973e-06,1.8458717730192437e-06,1.5964124423120303e-06,1.88817867970634e-06,1.149570174703642e-06,5.611101189349704e-06,1.8294064261929349e-06,8.978876618646604e-07,4.384377993610858e-06,2.4501631733210877e-06,1.6053954602122313e-06,7.385790055887513e-07,1.6024189761486065e-06
291,1.3948342884157657e-06,1.3251567917047984e-06,1.7185335684789285e-06,1.5087007787887178e-06,1.9237681106067295e-06,1.6514701754260113e-06,1.9124589427110704e-06,1.1085473263793238e-06,5.606686873257528e-06,1.8111925530573332e-06,8.885875937422205e-07,4.385717458189349e-06,2.484541509987046e-06,1.6022516352361412e-06,7.304321867630316e-07,1.5869546956112962e-06
292,1.3934958675421024e-06,1.3005127950528845e-06,1.6819463323919745e-06,1.5363131145175659e-06,2.0012986571586373e-06,1.7070768204088697e-06,1.9380108296956907e-06,1.068525044608677e-06,5.598741543684234e-06,1.795317932028292e-06,8.774064051849484e-07,4.378607491388386e-06,2.5269678681919826e-06,1.6042728499267636e-06,7.265232279527083e-07,1.5744046612680273e-06
293,1.3952611768421134e-06,1.27636261645836e-06,1.6459222976720144e-06,1.560716351275804e-06,2.0767825853185356e-06,1.7617899025982172e-06,1.965140032590209e-06,1.0298154117250689e-06,5.588482442965818e-06,1.7809137196409563e-06,8.641932967391815e-07,4.3620729930131535e-06,2.5782420800328377e-06,1.6114706834604075e-06,7.268207351896065e-07,1.564521925269301e-06
294,1.3993834569462229e-06,1.2527542736893081e-06,1.611286894290894e-06,1.58154034338582e-06,2.148396251598349e-06,1.8143193314287048e-06,1.9941823751386995e-06,9.927448947415105e-07,5.576952789256299e-06,1.7672543199595926e-06,8.489224468701336e-07,4.3353869842667496e-06,2.6397645670894374e-06,1.6236300540320775e-06,7.313214388517231e-07,1.556974814475317e-06
295,1.4048792420128958e-06,1.229777631601967e-06,1.5785822257278573e-06,1.5987392664368163e-06,2.214359077181308e-06,1.8636314044319519e-06,2.0255283779310225e-06,9.576569520911614e-07,5.565034761196432e-06,1.7537350041280442e-06,8.317069892017162e-07,4.298507719870764e-06,2.7134335046750413e-06,1.6403109859432152e-06,7.400675352118852e-07,1.5514472322483288e-06
296,1.4106212428570126e-06,1.2077544355463175e-06,1.548081499127814e-06,1.612525972031687e-06,2.2732076419925246e-06,1.9088492272581284e-06,2.0595691279186416e-06,9.248694343126833e-07,5.55346036892452e-06,1.7397822898279502e-06,8.127367274759066e-07,4.2522670983386715e-06,2.80125149738028e-06,1.660892175010868e-06,7.53146120710635e-07,1.547654299060054e-06
297,1.415537366247479e-06,1.1872379790597695e-06,1.5198486998890293e-06,1.6231783228515454e-06,2.3239979443826394e-06,1.949157218175521e-06,2.0965498779570292e-06,8.946282454410001e-07,5.542723635830273e-06,1.7248748588790483e-06,7.922189412335152e-07,4.198145919337018e-06,2.905028111440662e-06,1.6846124258714832e-06,7.706302300006959e-07,1.5453389237387672e-06
298,1.41880257620065e-06,1.1688208324853197e-06,1.4938525270809754e-06,1.630854802252863e-06,2.3663889479774995e-06,1.9839157984065967e-06,2.136444849383567e-06,8.67143400207765e-07,5.5328939047184465e-06,1.7085567854464947e-06,7.704021769995936e-07,4.137809130076368e-06,3.026411959738701e-06,1.7105761119224496e-06,7.924983391074362e-07,1.5443029513048973e-06
299,1.4198546164730286e-06,1.1529411985771638e-06,1.4700249876684824e-06,1.6355054561427413e-06,2.4006045910350356e-06,2.012821248371564e-06,2.178875514875852e-06,8.426522863967376e-07,5.523473454556815e-06,1.6904372220598008e-06,7.476116526977599e-07,4.072694629694448e-06,3.166999604936867e-06,1.7377886813403673e-06,8.185877571967156e-07,1.5444007841762018e-06
300,1.4182804549665369e-06,1.1398310909590738e-06,1.4482156011462842e-06,1.636971239037435e-06,2.4272741211852568e-06,2.0359170276732746e-06,2.2230272127916605e-06,8.214128526221814e-07,5.513455361956924e-06,1.670280698902946e-06,7.241956908329462e-07,4.003771307313945e-06,3.3282295502250524e-06,1.7652337226501033e-06,8.485826308745687e-07,1.5454424551010237e-06
301,1.4138341045841511e-06,1.129561744772365e-06,1.4281680327314125e-06,1.6353141455454172e-06,2.4472101893661347e-06,2.0535221504738946e-06,2.2675976529168997e-06,8.036669536468403e-07,5.501605531264563e-06,1.6480542326250997e-06,7.004494594470842e-07,3.931396429594797e-06,3.511149995690398e-06,1.791858651192837e-06,8.820463924281753e-07,1.5471244780148153e-06
302,1.4066508856819859e-06,1.1220886143358734e-06,1.4095768901225964e-06,1.6311394941084347e-06,2.46119060292396e-06,2.066139309224252e-06,2.310864506290855e-06,7.89645043529131e-07,5.4868413377606695e-06,1.6238261358845964e-06,6.766334805027328e-07,3.8552703417070735e-06,3.716275600933822e-06,1.8165348546550115e-06,9.185065546774373e-07,1.5490984172259117e-06
303,1.3973668060084397e-06,1.1173077308169474e-06,1.3921333957622931e-06,1.6255832759569602e-06,2.469800204428234e-06,2.0742967110303676e-06,2.3509093944749756e-06,7.795740979892096e-07,5.468441102020058e-06,1.5977049245336626e-06,6.530447603206264e-07,3.7745764763025848e-06,3.943527839572945e-06,1.8382027819648998e-06,9.575211379333308e-07,1.5510762860190665e-06
304,1.3869436307808364e-06,1.1151240772475845e-06,1.3755476121572438e-06,1.619982477631976e-06,2.4734428680044765e-06,2.0783376433669422e-06,2.3858484476896125e-06,7.736455443885521e-07,5.44586136485644e-06,1.5699694241958036e-06,6.300128435962006e-07,3.6882481463625518e-06,4.192151601518036e-06,1.8561455527278317e-06,9.986517048620904e-07,1.5528495891800644e-06
305,1.3763590646645482e-06,1.1154472063165088e-06,1.3596226212792452e-06,1.6155332183914618e-06,2.4725155281648187e-06,2.078279482725398e-06,2.413867506657331e-06,7.719782072598494e-07,5.418358233700703e-06,1.541195537038157e-06,6.078229015841724e-07,3.5952103430526306e-06,4.460677407060442e-06,1.8702082442571306e-06,1.0413890315819767e-06,1.5542568599611812e-06
306,1.3663944283840205e-06,1.118145479049525e-06,1.3443374025935479e-06,1.6131234910175688e-06,2.467511126295406e-06,2.0738485358305187e-06,2.4332194893428282e-06,7.74612722182955e-07,5.384925036625813e-06,1.5121743694226826e-06,5.866687525653146e-07,3.4945818743079148e-06,4.746984067081517e-06,1.8808910751741254e-06,1.085127476509743e-06,1.5551688780481796e-06
307,1.3575927580226504e-06,1.123056950213242e-06,1.3298117225470633e-06,1.6133013244012637e-06,2.45894013706253e-06,2.064662544122163e-06,2.442448149017065e-06,7.815431604270431e-07,5.344577094003277e-06,1.4837333140766861e-06,5.666663107809041e-07,3.385893646585869e-06,5.048341052105294e-06,1.8892584552461052e-06,1.1292216377838887e-06,1.5554823412685588e-06
308,1.3503419976802166e-06,1.1300601077804274e-06,1.3161593474131539e-06,1.6162862728396045e-06,2.4472597414533378e-06,2.0504357735592793e-06,2.4406482643401012e-06,7.927898279189923e-07,5.296402387506861e-06,1.4566169237967182e-06,5.478888513131321e-07,3.2692574500624147e-06,5.3615195034280265e-06,1.896640836972449e-06,1.1730672383593304e-06,1.5550646550281305e-06
309,1.3449631645258235e-06,1.13920647461497e-06,1.3033930853431348e-06,1.6219747053762295e-06,2.432961611141375e-06,2.031129028278128e-06,2.42748303934821e-06,8.084585181113534e-07,5.239200030533687e-06,1.4314404126466417e-06,5.304005535835261e-07,3.1453730867555394e-06,5.683158784763732e-06,1.9042731133235711e-06,1.2160880890979432e-06,1.5536374663866413e-06
310,1.3416968735814206e-06,1.1508488051961086e-06,1.291478404551234e-06,1.6299539448386254e-06,2.4167007277742413e-06,2.0070417238236322e-06,2.403069974761006e-06,8.28699244919543e-07,5.171343834377637e-06,1.4087269760156942e-06,5.142845502999461e-07,3.015428259112829e-06,6.010159127323257e-06,1.913073547733022e-06,1.2576215846562525e-06,1.550696533895395e-06
311,1.3406482341132593e-06,1.1655944756721728e-06,1.280424472816843e-06,1.6395650232414967e-06,2.3992849222064386e-06,1.978820078456128e-06,2.3679274658585355e-06,8.536037807135591e-07,5.09137332017237e-06,1.389019348782506e-06,4.996582006198232e-07,2.881020333124104e-06,6.339719164809561e-06,1.923629375307277e-06,1.296843087363324e-06,1.5456162479038522e-06
312,1.341801859740383e-06,1.1840831849572629e-06,1.2702743241726257e-06,1.649966487903521e-06,2.3815372810447877e-06,1.9473366210066773e-06,2.322955043331095e-06,8.831506092398417e-07,4.998925276649832e-06,1.3729338674674516e-06,4.866613604788874e-07,2.7440590272584253e-06,6.668929070779525e-06,1.9363026400610734e-06,1.3328129721269874e-06,1.5379185661941577e-06
313,1.3450562971625063e-06,1.2067757247477724e-06,1.2610399699635052e-06,1.6601320813169633e-06,2.364151893636643e-06,1.9134905616303796e-06,2.2693316249083344e-06,9.172091572846094e-07,4.895252533775389e-06,1.3610694203328679e-06,4.754236190674534e-07,2.6065612286662796e-06,6.994186859485966e-06,1.9513074427803926e-06,1.3646085803370548e-06,1.5274230578849718e-06
314,1.350189643030944e-06,1.233860464226866e-06,1.2527102113551535e-06,1.6688771400877095e-06,2.347574013927193e-06,1.8780682045828374e-06,2.208304591516523e-06,9.555665140564618e-07,4.782992084543313e-06,1.3538753667764072e-06,4.6604045821639815e-07,2.4704348061157876e-06,7.310991087002406e-06,1.9686782201829007e-06,1.391472522609945e-06,1.5141249529740594e-06
315,1.3568188024086435e-06,1.265243503547327e-06,1.2453118949891129e-06,1.675015727876346e-06,2.3318966529064847e-06,1.8417279736888767e-06,2.1409893337079816e-06,9.979792991482435e-07,4.665366549344335e-06,1.3515843611483216e-06,4.5857534322669674e-07,2.3373783899762602e-06,7.614394552164576e-06,1.988188187205644e-06,1.41290250418139e-06,1.4980373506391118e-06
316,1.364464861190609e-06,1.3005843988710671e-06,1.2389279450978325e-06,1.6775289429316365e-06,2.316803646874907e-06,1.805012100605503e-06,2.068346176427306e-06,1.0442195519699338e-06,4.545362963110641e-06,1.3541958585576354e-06,4.530771571007703e-07,2.208829825474619e-06,7.899757441176847e-06,2.009302961783827e-06,1.4286650386378209e-06,1.4791874145390588e-06
317,1.3727240966841025e-06,1.3393809927870382e-06,1.233711309776923e-06,1.6756304588456157e-06,2.3015858108511924e-06,1.7682831787215902e-06,1.9913373080775485e-06,1.0940307395983462e-06,4.425383089748099e-06,1.3615115073277117e-06,4.4958832549514984e-07,2.085877884019192e-06,8.163391243682272e-06,2.03116298387028e-06,1.4388114226264156e-06,1.457653639357876e-06
318,1.381431419236959e-06,1.3810584030478321e-06,1.2299222254994143e-06,1.6688179376327327e-06,2.2852705460078986e-06,1.7316559616496864e-06,1.911100791326287e-06,1.1470103760964177e-06,4.307353878081622e-06,1.3732502925150836e-06,4.481313384236036e-07,1.9692385503019562e-06,8.403008552117504e-06,2.052586957442237e-06,1.4436732560578117e-06,1.4335647847593264e-06
319,1.3906750841539102e-06,1.4249985278868873e-06,1.2278719206406213e-06,1.656960832284727e-06,2.2668659244327643e-06,1.6950385099002767e-06,1.829015748739537e-06,1.2025245444616196e-06,4.193030252682553e-06,1.3891857715251745e-06,4.486832287282064e-07,1.8593746790685841e-06,8.61786354816107e-06,2.0722269110408475e-06,1.4437370847178014e-06,1.4071380801250533e-06
320,1.4006523973225654e-06,1.4705480605178742e-06,1.227769935781056e-06,1.6402903230684368e-06,2.2455679862154283e-06,1.658248402079629e-06,1.7466377488358306e-06,1.2596876831208696e-06,4.0843229463775734e-06,1.4092228684823702e-06,4.511514570669276e-07,1.756631327651863e-06,8.808408981003772e-06,2.0889332091291116e-06,1.4395216782546634e-06,1.378761353315407e-06
321,1.4115778616372722e-06,1.5170252360260968e-06,1.229629909806031e-06,1.6192102327221082e-06,2.2207531491680485e-06,1.621110998238404e-06,1.6655534494679336e-06,1.317405843377928e-06,3.983480443814645e-06,1.433410581898722e-06,4.55367396984624e-07,1.6612375695161212e-06,8.975541160112666e-06,2.1020757423659293e-06,1.4315862678049871e-06,1.3490247015457368e-06
322,1.4237820138370103e-06,1.5636672809348595e-06,1.2333018370926395e-06,1.5940955674774109e-06,2.191831262131639e-06,1.5835180837421303e-06,1.5872456365107003e-06,1.374518462236998e-06,3.892983049540137e-06,1.4618988046421474e-06,4.6111080732229894e-07,1.5731979813121162e-06,9.119758156669512e-06,2.1115976611201378e-06,1.420512453222745e-06,1.3186713162970867e-06
323,1.4378103058750774e-06,1.6095735017439295e-06,1.2385794072313478e-06,1.5652829841146624e-06,2.158247956492377e-06,1.5454561821186828e-06,1.5130207166434754e-06,1.4300225874733074e-06,3.815232750900107e-06,1.4948233051657794e-06,4.6815762815380885e-07,1.4922056957233938e-06,9.240549864948522e-06,2.1179206023170305e-06,1.4067978801288788e-06,1.2885040251634821e-06
324,1.4543228389690974e-06,1.6537620640696572e-06,1.245303362298215e-06,1.5332206748573208e-06,2.1197048133312045e-06,1.5069971369651713e-06,1.4439717613024323e-06,1.483238169079982e-06,3.752257826392587e-06,1.532155523111106e-06,4.763397696725054e-07,1.4176685521286104e-06,9.336098767375597e-06,2.1218443960426403e-06,1.3908580892363391e-06,1.2592694173051594e-06
325,1.4738902506924467e-06,1.695339050773724e-06,1.253379586007995e-06,1.4986066257422246e-06,2.07633108506175e-06,1.4682579989859748e-06,1.3809485850482599e-06,1.5337754282802026e-06,3.705545276947761e-06,1.5735880123005391e-06,4.855871811219403e-07,1.3488696539061642e-06,9.403119148396476e-06,2.1243692035208077e-06,1.373173798271035e-06,1.2315541673304077e-06
326,1.496862019416843e-06,1.7336741092074445e-06,1.2627106393609347e-06,1.4624108894573148e-06,2.028615567776844e-06,1.4293795755733424e-06,1.3245576038460475e-06,1.5814087059211089e-06,3.676003217714274e-06,1.6184865043102707e-06,4.958978129009244e-07,1.2852088772679944e-06,9.43676161280764e-06,2.126403458291059e-06,1.3543658332029952e-06,1.2057473518309729e-06
327,1.5233391831553251e-06,1.768453044329473e-06,1.2731749457933825e-06,1.425767235750504e-06,1.9772054250009355e-06,1.3905533645715034e-06,1.2752066630355222e-06,1.6260728993482545e-06,3.6640103064381133e-06,1.6659237448174812e-06,5.072511811606376e-07,1.2264001976785562e-06,9.430926045907305e-06,2.128507802423911e-06,1.3350850860969643e-06,1.182072074696078e-06
328,1.5531914488473344e-06,1.7995833604535663e-06,1.2847245885785908e-06,1.389819000428081e-06,1.9227852094727753e-06,1.3520386333473718e-06,1.2331494019041071e-06,1.6679151815096092e-06,3.669433613129657e-06,1.7147997015597244e-06,5.195522540444359e-07,1.1725304938808774e-06,9.379346892109841e-06,2.1308157198628165e-06,1.315850474884105e-06,1.160633337454257e-06
