,EMG1,EMG2,EMG3,EMG4,EMG5,EMG6,EMG7,EMG8,EMG9,EMG10,EMG11,EMG12,EMG13,EMG14,EMG15,EMG16
0,1.1458810589463541e-07,2.055518417732212e-06,4.2250801600142084e-07,3.141590745539964e-07,6.034008631824388e-07,2.4920440475887913e-07,2.0121354050824303e-07,-3.7841025496627034e-07,5.1217291861915e-08,4.69078034564499e-07,2.294696901400344e-07,2.2585467864125425e-06,3.463131889456408e-07,9.324550848873341e-08,2.4073944121712708e-08,7.121299859307962e-07
1,2.9711261378812217e-07,3.320817299930626e-06,5.205843087915506e-07,4.3836723700738307e-07,7.636418177568604e-07,3.6847222116723853e-07,2.996790115280906e-07,-1.3691888648765457e-07,2.977624365876861e-07,5.767505437411724e-07,3.433145249070197e-07,2.4650239707132873e-06,4.6750383845821033e-07,2.0269856637318466e-07,2.722959009886625e-07,8.726376149672152e-07
2,4.786131555547777e-07,4.55667643908444e-06,6.151519466786495e-07,5.620216084300202e-07,9.213440129477221e-07,4.874949288031037e-07,3.962989935232421e-07,9.574694671638582e-08,5.362503576128896e-07,6.836439714667739e-07,4.567788117200396e-07,2.6829280315640103e-06,5.875931514881738e-07,3.1097687690844436e-07,5.106820567200881e-07,1.0382973851390748e-06
3,6.569854463724648e-07,5.752980792200801e-06,7.058074727955506e-07,6.833036823618876e-07,1.074162753931819e-06,6.044508708228238e-07,4.888555181415682e-07,3.181665872944401e-07,7.640152459417189e-07,7.864163809829308e-07,5.678571657963693e-07,2.9105170475080694e-06,7.039041128414458e-07,4.16061707002435e-07,7.348045266247804e-07,1.2090379721275082e-06
4,8.302611315887846e-07,6.899994574113986e-06,7.921385675209922e-07,8.005186956580929e-07,1.220330322504303e-06,7.177761694344044e-07,5.758591705164924e-07,5.291065850209577e-07,9.784282985683358e-07,8.823407588872377e-07,6.746237947072638e-07,3.1463106894822688e-06,8.143795381117303e-07,5.162500252194071e-07,9.41094076712941e-07,1.3846156918305902e-06
5,9.967150732737114e-07,7.988453896513274e-06,8.736834986038196e-07,9.122716256942596e-07,1.3586117606250784e-06,8.263962572346739e-07,6.56610921058107e-07,7.274096007595746e-07,1.1771252951840817e-06,9.695632445856319e-07,7.75325127410586e-07,3.389296395809809e-06,9.177652034994332e-07,6.103096942081236e-07,1.1269622984502558e-06,1.564531847531692e-06
6,1.1549398200845262e-06,9.00951265829403e-06,9.49910476484765e-07,1.0175443417024754e-06,1.4882817030807134e-06,9.29769423417715e-07,7.31086985566735e-07,9.120051452832862e-07,1.3583840962071088e-06,1.0471715449719845e-06,8.686416867448076e-07,3.6388678205382494e-06,1.0134905826593025e-06,6.975831150548287e-07,1.2907851151196261e-06,1.747995629205093e-06
7,1.3037980124959788e-06,9.954765737579806e-06,1.020232830300756e-06,1.1156095456205746e-06,1.6091726303258483e-06,1.0277027773430294e-06,7.997110353836945e-07,1.0820169112880893e-06,1.5212686747803099e-06,1.1150292585703612e-06,9.539180490513567e-07,3.894488388509159e-06,1.1014044664610267e-06,7.779463568132095e-07,1.4318195548833078e-06,1.9339253756587744e-06
8,1.442381919698865e-06,1.081656988516296e-05,1.0840831077858799e-06,1.2059025383153756e-06,1.7216202070370826e-06,1.1201001772378142e-06,8.630783507631336e-07,1.2367789495500178e-06,1.6653466454051016e-06,1.1734585851137411e-06,1.031138101007522e-06,4.155262034340424e-06,1.181593323132122e-06,8.515877383061208e-07,1.550106106625244e-06,2.1209691281300305e-06
9,1.5700944490213068e-06,1.1588610390034903e-05,1.1410403194572502e-06,1.2879792820958147e-06,1.8262769742224314e-06,1.2067914758237344e-06,9.217562601039335e-07,1.3758432698433062e-06,1.790348297210828e-06,1.2229463971849336e-06,1.1006874957353273e-06,4.4196655589392e-06,1.2543048866677886e-06,9.187545500107801e-07,1.6463678297778781e-06,2.3075561802200486e-06
10,1.6866484805859138e-06,1.2266478675013857e-05,1.1909382518912098e-06,1.3614923690482927e-06,1.923946743620811e-06,1.287511790100331e-06,9.762294816138134e-07,1.4991582811711446e-06,1.8961682388264176e-06,1.263972751121585e-06,1.163085934748658e-06,4.685532851561666e-06,1.3198624171630365e-06,9.796513422825973e-07,1.7218982525444692e-06,2.491988116749379e-06
11,1.791865380530373e-06,1.2848060019279058e-05,1.2338742018094832e-06,1.426077797644325e-06,2.015468698177442e-06,1.3620419700733264e-06,1.0269135119027947e-06,1.6071989593132033e-06,1.98311107761428e-06,1.2969930500180789e-06,1.218798398466882e-06,4.950162521896269e-06,1.3785555299419942e-06,1.0344777555636618e-06,1.778469019084958e-06,2.6725548881355717e-06
12,1.8854992750724834e-06,1.3333656615789741e-05,1.270097850122966e-06,1.481230407657049e-06,2.101580598821873e-06,1.4304303585892955e-06,1.0741872830776585e-06,1.7007903749036045e-06,2.052050899749812e-06,1.3225593955034531e-06,1.2681704849466481e-06,5.210474230709381e-06,1.430644405425201e-06,1.0834496745242148e-06,1.818246457476972e-06,2.8476770253885656e-06
13,1.9673029310806913e-06,1.3725834296896403e-05,1.2998757822734032e-06,1.5263445615507358e-06,2.182791949407628e-06,1.493117446254081e-06,1.1184855707464469e-06,1.780808426946617e-06,2.104408980644496e-06,1.3414217256927166e-06,1.3114926188556913e-06,5.463281696252531e-06,1.4765405315384874e-06,1.126749955172932e-06,1.8436097949766654e-06,3.0160693523600907e-06
14,2.037294345016851e-06,1.4028913385892201e-05,1.3234775643861516e-06,1.5609733800422108e-06,2.259299233921007e-06,1.550830759542289e-06,1.160392573182541e-06,1.848040954620831e-06,2.142066727878155e-06,1.3544814738353942e-06,1.349078667300126e-06,5.705703795606854e-06,1.5169822714407356e-06,1.1644918447369437e-06,1.8568668187915354e-06,3.176854780256821e-06
15,2.096021231596677e-06,1.4247921629728346e-05,1.3412899032908056e-06,1.5851093713153807e-06,2.330906464751283e-06,1.6043507503235826e-06,1.20060367653694e-06,1.9031807088367218e-06,2.167242756557648e-06,1.3626776732919688e-06,1.3812160017819195e-06,5.935574103787111e-06,1.5529846442140973e-06,1.1967413427348434e-06,1.8600466830248145e-06,3.3295615151725848e-06
16,2.144625116464993e-06,1.4387127508535123e-05,1.3539259863838807e-06,1.5992083619818967e-06,2.3969693592477783e-06,1.6543771125224418e-06,1.239773952136114e-06,1.946783311800196e-06,2.182262074403095e-06,1.3669002077490835e-06,1.4080489050973397e-06,6.15163765034992e-06,1.5856009290187078e-06,1.223592654266503e-06,1.8548952986306695e-06,3.4740514537432632e-06
17,2.184634265061208e-06,1.4448977288966558e-05,1.3622352512339873e-06,1.603984587630503e-06,2.4563927217285005e-06,1.7015445457283141e-06,1.2783898904845137e-06,1.979199270345371e-06,2.189295215591205e-06,1.3679206725387732e-06,1.4296050146962785e-06,6.353460156541517e-06,1.6157137377621135e-06,1.2452410584461867e-06,1.842994434452491e-06,3.6104686271377566e-06
18,2.217624513941728e-06,1.4434139666573358e-05,1.3672016154761871e-06,1.6002731244342237e-06,2.5076814218986393e-06,1.746446127923211e-06,1.3167190576786672e-06,2.000625783919714e-06,2.190248018843559e-06,1.366352106792499e-06,1.4459956575469294e-06,6.5411768328793515e-06,1.6439921504297555e-06,1.2619525830800099e-06,1.8258499332516477e-06,3.7392022630473123e-06
19,2.244983770116183e-06,1.4342367963518028e-05,1.3697782814988987e-06,1.589021325904552e-06,2.5491095192531233e-06,1.789568136903867e-06,1.3548203160556102e-06,2.0112898106126774e-06,2.1868388005029395e-06,1.3626664560627602e-06,1.4575732782165817e-06,6.715221069919955e-06,1.6709780887049083e-06,1.2739969476042335e-06,1.8048756535853724e-06,3.860803364270762e-06
20,2.267823688748766e-06,1.4173670874014256e-05,1.3707631509077612e-06,1.5712455379742732e-06,2.5790442009849596e-06,1.8311629972446643e-06,1.3926029293980563e-06,2.011569985670255e-06,2.1807633013526403e-06,1.3572586375598868e-06,1.4648749490390565e-06,6.876060721701579e-06,1.6971621296060546e-06,1.281715737251721e-06,1.7812983483136895e-06,3.975862151802686e-06
21,2.2869142726715508e-06,1.3929648029319304e-05,1.370757848633337e-06,1.5480267008316052e-06,2.5963190981685744e-06,1.8711408721212074e-06,1.429878603244903e-06,2.0019267262273072e-06,2.173802456762401e-06,1.3505526356566503e-06,1.4684248075696867e-06,7.023969676977299e-06,1.7230019925024198e-06,1.2856529432596939e-06,1.7560834394062361e-06,4.084912469757563e-06
22,2.3026084172650266e-06,1.3614617713907835e-05,1.3701545542515588e-06,1.5206479899250402e-06,2.6005267066592386e-06,1.9090470005183627e-06,1.4663337773656329e-06,1.9827808279546878e-06,2.167777232886388e-06,1.3430780085467985e-06,1.4685749840849882e-06,7.158926331723759e-06,1.7489284341275224e-06,1.2865334294959513e-06,1.72997665070636e-06,4.188394662640798e-06
23,2.314795258854566e-06,1.3235895242324648e-05,1.3691204094384778e-06,1.490644148475431e-06,2.592163685612134e-06,1.944135141932e-06,1.5014520840288063e-06,1.954579706955209e-06,2.1644231107096867e-06,1.3354293191247653e-06,1.4654653641408456e-06,7.2806868223369805e-06,1.7752845445376747e-06,1.2851340935927379e-06,1.7035888263024314e-06,4.286657208185328e-06
24,2.322909803811194e-06,1.280304846234322e-05,1.3675929428928753e-06,1.4596189407451928e-06,2.5725824162568707e-06,1.9754879103429187e-06,1.5345157145973788e-06,1.9180711160700587e-06,2.1653069755010673e-06,1.3281756297197652e-06,1.459078207973906e-06,7.388974201176009e-06,1.8021768056969797e-06,1.2822539282011095e-06,1.6773944092564381e-06,4.379930383230045e-06
25,2.3260436248937427e-06,1.232669363689908e-05,1.3653170936260666e-06,1.429036840743351e-06,2.54372658422243e-06,2.00214429345374e-06,1.5647579298442824e-06,1.8745629815736443e-06,2.1718045655616744e-06,1.3218057597732655e-06,1.4493348544033468e-06,7.483672604698562e-06,1.8293680935826547e-06,1.2787555728204517e-06,1.6517364259444152e-06,4.468173595422236e-06
26,2.323165721475153e-06,1.1817558031082591e-05,1.3619641659389057e-06,1.4001485844536607e-06,2.5077224651785908e-06,2.023271144687519e-06,1.5915549038637296e-06,1.8259635618687007e-06,2.1851003847977256e-06,1.3167198753963704e-06,1.4361899320138272e-06,7.5649136255798304e-06,1.856319766821088e-06,1.2755169927425514e-06,1.6269400703532461e-06,4.5507908451112386e-06
27,2.313391135008156e-06,1.1286028627580671e-05,1.357296340392177e-06,1.3739970304153864e-06,2.466505997231371e-06,2.0383864105412772e-06,1.6144601918990982e-06,1.774565818982546e-06,2.2062183504168736e-06,1.3132472783209473e-06,1.4197405643307767e-06,7.632933035059171e-06,1.882386838825866e-06,1.2733250117225222e-06,1.603405788432384e-06,4.626393953392722e-06
28,2.296203872848439e-06,1.0741882800870875e-05,1.3512684378525866e-06,1.3514263248555707e-06,2.4216405620410233e-06,2.047496605186923e-06,1.6330585753405636e-06,1.7226984940730023e-06,2.236159519687231e-06,1.3116232005847326e-06,1.400359305732436e-06,7.687625529294816e-06,1.9070717368410003e-06,1.2728106817640062e-06,1.581625224969703e-06,4.6928804575543815e-06
29,2.271568682157382e-06,1.0193862324389213e-05,1.3440108910631903e-06,1.333062216568959e-06,2.3742840964693234e-06,2.050990063144367e-06,1.6468751071131126e-06,1.672452589978542e-06,2.276048847136341e-06,1.3119466587125778e-06,1.3787221901202933e-06,7.72799754702412e-06,1.930192696172527e-06,1.274417211790331e-06,1.5621494656209129e-06,4.747944801283465e-06
30,2.239945273870916e-06,9.649153480958418e-06,1.335718466438093e-06,1.3192792444219123e-06,2.3251618143465944e-06,2.049329247069161e-06,1.6555234425931134e-06,1.625594891241518e-06,2.3270343000987617e-06,1.3142118783889765e-06,1.3556380446008917e-06,7.751995823166692e-06,1.9518883290908225e-06,1.2783900590063838e-06,1.5454655600704076e-06,4.789810455012259e-06
31,2.202255402559873e-06,9.113182870924362e-06,1.326519997063021e-06,1.3102234046361566e-06,2.2745274128879577e-06,2.0428104822178953e-06,1.658939372002951e-06,1.583579841534672e-06,2.3900156658240364e-06,1.3183708424416058e-06,1.3318382135561914e-06,7.75693871094442e-06,1.97247005160377e-06,1.2847907716783324e-06,1.5318993922291241e-06,4.8177559909599014e-06
32,2.1597933869882024e-06,8.589915380254449e-06,1.3164526312630425e-06,1.3059102584250244e-06,2.2221639651028816e-06,2.0315797580972455e-06,1.6574380479188358e-06,1.5475456359147582e-06,2.4655022773460367e-06,1.3243634786751188e-06,1.3079356193431618e-06,7.740244780148613e-06,1.992212762179873e-06,1.2935131151095061e-06,1.521693845861289e-06,4.832159580773316e-06
33,2.1140293902273522e-06,8.082390688721065e-06,1.3056046670294926e-06,1.3063017613751448e-06,2.167426448758358e-06,2.015802808616075e-06,1.6515484670785792e-06,1.518294401968724e-06,2.5536539496123344e-06,1.3321364757987696e-06,1.2845299615918584e-06,7.700076562738507e-06,2.0111939880245154e-06,1.3042952292962683e-06,1.5151653338261462e-06,4.83416166221281e-06
34,2.0663636486616404e-06,7.59320983994647e-06,1.2943135933252976e-06,1.3112862984403567e-06,2.1093762476678423e-06,1.9958205034699766e-06,1.6417841399081198e-06,1.496294710928977e-06,2.6544188888090036e-06,1.3416328292558787e-06,1.2622766442696641e-06,7.635792663256775e-06,2.0292159987229327e-06,1.3167371922861276e-06,1.5128220170078188e-06,4.825269360994872e-06
35,2.0179960337825656e-06,7.124872023479415e-06,1.2832254853121078e-06,1.3206461983789884e-06,2.0470792865210026e-06,1.972241784297902e-06,1.6285536467507212e-06,1.4817320179544784e-06,2.767657138997558e-06,1.3527253726236753e-06,1.2418368033911256e-06,7.548213759205561e-06,2.0458029610925e-06,1.3303151535207355e-06,1.5154274815100042e-06,4.807151342602452e-06
36,1.9699408305503068e-06,6.679960057495206e-06,1.2731491729162908e-06,1.3340769125305187e-06,1.9799888367139876e-06,1.9459503306307724e-06,1.6122423484016606e-06,1.474583772996225e-06,2.893100868328184e-06,1.3651291627107381e-06,1.2238240452433711e-06,7.439639277112261e-06,2.0602402201133584e-06,1.3443636917273219e-06,1.5239471335904829e-06,4.781660673795316e-06
37,1.9230382934202736e-06,6.26124208559183e-06,1.264840547179028e-06,1.3511714221769072e-06,1.908203906066274e-06,1.91797790826142e-06,1.5932986784766686e-06,1.4746301537815256e-06,3.0302123420176423e-06,1.3783650866275885e-06,1.208821244406881e-06,7.313591398678218e-06,2.0715783142953618e-06,1.358067294443062e-06,1.5393512208318877e-06,4.750939443021674e-06
38,1.8779088723787824e-06,5.871705750150566e-06,1.2588860892960725e-06,1.3713587707577532e-06,1.8324538405115165e-06,1.8892913162870653e-06,1.5722605315548623e-06,1.4814081640111627e-06,3.1781772525937896e-06,1.3918582412982123e-06,1.197357477191104e-06,7.174411565460614e-06,2.0786035021871135e-06,1.3705526883546622e-06,1.5624117466675622e-06,4.717391633803417e-06
39,1.8349874755734324e-06,5.51440756855038e-06,1.2557156353025747e-06,1.3938832621518636e-06,1.7538567594785963e-06,1.8606328623726426e-06,1.5498095297482443e-06,1.4942469411575913e-06,3.336061513911178e-06,1.4051589781760215e-06,1.1898144183709174e-06,7.026808312284949e-06,2.079925246856738e-06,1.381074027799718e-06,1.5935999675956305e-06,4.6834248143017635e-06
40,1.7946926263862261e-06,5.192082896787757e-06,1.2556783973000227e-06,1.4178367292830074e-06,1.6736482340588241e-06,1.8324882194856518e-06,1.5268080779516431e-06,1.5123933378194832e-06,3.502965860933182e-06,1.4181032518165403e-06,1.186363245399403e-06,6.875330601108631e-06,2.0743144591921416e-06,1.389164767213064e-06,1.6330400106118199e-06,4.65109070192363e-06
41,1.757536603550369e-06,4.9067160289663275e-06,1.259097586239195e-06,1.4422519924939206e-06,1.5930294956153264e-06,1.8051879222440627e-06,1.5041920518041343e-06,1.5350818114717977e-06,3.6781059555472126e-06,1.4307491403771864e-06,1.1869456215525474e-06,6.723791458869038e-06,2.0611840589318936e-06,1.3946681170497757e-06,1.6804755079406068e-06,4.621893721319541e-06
42,1.7240339366063617e-06,4.6593188227285325e-06,1.2662717484437185e-06,1.4662783948835418e-06,1.513117376127708e-06,1.7790911432565182e-06,1.482799342955567e-06,1.5615630749856076e-06,3.860825796515043e-06,1.4432031617745574e-06,1.1912642219232984e-06,6.574833169481275e-06,2.0408860943749963e-06,1.3976917022903688e-06,1.735266594282756e-06,4.5969186036618536e-06
43,1.6945798977130637e-06,4.449910095901245e-06,1.2774705790382068e-06,1.4893482063584904e-06,1.4349335229731448e-06,1.754679312460708e-06,1.463291807058072e-06,1.591240830978623e-06,4.0505415196628515e-06,1.45552940301082e-06,1.1987983095730567e-06,6.429889757874325e-06,2.0146045699175486e-06,1.3985336227456243e-06,1.7964702451804975e-06,4.5771587616888315e-06
44,1.6694910780792004e-06,4.277560287311013e-06,1.2929251118771652e-06,1.5111816138300283e-06,1.359446519604981e-06,1.7324628219123462e-06,1.446146254789892e-06,1.6238508784278725e-06,4.2466683332758275e-06,1.4677169541445384e-06,1.2088574681407788e-06,6.289598632469095e-06,1.9839392849733844e-06,1.3975455175754204e-06,1.8630529564230045e-06,4.563791087734756e-06
45,1.6491106537460836e-06,4.140472522958122e-06,1.3127769460506163e-06,1.5316291020376214e-06,1.2876300534530108e-06,1.7128328304102128e-06,1.4316599521500193e-06,1.6594751672403439e-06,4.4486086549201e-06,1.479671719241251e-06,1.2206946115728423e-06,6.154372404142831e-06,1.9504626594160698e-06,1.3949632041656639e-06,1.934133076340379e-06,4.558193321435129e-06
46,1.6337995860126332e-06,4.036072182764794e-06,1.337022771281689e-06,1.5505257158098004e-06,1.22043699019883e-06,1.695988990096619e-06,1.420002303392264e-06,1.6983562955279765e-06,4.655800283183554e-06,1.4912590604629579e-06,1.23370006974422e-06,6.024785865503924e-06,1.9154865691885305e-06,1.3908324971916566e-06,2.009035086515087e-06,4.561647447679938e-06
47,1.6238081599176612e-06,3.961039092595519e-06,1.3654901195179597e-06,1.5676393731994555e-06,1.1587088198107206e-06,1.6819144202624203e-06,1.4112662465956146e-06,1.7406595121890213e-06,4.86777157883165e-06,1.5023087798365723e-06,1.2475675088260261e-06,5.901701029685428e-06,1.8800777453860766e-06,1.385052737053616e-06,2.0871609867555363e-06,4.574893423610323e-06
48,1.6191426684548648e-06,3.911400929354551e-06,1.39784659156939e-06,1.582670396058857e-06,1.1031049867599905e-06,1.6703685691559296e-06,1.4054235260480947e-06,1.786356359333129e-06,5.084134451697534e-06,1.5125923964163744e-06,1.2622625039477998e-06,5.786239563596042e-06,1.8451743988997525e-06,1.377457341825206e-06,2.167933989953708e-06,4.597793205503733e-06
49,1.6195402721061803e-06,3.882892654741843e-06,1.4336198401558779e-06,1.5953253099042344e-06,1.054065619743814e-06,1.660924412429191e-06,1.4022140256126852e-06,1.8352938563252545e-06,5.304449394543666e-06,1.5219153659610693e-06,1.2778514387689864e-06,5.679648050083423e-06,1.8116610508190954e-06,1.3679610218689173e-06,2.250887340767003e-06,4.6291978754774594e-06
50,1.6245614134311732e-06,3.871500445751056e-06,1.4721900414888884e-06,1.6054479416517057e-06,1.0117947283133843e-06,1.653008235054904e-06,1.401094085598492e-06,1.887341274091943e-06,5.527950502940929e-06,1.5302440866079615e-06,1.2943826858976756e-06,5.583022125570718e-06,1.7803649943112776e-06,1.3567404900216239e-06,2.3357011520245884e-06,4.666957620096037e-06
51,1.6336782055613924e-06,3.873856041484688e-06,1.5128032420874107e-06,1.6130870306014597e-06,9.762691113586007e-07,1.6458987656920215e-06,1.4013499090537776e-06,1.942458604445406e-06,5.753234812453656e-06,1.5376752827658934e-06,1.3118309593220979e-06,5.496925222603816e-06,1.7520153191657246e-06,1.344236862761184e-06,2.4220789512775063e-06,4.7080631675566054e-06
52,1.6462955437794484e-06,3.887246202121821e-06,1.5546712885664253e-06,1.6184581262454788e-06,9.472832648476577e-07,1.6387503230801744e-06,1.4023636700864702e-06,2.0006644867315386e-06,5.978209912710711e-06,1.544301953253914e-06,1.3300446211241665e-06,5.421027609125721e-06,1.7272364315020386e-06,1.3310003820567529e-06,2.509560162764602e-06,4.748914631779541e-06
53,1.6617882782757869e-06,3.9093089529205015e-06,1.597100629383194e-06,1.6218546641967323e-06,9.245193048907334e-07,1.630703362723946e-06,1.403830919711474e-06,2.0620132815026303e-06,6.200418873777728e-06,1.550117449923801e-06,1.3487433319668924e-06,5.353893103783989e-06,1.7065590005293044e-06,1.317593052921148e-06,2.597377831337374e-06,4.785595868520226e-06
54,1.6795634287375722e-06,3.937721894426384e-06,1.6395620327154513e-06,1.6235557588585463e-06,9.076032299471227e-07,1.6210529874680387e-06,1.4057362602472135e-06,2.1266595385794403e-06,6.417320783827025e-06,1.5550086088377105e-06,1.3675862336477134e-06,5.29301477391161e-06,1.6903568967001456e-06,1.3045886196203408e-06,2.6843603093234404e-06,4.814063096372492e-06
55,1.6990498461822725e-06,3.970100472347453e-06,1.6816788441098664e-06,1.6237396360550855e-06,8.961263912067807e-07,1.6093893074201924e-06,1.408170205420799e-06,2.194954449982422e-06,6.6262024680926385e-06,1.5588963387243911e-06,1.3862146146705418e-06,5.235153108092838e-06,1.6787225369791567e-06,1.292572136185969e-06,2.768861952508207e-06,4.830317681090607e-06
56,1.7196271188845905e-06,4.003994111938731e-06,1.7231370510833414e-06,1.622418347195104e-06,8.896632128122328e-07,1.595606899748194e-06,1.4112189356631714e-06,2.267460047695961e-06,6.824011616698133e-06,1.5619095422055793e-06,1.4042047134958964e-06,5.176898139728945e-06,1.6713989868383603e-06,1.2820554478785267e-06,2.8488246831799725e-06,4.830670565028742e-06
57,1.7406110119455572e-06,4.036750452403971e-06,1.763531812228372e-06,1.619467621606276e-06,8.878123544175281e-07,1.5797494006468233e-06,1.4149726333677075e-06,2.3448559683706863e-06,7.0074443422551485e-06,1.564341127046253e-06,1.4210385147939873e-06,5.115278930840621e-06,1.6678598667463858e-06,1.2733637700947707e-06,2.9220740470569544e-06,4.812139101841238e-06
58,1.7613543489215852e-06,4.065329183222037e-06,1.8022095019229937e-06,1.6147642399406281e-06,8.902405610617403e-07,1.5618291336425231e-06,1.4195227456756758e-06,2.4278220286874474e-06,7.173311155869396e-06,1.5664556466104903e-06,1.4362212846416122e-06,5.048285623817387e-06,1.667510730940065e-06,1.2666107736358114e-06,2.9867041308234165e-06,4.772912920453573e-06
59,1.7814074100996166e-06,4.0864240571170454e-06,1.8381966259858275e-06,1.608288478435014e-06,8.967132515938709e-07,1.5418149814300878e-06,1.4249546195968854e-06,2.5169513434205955e-06,7.319148861096398e-06,1.5684295553283327e-06,1.4494660758480478e-06,4.9752183237695505e-06,1.6698810624002635e-06,1.2617691454542874e-06,3.041210486982775e-06,4.7126938331773795e-06
60,1.8006236683613104e-06,4.097093449220327e-06,1.8702752057220148e-06,1.6000844577235419e-06,9.070922033203595e-07,1.5197687116667313e-06,1.4314350434393824e-06,2.612660381371875e-06,7.443874500951044e-06,1.570450141217898e-06,1.4607371852232717e-06,4.896790715314024e-06,1.67471089836648e-06,1.2587741320901494e-06,3.0842579820520892e-06,4.632756781564028e-06
61,1.8191365409210082e-06,4.095702682353196e-06,1.8971999686665363e-06,1.590125079892841e-06,9.212882550906925e-07,1.495924134031317e-06,1.439287695692542e-06,2.715084656245794e-06,7.5480020104468224e-06,1.572781324149317e-06,1.4700905630955463e-06,4.814954958837386e-06,1.6819499139311883e-06,1.2575741020557198e-06,3.1144100972176505e-06,4.5357835019001e-06
62,1.8372163686578986e-06,4.082577680608692e-06,1.9179895587355347e-06,1.5781661556443724e-06,9.392085773161617e-07,1.470615960658061e-06,1.4488948629369559e-06,2.824023052284725e-06,7.633195265855774e-06,1.5756959843398983e-06,1.4774821072303619e-06,4.732483345376473e-06,1.691709452376536e-06,1.2580864061919822e-06,3.1302091522393443e-06,4.425562365467753e-06
63,1.8550738805940722e-06,4.059765682208944e-06,1.932166589606371e-06,1.5636552823306511e-06,9.607070418436065e-07,1.4441789515264905e-06,1.4605027872085644e-06,2.9389769764419382e-06,7.701488524408499e-06,1.5793629190889534e-06,1.482716454793187e-06,4.652466071628119e-06,1.7041518815966299e-06,1.2601262088656772e-06,3.130570294789444e-06,4.306554399750975e-06
64,1.87271058693534e-06,4.030082253189471e-06,1.9398374729155677e-06,1.5457745434727631e-06,9.855405680333199e-07,1.4169612837534873e-06,1.4741032762563577e-06,3.059262718211902e-06,7.75460514243285e-06,1.5838129052566795e-06,1.485535746853384e-06,4.577941666449489e-06,1.719352535629506e-06,1.2633890572142056e-06,3.1151238857301015e-06,4.18334372234875e-06
65,1.8898794035457556e-06,3.996252066300766e-06,1.941623069662256e-06,1.5236769409496905e-06,1.0134066650340703e-06,1.389443614578543e-06,1.4894215945011575e-06,3.184141651315572e-06,7.793451433086213e-06,1.5889865444678536e-06,1.4857856148194814e-06,4.5117326644253396e-06,1.737244968275649e-06,1.2675121350332414e-06,3.0842975172715364e-06,4.060112992806816e-06
66,1.9061118974222704e-06,3.960502182971033e-06,1.938537515880411e-06,1.496840085020907e-06,1.044047630873032e-06,1.3623155177471747e-06,1.505954200623332e-06,3.312895056812985e-06,7.817719402406834e-06,1.594763396171666e-06,1.4835865513484038e-06,4.456376100839319e-06,1.7576365487647339e-06,1.272201402898158e-06,3.0392143468607424e-06,3.940328548080978e-06
67,1.920776935337222e-06,3.924421785221089e-06,1.9318474780696387e-06,1.465288415774036e-06,1.0772772314929392e-06,1.3363943756426927e-06,1.5230337479437751e-06,3.444762923977579e-06,7.825727711267883e-06,1.6009073859992312e-06,1.479377507482436e-06,4.4140066016276905e-06,1.780230980388014e-06,1.2773569912311271e-06,2.981524266562912e-06,3.8266708796856936e-06
68,1.9332357541960067e-06,3.888940555956513e-06,1.922874905855944e-06,1.4294955755526125e-06,1.1129321644989706e-06,1.312460313761912e-06,1.53987824744207e-06,3.578724973952577e-06,7.81464313497766e-06,1.6070192140723005e-06,1.4737668355529648e-06,4.386165372730326e-06,1.8047264392627438e-06,1.2830822378616765e-06,2.913158720778822e-06,3.7211279292996957e-06
69,1.943096241410468e-06,3.854384350386014e-06,1.912795560712342e-06,1.3901132266542556e-06,1.1508678825927357e-06,1.2911452511006884e-06,1.5555822145479694e-06,3.713213453931161e-06,7.781073522497386e-06,1.6126127850291597e-06,1.4673132996066498e-06,4.373634099744598e-06,1.8310037726650486e-06,1.2895392355235536e-06,2.836018213148128e-06,3.625243741603834e-06
70,1.950405823153093e-06,3.8206548425749626e-06,1.9025428672553143e-06,1.3478426026525978e-06,1.190970662327884e-06,1.2728828070633273e-06,1.5691454533436408e-06,3.845906813949588e-06,7.721958249919763e-06,1.6172534009244358e-06,1.4603822277018852e-06,4.376354552415923e-06,1.8592795418188743e-06,1.2967762454089138e-06,2.751796665485476e-06,3.54049099417929e-06
71,1.9556579826398644e-06,3.787550570034156e-06,1.8928141755726559e-06,1.3035029061014606e-06,1.2331082094941575e-06,1.2578885848794025e-06,1.5796288518933445e-06,3.973729312224884e-06,7.635485000950785e-06,1.6206103021676758e-06,1.4530995626579828e-06,4.3933996620559e-06,1.8901039901495096e-06,1.3046456732237344e-06,2.6620756165367224e-06,3.468587072809712e-06
72,1.9596847400445257e-06,3.755042982816867e-06,1.884117229774698e-06,1.258075336658692e-06,1.2770511261944823e-06,1.2461901879818013e-06,1.586325102551213e-06,4.09310941853863e-06,7.521606551836701e-06,1.6223811397444302e-06,1.4453880462691466e-06,4.423017616954581e-06,1.924176790310126e-06,1.3128007848363811e-06,2.5685089448798685e-06,3.4116140448687134e-06
73,1.9635413339365413e-06,3.7233258349946415e-06,1.8768426870858467e-06,1.2125947389659064e-06,1.3224629656428165e-06,1.2376680354384512e-06,1.588797458925688e-06,4.20041759430499e-06,7.382008285011096e-06,1.6222167954556694e-06,1.4370813785307906e-06,4.462794198579307e-06,1.9621372855260298e-06,1.3207945427364967e-06,2.4728980129468995e-06,3.371933532430931e-06
74,1.968352561686927e-06,3.6926465346381437e-06,1.871359408325945e-06,1.1679853121709185e-06,1.3689716365057735e-06,1.2320400153048258e-06,1.586772604853121e-06,4.292392421342817e-06,7.219746623767051e-06,1.6197982433893256e-06,1.4280803044691826e-06,4.509877394128566e-06,2.0044893852143302e-06,1.3283360912733596e-06,2.377128320175611e-06,3.351915246676425e-06
75,1.9750909655416925e-06,3.6630550767124943e-06,1.8681165403948067e-06,1.1249708678762913e-06,1.4161971891939186e-06,1.2288384226253422e-06,1.5800016479410346e-06,4.36642330983754e-06,7.038805950226826e-06,1.6149892069158946e-06,1.418470362859762e-06,4.561223323574163e-06,2.0515662861430303e-06,1.3355460982610787e-06,2.2829902417487276e-06,3.3535674047536093e-06
76,1.9843892470496802e-06,3.634212432492627e-06,1.867699113656387e-06,1.0840784460947932e-06,1.463719027449397e-06,1.2274935225457091e-06,1.568302083347224e-06,4.4206998073116985e-06,6.8436640774889975e-06,1.6078834216552518e-06,1.408530502806376e-06,4.613910373021813e-06,2.1034185231997846e-06,1.3429527693425162e-06,2.1919630274092666e-06,3.378251852807685e-06
77,1.996484123520773e-06,3.6052863027312695e-06,1.870751059146585e-06,1.0456844131170975e-06,1.5110768833801354e-06,1.227498232902664e-06,1.5518250148602147e-06,4.4542820664221636e-06,6.638864460869971e-06,1.5987626191453518e-06,1.3986474628397824e-06,4.665535239605398e-06,2.159702649727407e-06,1.3512755170513132e-06,2.105115911805857e-06,3.4265638921033726e-06
78,2.0112867009830145e-06,3.5749185381410737e-06,1.8777875382660034e-06,1.010056316052935e-06,1.557763157915271e-06,1.2284778409069455e-06,1.5312193867067654e-06,4.467129000575517e-06,6.428564320523451e-06,1.5880807702327818e-06,1.3891945147770663e-06,4.714609390644735e-06,2.2196711031559866e-06,1.3612442554943408e-06,2.023198270446896e-06,3.498310296007257e-06
79,2.028530635017598e-06,3.541393473982909e-06,1.889035166598867e-06,9.773595824850268e-07,1.6031866321795017e-06,1.2301218428586262e-06,1.5074504493177675e-06,4.460105435274454e-06,6.2160648722754095e-06,1.5764335304046208e-06,1.3804062344888449e-06,4.760833258686746e-06,2.2822832471371207e-06,1.3734980719428876e-06,1.946815157927513e-06,3.59256799735936e-06
80,2.0479221887884546e-06,3.5030983150025228e-06,1.9043710535074613e-06,9.47644369875727e-07,1.6467303941715167e-06,1.2321595455566338e-06,1.4815301883584414e-06,4.43493952826891e-06,6.003441306270513e-06,1.5644237234932686e-06,1.3722952784657614e-06,4.805168101864553e-06,2.3463856492443385e-06,1.388505724013323e-06,1.8765284240157228e-06,3.707846082533078e-06
81,2.069235377329522e-06,3.4590578592408515e-06,1.9233363185755586e-06,9.208766729228675e-07,1.6879166635387055e-06,1.2344690314040724e-06,1.4544459755110207e-06,4.39404457511895e-06,5.7914432821236594e-06,1.5525027265717213e-06,1.3646632937354901e-06,4.849660362986284e-06,2.410862927831412e-06,1.4065375015491981e-06,1.8128151219473754e-06,3.84229701262508e-06
82,2.0923708255957814e-06,3.4092576115984167e-06,1.945198878069476e-06,8.97009801729897e-07,1.7265397554784453e-06,1.23715624022008e-06,1.4271753330999531e-06,4.340136534317441e-06,5.579771027338064e-06,1.54090372542457e-06,1.3571923764417726e-06,4.896993437487716e-06,2.474750664617362e-06,1.42768882248931e-06,1.7559310209331178e-06,3.993871577826289e-06
83,2.11738361887338e-06,3.3546660290798864e-06,1.9690559429866583e-06,8.760228916798699e-07,1.7626550351087835e-06,1.2404604035652707e-06,1.4006292977416306e-06,4.2757650872008864e-06,5.367657320422626e-06,1.529670205006728e-06,1.3495463328253395e-06,4.949902289339469e-06,2.537414780786463e-06,1.451957942840265e-06,1.7057997261569833e-06,4.160297026721268e-06
84,2.1444156909141244e-06,3.2969634352663508e-06,1.99395997382449e-06,8.579249681158974e-07,1.7964187484396748e-06,1.2445795109664812e-06,1.3755580691280926e-06,4.203098197451188e-06,5.154426291810496e-06,1.518710496919797e-06,1.3413956637766418e-06,5.0107157074683834e-06,2.5988222180281472e-06,1.479392352971368e-06,1.6620467101974128e-06,4.3388965065489204e-06
85,2.1735096576957823e-06,3.2380497134985255e-06,2.019010572903957e-06,8.427460615440909e-07,1.827917688202772e-06,1.2495772920211818e-06,1.3524729674371885e-06,4.124077886678499e-06,4.939707377551307e-06,1.5077995042404916e-06,1.3323472194953133e-06,5.081155802963336e-06,2.659719858276723e-06,1.51018161300976e-06,1.6241902317731402e-06,4.5264854527339786e-06
86,2.2044136510161407e-06,3.1795482396516055e-06,2.043346882394992e-06,8.305018687298921e-07,1.8571769808916984e-06,1.2553728621095903e-06,1.3316203560166228e-06,4.0406418149700824e-06,4.723388702831681e-06,1.4965697673817443e-06,1.3219017192144844e-06,5.162356126149359e-06,2.72150937569419e-06,1.5445956973251401e-06,1.5918379615852582e-06,4.719468497570013e-06
87,2.2365428976644806e-06,3.1225168838136888e-06,2.0660682248181156e-06,8.211547087399869e-07,1.8843178528501541e-06,1.261721997010646e-06,1.3130688259435594e-06,3.954807012595067e-06,4.50562907551732e-06,1.4845622334972632e-06,1.3095531929335776e-06,5.25502447342884e-06,2.7858835394243487e-06,1.5828855149442299e-06,1.5647012174205966e-06,4.9139993458659586e-06
88,2.2691404531345708e-06,3.067357134684469e-06,2.0861938358919496e-06,8.145932993399747e-07,1.909612051869793e-06,1.2681818335852437e-06,1.2969191314786135e-06,3.8686827074391705e-06,4.287050772781308e-06,1.4712837943715655e-06,1.2949602661202543e-06,5.359621630068377e-06,2.8544690316360963e-06,1.6252659893252171e-06,1.54244787503651e-06,5.106083476549011e-06
89,2.3014748336907875e-06,3.0138110210653066e-06,2.10273492252463e-06,8.106315437429396e-07,1.9333357622827435e-06,1.2741305854505187e-06,1.2834915055456318e-06,3.784425291820213e-06,4.068952750509171e-06,1.4562945487678013e-06,1.2780495640209917e-06,5.476389201129751e-06,2.9285809458165e-06,1.67192847060687e-06,1.5246191276195267e-06,5.291625903001968e-06
90,2.3328691997606673e-06,2.961060780921638e-06,2.11482643094412e-06,8.090162556959204e-07,1.9556206950718815e-06,1.2788478708248247e-06,1.2733018173912274e-06,3.704074151538158e-06,3.8532951004470534e-06,1.43940911735091e-06,1.2589977377960279e-06,5.605223072302059e-06,3.0090640680330015e-06,1.7230092758933751e-06,1.5107190597461636e-06,5.466476805299273e-06
91,2.362549705417298e-06,2.9079955229122e-06,2.1217558805287614e-06,8.094255970515242e-07,1.976434017728864e-06,1.2815704707658963e-06,1.266862676776505e-06,3.6292954397872174e-06,3.642379429815773e-06,1.420886932505719e-06,1.2381175861057579e-06,5.7455713983413775e-06,3.0961895082463783e-06,1.7785970321108021e-06,1.5003351963615927e-06,5.6265869274304776e-06
92,2.38949905253819e-06,2.8535563458444974e-06,2.1228172829326883e-06,8.115005065497897e-07,1.9956008411821104e-06,1.2815582469088777e-06,1.2645284760040455e-06,3.5611964894660834e-06,3.4384081951588976e-06,1.4014186756368018e-06,1.215743405208328e-06,5.896465754719576e-06,3.189608926167773e-06,1.8388753313954232e-06,1.4931231467780204e-06,5.7683397274953695e-06
93,2.4124848551510285e-06,2.796972704829951e-06,2.117198373357492e-06,8.149307332307466e-07,2.0128383253324046e-06,1.278314242082883e-06,1.2664775824558785e-06,3.5003523668468337e-06,3.2431470490699452e-06,1.3819250268936113e-06,1.192223870883295e-06,6.056657753040545e-06,3.288439982348719e-06,1.9042528927968193e-06,1.4886754690840613e-06,5.888923522175784e-06
94,2.4302357130253215e-06,2.7378450309006293e-06,2.1041163020317933e-06,8.19493989508466e-07,2.027858670756923e-06,1.271872104276894e-06,1.272767239012259e-06,3.446976249167354e-06,3.057761184926717e-06,1.3633200246136694e-06,1.1680036778815334e-06,6.22483505105325e-06,3.391531590759805e-06,1.9752743049598865e-06,1.486439248528396e-06,5.986521130328434e-06
95,2.441548602165355e-06,2.676204541433268e-06,2.083090520917845e-06,8.250004648595667e-07,2.040450981419858e-06,1.2628574612770191e-06,1.2834132081636338e-06,3.401047903811959e-06,2.8828278932205263e-06,1.3463711224367296e-06,1.14367535652847e-06,6.399878344548082e-06,3.49781724358872e-06,2.0523666491518633e-06,1.48576354030875e-06,6.0602774838107604e-06
96,2.4452186244985036e-06,2.6126074292763063e-06,2.0541464785032606e-06,8.312303630874406e-07,2.0504016214166057e-06,1.2522420622081388e-06,1.2984328248602543e-06,3.3622891486113274e-06,2.7185062175454802e-06,1.3316771484009507e-06,1.1199302957981462e-06,6.5810417669201085e-06,3.60660242208436e-06,2.1356479962529304e-06,1.48599336984325e-06,6.1102058938032e-06
97,2.4400716986985538e-06,2.5481242018040886e-06,2.017896228476311e-06,8.379125562287826e-07,2.0573681568478403e-06,1.2410273807205168e-06,1.3177728573956519e-06,3.3300685328544804e-06,2.564738636733188e-06,1.31966490947452e-06,1.0974305300819221e-06,6.76793708454825e-06,3.717693533469269e-06,2.224924918768128e-06,1.486542169206335e-06,6.137162115177333e-06
98,2.4253714921925226e-06,2.4841219027986827e-06,1.975469773682188e-06,8.447346065775165e-07,2.0609374748572048e-06,1.230108122289763e-06,1.341201753514455e-06,3.30345564827277e-06,2.4213523454034634e-06,1.3105608086330575e-06,1.0766786032477285e-06,6.9602636778127674e-06,3.831384080178739e-06,2.3198376604269284e-06,1.486925108954871e-06,6.142834772835798e-06
99,2.4013363022951693e-06,2.4219766053858917e-06,1.928272239742783e-06,8.514087197507863e-07,2.0608558738654576e-06,1.2203317878577062e-06,1.3683193589100188e-06,3.2814588546719422e-06,2.2880437932404027e-06,1.3043923539101285e-06,1.057950504332633e-06,7.157308977797433e-06,3.948389719052934e-06,2.420074276928189e-06,1.4867152230955423e-06,6.129571147986482e-06
100,2.369288646297562e-06,2.3628972567095384e-06,1.8776878093505249e-06,8.577942979183888e-07,2.057233266035328e-06,1.212585098503334e-06,1.3986410302554611e-06,3.2632204877944587e-06,2.1643027986108924e-06,1.3010275355087207e-06,1.0412982377207303e-06,7.357435685833686e-06,4.069798136255288e-06,2.525572038382229e-06,1.4854870546252832e-06,6.099895993562119e-06
101,2.3313019027659634e-06,2.3078454711997507e-06,1.824909586452247e-06,8.640010386595466e-07,2.050576782540542e-06,1.2077741972797201e-06,1.4316179469682062e-06,3.248041720039214e-06,2.049405760768177e-06,1.3002486631425634e-06,1.0265944382452986e-06,7.557876267302886e-06,4.1970141094755345e-06,2.6365462782583802e-06,1.4828671839490986e-06,6.055869243845028e-06
102,2.2896139214567566e-06,2.2574689346209113e-06,1.7708915192774957e-06,8.703946226017663e-07,2.041658738225586e-06,1.2067313946452174e-06,1.46664202422215e-06,3.2353364991348677e-06,1.9426466039027906e-06,1.3018653195662695e-06,1.0135968023686052e-06,7.75489487063014e-06,4.331596905679517e-06,2.7532713369604762e-06,1.4786162300093302e-06,5.9987102804995325e-06
103,2.246205274232526e-06,2.212062268781125e-06,1.7163169338039502e-06,8.77496998083978e-07,2.0313599457820914e-06,1.210149074843013e-06,1.5030982703407998e-06,3.2246195846476053e-06,1.8437438714011745e-06,1.3057717617243525e-06,1.0020012232555166e-06,7.94409574188949e-06,4.474931176253477e-06,2.875830717028678e-06,1.4725867316312457e-06,5.928938491310296e-06
104,2.2026730242320257e-06,2.17159218015971e-06,1.6616017165063605e-06,8.85846881307635e-07,2.020597687022376e-06,1.2185644136422007e-06,1.5403497548137373e-06,3.2155368355816116e-06,1.7530450464522323e-06,1.3118794376325707e-06,9.914354426715408e-07,8.120730583955002e-06,4.627911076532258e-06,3.0040499754484024e-06,1.4646195098246629e-06,5.846888179751865e-06
105,2.1602248803874216e-06,2.1357533922669673e-06,1.6070003922087277e-06,8.959253645049259e-07,2.0102838093900295e-06,1.2323804068861154e-06,1.5776671504418323e-06,3.2079192001922574e-06,1.6712994922988276e-06,1.3200273320463894e-06,9.814153155082346e-07,8.280033779876263e-06,4.790824057964934e-06,3.137509721273527e-06,1.4545654970474553e-06,5.753291863563871e-06
106,2.1196863484932707e-06,2.103994952035554e-06,1.5527949164776607e-06,9.081861877931295e-07,2.001266150663688e-06,1.2519312159334306e-06,1.614241372434913e-06,3.2018139717855176e-06,1.5992557045349084e-06,1.3300111429917968e-06,9.713737663677324e-07,8.417618864557566e-06,4.9632845888789305e-06,3.275500202075774e-06,1.4424311590877228e-06,5.649573633250844e-06
107,2.0815653693738708e-06,2.0755821628342114e-06,1.499476881125946e-06,9.230924612571853e-07,1.994350269260676e-06,1.277542992794274e-06,1.6492599067973738e-06,3.197414977899377e-06,1.5374204427830848e-06,1.3416915579380684e-06,9.608068295647807e-07,8.529899105765758e-06,5.144047500686224e-06,3.4169310102861895e-06,1.4284557580395433e-06,5.537651033923811e-06
108,2.0461630095688495e-06,2.0497743917238445e-06,1.4478111845471327e-06,9.41068427240186e-07,1.990391253682406e-06,1.3095196864503579e-06,1.6820304046882877e-06,3.194918845024601e-06,1.486000544894082e-06,1.3550026542240684e-06,9.494378288355196e-07,8.61448216541344e-06,5.330813858324822e-06,3.5602116557627695e-06,1.41302245809636e-06,5.419484542743691e-06
109,2.0136732299011178e-06,2.025984151623929e-06,1.398722573873532e-06,9.624216380411646e-07,1.9902895394447805e-06,1.3481165333408327e-06,1.7121838669392024e-06,3.1944584061089854e-06,1.4449023668319458e-06,1.3698697435248005e-06,9.372679592289803e-07,8.670471807596096e-06,5.520156879812535e-06,3.7031662823942344e-06,1.3965217966359553e-06,5.296767852927539e-06
110,1.9842478833915848e-06,2.003795264267234e-06,1.353090109928883e-06,9.873107428461915e-07,1.994923506696969e-06,1.3936258903979473e-06,1.739783791804018e-06,3.196166380503812e-06,1.4137311907409514e-06,1.3861950030428172e-06,9.244824508502671e-07,8.698603220982124e-06,5.7075644792368065e-06,3.843051425455742e-06,1.379289009044955e-06,5.1708329358294895e-06
111,1.9580095439572444e-06,1.982915030029697e-06,1.31162337769605e-06,1.0157466267025298e-06,2.0051833308095337e-06,1.4465320768145737e-06,1.7651552378612847e-06,3.2002393964922854e-06,1.3917970895485818e-06,1.4038945513016846e-06,9.113108085143696e-07,8.701246662367249e-06,5.887538462209833e-06,3.9765498524017265e-06,1.3615630060456374e-06,5.0426116922776255e-06
112,1.935004695926147e-06,1.963102461553331e-06,1.274878458955601e-06,1.0476076992865572e-06,2.0220402362043418e-06,1.5075343135989792e-06,1.788593518908807e-06,3.2068621561211567e-06,1.3781903786257632e-06,1.4228945091290584e-06,8.979598496465018e-07,8.682344485543494e-06,6.053703248186658e-06,4.099683576308261e-06,1.343432764074629e-06,4.912588850548224e-06
113,1.9151238347513122e-06,1.9440372104765763e-06,1.243291515484772e-06,1.0826567485207692e-06,2.0464854179913383e-06,1.5773654324938e-06,1.8101870771991295e-06,3.2159816119586445e-06,1.3719806689438744e-06,1.4430983899153184e-06,8.846098868626496e-07,8.647192856725558e-06,6.199028980568866e-06,4.207942370024611e-06,1.3248805570396626e-06,4.780806694008122e-06
114,1.8980841934101006e-06,1.925200827959373e-06,1.217135535310748e-06,1.1205508673277199e-06,2.0793672983600865e-06,1.656572819363284e-06,1.8297331809949405e-06,3.2270522346615456e-06,1.3724418081077526e-06,1.4643973623804881e-06,8.713829216346028e-07,8.601944288331181e-06,6.316301855539223e-06,4.296878828009377e-06,1.3059420182026435e-06,4.646985552920105e-06
115,1.8835951696166923e-06,1.9058486395178945e-06,1.196457910651381e-06,1.1608978539796003e-06,2.1212642533701536e-06,1.7454230217638897e-06,1.8467047107049016e-06,3.2389243663608645e-06,1.3791117009577547e-06,1.4867694101569322e-06,8.582816457622325e-07,8.552877364872137e-06,6.398820309471005e-06,4.362968414808307e-06,1.2868050360853224e-06,4.510728190853489e-06
116,1.8716284998230184e-06,1.8850213999562758e-06,1.1810895732120765e-06,1.203374318186645e-06,2.1724608229123933e-06,1.8439061161394438e-06,1.8603164007970874e-06,3.2499668892364224e-06,1.3916469649882118e-06,1.5103805611881545e-06,8.451785715214273e-07,8.505640069935392e-06,6.441229545104983e-06,4.404237880131925e-06,1.2677200337141475e-06,4.371697828094413e-06
117,1.8625004595751701e-06,1.8616439042374218e-06,1.1707586943852443e-06,1.2477995753915994e-06,2.233029559483118e-06,1.951732814956786e-06,1.8696787758397462e-06,3.2583670312865847e-06,1.4096263821280642e-06,1.5355511367949685e-06,8.319031866913239e-07,8.464695761667178e-06,6.440174737096867e-06,4.420208072723905e-06,1.2488519681456796e-06,4.229751484228018e-06
118,1.8566715169117098e-06,1.8347954980730923e-06,1.1652746440401301e-06,1.2940893365869886e-06,2.3029658226352583e-06,2.068293962830624e-06,1.8740249251691437e-06,3.2624777068517034e-06,1.4324419460333298e-06,1.5626030224553e-06,8.183851685239449e-07,8.43304938177219e-06,6.394188756722215e-06,4.411186062050504e-06,1.2302739471831047e-06,4.085092541765374e-06
119,1.8545425118872144e-06,1.8039134155842957e-06,1.1646804024751682e-06,1.3421333904838572e-06,2.3822482964799235e-06,2.192671795892744e-06,1.8729988869437665e-06,3.2611253596192702e-06,1.4593013196148917e-06,1.5917072036768718e-06,8.047431506577453e-07,8.412120564234586e-06,6.302932640364446e-06,4.377691599040538e-06,1.2120717249134921e-06,3.938394149480343e-06
120,1.8564465088540568e-06,1.7686818479894588e-06,1.1692857310763757e-06,1.3916901713490305e-06,2.4707332339752658e-06,2.3237948351003066e-06,1.8668721883800239e-06,3.253832249576511e-06,1.4893025436929597e-06,1.6228126830898407e-06,7.912721946431663e-07,8.401625323323588e-06,6.166949955436722e-06,4.320617442746383e-06,1.1943829148751473e-06,3.7907765834828372e-06
121,1.8626919911886e-06,1.7288463436193591e-06,1.179584253883963e-06,1.44238048093795e-06,2.5679798420698046e-06,2.460632336506887e-06,1.856529341845024e-06,3.2408649822652687e-06,1.5215019081612866e-06,1.655686621427608e-06,7.783899804912206e-07,8.399562679092244e-06,5.9883972291026605e-06,4.241653286412342e-06,1.1773318942822924e-06,3.6436658492284334e-06
122,1.8735046599923988e-06,1.6842845484280313e-06,1.1961183486139677e-06,1.4937992947275888e-06,2.6732252871770947e-06,2.602216155892042e-06,1.8432516876498678e-06,3.2230403046256325e-06,1.5549245232786796e-06,1.6900185547625034e-06,7.665889125146401e-07,8.40245212602173e-06,5.771675211874705e-06,4.143340095223394e-06,1.1609762766734445e-06,3.4986982416270038e-06
123,1.8889026659786645e-06,1.635223009095452e-06,1.2193708208916908e-06,1.5456844753350498e-06,2.7855927990016563e-06,2.7475442590485753e-06,1.8284878450341098e-06,3.2013923078913846e-06,1.5885270630808456e-06,1.725464902827564e-06,7.563850995254461e-07,8.40572812925643e-06,5.52308560906875e-06,4.02881681217402e-06,1.1453594557011528e-06,3.3577311855070343e-06
124,1.9085961010144033e-06,1.5822917812757262e-06,1.2497376672753681e-06,1.598056270411984e-06,2.904364572401955e-06,2.8955725568484583e-06,1.8137242174082224e-06,3.1768959955511135e-06,1.6211579404853117e-06,1.7615998309410894e-06,7.482611880572642e-07,8.40418952916514e-06,5.249852219693482e-06,3.901522923899134e-06,1.1306299678219466e-06,3.222798187565301e-06
125,1.9319820775870396e-06,1.5263395001672026e-06,1.2875481140613025e-06,1.6512581762553068e-06,3.0290592143233036e-06,3.045228639300951e-06,1.8003940710088692e-06,3.150288050659081e-06,1.6516238287227866e-06,1.7979066716240671e-06,7.426173726072622e-07,8.39259791357273e-06,4.959181174493247e-06,3.7648944008649716e-06,1.1170818832012276e-06,3.0958714698306425e-06
126,1.9582552571834247e-06,1.468191777058037e-06,1.3330385104887439e-06,1.7058626424054739e-06,3.159220157478851e-06,3.1953749454605932e-06,1.7897556651859206e-06,3.1219192150686423e-06,1.67888506650252e-06,1.833876134644581e-06,7.397384015516416e-07,8.3664252039577e-06,4.657651036131682e-06,3.622098945336293e-06,1.1050395981185949e-06,2.9785839035677843e-06
127,1.986588648506924e-06,1.408531277565562e-06,1.3862632402709597e-06,1.7624662360561752e-06,3.2941047298066244e-06,3.3449219876144273e-06,1.7828136361602584e-06,3.0917191068941467e-06,1.7021792755262752e-06,1.8690692015442108e-06,7.397794959508857e-07,8.322529497479582e-06,4.350934837020373e-06,3.4759636490591047e-06,1.0947083823984604e-06,2.872106845185426e-06
128,2.0163192028727134e-06,1.3479079604902465e-06,1.4470133858739106e-06,1.8214696967352289e-06,3.4325953024817158e-06,3.4931328815194864e-06,1.7803659711875175e-06,3.059376321378822e-06,1.7209822502495288e-06,1.9030228835409342e-06,7.427698930281844e-07,8.259592609862688e-06,4.04383939484946e-06,3.3290473170581147e-06,1.086151935182774e-06,2.7771388701365335e-06
129,2.0470787244332567e-06,1.2868134432395918e-06,1.5147777830979012e-06,1.8829387215634198e-06,3.5734657171240736e-06,3.6398900186597485e-06,1.7831112799333478e-06,3.024612119568662e-06,1.7350399275760135e-06,1.935074958907548e-06,7.486220915735584e-07,8.178332742016515e-06,3.740590141528728e-06,3.183649222053023e-06,1.0793615259393897e-06,2.6939635834965287e-06
130,2.0788298227816143e-06,1.225722585264434e-06,1.5887342953820393e-06,1.9465535649413723e-06,3.715798499293519e-06,3.7857890359590213e-06,1.7916989428764387e-06,2.987372356625304e-06,1.7445901543844643e-06,1.964271640076352e-06,7.571364101393548e-07,8.08152366012731e-06,3.445116464193203e-06,3.041757209436843e-06,1.0742746927944067e-06,2.622583634654804e-06
131,2.1117933257885962e-06,1.165047764421349e-06,1.6677849372408892e-06,2.0115880133044037e-06,3.859208606007563e-06,3.932046360013177e-06,1.8066920903651662e-06,2.9478666856187905e-06,1.7505359958001827e-06,1.9894732318112794e-06,7.680342429652121e-07,7.973783578999618e-06,3.1611361142027475e-06,2.905052221876881e-06,1.0707510191397654e-06,2.562770382962058e-06
132,2.1462671165892023e-06,1.1051333406397293e-06,1.7506557854466193e-06,2.0769066015301174e-06,4.00367428724859e-06,4.080197355638252e-06,1.8285198119564522e-06,2.9064226838010607e-06,1.7543330224376594e-06,2.0096740870712792e-06,7.810617613020749e-07,7.861095500258599e-06,2.8920649397847644e-06,2.774925998280518e-06,1.0685795152614597e-06,2.5139837098280946e-06
133,2.1823868359571293e-06,1.0464082724225032e-06,1.836057950903822e-06,2.141068672492523e-06,4.1490964280387365e-06,4.231654958198558e-06,1.8574980012135947e-06,2.8632521565006577e-06,1.757647651354627e-06,2.0243742876325892e-06,7.960886657355914e-07,7.750080432265925e-06,2.6408757236910918e-06,2.6524680274008556e-06,1.067475588968023e-06,2.475337035921014e-06
134,2.2199636543442033e-06,9.89571680492895e-07,1.9228797457606868e-06,2.2025981539545323e-06,4.295015822135566e-06,4.387401694167275e-06,1.8938835481773372e-06,2.8183615558207283e-06,1.7620571737926922e-06,2.033746234125945e-06,8.130776420775717e-07,7.647159817767733e-06,2.410001754207543e-06,2.5385181730089837e-06,1.0670537912156524e-06,2.445641335026387e-06
135,2.2585044864091568e-06,9.356333226974336e-07,2.010288165033232e-06,2.26032192975399e-06,4.440772873657976e-06,4.548055470674002e-06,1.9378802491154933e-06,2.771635616552487e-06,1.7689423826901096e-06,2.03852145934299e-06,8.319575268785366e-07,7.557870445988409e-06,2.201367963434068e-06,2.4337668911454578e-06,1.0668806007370991e-06,2.4234441039357554e-06
136,2.2973464408326257e-06,8.85812946707145e-07,2.0976111369608676e-06,2.3135903343269226e-06,4.585828694783053e-06,4.714186662322642e-06,1.9895886459625265e-06,2.722893646297217e-06,1.7794994652573914e-06,2.0397038756704527e-06,8.525253878657287e-07,7.486560482093755e-06,2.016548800132748e-06,2.338755091228939e-06,1.0666340031819942e-06,2.4070875208110652e-06
137,2.3357348912648786e-06,8.414049256016176e-07,2.1841054940312998e-06,2.362242392172362e-06,4.7297883671342165e-06,4.8865578851749745e-06,2.048938587901208e-06,2.671906046731611e-06,1.7947669539760194e-06,2.0382305943426033e-06,8.744252110344983e-07,7.436452005804966e-06,1.856883011493548e-06,2.2538429893168063e-06,1.0662115589641747e-06,2.3948592848769555e-06
138,2.3727885314174034e-06,8.036699405154243e-07,2.2688121622696894e-06,2.4063251618160293e-06,4.872139242112653e-06,5.0661404041217035e-06,2.1156618104050335e-06,2.618548814610965e-06,1.8155871264387405e-06,2.034712391102749e-06,8.972071856887499e-07,7.409837176404992e-06,1.7234304736348946e-06,2.179309982769604e-06,1.0656768282715067e-06,2.385224927188664e-06
139,2.4074435199795746e-06,7.737630907730033e-07,2.350520802306014e-06,2.445735378301523e-06,5.0121450235650195e-06,5.253995947428695e-06,2.189373945449591e-06,2.5630828778198602e-06,1.8425369986881104e-06,2.0293381025566444e-06,9.204478385605104e-07,7.408171113853825e-06,1.6168926034518259e-06,2.1154513466377538e-06,1.0652019622654505e-06,2.377030325060793e-06
140,2.4384242803944546e-06,7.527027888315129e-07,2.4278185635323356e-06,2.4800019643407845e-06,5.149112535908835e-06,5.451168164473425e-06,2.269734429480507e-06,2.5063405872820886e-06,1.8760288641341558e-06,2.0218919907617143e-06,9.43854522486425e-07,7.4319609465375014e-06,1.5376178540343034e-06,2.0624897917821943e-06,1.0651450135500457e-06,2.369557669502867e-06
141,2.46423175265745e-06,7.413832746930595e-07,2.499225005430558e-06,2.50835335290254e-06,5.282687335073669e-06,5.658656895202915e-06,2.356526734912258e-06,2.4496767699295436e-06,1.916611851854138e-06,2.0117817996302663e-06,9.672773254733185e-07,7.480504684856664e-06,1.4856416525034242e-06,2.0204448639647303e-06,1.066103150637098e-06,2.362453672263302e-06
142,2.483251912062807e-06,7.40602883930659e-07,2.5633059713765348e-06,2.5300236421545474e-06,5.412752465023592e-06,5.877438281077429e-06,2.449559634896379e-06,2.394710319792607e-06,1.9651757538190418e-06,1.9980680360459614e-06,9.906210947647835e-07,7.551618615027355e-06,1.4606882850643785e-06,1.9891367323702745e-06,1.0687905462423675e-06,2.355674046195395e-06
143,2.4940342647014334e-06,7.510779047644705e-07,2.6186465607216443e-06,2.5445307651218597e-06,5.538945877224834e-06,6.108399016142134e-06,2.548459937491367e-06,2.3429882508710504e-06,2.022828733779354e-06,1.979614464772283e-06,1.0137497638859113e-06,7.64149391515158e-06,1.4621612355130341e-06,1.9682267471852035e-06,1.0738478008621548e-06,2.34949688962512e-06
144,2.4955471224551118e-06,7.734820224475504e-07,2.6637686711464153e-06,2.5517166780614643e-06,5.660164777612566e-06,6.352047814752187e-06,2.6525219295230118e-06,2.2957591309450904e-06,2.0906115425804582e-06,1.9554690689252994e-06,1.036492048751509e-06,7.744838068976357e-06,1.489180117367555e-06,1.957198087721312e-06,1.0817308548435242e-06,2.3444998440294874e-06
145,2.487257272142232e-06,8.085475783893765e-07,2.6972485769325153e-06,2.551668798169328e-06,5.774461177827383e-06,6.608057324583992e-06,2.7607381052286406e-06,2.253918809787327e-06,2.1693637386305994e-06,1.9253373899446594e-06,1.058710486621247e-06,7.855404873120871e-06,1.5406528826134783e-06,1.9553886449818597e-06,1.0926915100477782e-06,2.341418989102411e-06
146,2.469113689887252e-06,8.57148044580602e-07,2.718091388497021e-06,2.544752386664258e-06,5.879489774534829e-06,6.874939497617309e-06,2.8719531904477997e-06,2.2179935960130852e-06,2.259791727764856e-06,1.8897720425243758e-06,1.0802951259729777e-06,7.966816546268929e-06,1.615327102265327e-06,1.9621560908814443e-06,1.1067920903907e-06,2.3409275234607058e-06
147,2.4415405725764902e-06,9.202865233927477e-07,2.726057030463755e-06,2.53174873218606e-06,5.97320522128027e-06,7.150016375210402e-06,2.9849198915757713e-06,2.1880963767651565e-06,2.3624927183983726e-06,1.8499057595108073e-06,1.101072220026398e-06,8.073428752115981e-06,1.7118234158297952e-06,1.9770631960146045e-06,1.123907178879595e-06,2.3434379762254056e-06
148,2.4054340953494066e-06,9.99030422937586e-07,2.7216592214962308e-06,2.51391459672441e-06,6.0541906392313366e-06,7.429446362829362e-06,3.0981537299032577e-06,2.163930716274756e-06,2.477804736491019e-06,1.8070346199050106e-06,1.1207552515474873e-06,8.170978578821528e-06,1.8287225832199916e-06,1.9999131779141653e-06,1.1437066566419575e-06,2.349036189937094e-06
149,2.362118956527392e-06,1.0944441663617817e-06,2.705917343524186e-06,2.4928359220674617e-06,6.121295080393279e-06,7.70814544122893e-06,3.2097846165979056e-06,2.144854421341718e-06,2.6056652542489598e-06,1.7624308990887445e-06,1.1390235526031928e-06,8.256820221919639e-06,1.964717128742497e-06,2.0306537643258878e-06,1.1656478961402625e-06,2.3575984580469762e-06
150,2.3132478484336615e-06,1.2075389388275881e-06,2.680141564534901e-06,2.4701106586225114e-06,6.173026546746328e-06,7.979869680807668e-06,3.31764015728532e-06,2.129928084727522e-06,2.7456736919840924e-06,1.7174024923707186e-06,1.155660683273955e-06,8.329720035389706e-06,2.1186792155254546e-06,2.0693794748196453e-06,1.1890035339660557e-06,2.3689973601771005e-06
151,2.2606357526529096e-06,1.339247204868259e-06,2.6458784450605802e-06,2.447033293371923e-06,6.207458414269935e-06,8.237680464194891e-06,3.4195283561632825e-06,2.1179075127456357e-06,2.8973496212818368e-06,1.6734124953061802e-06,1.1705907400106412e-06,8.389431992826799e-06,2.289544772895334e-06,2.11649465955685e-06,1.2129023056018905e-06,2.383182499394139e-06
152,2.206036057588527e-06,1.4903921996074528e-06,2.604902289439825e-06,2.4244252067591823e-06,6.222776521966644e-06,8.47460721505407e-06,3.513529582280386e-06,2.1072671439888657e-06,3.060413660717261e-06,1.632127843112791e-06,1.1838140602888132e-06,8.4363965738196e-06,2.476171186928504e-06,2.1728086946809897e-06,1.2363226435494832e-06,2.4000500775416113e-06
153,2.1509493347036625e-06,1.6616513931579914e-06,2.5591388433584285e-06,2.40261513598688e-06,6.217874561516324e-06,8.684212502111106e-06,3.5981675247882375e-06,2.0963561706836644e-06,3.2348316998015725e-06,1.595328983832453e-06,1.195396372123672e-06,8.471708143740589e-06,2.6772927772021496e-06,2.2393969699099146e-06,1.2580917107082073e-06,2.4192718968157753e-06
154,2.0966024042215887e-06,1.853563912074008e-06,2.5105549853807653e-06,2.381539239592136e-06,6.192438216319679e-06,8.860883454789415e-06,3.672438320612254e-06,2.0836271129365693e-06,3.420539924781829e-06,1.5647179390022408e-06,1.2054920418795564e-06,8.497150242849546e-06,2.8914864368414875e-06,2.3173052241231075e-06,1.2770508141307782e-06,2.4402428731999666e-06
155,2.0440926359341983e-06,2.0665456444178337e-06,2.4610688887284765e-06,2.3609307788996817e-06,6.146525530494982e-06,8.99971256271426e-06,3.7357520902805046e-06,2.0678354201160267e-06,3.617092500370116e-06,1.5417726918701075e-06,1.2142744968207472e-06,8.515056763330722e-06,3.1171057682796263e-06,2.407276442243483e-06,1.2923667802832843e-06,2.46214475953291e-06
156,1.9945072711518687e-06,2.3008215788692106e-06,2.412447060789419e-06,2.3405004828977564e-06,6.0800971230958675e-06,9.095905304279563e-06,3.7877958490545795e-06,2.0481819251717526e-06,3.8234261242136615e-06,1.5277078935301632e-06,1.2218429247562337e-06,8.528064519526037e-06,3.352221357851476e-06,2.509593148697955e-06,1.30372696230033e-06,2.4841627327966944e-06
157,1.9488825861144793e-06,2.5563284258662717e-06,2.3661611028026324e-06,2.320006042457208e-06,5.992821599553762e-06,9.144053768607118e-06,3.828286109701991e-06,2.0243696569143535e-06,4.037718259556981e-06,1.5234551312007357e-06,1.2282659942196044e-06,8.538972849403378e-06,3.594603452355325e-06,2.6240081317583204e-06,1.3112362125615146e-06,2.5058258299853714e-06
158,1.908090863101575e-06,2.8327290828063138e-06,2.323298346392256e-06,2.299207786831584e-06,5.884016629852999e-06,9.138146455611596e-06,3.8567966472265986e-06,1.996555462804282e-06,4.2573793386664696e-06,1.529616564233672e-06,1.233729488497166e-06,8.55071402424036e-06,3.841793663029193e-06,2.7497281267610306e-06,1.3151494040181034e-06,2.5272045654937373e-06
159,1.872823998899926e-06,3.129518395194428e-06,2.2846036353956002e-06,2.2777568994691005e-06,5.752645703253377e-06,9.072828801198599e-06,3.872951419136727e-06,1.965217944690919e-06,4.4792671131881346e-06,1.5464325021235752e-06,1.2386165423310946e-06,8.566237294091322e-06,4.091195623156395e-06,2.8854395960137986e-06,1.3157420257382475e-06,2.548810870508325e-06
160,1.8437133502468796e-06,3.4460585189619215e-06,2.250579479943227e-06,2.2550739780380454e-06,5.5977825562131955e-06,8.945253722087365e-06,3.876855588398559e-06,1.9309574758846825e-06,4.700058657110704e-06,1.5738138532700593e-06,1.2434785422829976e-06,8.588176070564737e-06,4.340086910055331e-06,3.029357554918579e-06,1.3133786613832153e-06,2.5713324851234227e-06
161,1.8214894139603967e-06,3.7814931518739093e-06,2.2215667903072198e-06,2.2303584118303403e-06,5.4196581779853045e-06,8.756404900943432e-06,3.869321888174292e-06,1.894250539130075e-06,4.9166071695204125e-06,1.6114785272153904e-06,1.2489918269909074e-06,8.618341702210255e-06,4.585608674324365e-06,3.1792486334832074e-06,1.3085224229859756e-06,2.595343954822786e-06
162,1.807079339554536e-06,4.134631476742066e-06,2.1977873419669725e-06,2.202802911910357e-06,5.220555003799909e-06,8.511310813085417e-06,3.851735716513272e-06,1.8552632832864258e-06,5.126157651457518e-06,1.6591184125674077e-06,1.2559153426228382e-06,8.657204203427088e-06,4.824716367492504e-06,3.3323814849632508e-06,1.301597823562044e-06,2.621056749072685e-06
163,1.8015870901529055e-06,4.503874258491097e-06,2.1793300786232135e-06,2.171860171305227e-06,5.004867246737044e-06,8.218170617717879e-06,3.825745068927742e-06,1.813880627955244e-06,5.326376416792923e-06,1.7164482623596018e-06,1.2649835261841677e-06,8.703630358615706e-06,5.0539684293956465e-06,3.4855126516713847e-06,1.2929367612193318e-06,2.648189334071793e-06
164,1.8061455664640348e-06,4.887178685551897e-06,2.1661224758043025e-06,2.137436026035214e-06,4.77840966580408e-06,7.886793285778298e-06,3.792933125191824e-06,1.7699848382170071e-06,5.515132902159565e-06,1.7831400402324296e-06,1.2767715291090199e-06,8.755133298112049e-06,5.2693533759288655e-06,3.6351160007665497e-06,1.2829089347683271e-06,2.675992071689522e-06
165,1.8217158630119318e-06,5.281978727596888e-06,2.1579493421332313e-06,2.1000134705853817e-06,4.547438919413997e-06,7.5270649123736644e-06,3.754503204508725e-06,1.7237648554177492e-06,5.690074317942575e-06,1.8587287299399607e-06,1.2916599211426942e-06,8.808526608330206e-06,5.4666508930196064e-06,3.7778962186599982e-06,1.2720482762827399e-06,2.703310511568362e-06
166,1.8489469283890295e-06,5.684980917525102e-06,2.154482661440169e-06,2.060612609144522e-06,4.31781046680173e-06,7.1481042027427674e-06,3.711060345525912e-06,1.6757582358546557e-06,5.848371668613049e-06,1.942497701050437e-06,1.3099316867747202e-06,8.860503373274893e-06,5.6424298343424435e-06,3.91140773102573e-06,1.261014329672056e-06,2.7285861451321253e-06
167,1.8881465869048175e-06,6.091962334097281e-06,2.1552751257852586e-06,2.0204954755501845e-06,4.094531994468404e-06,6.7580786412571885e-06,3.662658955517956e-06,1.626635740571611e-06,5.9870158363087315e-06,2.03336296994328e-06,1.3318811115385316e-06,8.907814722269034e-06,5.795012942247627e-06,4.034364574572408e-06,1.2504596893021217e-06,2.7499191402619137e-06
168,1.9393516809578156e-06,6.497806157006616e-06,2.1597676726043924e-06,1.980789021150964e-06,3.881715314352758e-06,6.364187411037637e-06,3.6091501648617067e-06,1.5770384475929353e-06,6.103483253988766e-06,2.1298278685099373e-06,1.357809610702818e-06,8.947192928391415e-06,5.924501179328181e-06,4.146325871163074e-06,1.2409353615076236e-06,2.7653310618710768e-06
169,2.0024292722457903e-06,6.89678328362471e-06,2.1673480511655906e-06,1.9422982236272364e-06,3.682716658553944e-06,5.972590471888667e-06,3.5506320705607494e-06,1.5276272356433103e-06,6.196279383457283e-06,2.230077241613303e-06,1.3879220294228796e-06,8.97533529330586e-06,6.031802557281452e-06,4.247229233694523e-06,1.2328345496360336e-06,2.7731402250222586e-06
170,2.077108399317938e-06,7.282875492618612e-06,2.1774142430651692e-06,1.9055666996611884e-06,3.5002428446650945e-06,5.588331212271514e-06,3.487760406323157e-06,1.4792037257876322e-06,6.265107878401722e-06,2.3321837748297904e-06,1.4222291720677705e-06,8.989119180166166e-06,6.117739949285059e-06,4.3373874512125905e-06,1.226352330604954e-06,2.772299576693581e-06
171,2.162922369618853e-06,7.649998076481724e-06,2.1894412371580476e-06,1.8710351505261582e-06,3.3363541983605396e-06,5.215285178039963e-06,3.421786740607473e-06,1.4327203581290465e-06,6.310667954815395e-06,2.434282776641434e-06,1.4605224308228007e-06,8.9860507658729e-06,6.182994644051732e-06,4.417619630382695e-06,1.2215053437455727e-06,2.762591935599895e-06
172,2.259133676607877e-06,7.992164299665477e-06,2.2031141153464545e-06,1.83913202538803e-06,3.1924786838414394e-06,4.856166207080688e-06,3.354308087917853e-06,1.3891543063024435e-06,6.33423542369421e-06,2.5346253188489155e-06,1.5024069827161875e-06,8.964777075068657e-06,6.228369888947009e-06,4.488965028837891e-06,1.218196384238163e-06,2.744594253119956e-06
173,2.3646721253875608e-06,8.303709145679366e-06,2.2184791015812843e-06,1.8102279365107894e-06,3.069506293024476e-06,4.512654628980679e-06,3.2868591986444293e-06,1.3493577307896117e-06,6.337177379874714e-06,2.6315244410459547e-06,1.5473542693719216e-06,8.925396853345669e-06,6.2547690460476985e-06,4.552109507674118e-06,1.2162587162335664e-06,2.7194694822695767e-06
174,2.478089529023189e-06,8.579625191595575e-06,2.2359611684704417e-06,1.7844984933415802e-06,2.9678348796335385e-06,4.185708265960207e-06,3.2206068627536974e-06,1.3139920951078166e-06,6.32047321937322e-06,2.723311669330277e-06,1.594741100126932e-06,8.869435406337001e-06,6.263013005821321e-06,4.606933150989488e-06,1.2154865940465236e-06,2.6887713106859225e-06
175,2.5975672838588744e-06,8.815978754124476e-06,2.256220891463317e-06,1.7618095468122056e-06,2.887299158269747e-06,3.87600663594205e-06,3.1563060662318396e-06,1.2835619225523873e-06,6.28457728148208e-06,2.8085095818695333e-06,1.6438468995935423e-06,8.799550283253546e-06,6.253685882949204e-06,4.65232385068081e-06,1.2156846649566485e-06,2.6542915967417033e-06
176,2.720964468367586e-06,9.010229955478538e-06,2.2799483823938012e-06,1.7417153769989287e-06,2.8271172571439124e-06,3.5843500788286162e-06,3.0943865004797706e-06,1.2584990234057532e-06,6.229868577246334e-06,2.8861819846982383e-06,1.6937996325467724e-06,8.719120028669706e-06,6.226889450435558e-06,4.686161320764493e-06,1.216711198342792e-06,2.617835961193143e-06
177,2.845867192139276e-06,9.161118272982565e-06,2.307644303145362e-06,1.72355072686857e-06,2.786006694102889e-06,3.311863922467226e-06,3.0349295603992427e-06,1.2392145294406452e-06,6.157275557232392e-06,2.9561375508887066e-06,1.7435221610920188e-06,8.63181383435601e-06,6.181876977989741e-06,4.705469339869159e-06,1.2184655270559519e-06,2.5809900281007285e-06
178,2.9696457476411086e-06,9.267900437909235e-06,2.339426295832226e-06,1.7065005673808952e-06,2.7624863451917625e-06,3.0599610701535e-06,2.977533872173921e-06,1.2260761507613677e-06,6.068661573673968e-06,3.0188546702003103e-06,1.791778605097326e-06,8.541117322367497e-06,6.116940228894547e-06,4.706899539538748e-06,1.2208053273926599e-06,2.5450416891945987e-06
179,3.0895593870668692e-06,9.32930309923853e-06,2.374943466765298e-06,1.6895932393033424e-06,2.7551859914110177e-06,2.830089188113739e-06,2.9213041585061195e-06,1.2193911852469936e-06,5.966961461832846e-06,3.0752202792624673e-06,1.83732377816369e-06,8.44978835477059e-06,6.0300050077364265e-06,4.687545520037852e-06,1.2234345981793274e-06,2.5110265065136298e-06
180,3.2029585262562548e-06,9.343139917561797e-06,2.4134081593421476e-06,1.671747706618034e-06,2.7629108640558054e-06,2.6233884066853994e-06,2.865113252238535e-06,1.2194482522137882e-06,5.856007029701004e-06,3.1261446131240628e-06,1.8789892905402148e-06,8.359399334887886e-06,5.91980759492738e-06,4.645640110470108e-06,1.225838270454536e-06,2.479795154167978e-06
181,3.3075354544856537e-06,9.307201723156355e-06,2.453661966378246e-06,1.6519837767174456e-06,2.7844194564070563e-06,2.440443726270978e-06,2.8080093701451517e-06,1.2265257379266853e-06,5.739953504659502e-06,3.1721874676706297e-06,1.9156008290564123e-06,8.270248149915965e-06,5.786717002820635e-06,4.580589842450811e-06,1.2273093242523527e-06,2.452097505308841e-06
182,3.4014117329289105e-06,9.220935194856065e-06,2.4942145069151302e-06,1.6296567675692345e-06,2.818130310495644e-06,2.281220937843813e-06,2.7495136175962725e-06,1.2408278228194607e-06,5.6225209066067655e-06,3.213383154457687e-06,1.9459123046564726e-06,8.181765814095081e-06,5.632471057291721e-06,4.492596142417612e-06,1.2270574725596188e-06,2.4286336356576924e-06
183,3.482919561759717e-06,9.08689633830299e-06,2.5332463870315037e-06,1.6045286825935538e-06,2.8619744053049544e-06,2.145146916218894e-06,2.689714418887738e-06,1.2624184126109152e-06,5.506458979450889e-06,3.2493079059787285e-06,1.9687551506413156e-06,8.093167920874481e-06,5.45955885538975e-06,4.382663587558613e-06,1.224371778978944e-06,2.4099984663278034e-06
184,3.550299668255757e-06,8.911232649611693e-06,2.5686473046962644e-06,1.576671984491933e-06,2.913501038771715e-06,2.0312320758782268e-06,2.6292388698538846e-06,1.2911886879985165e-06,5.393426357541077e-06,3.2793287998048453e-06,1.9832654083717382e-06,8.003790036988784e-06,5.271290390644236e-06,4.252938847731191e-06,1.2188014007221488e-06,2.39660383003075e-06
185,3.601728108819809e-06,8.703013158455182e-06,2.598272139657548e-06,1.546325281154488e-06,2.9702636756292873e-06,1.9381452013492496e-06,2.5691366594370103e-06,1.326873613584973e-06,5.28414341368564e-06,3.302880938566652e-06,1.988976308211259e-06,7.91279939379279e-06,5.072117834833023e-06,4.106600746562929e-06,1.2102789484161678e-06,2.3887173655936865e-06
186,3.635727696271059e-06,8.472870487621788e-06,2.6204589245704003e-06,1.5138126802594204e-06,3.030259205758043e-06,1.8642918683857606e-06,2.5106570213549388e-06,1.3690969822491586e-06,5.178678015443019e-06,3.3196093256655064e-06,1.9858004686053043e-06,7.818772885475946e-06,4.867380955295495e-06,3.947195883671485e-06,1.1990934648095622e-06,2.3865804315016697e-06
187,3.6515751299766627e-06,8.231676894808782e-06,2.634495922432623e-06,1.4795430651014498e-06,3.0920039198878245e-06,1.8079989340242205e-06,2.45496355158064e-06,1.4173666797980898e-06,5.076842364958056e-06,3.3294455896477726e-06,1.9739828248409682e-06,7.71984215354546e-06,4.6626349006426016e-06,3.778030865970646e-06,1.185736361192552e-06,2.390436384182484e-06
188,3.6493652333871137e-06,7.989642040975978e-06,2.640700421533059e-06,1.4439935833626175e-06,3.154165328622604e-06,1.767732752873043e-06,2.4028770836128168e-06,1.4710424778072167e-06,4.978557623570217e-06,3.3327307715458096e-06,1.9539829049977515e-06,7.614292509247572e-06,4.46307178338663e-06,3.6020084234713295e-06,1.1707794933048716e-06,2.400435094984651e-06
189,3.6297671505616167e-06,7.755799880903913e-06,2.640129028186895e-06,1.4076067784652982e-06,3.215157972301318e-06,1.7421986102722852e-06,2.354722972436839e-06,1.529351484847993e-06,4.8838817603989905e-06,3.3302085770033436e-06,1.926307631012919e-06,7.500981922707796e-06,4.273198647934825e-06,3.4217719802451263e-06,1.1548346463531302e-06,2.4166088483018633e-06
190,3.59376935273606e-06,7.537719677969133e-06,2.6341828764547015e-06,1.370691699830136e-06,3.273107604526509e-06,1.7302902543513448e-06,2.310325383119234e-06,1.5913943252202351e-06,4.792623152866403e-06,3.322714135076003e-06,1.891489023203764e-06,7.379332687444723e-06,4.09668084844766e-06,3.2398077687823032e-06,1.1384882512834511e-06,2.4389982810135634e-06
191,3.5426895375382416e-06,7.341354034650825e-06,2.6243019314969986e-06,1.3334519833538912e-06,3.3262467796813626e-06,1.7309828036346623e-06,2.2691603918787215e-06,1.656083841296795e-06,4.703889466083519e-06,3.310725346278529e-06,1.8502426264881645e-06,7.249109500771307e-06,3.936275182366563e-06,3.058327427773422e-06,1.1221977375803133e-06,2.4676926237342773e-06
192,3.4784324260220416e-06,7.171081408534705e-06,2.611761473257642e-06,1.2960972558052883e-06,3.3735503985419245e-06,1.743299644403494e-06,2.2306351109724497e-06,1.7221075706109472e-06,4.615913079603983e-06,3.2940725943349514e-06,1.803535836035251e-06,7.110221870808103e-06,3.7938393009999718e-06,2.87910613354366e-06,1.1062284279087473e-06,2.502673300428816e-06
193,3.403648002339009e-06,7.0300022463912305e-06,2.5975258867828835e-06,1.2588891109930314e-06,3.4152363454051697e-06,1.766407050680455e-06,2.1943833392327934e-06,1.7880078310624456e-06,4.526242565156087e-06,3.271945553540644e-06,1.7524255687999637e-06,6.962587064223461e-06,3.670405035136697e-06,2.7035105565653413e-06,1.0906718239023789e-06,2.5436432498348418e-06
194,3.3214905670800193e-06,6.920370316082279e-06,2.5821745185056377e-06,1.222076690584603e-06,3.4527201881959297e-06,1.7997444054711883e-06,2.160467568017692e-06,1.8523579582411463e-06,4.432246829167081e-06,3.24313542938338e-06,1.6978723850275874e-06,6.806005628237964e-06,3.5663182999269434e-06,2.532661886154604e-06,1.075557889815112e-06,2.5899846263891033e-06
195,3.2351583639316242e-06,6.8439760202617635e-06,2.565914463755903e-06,1.185846695155493e-06,3.4880020314536935e-06,1.8430429715104075e-06,2.129444601049445e-06,1.9140129940956018e-06,4.331601171700141e-06,3.206263098997306e-06,1.6407230258314694e-06,6.640072861032887e-06,3.481409222715023e-06,2.3675615577133358e-06,1.0609832649726659e-06,2.6408981975789205e-06
196,3.1476590515057436e-06,6.802397415541151e-06,2.5486047218558003e-06,1.1503570236319936e-06,3.5229434173909087e-06,1.8962041123198397e-06,2.1022524394744555e-06,1.9724248102328324e-06,4.222374517089805e-06,3.159847728996295e-06,1.5818025558162447e-06,6.46418624251232e-06,3.415207846268564e-06,2.2091628344230553e-06,1.047116868704194e-06,2.6957277458978533e-06
197,3.061857067902253e-06,6.797118112570799e-06,2.529714825604733e-06,1.115754876411094e-06,3.558860751692929e-06,1.959136752787439e-06,2.0799222611788e-06,2.0278510669903664e-06,4.102939263346882e-06,3.1025281596642315e-06,1.521977885986928e-06,6.277689060005658e-06,3.367276231838877e-06,2.058446101184528e-06,1.034108296890312e-06,2.7543067496473816e-06
198,2.9804659626194404e-06,6.829506002375261e-06,2.5082856426286005e-06,1.0821895250723436e-06,3.5965211890854426e-06,2.0316248987865155e-06,2.0632747307267647e-06,2.0812156387474497e-06,3.97233355982949e-06,3.03365204766493e-06,1.4621304943359875e-06,6.0801388437385086e-06,3.3374191249819673e-06,1.916480302472845e-06,1.0220724158777285e-06,2.8170786200442694e-06
199,2.9058651055812238e-06,6.900604821501324e-06,2.4830171564557217e-06,1.049928471066091e-06,3.6363920567265213e-06,2.11323023763448e-06,2.0527573411429984e-06,2.1336673298234015e-06,3.831014442073984e-06,2.953753956426082e-06,1.4030586013610065e-06,5.871580616791954e-06,3.3254793746897644e-06,1.7843806977138702e-06,1.0111727951937438e-06,2.88488391724087e-06
200,2.839928837975965e-06,7.01076349129863e-06,2.4525011757361694e-06,1.019482422776267e-06,3.678834900372851e-06,2.203228768381748e-06,2.048411664735999e-06,2.1861970408880795e-06,3.681129259949684e-06,2.86443498653297e-06,1.3453968766202583e-06,5.652691127940844e-06,3.330989313097101e-06,1.663135992415232e-06,1.0016444075426782e-06,2.9585633023277505e-06
201,2.783986836127288e-06,7.159252042498434e-06,2.415554061935936e-06,9.915710764784185e-07,3.724005826816792e-06,2.3005522430092366e-06,2.0498909795999747e-06,2.239524890400531e-06,3.5258920603124463e-06,2.7678103554434374e-06,1.289602413068119e-06,5.424820172238506e-06,3.353113839737785e-06,1.5534303898463797e-06,9.937270109142438e-07,3.0386821994307943e-06
202,2.738903390978013e-06,7.3440213543048544e-06,2.3715726075585587e-06,9.669588380701127e-07,3.7715650818360743e-06,2.4037433103936757e-06,2.056475534730766e-06,2.294110964896932e-06,3.3686161742712994e-06,2.66599629849115e-06,1.2359544007482768e-06,5.190045398922826e-06,3.3908189602995845e-06,1.4555924830211513e-06,9.876125011016685e-07,3.1255210119519177e-06
203,2.7052195956578236e-06,7.561709347598779e-06,2.320731216598806e-06,9.46317740333423e-07,3.8204841309125365e-06,2.511029215954869e-06,2.0670923018815796e-06,2.3501243624520566e-06,3.2120700233475642e-06,2.5609104196630003e-06,1.1845631354303576e-06,4.951252330205011e-06,3.442945804066423e-06,1.3696678031146577e-06,9.83409201064769e-07,3.2191648060000886e-06
204,2.683236050108052e-06,7.807857663944071e-06,2.263861126299917e-06,9.301880580228397e-07,3.869107257099333e-06,2.6205370037548307e-06,2.08039313129375e-06,2.4074116083872603e-06,3.0583171208143615e-06,2.454301668805248e-06,1.1354452936128631e-06,4.712152148692174e-06,3.508111350256592e-06,1.2955220609946148e-06,9.81121454679123e-07,3.319526975667946e-06
205,2.672948524736185e-06,8.077157122169465e-06,2.20208676160562e-06,9.189766500026626e-07,3.915393638147501e-06,2.7305210938090292e-06,2.0948742708553556e-06,2.465574967300594e-06,2.908913308446939e-06,2.34775312440847e-06,1.0886195982336356e-06,4.477161779991404e-06,3.5846208977865076e-06,1.232879418027828e-06,9.806956858965197e-07,3.4263546612534938e-06
206,2.673893327429531e-06,8.363608878369877e-06,2.136472668230287e-06,9.129578193620772e-07,3.957171578602064e-06,2.8394957564611903e-06,2.1089635839983158e-06,2.5241709026301887e-06,2.765276022914651e-06,2.2425848030709953e-06,1.0441327399226202e-06,4.251132802767242e-06,3.6705414994264423e-06,1.1812853447521312e-06,9.820728103545277e-07,3.5392974547844224e-06
207,2.685028532324002e-06,8.660566462520515e-06,2.0679143687438967e-06,9.122986768157088e-07,3.992347036038046e-06,2.946257311364993e-06,2.1210957700870026e-06,2.5829117887613584e-06,2.6289197410425277e-06,2.139806587794037e-06,1.0020272441347109e-06,4.039012880967147e-06,3.763820383408679e-06,1.1400610180961411e-06,9.85156915964235e-07,3.6580022463776952e-06
208,2.704737822660237e-06,8.960569165082925e-06,1.99730748654531e-06,9.170778680285321e-07,4.019121704956497e-06,3.049808885984286e-06,2.1298719447619604e-06,2.641749927894915e-06,2.5013904428253516e-06,2.04020759955704e-06,9.62310144986457e-07,3.845567842509116e-06,3.862258209534044e-06,1.1083046353922506e-06,9.897687394051088e-07,3.7821475329344106e-06
209,2.7309677096399968e-06,9.255112796969033e-06,1.925757262337917e-06,9.272601100239592e-07,4.036224766975189e-06,3.14922586400928e-06,2.1342974611902098e-06,2.700827085239064e-06,2.3840992584758777e-06,1.9445107578469323e-06,9.24944743946692e-07,3.6751829098298243e-06,3.963389949895419e-06,1.0849749322548802e-06,9.957011693914653e-07,3.91139728925667e-06
210,2.7614356142938486e-06,9.534925041713768e-06,1.8545724638651753e-06,9.4267639843307e-07,4.043055916882612e-06,3.2435489262526756e-06,2.133931970010516e-06,2.7603374312444995e-06,2.278211373337098e-06,1.8534770222999106e-06,8.898671169901547e-07,3.531685490216245e-06,4.064393529058796e-06,1.069017633607667e-06,1.0028290026649244e-06,4.045298091549798e-06
211,2.793801703888622e-06,9.79099599523341e-06,1.7850612739339816e-06,9.630722376798417e-07,4.039627453671506e-06,3.3317697782394497e-06,2.12880959836016e-06,2.820350494874756e-06,2.1845327822523325e-06,1.767867369813349e-06,8.570109496437939e-07,3.4182330655096853e-06,4.162003785324754e-06,1.0594223659756444e-06,1.0111333603259872e-06,4.183114130208467e-06
212,2.8257117193194095e-06,1.0015783421539922e-05,1.7183387262741706e-06,9.881959641946154e-07,4.0263092271594925e-06,3.412860297420465e-06,2.119195693582442e-06,2.8806311013334126e-06,2.103426091147703e-06,1.6882871925791545e-06,8.263148147563982e-07,3.337304340200709e-06,4.252612474618118e-06,1.0552285132547545e-06,1.0206410571221152e-06,4.3236242492791725e-06
213,2.854706839774481e-06,1.0203928844834879e-05,1.6552922907073507e-06,1.0178353815300088e-06,4.00351286839822e-06,3.4857019365197963e-06,2.105378020753422e-06,2.9405283091095236e-06,2.034815732785735e-06,1.6150664178545659e-06,7.977363604763222e-07,3.290707367905502e-06,4.332889750633312e-06,1.05557193482923e-06,1.0313681188909693e-06,4.46500854257018e-06
214,2.878145755294051e-06,1.0352373390522784e-05,1.5966628198043495e-06,1.0517718123447444e-06,3.9714121905140196e-06,3.548891129163151e-06,2.0876052242038165e-06,2.999078426945839e-06,1.978262147475383e-06,1.5482660880284206e-06,7.713133139567391e-07,3.2795995784882542e-06,4.40071943705801e-06,1.0597177034540331e-06,1.0432862129948696e-06,4.604968788826481e-06
215,2.893364694980228e-06,1.0460083828834682e-05,1.543105620396229e-06,1.0897249916704296e-06,3.929691516861559e-06,3.6007080704110858e-06,2.066110176758061e-06,3.0553544391009816e-06,1.9330756511619345e-06,1.4877559034982934e-06,7.47221271595267e-07,3.3045675359789953e-06,4.455727553413835e-06,1.0670631507152989e-06,1.0563340276138897e-06,4.741088491093294e-06
216,2.8981359689135588e-06,1.0527612451181781e-05,1.4951889562852511e-06,1.1313302845223752e-06,3.877414593448702e-06,3.6394961658000574e-06,2.0410730182521075e-06,3.1087761403200603e-06,1.8983960105081031e-06,1.433289354787692e-06,7.257533037811346e-07,3.365676556564573e-06,4.499014475797574e-06,1.0771763357914863e-06,1.0704719181442168e-06,4.871273010667427e-06
217,2.8911609124546268e-06,1.0556442268334928e-05,1.4533686986279113e-06,1.1761228109231624e-06,3.8132075700199225e-06,3.6642092921392067e-06,2.012488142546777e-06,3.159066561396576e-06,1.8732201384036147e-06,1.3845758873538266e-06,7.072535733535397e-07,3.4624340914128716e-06,4.532419542402894e-06,1.0897685501537312e-06,1.0856892469034436e-06,4.994081516571516e-06
218,2.8721994506292507e-06,1.0548072644189797e-05,1.4179451254183486e-06,1.2235539562084348e-06,3.7358036475934466e-06,3.6747136640488253e-06,1.980092138545202e-06,3.2059918637253682e-06,1.8564687959749255e-06,1.341377849252583e-06,6.920791466361152e-07,3.5937399457139327e-06,4.557871755423494e-06,1.1045772543457896e-06,1.101971007613317e-06,5.10888914031956e-06
219,2.841691723443446e-06,1.050363430134208e-05,1.3890134215207542e-06,1.2730738347911452e-06,3.6447485311305667e-06,3.6717468323345543e-06,1.9435003396457544e-06,3.249323240900771e-06,1.8471091088921007e-06,1.3035787097785618e-06,6.805960588769127e-07,3.7578897975251454e-06,4.577003978093758e-06,1.1213820079862738e-06,1.1192840600479757e-06,5.215918610209195e-06
220,2.800175436193228e-06,1.0424596155674645e-05,1.3664411212166898e-06,1.3242265729340666e-06,3.5408680612495845e-06,3.6566722681434614e-06,1.9024790337076165e-06,3.2891019228914797e-06,1.8442466841430452e-06,1.2711312437407207e-06,6.731703759864639e-07,3.9526463830179565e-06,4.590897956557404e-06,1.1401839279989953e-06,1.1375436223997944e-06,5.316152285365065e-06
221,2.748012395535567e-06,1.0313497432834904e-05,1.3498680551283757e-06,1.3766591264671648e-06,3.4262078522214373e-06,3.6311382646427635e-06,1.8571545694313134e-06,3.3258526213039224e-06,1.8471030133786016e-06,1.243924321067831e-06,6.701330892249421e-07,4.1752888691068115e-06,4.599949670053741e-06,1.1612894011017873e-06,1.1565726931945199e-06,5.411130231679389e-06
222,2.685622084789514e-06,1.017373607132019e-05,1.3387349363619625e-06,1.4300179214522336e-06,3.3035504378137476e-06,3.596686493902555e-06,1.8080501329472709e-06,3.360525316608691e-06,1.8548626675591737e-06,1.2216990349680093e-06,6.717397488925264e-07,4.422519884022336e-06,4.603964739140828e-06,1.185183134551611e-06,1.1760932305661025e-06,5.502664408804338e-06
223,2.6139027258341243e-06,1.0008986210149683e-05,1.3323609777487557e-06,1.4838553776011618e-06,3.175820602701598e-06,3.5544000711048976e-06,1.7559944321247842e-06,3.39425061020415e-06,1.866490342757737e-06,1.20409491636811e-06,6.781498460503087e-07,4.69027953985941e-06,4.602417736321073e-06,1.2123523181623515e-06,1.1957031775115008e-06,5.592476625220279e-06
224,2.5344093108003376e-06,9.823061171506853e-06,1.3300439084234244e-06,1.537622244837494e-06,3.045638920052369e-06,3.5047404915985564e-06,1.7019901153533385e-06,3.4280539619524174e-06,1.8806629804366781e-06,1.1908224062742966e-06,6.89440730857113e-07,4.973612645241312e-06,4.594709906581045e-06,1.2432032577870955e-06,1.2148576316252958e-06,5.681855374519204e-06
225,2.4491836962946505e-06,9.620273023733861e-06,1.3311448918668482e-06,1.5906592465485303e-06,2.915147291622069e-06,3.4477050092772494e-06,1.6470638665903708e-06,3.462628917314019e-06,1.8958665010719843e-06,1.1818257737027858e-06,7.056965652330295e-07,5.266697102065714e-06,4.580370847555406e-06,1.278019431753369e-06,1.2329288433423862e-06,5.771506701906786e-06
226,2.3604453845725263e-06,9.405851134558136e-06,1.3351283403991935e-06,1.6421884661876513e-06,2.786041669856902e-06,3.3832827551370737e-06,1.5921260616633345e-06,3.498187411136311e-06,1.91057190444518e-06,1.1772622142044014e-06,7.271653018891966e-07,5.563134109219799e-06,4.5592131229779625e-06,1.3168898469283158e-06,1.2493440724018407e-06,5.861532211492678e-06
227,2.2703681682792236e-06,9.185985194550768e-06,1.3415194727968358e-06,1.691387409577498e-06,2.6596852459587255e-06,3.311941769005667e-06,1.5379642989751147e-06,3.5343647900000076e-06,1.9233823630040558e-06,1.1773513147859847e-06,7.543857672360873e-07,5.856459481325496e-06,4.531484597535869e-06,1.3596538422015146e-06,1.2637387332599727e-06,5.9513470158784766e-06
228,2.1809669936599267e-06,8.967395916172386e-06,1.349814107103784e-06,1.7374809143561986e-06,2.5372468026987274e-06,3.2348281143827726e-06,1.4854120793990062e-06,3.5702275159426622e-06,1.933152343473992e-06,1.1822760109774592e-06,7.882490826831081e-07,6.1405818308874225e-06,4.498084297862753e-06,1.4059025874371788e-06,1.276012224847452e-06,6.039749940297336e-06
229,2.093999339920376e-06,8.756615225010999e-06,1.359440043006162e-06,1.7797252939275174e-06,2.419836263926317e-06,3.1536075059649897e-06,1.4354941038449678e-06,3.604405887730559e-06,1.9391238929685505e-06,1.192141147362862e-06,8.300391468626348e-07,6.409904404755578e-06,4.4607273862913645e-06,1.4549944300259346e-06,1.28621206797909e-06,6.125374349516826e-06
230,2.010885297238334e-06,8.559263084863148e-06,1.3697782473467102e-06,1.8172995479350849e-06,2.308593370046204e-06,3.0701325925084846e-06,1.3893673982418282e-06,3.6352587433135543e-06,1.941041580739204e-06,1.2069180339341028e-06,8.814171180210041e-07,6.659281329913375e-06,4.421790053707935e-06,1.506064805233875e-06,1.2943678480109315e-06,6.20712063318977e-06
231,1.9327451165675437e-06,8.379776335035564e-06,1.3802162745327442e-06,1.8492951850340753e-06,2.2046721385054324e-06,2.9861321695976167e-06,1.3481456829738177e-06,3.661011508382618e-06,1.939183666653717e-06,1.2264113064911944e-06,9.442782852810411e-07,6.884180652733505e-06,4.383809562059357e-06,1.558085886692408e-06,1.3004513117833674e-06,6.284117497100248e-06
232,1.860531674909448e-06,8.221801978774917e-06,1.390268675191486e-06,1.8749221398346146e-06,2.1090988626687738e-06,2.902990406416858e-06,1.3127892016266494e-06,3.679894466523272e-06,1.934334289230817e-06,1.2503072804361998e-06,1.0205367178632461e-06,7.081131093992351e-06,4.348932231155912e-06,1.6099701562156743e-06,1.3044394822979816e-06,6.355358778030492e-06
233,1.7950971552653652e-06,8.088717973508401e-06,1.399670478558246e-06,1.8937367177923185e-06,2.022601809283318e-06,2.8216493644942096e-06,1.2840851753424144e-06,3.690287165365912e-06,1.9277388940098112e-06,1.2782800788551194e-06,1.1119675082991542e-06,7.2481220897813185e-06,4.318538944560429e-06,1.6606135605558987e-06,1.3063443543906476e-06,6.4194103325731666e-06
234,1.7371302048465348e-06,7.983639913600897e-06,1.4082976047461366e-06,1.905662590948322e-06,1.945569900268251e-06,2.742709029580697e-06,1.2626273936104991e-06,3.6908534550751936e-06,1.920997266296078e-06,1.310079625528958e-06,1.2201432481612579e-06,7.384682162564617e-06,4.293070997077979e-06,1.7089044861747012e-06,1.3061917597349787e-06,6.474326344419084e-06
235,1.6870667231292932e-06,7.908924818394222e-06,1.4160573394709323e-06,1.910867141029192e-06,1.8781554197124903e-06,2.666691369185478e-06,1.248764308187541e-06,3.6806820407546994e-06,1.9159211753881524e-06,1.3455273940268009e-06,1.3464117027346002e-06,7.491709439693648e-06,4.271999185046034e-06,1.7538140049976951e-06,1.3040181112191766e-06,6.517683175080472e-06
236,1.6450566265242646e-06,7.865603467954068e-06,1.4229576534241746e-06,1.9096904942397516e-06,1.8203845674446597e-06,2.5942610850127627e-06,1.2425632936630643e-06,3.6594457753522287e-06,1.9144703562960013e-06,1.384398296416878e-06,1.4918943366841225e-06,7.57124485720424e-06,4.253878784185189e-06,1.794515508970103e-06,1.299874241598625e-06,6.546724276395578e-06
237,1.6109592771642226e-06,7.853084879038034e-06,1.4292341638539589e-06,1.9026788658922083e-06,1.7721887234742436e-06,2.526241225229705e-06,1.2438295267679394e-06,3.627524225938851e-06,1.9186981242207447e-06,1.4262786596915768e-06,1.6575119066184283e-06,7.626233071778273e-06,4.23656824756679e-06,1.8304647378401385e-06,1.2938429590447442e-06,6.558721348670708e-06
238,1.5843483442513041e-06,7.869168829217435e-06,1.4353091205460924e-06,1.890621229001884e-06,1.7333709722021698e-06,2.4634599828236194e-06,1.2521757743906025e-06,3.5859691053294167e-06,1.9306123017115257e-06,1.4705137605396107e-06,1.843980630069688e-06,7.660220385987755e-06,4.217752258617666e-06,1.8614413028006566e-06,1.2861200846911067e-06,6.551499479128466e-06
239,1.564557128829565e-06,7.910252137483332e-06,1.4416054738136924e-06,1.874493824166221e-06,1.7035552487750726e-06,2.4065710380946718e-06,1.267081914847985e-06,3.536237626377522e-06,1.952037482266337e-06,1.5162325617743394e-06,2.051726814564117e-06,7.677006219598253e-06,4.195616681208887e-06,1.8874557112086675e-06,1.2770413812162874e-06,6.523890192616857e-06
240,1.550763280171056e-06,7.971753668298511e-06,1.4483999029944184e-06,1.8553089021030648e-06,1.6821821452208745e-06,2.3559611805283217e-06,1.2878716776827023e-06,3.4797635670797306e-06,1.98453723731547e-06,1.5624015773247986e-06,2.2807854037053963e-06,7.680349290464868e-06,4.1692734850218826e-06,1.9085141387542323e-06,1.2669567015903511e-06,6.475932443184901e-06
241,1.542094508036314e-06,8.048870008281654e-06,1.4557755631555107e-06,1.833976765460735e-06,1.6685723247729548e-06,2.311760546314055e-06,1.3136502696512374e-06,3.417564956151679e-06,2.029372612470131e-06,1.6079369886954672e-06,2.530796427030357e-06,7.673794597577089e-06,4.138766477911066e-06,1.924443827801208e-06,1.256115626460522e-06,6.408836476639065e-06
242,1.5377565139909672e-06,8.137541735687895e-06,1.463580997414266e-06,1.8113165851866857e-06,1.6620205449059936e-06,2.273870494930225e-06,1.343336804300992e-06,3.3501233749020543e-06,2.0874945496551033e-06,1.6518705174906327e-06,2.8011192824632504e-06,7.660563277450305e-06,4.104886887684915e-06,1.9348898095621547e-06,1.2446957881854431e-06,6.324846262830832e-06
243,1.5371247000584223e-06,8.235147517570398e-06,1.4713733239310534e-06,1.7881772884368042e-06,1.6618973720057074e-06,2.241923972479203e-06,1.3758137778693833e-06,3.277622281119567e-06,2.1595884367969945e-06,1.6934724150546545e-06,3.090992351902013e-06,7.64332736760296e-06,4.068984545470843e-06,1.9394527055649164e-06,1.2328565044553567e-06,6.227083829415791e-06
244,1.5397104859282237e-06,8.34034728306154e-06,1.4784403397603656e-06,1.7654744115609104e-06,1.6677198259557708e-06,2.215225136779719e-06,1.4100784465791304e-06,3.200357609752452e-06,2.246132215254777e-06,1.7322377245146798e-06,3.399686675941498e-06,7.6237938204029766e-06,4.032650661904662e-06,1.9379106603770536e-06,1.2207207909472247e-06,6.119295821535921e-06
245,1.545064018373189e-06,8.452129143606536e-06,1.4839310993087382e-06,1.7440722801980653e-06,1.679106887264994e-06,2.1927962305438545e-06,1.445331312702516e-06,3.1190258809483283e-06,2.3473942228527184e-06,1.7677825195403825e-06,3.7266171928361966e-06,7.6023939823996105e-06,3.997247143330438e-06,1.9303736689072226e-06,1.208369567134043e-06,6.005365531202184e-06
246,1.5527296295061358e-06,8.569032719522382e-06,1.4869809179865577e-06,1.724661865530879e-06,1.6956141982893257e-06,2.1735357098877205e-06,1.4810155690482666e-06,3.0347401311363036e-06,2.4633796995854414e-06,1.7998396044315622e-06,4.071356090023074e-06,7.578401266185908e-06,3.963538282689234e-06,1.917292428829347e-06,1.195890876175577e-06,5.888672125904063e-06
247,1.5622058459508717e-06,8.689036991637971e-06,1.4867155077632217e-06,1.70775195041535e-06,1.716595619344388e-06,2.1563438797474444e-06,1.5167970256806366e-06,2.948846313605402e-06,2.593761801550626e-06,1.8283850159908177e-06,4.433542924142688e-06,7.5503608075475665e-06,3.931600778086129e-06,1.8993953684328363e-06,1.1834367881027828e-06,5.771627517318146e-06
248,1.5728643458028692e-06,8.809377328318411e-06,1.4822174059671944e-06,1.6936826775010847e-06,1.7412201204133772e-06,2.1401299115567817e-06,1.5524806053644154e-06,2.8627307499745607e-06,2.7378525002407858e-06,1.8536511821027532e-06,4.8127124665359455e-06,7.516582872323752e-06,3.900946562098241e-06,1.8775761087361815e-06,1.171277992362642e-06,5.655588586604839e-06
249,1.5838910840801948e-06,8.925971464649557e-06,1.4726393986063075e-06,1.6825691424385942e-06,1.7685943426809121e-06,2.12378234785756e-06,1.5879079246209349e-06,2.7776978883181384e-06,2.894716625198877e-06,1.8759150533538124e-06,5.208049741957156e-06,7.4756342619536224e-06,3.870667149059619e-06,1.8528058357086078e-06,1.1598028148024487e-06,5.541020819493107e-06
250,1.5942726472541911e-06,9.033091053186914e-06,1.45745228953859e-06,1.6742311983629357e-06,1.7978648366557643e-06,2.1062240962274563e-06,1.6229170805128387e-06,2.6948454639387597e-06,3.063378471358075e-06,1.8952790429261485e-06,5.618094978236108e-06,7.4267649539598925e-06,3.8394729633267765e-06,1.8261797445609107e-06,1.1494196780498364e-06,5.427746721444527e-06
251,1.6028126284901672e-06,9.123666196444456e-06,1.4366186906976813e-06,1.66817429100844e-06,1.8282317523674415e-06,2.0865589803860847e-06,1.6574216014824595e-06,2.6149506276558645e-06,3.242904351463334e-06,1.9116400007435013e-06,6.040428516525222e-06,7.370148782881616e-06,3.8057808832879085e-06,1.798949514094564e-06,1.140466624548108e-06,5.3152418582178505e-06
252,1.6082034079926484e-06,9.190160849415186e-06,1.4105397260085764e-06,1.663647606668132e-06,1.8589096277458237e-06,2.0642300860721017e-06,1.6914878691164e-06,2.538441681901925e-06,3.432261219364846e-06,1.9248125213995422e-06,6.471405108046474e-06,7.3068845791960495e-06,3.768121848241169e-06,1.7723676416629701e-06,1.1331810850369528e-06,5.202942882699933e-06
253,1.6092502846546185e-06,9.225891524065615e-06,1.3798139742148838e-06,1.659784139917552e-06,1.8891571258724694e-06,2.0391230173348644e-06,1.7252323223515603e-06,2.4654116453501185e-06,3.6300699236394278e-06,1.9346843485643415e-06,6.906023198033744e-06,7.2388043810347e-06,3.725761089481953e-06,1.7474680390080186e-06,1.1276577520543563e-06,5.09046662393736e-06
254,1.6052374550758543e-06,9.22646292927216e-06,1.3449930678478762e-06,1.6557328177327898e-06,1.918424112215398e-06,2.0115752375153537e-06,1.7586064358584234e-06,2.395666261889945e-06,3.834415128677652e-06,1.9413342039455586e-06,7.337903953647228e-06,7.168148778604407e-06,3.6790481538283837e-06,1.7249757501323494e-06,1.1237934181628323e-06,4.9776705300296515e-06
255,1.59614745665685e-06,9.190727971441974e-06,1.30649880144048e-06,1.650664522989178e-06,1.9464722315879964e-06,1.9822694710774946e-06,1.7912593724931025e-06,2.3288615443775104e-06,4.04280644239404e-06,1.945119606469867e-06,7.759259834663488e-06,7.0971111931348574e-06,3.6291808221704463e-06,1.705370827048661e-06,1.1212971162715118e-06,4.8645948938968435e-06
256,1.5824927794515849e-06,9.120748522487571e-06,1.2647047184168413e-06,1.64368810840677e-06,1.9732939915503907e-06,1.9520253989228163e-06,1.8225460692152684e-06,2.2646806964905913e-06,4.252315443642798e-06,1.946735062440425e-06,8.160870291078601e-06,7.027312151726354e-06,3.5775319839189195e-06,1.6889934679636331e-06,1.1197857611945012e-06,4.75139673898786e-06
257,1.564910720188182e-06,9.02072939851863e-06,1.2200653331658695e-06,1.6338798231191107e-06,1.998859275876872e-06,1.9215625190976773e-06,1.8516870193955456e-06,2.202970141078906e-06,4.459739367542544e-06,1.947208982703381e-06,8.532292684966475e-06,6.959502182797871e-06,3.5250446973341803e-06,1.6760545204762537e-06,1.1188721895804575e-06,4.6383688479327075e-06
258,1.5438605783740403e-06,8.895475488315102e-06,1.173197778182192e-06,1.6205271132390308e-06,2.022882012818888e-06,1.891362819029887e-06,1.8780508644215443e-06,2.1437923444637093e-06,4.661689925360319e-06,1.947831956764588e-06,8.862515201169506e-06,6.893797795883727e-06,3.472141781555524e-06,1.666550453171393e-06,1.1181435464193835e-06,4.526059278243218e-06
259,1.5195884123506684e-06,8.749054926200956e-06,1.1248690826181942e-06,1.6033932512608484e-06,2.0447550545206315e-06,1.8617103245446702e-06,1.9014332269485142e-06,2.0873877097759066e-06,4.854852056872146e-06,1.9500087205094173e-06,9.14109580888478e-06,6.830268418914761e-06,3.4191023638520743e-06,1.6601859942661844e-06,1.1170981438719277e-06,4.415417562434838e-06
260,1.4923222462609547e-06,8.583994204853207e-06,1.0758862817092764e-06,1.58275884665577e-06,2.063664461273526e-06,1.832843052988345e-06,1.9221558878796367e-06,2.0341209399231223e-06,5.036496740110814e-06,1.9550406135835263e-06,9.35963126743056e-06,6.769348396078293e-06,3.366475898508192e-06,1.6563552003914866e-06,1.1151954178552247e-06,4.307876459565867e-06
261,1.4625603508903662e-06,8.401007715623831e-06,1.0269750560774171e-06,1.5592426188000013e-06,2.078754526965749e-06,1.8051079123771605e-06,1.940898463955271e-06,1.984475807398937e-06,5.204875366063763e-06,1.9639404998809867e-06,9.513063270748197e-06,6.7118184250732625e-06,3.31515844318001e-06,1.6542290351805738e-06,1.1120361493404368e-06,4.205326171625021e-06
262,1.4312226266746927e-06,8.199237801094135e-06,9.787301065662949e-07,1.5336021625834882e-06,2.0891863941213076e-06,1.7790335322763918e-06,1.958394853267385e-06,1.9390283759067726e-06,5.359270503359416e-06,1.9773914849081844e-06,9.600080028830765e-06,6.658457829415754e-06,3.266088280931259e-06,1.6529956654374793e-06,1.10756371928705e-06,4.109967705754949e-06
263,1.3995081543343832e-06,7.976983806390821e-06,9.316242352504759e-07,1.5066706367744017e-06,2.094126850543038e-06,1.7552506994422435e-06,1.9752464205168083e-06,1.8983194615257352e-06,5.4998412923210625e-06,1.995802905439279e-06,9.622170414138395e-06,6.609530753159045e-06,3.2198712323668175e-06,1.652128136379269e-06,1.1021522811069134e-06,4.024064855400022e-06
264,1.368593838079243e-06,7.73273365951295e-06,8.860445650411525e-07,1.4793815441197278e-06,2.0928535289204037e-06,1.7342975959819457e-06,1.9919205961288868e-06,1.8627142068531037e-06,5.627357750850311e-06,2.019353129060538e-06,9.58176972459913e-06,6.564300739746906e-06,3.1765870815547437e-06,1.6514609046743168e-06,1.0965036330671159e-06,3.949689853149395e-06
265,1.3394262422303946e-06,7.466111290569641e-06,8.423304721173993e-07,1.4527262514286314e-06,2.0849947324413252e-06,1.7164542477530614e-06,2.008807661543034e-06,1.8323858857921068e-06,5.742758834905787e-06,2.0480290042760327e-06,9.480699217313199e-06,6.5208445205739445e-06,3.1357012926545387e-06,1.6510168503513997e-06,1.0914298051586656e-06,3.888589775479978e-06
266,1.3126747108137089e-06,7.178370115419119e-06,8.007786868328934e-07,1.4276115599847148e-06,2.0707009990069913e-06,1.701679494233668e-06,2.0262720896482524e-06,1.807377311078814e-06,5.846668261297499e-06,2.0816953445574345e-06,9.319857986609816e-06,6.476286453257649e-06,3.0960306752936554e-06,1.6507332257674668e-06,1.0876779031945446e-06,3.842197014124115e-06
267,1.2887849894130788e-06,6.872361953110259e-06,7.616190571092103e-07,1.4047425948165548e-06,2.050609060183388e-06,1.6896092353685134e-06,2.0447041043376842e-06,1.7876010126285778e-06,5.939266013539376e-06,2.120167973437142e-06,9.100119398330288e-06,6.427304867711163e-06,3.0558467468533188e-06,1.6502837714331398e-06,1.0858419789363694e-06,3.8116349762157993e-06
268,1.268061646957986e-06,6.552180652519674e-06,7.249926297634523e-07,1.3846142841425423e-06,2.0256460208834535e-06,1.6795576956541635e-06,2.0645099298802136e-06,1.772822082576022e-06,6.0205586608856026e-06,2.163293204403485e-06,8.823765589049764e-06,6.370736963608911e-06,3.0130908984224922e-06,1.6490698959570195e-06,1.0863172946058373e-06,3.7975696728568327e-06
269,1.2506996288769714e-06,6.2226757266736554e-06,6.909721271135557e-07,1.3675463207300356e-06,1.9967671292303398e-06,1.6705127052971656e-06,2.085989294493398e-06,1.762772378740366e-06,6.090580941790471e-06,2.2110161982449414e-06,8.495774286700803e-06,6.3042112591638196e-06,2.9656509002957166e-06,1.6463340699307724e-06,1.0892876372627884e-06,3.79998672636215e-06
270,1.2367905767325351e-06,5.888932084090549e-06,6.596464352328426e-07,1.3536954764871015e-06,1.9647062810894304e-06,1.6611974991876938e-06,2.1091631043014993e-06,1.7573482086728123e-06,6.149322363588146e-06,2.2633498656196088e-06,8.124370606977495e-06,6.226715153029226e-06,2.9117463965433447e-06,1.6413579149733491e-06,1.0947386392670699e-06,3.818084490704494e-06
271,1.2263773818031651e-06,5.5557687627829085e-06,6.312075201858807e-07,1.3431115105275592e-06,1.9298225237672604e-06,1.6502716609781969e-06,2.1336566005456494e-06,1.7566952444112537e-06,6.196747042427967e-06,2.320217536853945e-06,7.720591813580666e-06,6.138930250463928e-06,2.850387160262919e-06,1.6336947923027214e-06,1.102468027935835e-06,3.850327106051042e-06
272,1.2194802742152111e-06,5.227345966153568e-06,6.059536574250953e-07,1.335890161100142e-06,1.8920905801759092e-06,1.6366196289691183e-06,2.158707498938176e-06,1.7611183523186011e-06,6.233191594230547e-06,2.3812686440789013e-06,7.297205215070153e-06,6.043159027744446e-06,2.781673666028093e-06,1.6233245470644926e-06,1.11211371406018e-06,3.894571053667788e-06
273,1.2160139520631947e-06,4.907049401463719e-06,5.842202312464032e-07,1.3323128331090369e-06,1.8512654774197076e-06,1.6195841420386982e-06,2.1833365998171325e-06,1.770937623867704e-06,6.25986108676397e-06,2.445798010029994e-06,6.8675595917172435e-06,5.94280110434971e-06,2.7066797814848667e-06,1.610685557135601e-06,1.123221109794403e-06,3.948161615986142e-06
274,1.2156864348550687e-06,4.597611474524135e-06,5.663137526155973e-07,1.3328517311400644e-06,1.8072009042540207e-06,1.5990351217587868e-06,2.2066176895273334e-06,1.7864051977762907e-06,6.279000501646937e-06,2.5128400397097937e-06,6.4446758911048426e-06,5.84154979624003e-06,2.626984847438017e-06,1.5966198032169893e-06,1.1352850258161367e-06,4.007971738237282e-06
275,1.2179933373075027e-06,4.3011579346491615e-06,5.524783536647049e-07,1.3380485984130504e-06,1.760143190985873e-06,1.5752711399856795e-06,2.2278520878464856e-06,1.8076497689742215e-06,6.29368201123782e-06,2.5813738541539027e-06,6.040619869540654e-06,5.7425945064571e-06,2.544323367912035e-06,1.5822207265721956e-06,1.1477471191206444e-06,4.070486082511324e-06
276,1.2223287729821734e-06,4.019167897303859e-06,5.428769588348857e-07,1.3483511479688062e-06,1.710795182551146e-06,1.5488319161671072e-06,2.2465312254592114e-06,1.8345759102579013e-06,6.307317287352304e-06,2.6504358509218114e-06,5.666174869844683e-06,5.648087736934227e-06,2.4605620157985002e-06,1.5685945906436402e-06,1.160009230217316e-06,4.132041741915003e-06
277,1.228185536530582e-06,3.7526291897993363e-06,5.375814086340484e-07,1.364010180830787e-06,1.6601433675261537e-06,1.5202946460513773e-06,2.2622113007716e-06,1.8667619860897298e-06,6.322986378222925e-06,2.719005735279896e-06,5.330809898811824e-06,5.558987413967149e-06,2.377670541764005e-06,1.5566532138606406e-06,1.1714460415801921e-06,4.1892544657659195e-06
278,1.2353487056726045e-06,3.502302787201768e-06,5.365854797426047e-07,1.3850646686893498e-06,1.6091995137413965e-06,1.4901131578483487e-06,2.2744920214124675e-06,1.903420992704235e-06,6.34282168737819e-06,2.7857776356714464e-06,5.04283307462535e-06,5.475192763243352e-06,2.2975033236178007e-06,1.547033124139699e-06,1.181426788682476e-06,4.239568377628428e-06
279,1.2439165506786413e-06,3.2687667646811336e-06,5.398450516504036e-07,1.4113371726955152e-06,1.5587978687779361e-06,1.458575564916831e-06,2.283099541154453e-06,1.943388668308056e-06,6.3676922904806326e-06,2.849062082869797e-06,4.809588527354651e-06,5.395812409609751e-06,2.2216048278506124e-06,1.5401236080491836e-06,1.189423313068019e-06,4.281739297529961e-06
280,1.2541129844181612e-06,3.052316202595024e-06,5.473112077184314e-07,1.4424213214118546e-06,1.509525160132805e-06,1.4258913391572006e-06,2.2878869018865246e-06,1.9851378290485407e-06,6.397233627743363e-06,2.9069000777969706e-06,4.6376136584220414e-06,5.319489616924967e-06,2.151178403300387e-06,1.5361749532507528e-06,1.1951365755546247e-06,4.316041108620053e-06
281,1.2660892089298603e-06,2.8529810120258046e-06,5.589154506122621e-07,1.4777379042796853e-06,1.4617915207211182e-06,1.3923124850229998e-06,2.288679386741541e-06,2.026951539913275e-06,6.430112501959701e-06,2.9572060657615386e-06,4.532719650722579e-06,5.24481812819595e-06,2.087132342236764e-06,1.535432492593888e-06,1.1985179979904382e-06,4.344141627543429e-06
282,1.2798660081925352e-06,2.6705604483689586e-06,5.745252283032936e-07,1.516658865830384e-06,1.415945768804505e-06,1.3582069407292926e-06,2.285181391037458e-06,2.0672989066708325e-06,6.4642258902884185e-06,2.9978942613388593e-06,4.500016268935056e-06,5.170842777991562e-06,2.0301263979248746e-06,1.538152741384236e-06,1.1997067598112627e-06,4.368724033342588e-06
283,1.2953514835847327e-06,2.5045214721149562e-06,5.939217139006349e-07,1.558570507849109e-06,1.3723055883102806e-06,1.3240864114106281e-06,2.277107371677224e-06,2.1051693027635426e-06,6.496621718672568e-06,3.027249038521923e-06,4.54395277983841e-06,5.097472337834699e-06,1.980653977962116e-06,1.5444891251631998e-06,1.1989414748777321e-06,4.392931995684936e-06
284,1.312381314678677e-06,2.3539225996163443e-06,6.168141389049196e-07,1.6027988058073485e-06,1.331123817192945e-06,1.2905962156335943e-06,2.2643738954495743e-06,2.14007293562475e-06,6.523472267275565e-06,3.044513488472183e-06,4.668387349337285e-06,5.025554861610127e-06,1.9391357253136403e-06,1.5544010796195007e-06,1.1964530905443425e-06,4.4197431510029084e-06
285,1.3308099464291248e-06,2.217525618876438e-06,6.428870015546672e-07,1.6485211745217531e-06,1.2926187821540747e-06,1.2584451076043541e-06,2.2471622242765533e-06,2.171721970714989e-06,6.540497931693857e-06,3.0501990159353526e-06,4.876633859042453e-06,4.956588528353334e-06,1.9058993707050462e-06,1.5676429357310174e-06,1.192384047853147e-06,4.4514642105583015e-06
286,1.3505752340909055e-06,2.094011229524736e-06,6.718876767737571e-07,1.6947992039636726e-06,1.2570521872986785e-06,1.2283205711039504e-06,2.225822808890397e-06,2.1996740593580602e-06,6.5436637800978366e-06,3.045821555668498e-06,5.171478689503724e-06,4.892384841769338e-06,1.8810526313804377e-06,1.583779913414244e-06,1.1867634697568114e-06,4.489487437605205e-06
287,1.371627561854531e-06,1.982147223383806e-06,7.036935183802757e-07,1.7406755583253578e-06,1.2247277106987313e-06,1.2008733495219627e-06,2.2006663894763894e-06,2.223195212186883e-06,6.529800315730834e-06,3.033290850576014e-06,5.555159672950086e-06,4.834978548256856e-06,1.864395244312986e-06,1.6021971879289715e-06,1.1794878044984714e-06,4.534235573738785e-06
288,1.3937929143005368e-06,1.8808864373243025e-06,7.382593116875955e-07,1.7852526158930546e-06,1.1959195390617198e-06,1.1767305889035858e-06,2.1717785669222796e-06,2.241396404942332e-06,6.497044553320362e-06,3.01434717631013e-06,6.0292249145030615e-06,4.786679918124235e-06,1.855447444060829e-06,1.622120344762678e-06,1.1703189807407962e-06,4.5851455330178515e-06
289,1.416699414195749e-06,1.7894459501925806e-06,7.754966535984905e-07,1.8277496498652318e-06,1.1708298886552584e-06,1.1564521193414247e-06,2.138974214377289e-06,2.2535249314659605e-06,6.44501150652533e-06,2.9902674904815204e-06,6.594242988070786e-06,4.749953042945994e-06,1.8535714027602474e-06,1.6426607897762283e-06,1.1589692739569739e-06,4.64067982183861e-06
290,1.4397882122632167e-06,1.7073455064572445e-06,8.152306291288758e-07,1.8675151875564884e-06,1.1495959498078657e-06,1.140459169255343e-06,2.1018959677830375e-06,2.2592348628470257e-06,6.374564647757072e-06,2.9618399141500874e-06,7.249489540073311e-06,4.727035381125769e-06,1.8580707552064555e-06,1.6628976132121431e-06,1.1452490076747044e-06,4.698440285231324e-06
291,1.4623783311714516e-06,1.634344683493126e-06,8.572369040871538e-07,1.9039747734429931e-06,1.132341534015802e-06,1.128994824320254e-06,2.0602772710754243e-06,2.258675019549874e-06,6.287250876640113e-06,2.929526771270132e-06,7.99275722038665e-06,4.719553523794178e-06,1.8681790747917728e-06,1.6820443685986096e-06,1.1291608227362153e-06,4.755407126497195e-06
292,1.483756948644399e-06,1.5703362871611421e-06,9.012760343130041e-07,1.9365621224177107e-06,1.119243748096208e-06,1.1221369402966028e-06,2.014294960593489e-06,2.2523170904183584e-06,6.1846316416809585e-06,2.8937229273929727e-06,8.82028742814138e-06,4.72842458933561e-06,1.8831301931078791e-06,1.6995833109491538e-06,1.1108567958447516e-06,4.808278536080903e-06
293,1.5032972449189541e-06,1.5153317637631998e-06,9.471190625399369e-07,1.9647138292646204e-06,1.1105191940947916e-06,1.1198791263606844e-06,1.964756385998698e-06,2.24065628187313e-06,6.067761712449406e-06,2.854961999563172e-06,9.726692539961365e-06,4.754017856659778e-06,1.902484522269693e-06,1.7151558166904199e-06,1.090547668948996e-06,4.853847732237834e-06
294,1.5205797660375693e-06,1.469532789228662e-06,9.945522752466708e-07,1.9879786541900117e-06,1.1063274309188822e-06,1.1222512869782275e-06,1.912984902947108e-06,2.22407460556701e-06,5.937161478808016e-06,2.8139263365785346e-06,1.070481378931096e-05,4.796279364752451e-06,1.926386443575856e-06,1.728309608752538e-06,1.0684980759520764e-06,4.889327900912566e-06
295,1.5353986999345187e-06,1.4333331863006605e-06,1.0433113727357199e-06,2.0061893403308115e-06,1.1067041217037056e-06,1.1294014642739573e-06,1.8605224397252163e-06,2.202983529508026e-06,5.7933387331132185e-06,2.7712430804700595e-06,1.174561062079013e-05,4.854624886398163e-06,1.955388218478469e-06,1.7383445997401059e-06,1.0450436080928487e-06,4.912601103814531e-06
296,1.5476446102646915e-06,1.407181938811446e-06,1.092999586471275e-06,2.0195190253924123e-06,1.1115699464345587e-06,1.1415747453333852e-06,1.8088392002467139e-06,2.1780421292353028e-06,5.637285308874642e-06,2.7272398424877595e-06,1.2838126792995756e-05,4.927721567783731e-06,1.9900354791448757e-06,1.7442936469200358e-06,1.0205289992642815e-06,4.922441808850689e-06
297,1.5572386190279374e-06,1.3914006425375213e-06,1.1430986759186037e-06,2.02831474194854e-06,1.1207733391120318e-06,1.1589940626137405e-06,1.7591549685048968e-06,2.1501757083980226e-06,5.470584277198557e-06,2.681844894428927e-06,1.396944004979086e-05,5.013409992331701e-06,2.030604728748227e-06,1.745037162391477e-06,9.952480546779464e-07,4.9187045936471044e-06
298,1.5641462600234656e-06,1.3860703064130565e-06,1.1930614788373282e-06,2.0328913074643972e-06,1.1341182918254125e-06,1.1817365314666956e-06,1.712384673452965e-06,2.1203635861667133e-06,5.295438694533408e-06,2.634662577769181e-06,1.5124512017752901e-05,5.108836193474114e-06,2.0770438507412045e-06,1.7395782007802424e-06,9.694786698140393e-07,4.902344126879591e-06
299,1.5683075569685326e-06,1.391064183232422e-06,1.2423908927810243e-06,2.0335354728005148e-06,1.1513476743917964e-06,1.2097038231359022e-06,1.669222617053929e-06,2.0894845323781556e-06,5.114809251030754e-06,2.5852189993856543e-06,1.6285965893862628e-05,5.210605381725166e-06,2.1289571090349986e-06,1.727367841629979e-06,9.435418243878512e-07,4.875161541764691e-06
300,1.569512019696988e-06,1.4062632312969354e-06,1.290685898622946e-06,2.030656497005966e-06,1.1721014402410822e-06,1.2426935930976192e-06,1.6303427891044233e-06,2.058417308671283e-06,4.9323617271093386e-06,2.5332657997102868e-06,1.7433971984690916e-05,5.314774130945407e-06,2.1856468626990875e-06,1.7085131480096654e-06,9.178088364356822e-07,4.839357288078989e-06
301,1.567439538459517e-06,1.4318713299340688e-06,1.3377131719499836e-06,2.024831879541447e-06,1.1959009232645637e-06,1.2804851873189075e-06,1.5965428512661382e-06,2.0281571693430656e-06,4.752006038375982e-06,2.478850770624863e-06,1.854648544860594e-05,5.416808432390214e-06,2.2463175748494927e-06,1.683744199961448e-06,8.927223834470936e-07,4.797092512613462e-06
302,1.5618474299550968e-06,1.468640095510998e-06,1.383492725470539e-06,2.0166722704832345e-06,1.2221880860372213e-06,1.3228312062788254e-06,1.5686934514378144e-06,1.9997279879940225e-06,4.577277155692641e-06,2.422079286374618e-06,1.9599740682099865e-05,5.511702553609279e-06,2.3102626616603766e-06,1.6541373315396968e-06,8.688600327469627e-07,4.750149090083768e-06
303,1.5526355447027417e-06,1.517863667779919e-06,1.4282762054740508e-06,2.0066307581714458e-06,1.2503924056280375e-06,1.3693546134478636e-06,1.5475837364238933e-06,1.974086100104952e-06,4.4109389355254805e-06,2.3629052503309896e-06,2.056834126635614e-05,5.594079939381214e-06,2.3767530547550206e-06,1.620835175163827e-06,8.469420257823104e-07,4.699645664770722e-06
304,1.539750942809819e-06,1.5811588746015534e-06,1.4723759884977937e-06,1.9948792117646423e-06,1.279950639484812e-06,1.4194783662851547e-06,1.533821309424836e-06,1.9522159389832237e-06,4.254891784652893e-06,2.3012588723446363e-06,2.142481862596814e-05,5.658167150969377e-06,2.4447794829023097e-06,1.5849538585178175e-06,8.27737695749071e-07,4.645882071240494e-06
305,1.5231669092564327e-06,1.6601959960460113e-06,1.5160081623441128e-06,1.9813137475086543e-06,1.3103091027961292e-06,1.4724893957036443e-06,1.5278247212720837e-06,1.9352856732573328e-06,4.110283998577261e-06,2.237384911682548e-06,2.2140431229580285e-05,5.69817029583666e-06,2.5130838882742677e-06,1.5475605282845243e-06,8.119486216723004e-07,4.588444590725673e-06
306,1.5030003761702008e-06,1.7565778926744139e-06,1.5592952983167039e-06,1.9657437625293374e-06,1.3410131208908228e-06,1.527710703115772e-06,1.5298336124061257e-06,1.9246423521036883e-06,3.9777289209785525e-06,2.1720432529536773e-06,2.2688935777678697e-05,5.7094658693162795e-06,2.5805832361071286e-06,1.5096345668506643e-06,8.001437610600894e-07,4.526514426698793e-06
307,1.4795849681573451e-06,1.871874108788354e-06,1.6023663826064418e-06,1.9482121778352806e-06,1.3718101581269986e-06,1.5846486876595582e-06,1.5398801436550435e-06,1.9216149180779063e-06,3.8574386576359765e-06,2.106421254911549e-06,2.305172272377283e-05,5.689993305427862e-06,2.6467895534769303e-06,1.472086575654251e-06,7.927427858928408e-07,4.459221484173402e-06
308,1.4533891215456755e-06,2.007625779238416e-06,1.645426566916358e-06,1.9292224745780022e-06,1.4026070301443611e-06,1.642981181658723e-06,1.5577775470295243e-06,1.9272926943876837e-06,3.7491501859764275e-06,2.041884194264591e-06,2.322031844161517e-05,5.640762803172703e-06,2.7117756520889844e-06,1.4358248993652504e-06,7.900183174541882e-07,4.385920571188599e-06
309,1.4249067393887694e-06,2.1652736778681113e-06,1.688737256270972e-06,1.9096935869828584e-06,1.4333085218859755e-06,1.702416945038814e-06,1.5831780273233914e-06,1.942429710167647e-06,3.6520478876175024e-06,1.979742799007745e-06,2.3194192176235573e-05,5.565065022608957e-06,2.775713784648137e-06,1.4017616675362117e-06,7.920969927939153e-07,4.30631669802727e-06
310,1.3947035547935927e-06,2.3461721939519053e-06,1.732526000338996e-06,1.8907138514826463e-06,1.463728352951164e-06,1.7625849684806694e-06,1.6156393589132287e-06,1.9674492516994112e-06,3.5649584141791643e-06,1.9210927671630744e-06,2.297672683742662e-05,5.467102628822718e-06,2.8384121324870776e-06,1.3707237941325824e-06,7.989516060705862e-07,4.220483437318332e-06
311,1.363560537556285e-06,2.55173061516889e-06,1.7769282677090774e-06,1.8733063216813386e-06,1.4936414419027769e-06,1.8229847076837922e-06,1.6546127468340779e-06,2.0024528303132003e-06,3.4867362872543484e-06,1.8667210187450473e-06,2.2574241538591832e-05,5.351183960385695e-06,2.8991127487484214e-06,1.3433689705837772e-06,8.104024980030314e-07,4.128886721778378e-06
312,1.3324921104272624e-06,2.7835166081509517e-06,1.8220524807403804e-06,1.8583011758901937e-06,1.522816218613022e-06,1.8829151977273057e-06,1.699351127746556e-06,2.0471975414124914e-06,3.4164937477819466e-06,1.8171087511593364e-06,2.1998425222693203e-05,5.221747522212877e-06,2.956525168156685e-06,1.3201762106621466e-06,8.261431426897436e-07,4.032429721935245e-06
313,1.3026066125842423e-06,3.043229613130995e-06,1.8681279284197432e-06,1.8462656307827424e-06,1.550946893633183e-06,1.941420391050782e-06,1.7488262848046234e-06,2.101072695599149e-06,3.353512878417832e-06,1.7725074676791462e-06,2.1268129403558067e-05,5.083567730375193e-06,3.0090714813137803e-06,1.3014531724079475e-06,8.457908044009428e-07,3.932430711179582e-06
314,1.2749725554570642e-06,3.3326061947540028e-06,1.9155839041445394e-06,1.837494216844638e-06,1.5775946528208592e-06,1.997384329787276e-06,1.8017564799251997e-06,2.1631335126927884e-06,3.2970392996001867e-06,1.732983976604995e-06,2.040820245940116e-05,4.94164226489578e-06,3.055285441152801e-06,1.287341292576441e-06,8.689438529527053e-07,3.8304999750812445e-06
315,1.2505617051381962e-06,3.6532996832583193e-06,1.964951634199882e-06,1.8321004766861605e-06,1.602178942616383e-06,2.0497746439892793e-06,1.8567927879676646e-06,2.2322619585297116e-06,3.2462244655930858e-06,1.6984374715052573e-06,1.9446519982214106e-05,4.8007825265258594e-06,3.094139311786885e-06,1.2778445523382276e-06,8.951924394060435e-07,3.7283752804300063e-06
316,1.2302069129296578e-06,4.006706728233136e-06,2.0166657289065572e-06,1.8301234555177598e-06,1.6240134937422632e-06,2.0978183438242514e-06,1.9127820823664507e-06,2.30742609422432e-06,3.200180179970224e-06,1.668688044029657e-06,1.841104229199484e-05,4.665146196379275e-06,3.125139068745453e-06,1.2728632528206062e-06,9.240863465983882e-07,3.6277247571323217e-06
317,1.2145607480192189e-06,4.393758461355801e-06,2.0709480300386966e-06,1.8315200431767823e-06,1.6424784120976078e-06,2.1409305955218145e-06,1.968906929618247e-06,2.3878248646884563e-06,3.157908815425834e-06,1.6435976807970005e-06,1.7327740638663187e-05,4.53795243628896e-06,3.1482414457535164e-06,1.2722737080610082e-06,9.551162933039098e-07,3.5298983694681883e-06
318,1.2041005518371318e-06,4.814770918381449e-06,2.1278089138952992e-06,1.8360404232460369e-06,1.657330177538059e-06,2.17854271574458e-06,2.0246105048801503e-06,2.4727865508536872e-06,3.1181246643508473e-06,1.6230769776326332e-06,1.6219402332664538e-05,4.421493794284258e-06,3.1636792373798187e-06,1.2760706386920892e-06,9.877161745481632e-07,3.4357902830900568e-06
319,1.1991680446571589e-06,5.269386763224626e-06,2.1870329526273614e-06,1.8431244951395487e-06,1.6689059636570214e-06,2.210096989151962e-06,2.0794191779915918e-06,2.5615560639704475e-06,3.079259805598822e-06,1.6069508569888073e-06,1.5105086488635212e-05,4.317392605825873e-06,3.171773517484582e-06,1.2844318403517324e-06,1.0213159974635506e-06,3.345974718556207e-06
320,1.1999971445925929e-06,5.756505057347821e-06,2.248111912417744e-06,1.8519736661131522e-06,1.677991988265488e-06,2.2351843035644836e-06,2.1327826216451267e-06,2.6531375933870063e-06,3.0397841086473073e-06,1.59482044877525e-06,1.4000108286552937e-05,4.226924522656644e-06,3.1728915124872373e-06,1.2976152861724682e-06,1.0554582957209173e-06,3.26095824461717e-06
321,1.2067587445781183e-06,6.274132626228045e-06,2.3102495845963444e-06,1.8617770997042397e-06,1.6854557429445073e-06,2.253623801240346e-06,2.1839750394481088e-06,2.746196362110597e-06,2.998615824742633e-06,1.5860687492790569e-06,1.2916471829234029e-05,4.1511814658006614e-06,3.1676324172828244e-06,1.315788727908175e-06,1.0898505345082645e-06,3.1813364414941043e-06
322,1.2196298798326215e-06,6.819269986809388e-06,2.372486102745868e-06,1.8719115404874005e-06,1.6919363777458902e-06,2.2654467182639835e-06,2.232068881663007e-06,2.83897092155651e-06,2.95530585224628e-06,1.5800347329963675e-06,1.1863564157899572e-05,4.090964535397326e-06,3.15706183198047e-06,1.3389245401829958e-06,1.1242829645152783e-06,3.107884340102144e-06
323,1.2387705487496578e-06,7.38793490134097e-06,2.4338400289914587e-06,1.8820034398416225e-06,1.6977237473245804e-06,2.2708636791627487e-06,2.275934215939646e-06,2.9292780693928276e-06,2.9099459103842774e-06,1.5762257277836513e-06,1.0848847491970612e-05,4.046580510302846e-06,3.142696611628354e-06,1.3667981797644234e-06,1.1585305539105208e-06,3.0416469672032846e-06
324,1.2641985892857588e-06,7.97516248847674e-06,2.4934253770955163e-06,1.89187887416442e-06,1.7027763999444914e-06,2.2702200202265556e-06,2.3142755237565625e-06,3.014757355565352e-06,2.862997035928406e-06,1.5743748162148904e-06,9.878313122155098e-06,4.0178504116461835e-06,3.1262312934315177e-06,1.3990650788083473e-06,1.192296533015458e-06,2.983943754352898e-06
325,1.2957133569023653e-06,8.574803394367725e-06,2.550583572154747e-06,1.9014521183086534e-06,1.7068432258347127e-06,2.263895583091948e-06,2.34574142160958e-06,3.0933016439580754e-06,2.815122783311441e-06,1.5743088173518255e-06,8.956599505232665e-06,4.004361718560058e-06,3.1093986218242272e-06,1.4353262723557094e-06,1.2251516828877282e-06,2.936171413058323e-06
326,1.3329086484494317e-06,9.17938896777438e-06,2.6049400775039882e-06,1.910588020605756e-06,1.7096726257917615e-06,2.2522304698694794e-06,2.3689879885479504e-06,3.1634000663634907e-06,2.7670215072084236e-06,1.5757892244126671e-06,8.086924474264553e-06,4.0056315093045965e-06,3.0941151259426616e-06,1.4750739565974414e-06,1.2565276900499364e-06,2.8994735526940704e-06
327,1.3752266938494802e-06,9.780447628253726e-06,2.6562490249493524e-06,1.9189859879686756e-06,1.711219027175695e-06,2.235612898495847e-06,2.3827389975195514e-06,3.2242080947986465e-06,2.7193390285017968e-06,1.5784507450713635e-06,7.271120943786555e-06,4.020929998930249e-06,3.082510562464892e-06,1.5175591745177627e-06,1.285796792441666e-06,2.8745196153382692e-06
328,1.422070650180205e-06,1.0369132070357133e-05,2.704162298133056e-06,1.9261721440095974e-06,1.7117131557948397e-06,2.2146019286193265e-06,2.386077664216884e-06,3.275442605701389e-06,2.672659566494067e-06,1.5818049757520951e-06,6.509921650477052e-06,4.0489372596301375e-06,3.076632694538526e-06,1.5617240209914092e-06,1.3123206228143027e-06,2.861516549380807e-06
