,EMG1,EMG2,EMG3,EMG4,EMG5,EMG6,EMG7,EMG8,EMG9,EMG10,EMG11,EMG12,EMG13,EMG14,EMG15,EMG16
0,9.149279862684788e-07,2.234865944320804e-07,5.980222299781726e-07,2.1804439862403268e-07,2.018484647157472e-07,1.1115185179713848e-06,2.3571523289761215e-07,7.47332435831087e-08,1.7917461483904143e-06,2.483454132807574e-07,6.45459934128455e-08,1.4942916981417552e-06,5.722765683084523e-07,2.2559602769273173e-07,1.1706929575461973e-07,3.930159716564574e-09
1,1.0440950800809696e-06,4.264233850016944e-07,6.879423269860267e-07,2.6590584626758226e-07,3.3410398142469416e-07,1.2857618900299806e-06,5.022601528708919e-07,1.773658922274639e-07,2.295387098943575e-06,4.544490280732657e-07,5.489752226931394e-07,1.7627218907937953e-06,1.16952232863409e-06,3.0908447601082645e-07,2.068224762337387e-07,2.648967907461833e-07
2,1.1727826154281436e-06,6.251705766489063e-07,7.776398737064346e-07,3.164763484959798e-07,4.602383873568404e-07,1.4620882495535604e-06,7.581677014741379e-07,2.8010608957414666e-07,2.8082751080841546e-06,6.530405473196245e-07,1.014947616484506e-06,2.025970037251826e-06,1.7605110742124137e-06,3.944273443087974e-07,2.965100604757137e-07,5.178677677679334e-07
3,1.2987844826523282e-06,8.182082167107261e-07,8.661696155763041e-07,3.691407193111412e-07,5.790803880305187e-07,1.6375954400803114e-06,1.0009691340133237e-06,3.823112284305136e-07,3.3217537475221646e-06,8.415958262156727e-07,1.4568196140505966e-06,2.280343256457225e-06,2.3346365112384114e-06,4.802991916883077e-07,3.844540145183289e-07,7.586325374965346e-07
4,1.4203464379212934e-06,1.0042593259670694e-06,9.529729679837528e-07,4.2356261016327413e-07,6.897947393942074e-07,1.8095473128936722e-06,1.2281015310964985e-06,4.834102749743613e-07,3.8269989330674825e-06,1.01768296110612e-06,1.8695074940962472e-06,2.5222807093765538e-06,2.8823926224086577e-06,5.654998417807382e-07,4.691854488245105e-07,9.836692161721128e-07
5,1.5362104219704518e-06,1.1822935687255016e-06,1.037786130059942e-06,4.796113765047695e-07,7.919045545121136e-07,1.9756113505225067e-06,1.436938207213359e-06,5.828715617020905e-07,4.315127943806774e-06,1.1790632774538862e-06,2.248251092198444e-06,2.7486738548229317e-06,3.3960812155850623e-06,6.489915922312103e-07,5.495392611708777e-07,1.1903208860877255e-06
6,1.6456036350882688e-06,1.351437847573809e-06,1.1203909924345637e-06,5.37227678835344e-07,8.851341068847609e-07,2.134026682348226e-06,1.6250362596346138e-06,6.801388332451883e-07,4.777936368037357e-06,1.3238355719300366e-06,2.5887523160282912e-06,2.9570848656769543e-06,3.870410029261297e-06,7.298919617831411e-07,6.247036906685862e-07,1.3768130489090112e-06
7,1.7481427608624965e-06,1.510871693130354e-06,1.2004454902449084e-06,5.963448715959724e-07,9.692646574827554e-07,2.2835750809901776e-06,1.7905389673914949e-06,7.746101133917309e-07,5.209041508636252e-06,1.4506355910561792e-06,2.8875853780890217e-06,3.1457195480795732e-06,4.302736065195507e-06,8.07525519800558e-07,6.942399230886196e-07,1.542159774148194e-06
8,1.8436075187010305e-06,1.6597742659148245e-06,1.2774910690924767e-06,6.568651496733965e-07,1.044189178141794e-06,2.423345853966896e-06,1.9325611179884737e-06,8.657077712129247e-07,5.60452925198571e-06,1.5587783572472171e-06,3.1425009628889165e-06,3.3132031293462113e-06,4.692756069858574e-06,8.815255299302205e-07,7.580640571062157e-07,1.6861037701561537e-06
9,1.931707008367197e-06,1.797364384803778e-06,1.3510488649638744e-06,7.186369256375436e-07,1.110096717847939e-06,2.5524005165786036e-06,2.0513945082341016e-06,9.529838248808526e-07,5.962500252810068e-06,1.6482269529731003e-06,3.3525112318138405e-06,3.458351395144707e-06,5.041722224101668e-06,9.518502946305205e-07,8.163517709087391e-07,1.8090959932063247e-06
10,2.0119777888412023e-06,1.9230358302363427e-06,1.4206745099276639e-06,7.814212286649232e-07,1.1676020068191689e-06,2.6695237491238105e-06,2.1484159660129322e-06,1.0361662631958e-06,6.28186017641763e-06,1.7194756811483879e-06,3.5178216738137316e-06,3.5801050660762607e-06,5.351582076183664e-06,1.0186505465291015e-06,8.693806608161132e-07,1.9121828172464056e-06
11,2.083776976411675e-06,2.036484927885573e-06,1.4859058204820492e-06,8.448665610051115e-07,1.2177041494413979e-06,2.7731755886257726e-06,2.2256884318652164e-06,1.115163021961283e-06,6.5614291263794e-06,1.7734941567456514e-06,3.63971413497166e-06,3.6776647950669794e-06,5.624455779343921e-06,1.0820925026147112e-06,9.173857335521077e-07,1.996805619908741e-06
12,2.1463561176511683e-06,2.137690915868016e-06,1.5461510060298254e-06,9.085169480590976e-07,1.261587335166737e-06,2.861599212533319e-06,2.285447472281043e-06,1.1901075616287187e-06,6.79996093750734e-06,1.8116691977667212e-06,3.7204423882179933e-06,3.750744104021711e-06,5.862567256084147e-06,1.1422538670380937e-06,9.604701879414364e-07,2.0646731545012603e-06
13,2.199114745846075e-06,2.226761864164774e-06,1.600649650144441e-06,9.719072008707611e-07,1.3004179483078687e-06,2.9330544580738724e-06,2.329775464635286e-06,1.261397128122778e-06,6.996544837539425e-06,1.8356095224507432e-06,3.76308412868001e-06,3.7998007502363213e-06,6.068438698618825e-06,1.1990970729475036e-06,9.985691173113743e-07,2.1177489266563958e-06
14,2.241925961429185e-06,2.303810423763768e-06,1.6485933828580962e-06,1.034753859513616e-06,1.3352551083539687e-06,2.9861774404612944e-06,2.3605830190385013e-06,1.3295926756280791e-06,7.150883986926498e-06,1.84691247970993e-06,3.7712750783414765e-06,3.8261523274510834e-06,6.245067281731673e-06,1.2524987897699055e-06,1.0314901491781538e-06,2.1581922522781307e-06
15,2.275220986205348e-06,2.3689572357811864e-06,1.6893556502924086e-06,1.0970763662494451e-06,1.3670329888116948e-06,3.0203279416019725e-06,2.3797178661292255e-06,1.395215447519504e-06,7.263564559479943e-06,1.8470942593645836e-06,3.748900456935143e-06,3.83196233534052e-06,6.395841666967924e-06,1.3022889070378557e-06,1.0590438735799103e-06,2.1881388479669528e-06
16,2.299766434241252e-06,2.4223730687428106e-06,1.7226905395054836e-06,1.1590938286404404e-06,1.3965703823006584e-06,3.0357573532833245e-06,2.3889897868628563e-06,1.4586068197070954e-06,7.336281615630917e-06,1.8376394126115479e-06,3.6999076177446897e-06,3.820082842512729e-06,6.524096496728861e-06,1.348237398858782e-06,1.0811788635513763e-06,2.2094354870192425e-06
17,2.3164042751024807e-06,2.464220703660593e-06,1.7487976886825722e-06,1.2210010997050727e-06,1.4245853698445372e-06,3.0335747130722906e-06,2.390075242432371e-06,1.519898906153477e-06,7.371639836460882e-06,1.8199858236478803e-06,3.6282716466173277e-06,3.7937279663730767e-06,6.632563140873101e-06,1.390053626733036e-06,1.0980022060666446e-06,2.223505473252079e-06
18,2.325977540499461e-06,2.494549540236812e-06,1.768269522937973e-06,1.28281902397354e-06,1.45165527718093e-06,3.015546065050703e-06,2.3843767371025763e-06,1.5790173570941373e-06,7.37247229832446e-06,1.7954587623069039e-06,3.5379875628812106e-06,3.756060585579908e-06,6.723102567376087e-06,1.427481178899883e-06,1.1096737255289151e-06,2.231345805353402e-06
19,2.3293866443422275e-06,2.513351471702033e-06,1.7819819314774024e-06,1.3443831008283877e-06,1.4781439955452143e-06,2.9837338523680272e-06,2.3729751677720652e-06,1.6357112013533334e-06,7.341367209835014e-06,1.7652728289658627e-06,3.432984114398683e-06,3.7098755390541946e-06,6.796720333660003e-06,1.4603885331552085e-06,1.1162895270702834e-06,2.23355294591099e-06
20,2.3275926960791782e-06,2.5207870791672605e-06,1.7909314005069844e-06,1.4054245361909413e-06,1.5041898879394116e-06,2.9400674255478824e-06,2.3567481125615725e-06,1.6896899781764873e-06,7.281041021654103e-06,1.7305634849192284e-06,3.3169711005718374e-06,3.657450668647015e-06,6.853661832492613e-06,1.4887257116841896e-06,1.117876307832299e-06,2.2303743472461656e-06
21,2.321496993952609e-06,2.51734729781109e-06,1.796034253756068e-06,1.4656376748614502e-06,1.529749930496802e-06,2.886078959856221e-06,2.3364895412892876e-06,1.740833464414117e-06,7.195106549825645e-06,1.6923502989155876e-06,3.1932717631982656e-06,3.6004535790125064e-06,6.893576267654646e-06,1.5124109483722035e-06,1.1145172588555285e-06,2.221810514011763e-06
22,2.3118245614465775e-06,2.5038439029185076e-06,1.7980099667042479e-06,1.52464916909097e-06,1.5546418865539073e-06,2.8229609691642927e-06,2.3128765117133275e-06,1.7892692461618877e-06,7.088334479240901e-06,1.6514685483495714e-06,3.0646860300363525e-06,3.539837626589054e-06,6.9157694256617905e-06,1.5313339341754903e-06,1.1065364827488808e-06,2.2077278553775632e-06
23,2.29918490519399e-06,2.4813551466193583e-06,1.7974567056971912e-06,1.581936256601987e-06,1.5786467282370954e-06,2.751838859264878e-06,2.286436274604524e-06,1.8352147016109031e-06,6.966242835637669e-06,1.6085582960911849e-06,2.933484710167082e-06,3.4758462455611163e-06,6.919456474196009e-06,1.5455685341482916e-06,1.0946040653794046e-06,2.1880087440222715e-06
24,2.2842258513633733e-06,2.4512296154639626e-06,1.7950225519491427e-06,1.63685201848997e-06,1.6017137284225584e-06,2.6740259917711753e-06,2.257631354714953e-06,1.8787551867428104e-06,6.834451667521231e-06,1.5641457071353526e-06,2.8015960286237576e-06,3.4082557795467808e-06,6.90398651372801e-06,1.5556153691562131e-06,1.079650991630172e-06,2.1627707291216914e-06
25,2.2676176224947433e-06,2.41509590760533e-06,1.7914504371254121e-06,1.6888270534432773e-06,1.6240787901183728e-06,2.5910923311897226e-06,2.226870754667101e-06,1.919750126352607e-06,6.698134067807781e-06,1.5188104871756507e-06,2.6708548027740054e-06,3.3368188667733542e-06,6.869089659323366e-06,1.562373752228969e-06,1.0626642801987906e-06,2.132521750238468e-06
26,2.249870631704123e-06,2.374775656281967e-06,1.7874513560688256e-06,1.737563594244587e-06,1.6461475314861037e-06,2.5047348520964416e-06,2.1943543323668653e-06,1.9579085768156738e-06,6.561632395520202e-06,1.4733030758307472e-06,2.543113679886939e-06,3.2616613156388013e-06,6.81507139981414e-06,1.5668590645046444e-06,1.0445320307548097e-06,2.098106437544144e-06
27,2.231187405402669e-06,2.3320740499700864e-06,1.7835651861661325e-06,1.7830012273981555e-06,1.6683206240891672e-06,2.416599558248744e-06,2.1599434445875612e-06,1.9929677268388238e-06,6.428353737656517e-06,1.428449157726638e-06,2.4201441528909685e-06,3.183308655578992e-06,6.742786391734619e-06,1.5699803013017597e-06,1.0259982335342962e-06,2.0605020826559137e-06
28,2.2114063848601475e-06,2.2885333338266066e-06,1.7801025244257128e-06,1.8251420599353231e-06,1.6909969940221566e-06,2.328171996285292e-06,2.123251517857866e-06,2.0247689197799366e-06,6.301091033510831e-06,1.3849845387772843e-06,2.3034281485877963e-06,3.102333491387517e-06,6.6534527415983605e-06,1.5725164883372575e-06,1.0076821280337484e-06,2.0206574556454644e-06
29,2.1900703570672124e-06,2.2452713561563015e-06,1.777168033417858e-06,1.8639408737170676e-06,1.7146983146183382e-06,2.2407014384771603e-06,2.08396352798051e-06,2.0531167952453998e-06,6.182504296604101e-06,1.343582726681975e-06,2.1940134923184928e-06,3.0190224996356607e-06,6.5485928912971595e-06,1.5751282840256753e-06,9.901054363333488e-07,1.9794791693822537e-06
30,2.1666329128357578e-06,2.2029441998979744e-06,1.7747523072767937e-06,1.8992701363048343e-06,1.7400852895016101e-06,2.155159744797928e-06,2.042169192760132e-06,2.0776405208033403e-06,6.075253539288548e-06,1.3049826280847417e-06,2.092515774775542e-06,2.9333598530883787e-06,6.430172590084184e-06,1.5782844444570519e-06,9.737007636935497e-07,1.9378591437984453e-06
31,2.1406115936240857e-06,2.1617856027499154e-06,1.7727857793868344e-06,1.9309943691942132e-06,1.7678024636622599e-06,2.0723060979289898e-06,1.998423036635076e-06,2.097903667603634e-06,5.9817064998638675e-06,1.2699518594451993e-06,1.999216618938528e-06,2.8452453754766613e-06,6.30063026573108e-06,1.5821931312108483e-06,9.588162935510986e-07,1.8966023114661845e-06
32,2.1116016279180676e-06,2.1216683471418217e-06,1.7710954293792195e-06,1.9592137523432556e-06,1.798286984519104e-06,1.9928145805342416e-06,1.953508156342056e-06,2.113705538618858e-06,5.903554294201729e-06,1.2391281367452212e-06,1.9141665178258125e-06,2.7547417941340356e-06,6.162514723783073e-06,1.5868183408382204e-06,9.457223340231855e-07,1.8563359817646438e-06
33,2.0793646793939083e-06,2.0821905095008344e-06,1.7693868919165419e-06,1.984451664089805e-06,1.8316562750686385e-06,1.9173592051337696e-06,1.9082087857775455e-06,2.1253043441685946e-06,5.841561850826697e-06,1.2129527628921294e-06,1.8372534733419653e-06,2.6622254905257627e-06,6.01787624330301e-06,1.5919429548380547e-06,9.345954934335469e-07,1.817531704544047e-06
34,2.0440521775212434e-06,2.0428140285910196e-06,1.767322687291565e-06,2.0075537468519324e-06,1.8676957932096117e-06,1.8466147816096591e-06,1.8632736908440896e-06,2.133329794611008e-06,5.795466052571933e-06,1.1917178305592557e-06,1.7682531963320766e-06,2.5684123989576984e-06,5.867832585089993e-06,1.5972024034415672e-06,9.254965084443578e-07,1.7805772614693517e-06
35,2.0063190508648173e-06,2.0029870860233757e-06,1.764615706791474e-06,2.029413790368273e-06,1.905948835787488e-06,1.781190136182049e-06,1.8194007263703753e-06,2.1384516102749265e-06,5.764114007590763e-06,1.1756252475331497e-06,1.7068648905835983e-06,2.4742862460328243e-06,5.712485948771578e-06,1.6020415903198917e-06,9.183744539208087e-07,1.7458340226810124e-06
36,1.9671847910574377e-06,1.9621825350700986e-06,1.7610880392184205e-06,2.0507576863699462e-06,1.9458802681772885e-06,1.7215401279679352e-06,1.7771344979891543e-06,2.141154947509148e-06,5.745968431019692e-06,1.1648105272118931e-06,1.6527292456378867e-06,2.380983174244635e-06,5.551024479054902e-06,1.6056722758106038e-06,9.13091122191018e-07,1.7136876296422178e-06
37,1.9277571826141305e-06,1.91993311943822e-06,1.7566846132949574e-06,2.072037744156986e-06,1.986996951861318e-06,1.6678880200061297e-06,1.7367989507850374e-06,2.141769932466459e-06,5.739756354100382e-06,1.159326767881004e-06,1.6054626016014502e-06,2.2897017217324367e-06,5.3819463249679105e-06,1.6072052975938034e-06,9.094734507433342e-07,1.6845346526714043e-06
38,1.8890072991171202e-06,1.8759302474957333e-06,1.751410408101238e-06,2.0933782235064554e-06,2.0288262915384357e-06,1.6201820696132377e-06,1.698526183869569e-06,2.1405528474930562e-06,5.744843189570614e-06,1.1590960195826057e-06,1.5647407330781272e-06,2.201629928164199e-06,5.203521849550803e-06,1.6059727597269249e-06,9.07372730726833e-07,1.658696631021767e-06
39,1.8516939127411017e-06,1.8301059188440007e-06,1.7452878949517681e-06,2.114593786427469e-06,2.070867452426725e-06,1.5780965068905361e-06,1.6622859073890064e-06,2.1377835354981792e-06,5.76112231928683e-06,1.1638583689821042e-06,1.530388872257052e-06,2.1178265016914603e-06,5.014415182491158e-06,1.6017685495660116e-06,9.066485603664842e-07,1.6363555248817307e-06
40,1.8164073592244726e-06,1.7826233066139641e-06,1.738468706069042e-06,2.135305454717055e-06,2.112679011150449e-06,1.5410364025846607e-06,1.6278469152156674e-06,2.134002932066678e-06,5.788514923645236e-06,1.1731470426630436e-06,1.5023770772031803e-06,2.039122130226412e-06,4.814178360374365e-06,1.594759364144202e-06,9.070829092534238e-07,1.6175704685550956e-06
41,1.783611556594636e-06,1.73383355224382e-06,1.7313571971062807e-06,2.155021950107937e-06,2.153987247520157e-06,1.508137577535733e-06,1.5947742349759074e-06,2.1301715724543067e-06,5.826556198771381e-06,1.1862848051825233e-06,1.4806851909288766e-06,1.9661391405157514e-06,4.603459422867186e-06,1.5851976267137556e-06,9.083338567366053e-07,1.6023744458860884e-06
42,1.7536027525064572e-06,1.6842725211371696e-06,1.7245135894749737e-06,2.173065552699202e-06,2.194621136436422e-06,1.4783417234314624e-06,1.5625893819056707e-06,2.1274783397602284e-06,5.874530728487776e-06,1.2024119067184147e-06,1.4651227540686975e-06,1.8993613712049597e-06,4.383989439572619e-06,1.5732575874611866e-06,9.099926151954635e-07,1.590851516949681e-06
43,1.7264874987496698e-06,1.6346330220344257e-06,1.7183955119475273e-06,2.1884496579455515e-06,2.23435358019438e-06,1.4506187491735163e-06,1.5310167523673919e-06,2.126995954542755e-06,5.931948492485835e-06,1.22057623659687e-06,1.4552088849132784e-06,1.8391826465285607e-06,4.15841054086113e-06,1.5590751366690504e-06,9.116885287298886e-07,1.5830840277411347e-06
44,1.7023071481490506e-06,1.5856367783472834e-06,1.7131715093158049e-06,2.1999224288314216e-06,2.2728457506513673e-06,1.424249698459392e-06,1.5001005455048056e-06,2.1295313617377206e-06,5.998762765204617e-06,1.2398365335100322e-06,1.4501326639497667e-06,1.7859444111338295e-06,3.92989217667846e-06,1.5428338871086395e-06,9.131247617784874e-07,1.5790813771732476e-06
45,1.6812186826719609e-06,1.5379320878094003e-06,1.7087125807228608e-06,2.2062315143162786e-06,2.309731041072e-06,1.3989270657530746e-06,1.470097319832469e-06,2.1356741753246645e-06,6.075048379110053e-06,1.2592896883306008e-06,1.4487669004156484e-06,1.7399168291773914e-06,3.701600004374239e-06,1.5247895531446562e-06,9.1402639793983e-07,1.5788249717922897e-06
46,1.6635616937143602e-06,1.4921142716847072e-06,1.7047030582592995e-06,2.2064510760981685e-06,2.3447352403395777e-06,1.3745819281941603e-06,1.4413115552688129e-06,2.145819492528479e-06,6.160365215526026e-06,1.2780583596132696e-06,1.4497556726845494e-06,1.7012135061205326e-06,3.4763450082497763e-06,1.5052487925692946e-06,9.141293780266064e-07,1.5823007040708932e-06
47,1.649786749208355e-06,1.4487150688535104e-06,1.7007598184915752e-06,2.2001945163964505e-06,2.3777160730808623e-06,1.351151581761216e-06,1.4140624217875483e-06,2.160120902698164e-06,6.253338847474872e-06,1.295312688993549e-06,1.4517110128681081e-06,1.6697734537249514e-06,3.256589080501591e-06,1.4845262221574973e-06,9.13278854232162e-07,1.589401375358191e-06
48,1.6403274160502351e-06,1.4080985548239345e-06,1.6964663636470964e-06,2.1876594764935337e-06,2.4085546423250947e-06,1.3284794254289873e-06,1.3886974507084313e-06,2.1785090446804505e-06,6.351800449701289e-06,1.3102941933695831e-06,1.4534572515064384e-06,1.6454886090609417e-06,3.044523407304019e-06,1.4628927246090733e-06,9.115143736849253e-07,1.5998090672104177e-06
49,1.6354930844564861e-06,1.3704342001832738e-06,1.6913034686720293e-06,2.1694900100699367e-06,2.436940824268196e-06,1.3063706946281568e-06,1.3655150009866268e-06,2.2008019861058266e-06,6.4533337434085424e-06,1.3223617012600987e-06,1.4542004193624337e-06,1.6283439716393037e-06,2.8419581415831883e-06,1.440543044354722e-06,9.09031331078776e-07,1.6129495390158243e-06
50,1.6354591351558767e-06,1.335803877014152e-06,1.684589541804049e-06,2.1464718426776897e-06,2.4622388452782957e-06,1.2847720083977185e-06,1.3446716719230843e-06,2.2268287017466835e-06,6.555889341257157e-06,1.3310828598860837e-06,1.4535683215956153e-06,1.618399943249626e-06,2.6501913765730874e-06,1.417576344990642e-06,9.061151910231689e-07,1.6279974022706834e-06
51,1.6403762486984052e-06,1.3042797843358256e-06,1.6755920427838719e-06,2.1192471529171414e-06,2.483662088000073e-06,1.2639366658013057e-06,1.3262149839678064e-06,2.2565281077712603e-06,6.658256520692854e-06,1.336226539589609e-06,1.4515632858687745e-06,1.6156480412972814e-06,2.4700946617420033e-06,1.3940264758982589e-06,9.031366199905082e-07,1.6439474243300944e-06
52,1.6504462883118785e-06,1.2758617471015599e-06,1.663811235939889e-06,2.0882439627763516e-06,2.500780643172639e-06,1.2444239027114151e-06,1.3102531571688596e-06,2.289976557522632e-06,6.760285713378491e-06,1.3376476384739201e-06,1.448475735572815e-06,1.6199325041130921e-06,2.3022842759877728e-06,1.3699983195684723e-06,9.005168656467254e-07,1.6597300420236825e-06
53,1.6658349023332933e-06,1.2503847083162064e-06,1.6492373079742121e-06,2.053768760928693e-06,2.5140271430615855e-06,1.2269393990915951e-06,1.297116506785466e-06,2.3272899754691913e-06,6.862760656509145e-06,1.3353009810204944e-06,1.4447567263798312e-06,1.631025592282429e-06,2.147144711325743e-06,1.3457819554649544e-06,8.986361541176678e-07,1.6742544832489768e-06
54,1.6865629605581335e-06,1.227542857761944e-06,1.6323948688936094e-06,2.016112385452938e-06,2.524781603582834e-06,1.2121396912746268e-06,1.2873432612766673e-06,2.3684814244709777e-06,6.966905273546722e-06,1.3294109515718524e-06,1.4408968144628217e-06,1.6487516904653126e-06,2.0048333596794075e-06,1.321800702440704e-06,8.977732172149182e-07,1.68640949710416e-06
55,1.7125464596067058e-06,1.2070004650583518e-06,1.6141579657110662e-06,1.9756183944250515e-06,2.535011019110132e-06,1.2005259850588795e-06,1.2815149104105906e-06,2.4134067663523617e-06,7.0737848944938714e-06,1.3205247387791933e-06,1.4373897650621047e-06,1.6730790316159539e-06,1.8754296395296534e-06,1.2984733093015852e-06,8.981050571968633e-07,1.6951682214062996e-06
56,1.7437160778334886e-06,1.1884797741051365e-06,1.5954610296745222e-06,1.9327264123273946e-06,2.546866006717099e-06,1.1924393182386813e-06,1.2801215215105208e-06,2.461749145262479e-06,7.183960460108302e-06,1.3093384228106371e-06,1.4347103826087672e-06,1.7042222589629053e-06,1.7590187941288204e-06,1.276119464174353e-06,8.997591717989801e-07,1.6997525632712068e-06
57,1.780070886747304e-06,1.1717959057665051e-06,1.5770833675940175e-06,1.88799228714501e-06,2.5625522357958394e-06,1.1880637446091091e-06,1.2835341900145844e-06,2.5129305189524624e-06,7.297408347402981e-06,1.2964850507267326e-06,1.4332214144944928e-06,1.7427383987148918e-06,1.6555778455965796e-06,1.2549389213711939e-06,9.028786198965918e-07,1.6997215013156915e-06
58,1.8216130485587003e-06,1.1568727573804699e-06,1.559577877005316e-06,1.8420845679818795e-06,2.5843553206593634e-06,1.18740121372964e-06,1.2920064840636404e-06,2.5660668273440833e-06,7.41346471512933e-06,1.2824728502841457e-06,1.433118109466762e-06,1.7894836652985102e-06,1.5648608862719925e-06,1.2350711807616327e-06,9.076217563094385e-07,1.6949687117984988e-06
59,1.8682217471551177e-06,1.1437762624231351e-06,1.5432626340478653e-06,1.7958126109053724e-06,2.6145326050634857e-06,1.190270343574793e-06,1.3056608277458374e-06,2.6201597447057563e-06,7.5307824731668784e-06,1.2677790609257778e-06,1.4344754204142116e-06,1.8454300460782748e-06,1.486400167195793e-06,1.2167029490154922e-06,9.140969378996313e-07,1.6856305954906385e-06
60,1.919593967783327e-06,1.1327664932478294e-06,1.5282119567974843e-06,1.750210421728779e-06,2.655045538469682e-06,1.1963400710904094e-06,1.3244714726852334e-06,2.6744529231161007e-06,7.647423671913992e-06,1.2529402012912285e-06,1.437262270666032e-06,1.911522135712567e-06,1.419602211836404e-06,1.2001014897082296e-06,9.223001952627117e-07,1.6719521825799427e-06
61,1.975275426412614e-06,1.1243083954003677e-06,1.5142543976106908e-06,1.7065394076305629e-06,2.707328272547828e-06,1.205165285719687e-06,1.3482263455607392e-06,2.728663290448825e-06,7.760901390143953e-06,1.238488601181761e-06,1.4412634515779839e-06,1.9886180886571903e-06,1.363896495942534e-06,1.185520444968981e-06,9.320888091181537e-07,1.6542754847575174e-06
62,2.0346671876251237e-06,1.1189818489236196e-06,1.5010002384390853e-06,1.6661137830353094e-06,2.7722081078675635e-06,1.2162330391218033e-06,1.3764786264127353e-06,2.7828761895352227e-06,7.867900853611876e-06,1.2247958752596616e-06,1.4460090279161555e-06,2.0773982474759778e-06,1.3187816943921441e-06,1.1730789899931114e-06,9.431820890910261e-07,1.6331416032112546e-06
63,2.0969619136333424e-06,1.1173395103562003e-06,1.4879114136591676e-06,1.6301132978544309e-06,2.8499554359338187e-06,1.229002355855398e-06,1.4085368574127157e-06,2.837213771471461e-06,7.963846787115049e-06,1.2119909399957506e-06,1.4507766548500077e-06,2.1782681101712867e-06,1.2837391500741048e-06,1.1627138254996927e-06,9.551765524528912e-07,1.6092679400816563e-06
64,2.1611006464566134e-06,1.1198286046318775e-06,1.474348866235298e-06,1.5995284411156395e-06,2.9404086772231054e-06,1.2428714905821062e-06,1.4435463259469085e-06,2.891663538311037e-06,8.042666668909444e-06,1.2000091938634994e-06,1.454683714216813e-06,2.2913667971626248e-06,1.258200771255032e-06,1.1542335205890885e-06,9.676070778633205e-07,1.5833378708727987e-06
65,2.2258275936989737e-06,1.126795696018239e-06,1.4595399137902549e-06,1.5751431324799862e-06,3.0430698986424626e-06,1.2570888016564712e-06,1.480668357339576e-06,2.9462338203641256e-06,8.09687223978414e-06,1.1887084534197885e-06,1.456856047262207e-06,2.4166544414328333e-06,1.2416263023665357e-06,1.1474234912694314e-06,9.800683151643317e-07,1.5558277429127674e-06
66,2.2897643011308324e-06,1.13848793226334e-06,1.4425935538960592e-06,1.5574949497241074e-06,3.157088638364337e-06,1.2707059762787488e-06,1.5192284395480114e-06,3.001122501170677e-06,8.118289154257466e-06,1.177972054396671e-06,1.4565858515979328e-06,2.553997910681446e-06,1.2335802065305549e-06,1.1420733256083612e-06,9.922802838420219e-07,1.5270570083210764e-06
67,2.3514020994072693e-06,1.1550134769670077e-06,1.4227179032588842e-06,1.5468682714008528e-06,3.2812382303174773e-06,1.2826380601222298e-06,1.5587005674678534e-06,3.0565974662246217e-06,8.099907652633578e-06,1.1677938147696487e-06,1.453417880998365e-06,2.7032346192387724e-06,1.2337420908725184e-06,1.13792929465646e-06,1.0040146055913116e-06,1.4973695709939377e-06
68,2.4091774027948986e-06,1.176294807311682e-06,1.3995256881519436e-06,1.5432975487209984e-06,3.413996888513885e-06,1.2918269987887043e-06,1.598584177840393e-06,3.1127162863248044e-06,8.038220905268846e-06,1.1583552939789915e-06,1.4472105980849422e-06,2.864209865036798e-06,1.2418757139406477e-06,1.1347290840649733e-06,1.0149966602241192e-06,1.4672049071810626e-06
69,2.4618058904773927e-06,1.202034539171139e-06,1.373164882470182e-06,1.5465401197930514e-06,3.553658085832762e-06,1.2974547969253418e-06,1.6383220192594314e-06,3.1692093976448193e-06,7.934383579994174e-06,1.1500227572261289e-06,1.4382010406053505e-06,3.036770418472639e-06,1.257811021549815e-06,1.1323291264336209e-06,1.0248802835909966e-06,1.4369975860465596e-06
70,2.5086122828916397e-06,1.2316925480554096e-06,1.344209108238213e-06,1.5560686210748743e-06,3.698408118080559e-06,1.299121587570775e-06,1.6773091814656604e-06,3.2256120840903846e-06,7.793414790388048e-06,1.143221553975266e-06,1.4269721968272056e-06,3.2206947137925244e-06,1.2814162344984814e-06,1.1307668532857309e-06,1.033241291432691e-06,1.407057169877559e-06
71,2.5494696757704477e-06,1.2644736052309092e-06,1.3134498233009087e-06,1.5711211531001805e-06,3.846420750802344e-06,1.2969133319038655e-06,1.7149424644365967e-06,3.281432663552083e-06,7.622325684505737e-06,1.1382836733163549e-06,1.4142664675839447e-06,3.4155363756518034e-06,1.3124984943715158e-06,1.1301927836168248e-06,1.0395914497222262e-06,1.3775262576612608e-06
72,2.584392634044589e-06,1.2993346047114352e-06,1.2817064128237865e-06,1.5907522519857833e-06,3.995982364200731e-06,1.291328789885745e-06,1.750634199800307e-06,3.3361931377159266e-06,7.428396899619499e-06,1.1353752809395055e-06,1.4008127899138826e-06,3.6204136761310726e-06,1.3506762528280148e-06,1.130747736815135e-06,1.0434680398839492e-06,1.3484319059203103e-06
73,2.6131851875900465e-06,1.3350321672990647e-06,1.2497030281164878e-06,1.6138518629238438e-06,4.145599617165744e-06,1.2830859958108604e-06,1.783747993587444e-06,3.389408877376715e-06,7.218117773860833e-06,1.1345099919551296e-06,1.3872968139804265e-06,3.833894850541451e-06,1.3953299623736788e-06,1.1324857997183138e-06,1.0445075065590005e-06,1.3198086678043734e-06
74,2.635390346214803e-06,1.3702236666906073e-06,1.2180350203240155e-06,1.639213109263518e-06,4.294056517615759e-06,1.2728864947027397e-06,1.8135333165130244e-06,3.4406124464652885e-06,6.996873751061409e-06,1.1355851856781044e-06,1.3743524296806611e-06,4.0540876238550505e-06,1.4456766693347205e-06,1.1353790077440955e-06,1.042405868920728e-06,1.2917602932349215e-06
75,2.6504356431025235e-06,1.4036111567685738e-06,1.1871771664629785e-06,1.6656631191632702e-06,4.440429409114437e-06,1.2612519410598337e-06,1.8391503872568037e-06,3.489397531297062e-06,6.769242208877447e-06,1.1383723810638106e-06,1.362484837887574e-06,4.278812740367185e-06,1.5009190235235748e-06,1.139340423117522e-06,1.0369099825581428e-06,1.2643932174088511e-06
76,2.657818199578331e-06,1.4340866836839641e-06,1.1574920383756094e-06,1.69210903832951e-06,4.584076206555354e-06,1.2484860977781046e-06,1.8597327228782343e-06,3.535417201627352e-06,6.539358152348023e-06,1.142472775087871e-06,1.3520208981063142e-06,4.505688988484188e-06,1.5603388003335553e-06,1.1442147438308351e-06,1.0279907101405208e-06,1.2377342127984747e-06
77,2.6572588977620885e-06,1.4608493129765273e-06,1.1292508402225432e-06,1.7174606480661165e-06,4.724542676019354e-06,1.234726513372436e-06,1.8744557401686027e-06,3.578354967367486e-06,6.310905765790895e-06,1.1473311116905486e-06,1.3431650648919522e-06,4.73214061733553e-06,1.623266092143521e-06,1.149804570280363e-06,1.0160197739869058e-06,1.2117354674599457e-06
78,2.648710121191961e-06,1.4835149645083982e-06,1.10262852546307e-06,1.740644070616147e-06,4.861300166644506e-06,1.2200296684598514e-06,1.882684420655453e-06,3.617900063699618e-06,6.086875608732603e-06,1.152343468735412e-06,1.3361102373371237e-06,4.955389777656062e-06,1.6890416112768965e-06,1.1559663756221376e-06,1.0017035577794655e-06,1.186339201364523e-06
79,2.6321903994837206e-06,1.5021795094644679e-06,1.0776473182665706e-06,1.7608355960750955e-06,4.993462668857086e-06,1.2044252609753758e-06,1.8841918105324746e-06,3.653663135429475e-06,5.869447274863098e-06,1.157007302034131e-06,1.3310866355699163e-06,5.172355020252369e-06,1.757068908421393e-06,1.1626543720825476e-06,9.858532095027835e-07,1.1615261140944176e-06
80,2.6077470510676145e-06,1.5173082648140196e-06,1.0541666603103111e-06,1.777714283187392e-06,5.119811358729629e-06,1.1879326044619917e-06,1.8793392338546754e-06,3.6849855135208153e-06,5.66008685731958e-06,1.1610656889451757e-06,1.3283073517188764e-06,5.379378258024864e-06,1.8268394365210734e-06,1.1698757035117977e-06,9.692187762180617e-07,1.1373982447563533e-06
81,2.5757523520614e-06,1.529478958466022e-06,1.0320202031720819e-06,1.7914645365166471e-06,5.239137808100871e-06,1.170635302421491e-06,1.8691262662297723e-06,3.710799473939787e-06,5.4597685006179735e-06,1.1645647956876105e-06,1.3278962722896368e-06,5.57199713026931e-06,1.8978190641915721e-06,1.1776838387873552e-06,9.524325637512526e-07,1.114321517005294e-06
82,2.5371398572400088e-06,1.539166624112165e-06,1.011240256267549e-06,1.8025316684043344e-06,5.350577773266008e-06,1.15279684422562e-06,1.8550684225206684e-06,3.7297507240067143e-06,5.269327718034599e-06,1.1677432419067394e-06,1.329859327406628e-06,5.745168048915388e-06,1.969292440857749e-06,1.1862203713531376e-06,9.359839359670513e-07,1.0929449080052895e-06
83,2.493205448210006e-06,1.5466360114284123e-06,9.92177397395608e-07,1.8114232934706022e-06,5.45376733619176e-06,1.1348730487685443e-06,1.838922332734105e-06,3.7405242061940615e-06,5.089898541930719e-06,1.1708406040053064e-06,1.334106993161855e-06,5.894023286641908e-06,2.040347379994436e-06,1.1956966233220974e-06,9.201967594795214e-07,1.074023014446839e-06
84,2.445265373117807e-06,1.5518934370693973e-06,9.754057756711841e-07,1.818752057166254e-06,5.5489012350122446e-06,1.1174402177875223e-06,1.8223690489765935e-06,3.742147779603823e-06,4.9231533415944585e-06,1.1739602459354596e-06,1.340545919213918e-06,6.014834748329574e-06,2.1100575371615266e-06,1.2063261036735095e-06,9.0524412399423e-07,1.0582083883883953e-06
85,2.394544300727579e-06,1.5546853099599923e-06,9.615356719338965e-07,1.825302277623055e-06,5.636736799430502e-06,1.1011250373347754e-06,1.8068158169633306e-06,3.734195728545597e-06,4.771126482174742e-06,1.1769942579342364e-06,1.349167658603862e-06,6.1058073774031615e-06,2.1777127368834972e-06,1.2183051729189384e-06,8.912432008107433e-07,1.0459429651587434e-06
86,2.3421968540277852e-06,1.554562493424557e-06,9.511146879072026e-07,1.8318729502437076e-06,5.718491210207083e-06,1.0865278210927915e-06,1.793386792293297e-06,3.7169199721460174e-06,4.635734112551233e-06,1.1796036873474811e-06,1.3600205780124717e-06,6.167325925299914e-06,2.2429317016884708e-06,1.231844245645533e-06,8.783834407778424e-07,1.0374480356347907e-06
87,2.2892954974649655e-06,1.5510361667580714e-06,9.446241642455771e-07,1.8390267844076378e-06,5.795636913044915e-06,1.074166605452471e-06,1.78298796951985e-06,3.6912543678731227e-06,4.518325093891982e-06,1.1812833247017667e-06,1.3730820269452763e-06,6.201349463862875e-06,2.3057058379141024e-06,1.2472084382139673e-06,8.669677109333072e-07,1.0327482091722225e-06
88,2.2367962307267365e-06,1.5437741731191716e-06,9.42470198528355e-07,1.8469624199225989e-06,5.869700901521223e-06,1.0644642763945623e-06,1.7762894768977848e-06,3.6586164747296306e-06,4.4195595583315e-06,1.1815037942579438e-06,1.3881391245130313e-06,6.210263590370972e-06,2.3665097442959676e-06,1.264763431090406e-06,8.573532822609193e-07,1.0316820739994568e-06
89,2.1854682560221204e-06,1.5327070824911557e-06,9.449375234191305e-07,1.8555319532922177e-06,5.942137997563759e-06,1.0577368299654314e-06,1.7736518429320463e-06,3.6206060917302155e-06,4.339640666739989e-06,1.1798383259995077e-06,1.404745971428812e-06,6.1961586784460275e-06,2.426446719317689e-06,1.2849801871700162e-06,8.498916027513157e-07,1.0339414093915153e-06
90,2.135795254083484e-06,1.5179847401770682e-06,9.521449853741933e-07,1.8643191776962065e-06,6.014214159836616e-06,1.0541715948615207e-06,1.775119324326973e-06,3.5788303218015567e-06,4.2786555655904945e-06,1.17596795518107e-06,1.4222535074125096e-06,6.16101574567265e-06,2.4872537854832254e-06,1.3083649029417664e-06,8.449031774644097e-07,1.0391913865480272e-06
91,2.087971668492023e-06,1.4998536149808588e-06,9.640415660371197e-07,1.8726877420546094e-06,6.08676964320257e-06,1.0538196161391893e-06,1.7804681939856987e-06,3.5349217498090493e-06,4.2367111427643325e-06,1.1696717362253302e-06,1.4398747846421691e-06,6.1071788331715e-06,2.5510800404113205e-06,1.3353726858506723e-06,8.426506786817972e-07,1.0472045940533009e-06
92,2.042066029097997e-06,1.478581617663023e-06,9.804519564528727e-07,1.879847524518423e-06,6.15987219689984e-06,1.0566097753541224e-06,1.7892324794809124e-06,3.4905570457480987e-06,4.213764832586446e-06,1.160990125152161e-06,1.4567481399041488e-06,6.037446154174976e-06,2.6201441887185553e-06,1.3663510739056254e-06,8.43302516840724e-07,1.0578808722737898e-06
93,1.9982504709721957e-06,1.4544990895546941e-06,1.001132946766671e-06,1.8850887969062524e-06,6.232654242337155e-06,1.0623535898991971e-06,1.8007120504312768e-06,3.4472974684356203e-06,4.209484599745389e-06,1.1504304404178976e-06,1.4719921808174836e-06,5.9548181371898855e-06,2.6964917730245996e-06,1.4015173766213058e-06,8.469021183272445e-07,1.0711518868886597e-06
94,1.9569057244312595e-06,1.4280763533246093e-06,1.0257911134818004e-06,1.888133668970806e-06,6.303574915281701e-06,1.0707221146325946e-06,1.814007592388266e-06,3.4063486142671676e-06,4.2234330026301054e-06,1.1389312383658645e-06,1.4847831977554571e-06,5.862179891597202e-06,2.78199855586745e-06,1.4409638959508907e-06,8.533421502517203e-07,1.0869040563812282e-06
95,1.9185098383823094e-06,1.3999032206943148e-06,1.0540809817155048e-06,1.8893521282072843e-06,6.370885741658095e-06,1.0812678710685836e-06,1.828120310631299e-06,3.3684607544547006e-06,4.255319498455372e-06,1.127595515010673e-06,1.4944748440219632e-06,5.762073572564063e-06,2.878479660025432e-06,1.48464159675349e-06,8.623580235291707e-07,1.104999234454574e-06
96,1.883435356467391e-06,1.3706032338702832e-06,1.0856449361698102e-06,1.8896697814564113e-06,6.432919976478253e-06,1.0935577361332114e-06,1.842074257162234e-06,3.333953800732075e-06,4.30500913890179e-06,1.117437445931415e-06,1.5007370595786838e-06,5.6566783380496975e-06,2.9876334182672887e-06,1.5323083515567084e-06,8.735652825972688e-07,1.1253335341257545e-06
97,1.8518309252085014e-06,1.3408124325966866e-06,1.1201829034045315e-06,1.8902392420138312e-06,6.488141754321758e-06,1.1073238076980147e-06,1.8549228408427701e-06,3.3026653367561075e-06,4.372334966222301e-06,1.1092918322280542e-06,1.5036440922267193e-06,5.5480727427891026e-06,3.110803817677423e-06,1.5834959350826752e-06,8.865055723461472e-07,1.1478454603946394e-06
98,1.8236197341587503e-06,1.311193539205434e-06,1.1574612483681067e-06,1.8921143432656879e-06,6.535144974200654e-06,1.1224903042837415e-06,1.8656185141761568e-06,3.2738185563579534e-06,4.456830004660555e-06,1.1038489119087581e-06,1.5036191691619392e-06,5.438648469473303e-06,3.2487572694954935e-06,1.6375109179828813e-06,9.006386602179883e-07,1.1724570561342326e-06
99,1.7985768873305586e-06,1.2823973266431702e-06,1.1972234683147769e-06,1.8960756288551353e-06,6.572748275662992e-06,1.1390690678972488e-06,1.8729360087315636e-06,3.2460422888857695e-06,4.557424861965787e-06,1.101733551384679e-06,1.5012263020226732e-06,5.33134817926059e-06,3.4015764429368837e-06,1.693483220732465e-06,9.153175470154043e-07,1.1989845435803038e-06
100,1.7764069368215303e-06,1.2550041329530798e-06,1.2390912410592057e-06,1.9025743706804633e-06,6.600147547937348e-06,1.1570252173693574e-06,1.8756275804150944e-06,3.2176766011373937e-06,4.6721960107856e-06,1.1035932388883465e-06,1.4969463600364045e-06,5.229500897543066e-06,3.5686272384444966e-06,1.7504997357405787e-06,9.298529642026022e-07,1.2270717936224281e-06
101,1.756734244754e-06,1.229481869475688e-06,1.2825696739706487e-06,1.9117489145224356e-06,6.616989289439891e-06,1.176221719802906e-06,1.872748591093007e-06,3.1872206803465616e-06,4.798307757577559e-06,1.1101672962824894e-06,1.4910904597274613e-06,5.136371323885181e-06,3.7485300152941702e-06,1.8077320973711062e-06,9.436724638617569e-07,1.25618310871033e-06
102,1.7390769177985852e-06,1.2061392921843093e-06,1.3271586472662828e-06,1.9234726582724456e-06,6.623318548555142e-06,1.1964679714344225e-06,1.8639152669513744e-06,3.1536730418183e-06,4.932301126708842e-06,1.122307397339304e-06,1.483839347298329e-06,5.05474009102896e-06,3.939120940897854e-06,1.864394516732331e-06,9.56466718855134e-07,1.2856324107157889e-06
103,1.722910209798495e-06,1.1851013142328803e-06,1.372455030079339e-06,1.9373459281471256e-06,6.619500546910069e-06,1.2175713712972954e-06,1.8493497708388645e-06,3.116658686470029e-06,5.070724477894655e-06,1.140938691847958e-06,1.475268881275461e-06,4.986658102409479e-06,4.1374417323841885e-06,1.9195951462996377e-06,9.682458745490064e-07,1.3146250727269031e-06
104,1.7077709033117767e-06,1.1663544065759428e-06,1.4181298625346382e-06,1.952639879005636e-06,6.606203111156543e-06,1.2393020515098298e-06,1.82975053941463e-06,3.0764168238436864e-06,5.210783858957638e-06,1.1669747853807317e-06,1.4653114320185625e-06,4.933305468620769e-06,4.3398330578609085e-06,1.9723353089829812e-06,9.79308231941858e-07,1.3423585898169975e-06
105,1.693318032682548e-06,1.1498270003366093e-06,1.4637956899536774e-06,1.9682769359197953e-06,6.584358659921844e-06,1.2613150387713756e-06,1.8060672570089488e-06,3.033752670050254e-06,5.35057221249562e-06,1.2012199609917526e-06,1.4537555952362044e-06,4.894997849345738e-06,4.542181671063543e-06,2.0217229039552065e-06,9.901422026407843e-07,1.3682032325348896e-06
106,1.6793370800505876e-06,1.1354380533745995e-06,1.5088848545175606e-06,1.9828735813071217e-06,6.5549360083717355e-06,1.283122485784938e-06,1.7792688084280326e-06,2.9899818708356842e-06,5.48868750327649e-06,1.2442929197593544e-06,1.44036872853285e-06,4.87144091308215e-06,4.740261807342926e-06,2.067177626489678e-06,1.0012851614010908e-06,1.3918392506854163e-06
107,1.6657281875540716e-06,1.1231094687523733e-06,1.5526002407841782e-06,1.9948612283287675e-06,6.518473278168715e-06,1.3041491768141202e-06,1.7502030007755521e-06,2.946820820652571e-06,5.623531627870012e-06,1.296584686392751e-06,1.4250987737840607e-06,4.862092780434906e-06,4.93010686332326e-06,2.108413420145527e-06,1.013208674192599e-06,1.4132096356333543e-06
108,1.6525102473312609e-06,1.11276256092804e-06,1.5939415672894307e-06,2.002665650590766e-06,6.474550817628039e-06,1.3238365498074723e-06,1.7195598235403414e-06,2.9061479656095006e-06,5.752950777472024e-06,1.35823956456276e-06,1.4082327023466797e-06,4.866434804033593e-06,5.108365672331077e-06,2.145273402566332e-06,1.0262899211032584e-06,1.4323365467375525e-06
109,1.6397848986742482e-06,1.1042848103034984e-06,1.6318252980556152e-06,2.0048595208068965e-06,6.421531912428718e-06,1.3417005289644504e-06,1.6879357224933653e-06,2.869666333162029e-06,5.874559924583409e-06,1.4291414886680904e-06,1.3903912498588012e-06,4.884106362524001e-06,5.2724006011941405e-06,2.177610877900869e-06,1.040819979234335e-06,1.4491662364543863e-06
110,1.627590190847516e-06,1.0974592649005046e-06,1.665245909989955e-06,2.0002751669598057e-06,6.356775590374066e-06,1.357290559798314e-06,1.6559698544657267e-06,2.838657311866706e-06,5.986315184686309e-06,1.50890146100031e-06,1.37234903341162e-06,4.914883226301238e-06,5.419910667352249e-06,2.20523012572107e-06,1.0569767864701072e-06,1.4635526073306116e-06
111,1.6157452630303221e-06,1.0919040395696426e-06,1.693374125204316e-06,1.988157876603144e-06,6.277220088188529e-06,1.370195521827005e-06,1.6243848811620564e-06,2.81391595142877e-06,6.08672325822894e-06,1.5968824163737407e-06,1.3548241995364752e-06,4.958514722554878e-06,5.548421538436517e-06,2.227907784400791e-06,1.0747837327656173e-06,1.4753746976965735e-06
112,1.6038950820895506e-06,1.0870772542158524e-06,1.7155883717245215e-06,1.968368101113281e-06,6.180082540811244e-06,1.3802154626818875e-06,1.5938993438795143e-06,2.7957470592686703e-06,6.174640513543252e-06,1.6922763352288667e-06,1.338363808962457e-06,5.014549346761054e-06,5.655262747028163e-06,2.245547766425445e-06,1.094096458758472e-06,1.484693568112521e-06
113,1.5917442280245255e-06,1.0823530709537686e-06,1.7314948458347763e-06,1.9414662865064946e-06,6.063463242063151e-06,1.3875089682459186e-06,1.565169981136577e-06,2.7839612361895197e-06,6.249036889740428e-06,1.794156152925296e-06,1.323312803986208e-06,5.082223293034626e-06,5.738093513163082e-06,2.258272456084387e-06,1.114627625658852e-06,1.4918677025959332e-06
114,1.5792264332938627e-06,1.0771502573912825e-06,1.740908102433958e-06,1.9085295588552016e-06,5.9266994101499466e-06,1.3925136718503905e-06,1.5387747490684263e-06,2.7778904316944758e-06,6.3089325975394705e-06,1.901474429507172e-06,1.3098237014563945e-06,5.1603174136922876e-06,5.795443579902226e-06,2.2662783266501407e-06,1.1360025452777396e-06,1.497556313163995e-06
115,1.5664863100541939e-06,1.071087712554476e-06,1.7437930954841767e-06,1.8708661181537529e-06,5.770350093697729e-06,1.395712018697821e-06,1.5151851389786898e-06,2.776400509066989e-06,6.353319813632708e-06,2.0130881485866894e-06,1.2978948589831775e-06,5.246933767332217e-06,5.8268435512559335e-06,2.2695901270493783e-06,1.1577915488069486e-06,1.5025608521225194e-06
116,1.5537694074140498e-06,1.0641118912186155e-06,1.7403010235808021e-06,1.829896523435709e-06,5.595843785561583e-06,1.3974287394190538e-06,1.4947778134511064e-06,2.777975248366806e-06,6.380892341412998e-06,2.127801836065324e-06,1.2874472046492383e-06,5.3393947552388216e-06,5.832590301560672e-06,2.2678993958913022e-06,1.1795045329099993e-06,1.5075985978802132e-06
117,1.5412995800272464e-06,1.0565272155373803e-06,1.7308939446193497e-06,1.787129386915888e-06,5.405067956994429e-06,1.3977965496995417e-06,1.4778618805623596e-06,2.7810148300955325e-06,6.389928427570497e-06,2.244342670018431e-06,1.2784106833473682e-06,5.4344461541978215e-06,5.813459367095639e-06,2.2605675199133967e-06,1.2006205565017864e-06,1.5131728910954003e-06
118,1.5291934851202538e-06,1.0488948785479857e-06,1.7163418351912395e-06,1.7440277773423851e-06,5.200198918360101e-06,1.3969093235694337e-06,1.4646573794209942e-06,2.7843043357971744e-06,6.378816763971406e-06,2.3613281885314864e-06,1.2707211816322915e-06,5.528616108575717e-06,5.770582865186253e-06,2.246836159743286e-06,1.2206526360579317e-06,1.5196085810420108e-06
119,1.5174940522922125e-06,1.0418642672684366e-06,1.6975357938787179e-06,1.7018139212114215e-06,4.98373351042795e-06,1.394994482023863e-06,1.4552750250945733e-06,2.787349692472024e-06,6.346982841939989e-06,2.4773662271914694e-06,1.2642497601843705e-06,5.618513917830183e-06,5.705466966109549e-06,2.2261727418478445e-06,1.239190833430245e-06,1.5271926961759676e-06
120,1.506294731206227e-06,1.0360838524992944e-06,1.6753406704822665e-06,1.6613622637202826e-06,4.758393603869867e-06,1.3924078488365978e-06,1.4497467652476013e-06,2.79027908163224e-06,6.295442116443253e-06,2.5912356960722186e-06,1.2588096897908747e-06,5.701077416654693e-06,5.620009610635497e-06,2.1985043893025648e-06,1.2559314584194987e-06,1.5362780095420208e-06
121,1.4958151186701108e-06,1.0322155689509423e-06,1.6506264300156494e-06,1.6232234988282492e-06,4.526840616939863e-06,1.3895277186997339e-06,1.4480413691846068e-06,2.793392832255209e-06,6.226655588503571e-06,2.7019436232925994e-06,1.2542232091185073e-06,5.773863977128266e-06,5.516420718248428e-06,2.164235460452741e-06,1.270687529604786e-06,1.5472504274694513e-06
122,1.4863782556070915e-06,1.0309220147170464e-06,1.624307210927283e-06,1.5877385299452345e-06,4.291655793360686e-06,1.3867487000639265e-06,1.4500030604180232e-06,2.7967889097381646e-06,6.1440404704550486e-06,2.808564464335744e-06,1.2503022291400123e-06,5.8353522121275335e-06,5.3970125129266776e-06,2.124222705821571e-06,1.2833575575185527e-06,1.5604434289683316e-06
123,1.4783691592273023e-06,1.0328071728549852e-06,1.5972233007360985e-06,1.5551741120445057e-06,4.0557833105307746e-06,1.3845392309564987e-06,1.4552859231259736e-06,2.8003523106229067e-06,6.051600758090021e-06,2.910020625432609e-06,1.2467397857153213e-06,5.8851273396266985e-06,5.263892873557857e-06,2.0797792789601635e-06,1.293914934038707e-06,1.5761614361108933e-06
124,1.4722326564662463e-06,1.0383895510575705e-06,1.5699739577557385e-06,1.5258264001953833e-06,3.822876207958094e-06,1.383417313885924e-06,1.4633849251525954e-06,2.8040194553339793e-06,5.953760623053846e-06,3.005106639542316e-06,1.2430278052498052e-06,5.92389784223978e-06,5.118778619478698e-06,2.0325489680608176e-06,1.3024404982327847e-06,1.5947655919093345e-06
125,1.4684615104907947e-06,1.0480979239177879e-06,1.542845688255582e-06,1.5000432431091951e-06,3.5970642396882602e-06,1.3838405537818978e-06,1.4737263424885498e-06,2.808030905978593e-06,5.855126656062549e-06,3.092820973688157e-06,1.2384674427495176e-06,5.953352392425172e-06,4.9632338806423596e-06,1.984205728479338e-06,1.3090955008641215e-06,1.6166563836667117e-06
126,1.467519035852781e-06,1.0622556334324631e-06,1.5158269125143245e-06,1.4781529231166435e-06,3.3823709106269405e-06,1.3861099171264405e-06,1.4857120978150619e-06,2.812925704249522e-06,5.760038238831412e-06,3.1726665367022503e-06,1.2322813987882653e-06,5.975826751211376e-06,4.79920715802736e-06,1.936178898489833e-06,1.3140479382543437e-06,1.642204424668093e-06
127,1.4697558843067697e-06,1.0810565031033793e-06,1.488646133284811e-06,1.4604236186149346e-06,3.182253452601552e-06,1.3903842986573222e-06,1.4987029798022836e-06,2.8192614226739217e-06,5.6722489644124735e-06,3.244601040090506e-06,1.2237986080311002e-06,5.993809003681508e-06,4.629321587452362e-06,1.889571864805035e-06,1.3174877222029972e-06,1.6717212975398214e-06
128,1.475408082953357e-06,1.1045375115486637e-06,1.4608143328930007e-06,1.4471258281001843e-06,2.9994365177625578e-06,1.3967915970667998e-06,1.5120116672166816e-06,2.827311864388766e-06,5.595075568911261e-06,3.308740728978471e-06,1.2126297451194349e-06,6.009415588490821e-06,4.456707175822047e-06,1.845240214491268e-06,1.3197013589238013e-06,1.7053791508330003e-06
129,1.4846242380018285e-06,1.1325506939570743e-06,1.4317231275132773e-06,1.438544730936388e-06,2.8359099882103433e-06,1.4054875307179553e-06,1.5249470101549664e-06,2.836939347494852e-06,5.531744761753188e-06,3.3651778920425806e-06,1.1987676109894915e-06,6.023949766918592e-06,4.284674475881604e-06,1.80391108898219e-06,1.3210629405056378e-06,1.7430762641726386e-06
130,1.4974295987244796e-06,1.1647501970118556e-06,1.4008422758868777e-06,1.4348660308185068e-06,2.692960363587826e-06,1.4165691503462415e-06,1.5368624054303444e-06,2.8475819660295776e-06,5.4854346606527685e-06,3.4140364963925397e-06,1.1825892681342013e-06,6.03766675487289e-06,4.116491887787703e-06,1.7662596131273324e-06,1.3219276429866954e-06,1.784366739600314e-06
131,1.5136958415439534e-06,1.2006045006042917e-06,1.3679486232991699e-06,1.4360646172198732e-06,2.5712275890091726e-06,1.4299341236293174e-06,1.5471330092843961e-06,2.8582881684708073e-06,5.458895958926895e-06,3.4554923952994565e-06,1.1647376182200817e-06,6.049859144771934e-06,3.955265810656683e-06,1.7329547963800655e-06,1.3225493311313906e-06,1.828462034375877e-06
132,1.533215077134987e-06,1.239403652374516e-06,1.3332404123098794e-06,1.441881895581588e-06,2.4708046155167096e-06,1.445224490406888e-06,1.5550972496464145e-06,2.8677853673666508e-06,5.453993147667023e-06,3.4895744215924185e-06,1.1459287522368548e-06,6.059155238929241e-06,3.8038651566371877e-06,1.7047460128506737e-06,1.323100346744986e-06,1.874283260041432e-06
133,1.5557974248299635e-06,1.280271847444085e-06,1.2972395426751798e-06,1.4518619223932035e-06,2.3913424912775134e-06,1.461882874751841e-06,1.5601274934068776e-06,2.8745681530325955e-06,5.471575342929807e-06,3.515985997450786e-06,1.1268180295247842e-06,6.063806093020043e-06,3.6648543111341804e-06,1.6825347312750535e-06,1.323723403877404e-06,1.920610288086738e-06
134,1.5812715150726031e-06,1.3222762935655708e-06,1.260564372131634e-06,1.465431401545015e-06,2.3321085255421426e-06,1.4792432830759434e-06,1.5618628255163989e-06,2.877108726846057e-06,5.5116151012530235e-06,3.534203158050197e-06,1.1079651318243306e-06,6.061900712103904e-06,3.540391092826453e-06,1.6672899899972065e-06,1.32452168076018e-06,1.9663154336846454e-06
135,1.6094176438127503e-06,1.364647086725646e-06,1.223759837833614e-06,1.482073569625387e-06,2.292051235943042e-06,1.4965582011408424e-06,1.5603545513167026e-06,2.87420515426716e-06,5.573222434665281e-06,3.5438194948336816e-06,1.0898119683793648e-06,6.051564708080776e-06,3.4320989663815773e-06,1.6598529228250612e-06,1.3255258257491352e-06,2.0105806684238816e-06
136,1.6399216707613935e-06,1.406945221793464e-06,1.1872471627421517e-06,1.5015367772261733e-06,2.269979540768964e-06,1.5129611936784623e-06,1.5559566783834128e-06,2.865247439349424e-06,5.654486388730732e-06,3.54498705482771e-06,1.0726476503012995e-06,6.031152027734348e-06,3.3410055411506642e-06,1.6607946826453671e-06,1.3267496220725983e-06,2.053012200376356e-06
137,1.6723425212554717e-06,1.449003848241965e-06,1.1513670924537705e-06,1.523859586914377e-06,2.2647929106696852e-06,1.5275029801234781e-06,1.549195019689434e-06,2.8502653761884134e-06,5.752397875702307e-06,3.5387447933926543e-06,1.0566318432432786e-06,5.99943952947009e-06,3.26770417897504e-06,1.6703743391277888e-06,1.3283168279671698e-06,2.0936240448075647e-06
138,1.7060693274668611e-06,1.4907134203127419e-06,1.1164941330094629e-06,1.549165970244603e-06,2.2755778658856237e-06,1.5393408157568965e-06,1.5408340826352312e-06,2.8298253054282706e-06,5.862950566209839e-06,3.527030989113475e-06,1.0418976383838845e-06,5.955866016984609e-06,3.212780098611904e-06,1.6885633454162988e-06,1.330499413399177e-06,2.132731083317292e-06
139,1.7403617154214677e-06,1.531918614145757e-06,1.0830988705417466e-06,1.5774850958035952e-06,2.3015247559486655e-06,1.5479398113123446e-06,1.5319265856663908e-06,2.8048617901577532e-06,5.981361056839823e-06,3.5123573651316034e-06,1.0286345216403158e-06,5.90077544433244e-06,3.1771930677463087e-06,1.7150937624675644e-06,1.3336110732090935e-06,2.1708230182416054e-06
140,1.7745615028325343e-06,1.5725092339862715e-06,1.0516608302562489e-06,1.6087785718779338e-06,2.3417665994308025e-06,1.5531105231123595e-06,1.5236550692763916e-06,2.7765057359205408e-06,6.1024025734052605e-06,3.4973288459031915e-06,1.0170574518800574e-06,5.835540018163682e-06,3.1622650323935294e-06,1.7494837985311752e-06,1.3378931026836866e-06,2.2084262418328016e-06
141,1.8083787037798392e-06,1.6124850543384682e-06,1.0225567441769608e-06,1.6430411603331495e-06,2.3952298782118185e-06,1.5549045170533384e-06,1.5171692565714488e-06,2.7459963604668185e-06,6.220936683795669e-06,3.4843029665029307e-06,1.0073216057909348e-06,5.7625230625191316e-06,3.169367392365746e-06,1.791017671242575e-06,1.343495993944734e-06,2.2459434581218125e-06
142,1.8420243022314665e-06,1.6518406532051838e-06,9.960617949568198e-07,1.6802815324257359e-06,2.460543375214747e-06,1.553518866281448e-06,1.5135625843116446e-06,2.714705101656718e-06,6.332589525262231e-06,3.47530755569881e-06,9.99480972344935e-07,5.684964777385216e-06,3.199651764110637e-06,1.8386896245045802e-06,1.3504845580095303e-06,2.2835429060160786e-06
143,1.876048137440781e-06,1.6904020131515545e-06,9.723928630576483e-07,1.7203991120917358e-06,2.53604816873773e-06,1.5492894498560802e-06,1.5138417948292431e-06,2.6841255449652395e-06,6.434287319769892e-06,3.4720412248134214e-06,9.934975905547372e-07,5.606803116770939e-06,3.253939899816578e-06,1.8911640118395562e-06,1.358781694796293e-06,2.321138600993773e-06
144,1.9109969164733244e-06,1.7278113111225653e-06,9.51677982084853e-07,1.7630936957522633e-06,2.619889688766846e-06,1.542719857477242e-06,1.5188242539351754e-06,2.6557184433486916e-06,6.524421632510425e-06,3.4758760719584167e-06,9.8930402195326e-07,5.532334252004869e-06,3.3326603457439947e-06,1.9467816072725795e-06,1.3680887928889476e-06,2.358365104389335e-06
145,1.9471639832474015e-06,1.7636823913525786e-06,9.338859162860373e-07,1.807879144892846e-06,2.7100721769497738e-06,1.5344374031682528e-06,1.5290841536073473e-06,2.630796689057713e-06,6.602653651116641e-06,3.487883876753894e-06,9.8687711424279e-07,5.465742893452301e-06,3.4357432486493886e-06,2.0035677514450427e-06,1.3778645916468644e-06,2.394484433155876e-06
146,1.9845482278117535e-06,1.797783068915744e-06,9.188032489622835e-07,1.8541481733207882e-06,2.8044732437813583e-06,1.5250480792212368e-06,1.5449763844326362e-06,2.610585916248474e-06,6.669460184509324e-06,3.5087742364711726e-06,9.862218037548692e-07,5.410710199728447e-06,3.5625118216930946e-06,2.05924314496744e-06,1.3874332943091002e-06,2.4283347926216156e-06
147,2.0228972531764868e-06,1.8300677600835848e-06,9.060662746360546e-07,1.9011748617479981e-06,2.901037652030355e-06,1.515017217532095e-06,1.5666462087521963e-06,2.5962377961437895e-06,6.7254608034229265e-06,3.538836617450071e-06,9.872945857566988e-07,5.370225673803319e-06,3.7116902777206384e-06,2.1113620716114544e-06,1.3962200799165781e-06,2.458451814658459e-06
148,2.0617298260859536e-06,1.8605207552354597e-06,8.95241311254891e-07,1.9480394407525335e-06,2.9982045428018777e-06,1.5046848825255007e-06,1.594036044551304e-06,2.588660796838863e-06,6.770662323182603e-06,3.578135103876117e-06,9.899714430033497e-07,5.346483734537637e-06,3.8815924048694025e-06,2.157676429552216e-06,1.403934012563763e-06,2.4833680149712186e-06
149,2.100386318389426e-06,1.8889649141569849e-06,8.859505470187813e-07,1.9936053781393036e-06,3.0952638249172887e-06,1.4943436244954847e-06,1.6269492077883689e-06,2.5883670521443666e-06,6.804000651353825e-06,3.6268222743417726e-06,9.940860009159604e-07,5.340729541221805e-06,4.070411138487482e-06,2.1965820836669616e-06,1.4105137624942516e-06,2.5019923914231196e-06
150,2.138123343777834e-06,1.9149693871812565e-06,8.779531371483907e-07,2.0366330333871012e-06,3.192352813203788e-06,1.4842664394029211e-06,1.6650957256100198e-06,2.5954507211634073e-06,6.82346674371132e-06,3.6852265520672117e-06,9.995089637992028e-07,5.353178846619542e-06,4.276443416028582e-06,2.2273368013910474e-06,1.4159141657148417e-06,2.5139245540744725e-06
151,2.1741959369723184e-06,1.9378712571594602e-06,8.711105041537206e-07,2.0759574415725864e-06,3.2900719723911768e-06,1.4746626782559856e-06,1.7080507363676638e-06,2.609603827072531e-06,6.82671485223664e-06,3.7536598623721846e-06,1.006178690661585e-06,5.383211341239338e-06,4.498104568017165e-06,2.249947398749365e-06,1.4199791912332608e-06,2.5195909161804253e-06
152,2.2079315103119726e-06,1.9569412942178496e-06,8.653149667532923e-07,2.1106353645429533e-06,3.388915560508788e-06,1.4656165451485696e-06,1.7552061634208572e-06,2.630193302006743e-06,6.8118174390956774e-06,3.832142397020263e-06,1.0140289059676567e-06,5.4298005591548225e-06,4.733748630834589e-06,2.2649167537947132e-06,1.4225134691325988e-06,2.5201735440652713e-06
153,2.2388171219688607e-06,1.9716701958074804e-06,8.604712820428235e-07,2.140042899011773e-06,3.4888098680681253e-06,1.4571060188668667e-06,1.805791005500211e-06,2.656487169536468e-06,6.777816747682595e-06,3.9202136176437585e-06,1.0229257704752112e-06,5.491965121254919e-06,4.981541991790335e-06,2.2730512265151025e-06,1.423420968251803e-06,2.5173471929254188e-06
154,2.266579286549783e-06,1.982006526704833e-06,8.565061623740941e-07,2.163952740485519e-06,3.5889279074202297e-06,1.4491181325889233e-06,1.858898332328265e-06,2.6879118357298586e-06,6.724917572728367e-06,4.016902099446677e-06,1.0327202896260839e-06,5.56906642529187e-06,5.239615059192439e-06,2.2754071361085285e-06,1.4227138666017083e-06,2.512904297177826e-06
155,2.2912560984622773e-06,1.9883673520242353e-06,8.533523748514682e-07,2.182620527872453e-06,3.6877454683197867e-06,1.4417393869559627e-06,1.913460113589713e-06,2.724210594241815e-06,6.654466557030309e-06,4.120855044130922e-06,1.0433542557933863e-06,5.660934601531426e-06,5.5063879932975545e-06,2.273349560278407e-06,1.4203759137241231e-06,2.5084410393083872e-06
156,2.3132628034082807e-06,1.9913968382636266e-06,8.509097258420666e-07,2.1968535880123445e-06,3.7832323639697484e-06,1.4351179582298476e-06,1.968266215009553e-06,2.7655576110141216e-06,6.568931319843362e-06,4.23056427288773e-06,1.054907629210517e-06,5.7678979658983526e-06,5.7807805542559346e-06,2.268582088548103e-06,1.4162471271816503e-06,2.505227223629773e-06
157,2.333361568030252e-06,1.99165109642789e-06,8.49020634645569e-07,2.2079663583592233e-06,3.873064296894469e-06,1.4293603309500782e-06,2.022081906302785e-06,2.8126555962346705e-06,6.471923067662237e-06,4.34457812583187e-06,1.0675444111558975e-06,5.890754369236996e-06,6.062225445675602e-06,2.2630146787831055e-06,1.410039489005052e-06,2.5042011709117093e-06
158,2.352470044602482e-06,1.9894469051514683e-06,8.474782451403442e-07,2.2175484528841317e-06,3.954774587688394e-06,1.4245211897955314e-06,2.0737143298375935e-06,2.8667232137370913e-06,6.368129199784598e-06,4.461544676842269e-06,1.081402855937242e-06,6.030707309984043e-06,6.3506185135420515e-06,2.2585223965649955e-06,1.4014286163663679e-06,2.5059532988074994e-06
159,2.371491052372479e-06,1.984910849038156e-06,8.4603934208322e-07,2.227112542133909e-06,4.025864517699149e-06,1.4206974795279566e-06,2.1219642051415937e-06,2.929358425816301e-06,6.262950524497586e-06,4.579979906661409e-06,1.0965241219750596e-06,6.189288521772719e-06,6.646154530173175e-06,2.256772377379142e-06,1.3901307622523976e-06,2.5106554062253774e-06
160,2.391351778594324e-06,1.978049881885178e-06,8.444182261124099e-07,2.237803002615881e-06,4.0839498939736225e-06,1.418066524517305e-06,2.1656445847855384e-06,3.0023982157199994e-06,6.161820545806389e-06,4.697867430506976e-06,1.1128346635812459e-06,6.368181528902456e-06,6.9488594672742745e-06,2.2591940950713077e-06,1.375939822217855e-06,2.5179990994880465e-06
161,2.413058033285642e-06,1.9687760481855646e-06,8.423105775131226e-07,2.2502820335745973e-06,4.1270065342808234e-06,1.4168444278100954e-06,2.2037911772808326e-06,3.0878362569426076e-06,6.069509223845256e-06,4.812370901732748e-06,1.1301254214202874e-06,6.568822142479503e-06,7.258043770362238e-06,2.2669815622112664e-06,1.3587440791292089e-06,2.527194604135631e-06
162,2.437527999846575e-06,1.9569771052599437e-06,8.395208249141822e-07,2.264792274924147e-06,4.1537154713955005e-06,1.4172985652956532e-06,2.2359131528582306e-06,3.18774452570006e-06,5.98971213561028e-06,4.919945825750846e-06,1.1480460429252395e-06,6.791897029482867e-06,7.572144354897607e-06,2.281030890845352e-06,1.338541699667663e-06,2.5370476505984117e-06
163,2.465358971393312e-06,1.9425692889624465e-06,8.361409641852165e-07,2.2813193126642465e-06,4.163770832583319e-06,1.4197879558373007e-06,2.262018806618879e-06,3.3041469537895844e-06,5.9249614607900695e-06,5.016934802048989e-06,1.1661779621637178e-06,7.0370700386229655e-06,7.888968237959749e-06,2.301875349521425e-06,1.3154599249203238e-06,2.5461464509494606e-06
164,2.49672839559747e-06,1.925422360459195e-06,8.325967467261005e-07,2.299700880635856e-06,4.157870664864134e-06,1.4247173673677566e-06,2.2823605522151794e-06,3.438823887116181e-06,5.876852228252605e-06,5.100280263080394e-06,1.1841747441537866e-06,7.30303754204457e-06,8.206074869339494e-06,2.3296607724164733e-06,1.289772009894031e-06,2.553086922974278e-06
165,2.5313879047126852e-06,1.9053046247541507e-06,8.294849657147023e-07,2.319638737453754e-06,4.137245731868344e-06,1.432452909729894e-06,2.2971727908340225e-06,3.5930575349359382e-06,5.846572194742359e-06,5.1677605259203154e-06,1.2018831715351962e-06,7.587711718501601e-06,8.521240120325396e-06,2.3641142005905884e-06,1.2618874325549411e-06,2.5565804461175476e-06
166,2.56871880662143e-06,1.882007492803038e-06,8.273541621627558e-07,2.3407627267699476e-06,4.103028562136366e-06,1.4432477161771627e-06,2.3066423972318503e-06,3.7674124631071142e-06,5.835426279866902e-06,5.217559504203895e-06,1.2193465729790545e-06,7.888352546667203e-06,8.832879228499063e-06,2.404533448168582e-06,1.2322857555574243e-06,2.5554963472602334e-06
167,2.607861037478988e-06,1.855561198055745e-06,8.2659800275787e-07,2.362775528777975e-06,4.055931684195794e-06,1.4571605653344872e-06,2.310989561854675e-06,3.961656649096586e-06,5.844888762545746e-06,5.247614552015399e-06,1.2366843246467243e-06,8.201565227817904e-06,9.140127790996429e-06,2.449889896480524e-06,1.2014125739846777e-06,2.5490377452396384e-06
168,2.6477861586074648e-06,1.8263888133669814e-06,8.274849839756903e-07,2.385494732029417e-06,3.996305139969649e-06,1.4740420526031112e-06,2.3104580666766737e-06,4.174809539608055e-06,5.8761043919442705e-06,5.255388315196893e-06,1.2539808833809975e-06,8.52311799557317e-06,9.442593412540852e-06,2.499035441528976e-06,1.1696179231228184e-06,2.5369872358327752e-06
169,2.6872253108359906e-06,1.7953126263259375e-06,8.302477015714556e-07,2.4086956946045644e-06,3.924324752888268e-06,1.4935980658407281e-06,2.3052363951692626e-06,4.405210690224757e-06,5.929304877168129e-06,5.23829078238551e-06,1.2712991421248949e-06,8.847644688429958e-06,9.740118019357384e-06,2.5509287334859656e-06,1.1372030736150314e-06,2.5197015131713997e-06
170,2.7245949510087746e-06,1.7634129488459111e-06,8.351203236313974e-07,2.4318905740390557e-06,3.840174527099992e-06,1.5154032838075003e-06,2.2954251382223877e-06,4.650516991306568e-06,6.003647097572791e-06,5.194492824264391e-06,1.2887492375443907e-06,9.168373553471551e-06,1.0032759310650912e-05,2.6048648916254026e-06,1.1045448872967492e-06,2.497776413445432e-06
171,2.7580102641966616e-06,1.7318399748883966e-06,8.42279857555623e-07,2.4542570867926013e-06,3.7442025483593664e-06,1.5388636293471733e-06,2.2810878119689117e-06,4.907601391406485e-06,6.097436639841069e-06,5.123766647963278e-06,1.3064696059028809e-06,9.47697409049468e-06,1.032093050733966e-05,2.6607274003686314e-06,1.072173892737003e-06,2.471762605558937e-06
172,2.7853027318820947e-06,1.7016486587611132e-06,8.517606159895613e-07,2.4747993423502404e-06,3.6369916648454023e-06,1.563245621789702e-06,2.262326705116136e-06,5.1724235929261906e-06,6.208263408242775e-06,5.027998269266553e-06,1.324543584436657e-06,9.763700806388808e-06,1.0605465604137742e-05,2.719168589292277e-06,1.0407124866056927e-06,2.4422283988787395e-06
173,2.8041444760618685e-06,1.6736571062063766e-06,8.634133941848542e-07,2.4926494333849254e-06,3.5193451677260376e-06,1.5877768204336123e-06,2.239332770111583e-06,5.4400936632248045e-06,6.3328711692626385e-06,4.911087191417957e-06,1.3429787745031435e-06,1.0018175187813129e-05,1.0887344266732385e-05,2.7815331233668457e-06,1.0107405609081545e-06,2.4099494385429384e-06
174,2.8124603798496364e-06,1.6483693247983492e-06,8.769239419358873e-07,2.5073485774722247e-06,3.39232106164275e-06,1.6117347340605198e-06,2.2124309247082654e-06,5.705366253725809e-06,6.467195774079926e-06,4.778223255952439e-06,1.3617198818396168e-06,1.0230743967136843e-05,1.1167005463808322e-05,2.8495289173775723e-06,9.827253564669443e-07,2.3759265763317504e-06
175,2.8089444522809128e-06,1.626005761752598e-06,8.919051841022605e-07,2.5189849303084014e-06,3.2574025551833974e-06,1.6345188488911548e-06,2.1821239389001784e-06,5.963501382424906e-06,6.606961634882331e-06,4.634906360281387e-06,1.380589051473983e-06,1.0393694487554462e-05,1.1443649268575429e-05,2.924947277488954e-06,9.570354526181036e-07,2.341275649184225e-06
176,2.7933144500846357e-06,1.6065748405916184e-06,9.080645273265295e-07,2.5281478212401064e-06,3.1166980347851043e-06,1.6557654714594244e-06,2.1490968692159293e-06,6.211110969770607e-06,6.748528900372062e-06,4.486284460906816e-06,1.3991999523389827e-06,1.050164604876849e-05,1.1715226967583507e-05,3.009624812932132e-06,9.339611496931584e-07,2.307156915778899e-06
177,2.766152816700283e-06,1.5898755989537794e-06,9.253610282220033e-07,2.5357112267185706e-06,2.972991398397909e-06,1.6754958173479923e-06,2.1141716221110505e-06,6.446640408793371e-06,6.889328307393464e-06,4.336987257340378e-06,1.41695972343735e-06,1.0550902912070368e-05,1.197922246352987e-05,3.1054464010202966e-06,9.136909555455921e-07,2.274763071171557e-06
178,2.7284539388925387e-06,1.5754554790196943e-06,9.440228866604155e-07,2.542503734119354e-06,2.8295711960435766e-06,1.6941792267125352e-06,2.0782010556849837e-06,6.670383349687397e-06,7.027619891912233e-06,4.191098232267615e-06,1.4331660905982968e-06,1.0538294622976943e-05,1.2233475994224711e-05,3.214163776274692e-06,8.962805975446294e-07,2.24527844575228e-06
179,2.681192658809342e-06,1.5626568560635748e-06,9.64408555274909e-07,2.549013189394491e-06,2.689890445195443e-06,1.7126009472810846e-06,2.0419237755654e-06,6.884111323352598e-06,7.161833950381429e-06,4.05206773611072e-06,1.4470934865653216e-06,1.0460992735854677e-05,1.2476527091466625e-05,3.3371711413331535e-06,8.81686417096848e-07,2.2197660208107777e-06
180,2.625211918614418e-06,1.5507845443790691e-06,9.868491621902655e-07,2.5552959071884356e-06,2.5571814455548864e-06,1.7315943092239348e-06,2.0058900507284304e-06,7.090438929194284e-06,7.289853403337023e-06,3.922652462192502e-06,1.4579927422872191e-06,1.0318104759595127e-05,1.2707786418133697e-05,3.4754883278359297e-06,8.698437789822534e-07,2.199019525861134e-06
181,2.561408934694655e-06,1.5392992398969655e-06,1.0115753883593015e-06,2.5610916807627284e-06,2.434186463241185e-06,1.7518460752116603e-06,1.970496975501586e-06,7.2920167605089444e-06,7.40854498358491e-06,3.804892136300512e-06,1.465111626262946e-06,1.0112700015420337e-05,1.292793864333674e-05,3.62993008661578e-06,8.606923369317635e-07,2.1834672029696894e-06
182,2.490957036563392e-06,1.5279438990720869e-06,1.0386879766529314e-06,2.5659882922399674e-06,2.323084610545174e-06,1.7738508913185658e-06,1.936030394159963e-06,7.490724055597593e-06,7.513908696060435e-06,3.7001094253888446e-06,1.4678476992115626e-06,9.852471218832448e-06,1.313935508984526e-05,3.801283825831273e-06,8.541223406065037e-07,2.1731937287057677e-06
183,2.415408090549853e-06,1.5167241713010069e-06,1.0681381871320956e-06,2.569564700117839e-06,2.2255291637543156e-06,1.7978867392949481e-06,1.9026366292394253e-06,7.687183663573338e-06,7.601997136483977e-06,3.608942738729317e-06,1.4659340538858446e-06,9.548601739115395e-06,1.334593268246009e-05,3.990378382672093e-06,8.499113405867323e-07,2.1680352588199186e-06
184,2.3366293063676115e-06,1.5057456121950407e-06,1.099779489688124e-06,2.571573816141049e-06,2.1426750552944656e-06,1.8239988977324846e-06,1.8702514619158916e-06,7.880746494351594e-06,7.670143268242165e-06,3.531418261513425e-06,1.4595431920770401e-06,9.213593565677417e-06,1.3552087331795966e-05,4.1980037149875184e-06,8.476963805043974e-07,2.1676467763093856e-06
185,2.256556112406427e-06,1.495106530774753e-06,1.1335077590536256e-06,2.572143640156605e-06,2.075175766601894e-06,1.852146086575325e-06,1.838603913246799e-06,8.0697311725302e-06,7.717674414352414e-06,3.4671037969291223e-06,1.4492965059927812e-06,8.859273738762627e-06,1.376128309913049e-05,4.42469892895213e-06,8.469746331904447e-07,2.171526741489763e-06
186,2.1769246500966004e-06,1.4849793808953284e-06,1.169370461490201e-06,2.5718294913164177e-06,2.02319189095498e-06,1.8824900094079843e-06,1.8073540602299384e-06,8.251721271203417e-06,7.745625512944483e-06,3.4153357438166637e-06,1.4361448483310215e-06,8.495787428607117e-06,1.3974941076214415e-05,4.67046018179837e-06,8.471568926694402e-07,2.1790535985925737e-06
187,2.0991577954349007e-06,1.4756874995879361e-06,1.2075336995619876e-06,2.5714101283608783e-06,1.9864720821194318e-06,1.915575285178786e-06,1.7762088296333496e-06,8.423928509273158e-06,7.755663849652366e-06,3.375437362763036e-06,1.4211220274273156e-06,8.13143717262992e-06,1.4192275093331087e-05,4.934460840265952e-06,8.477154020014658e-07,2.189543077554646e-06
188,2.024354683015666e-06,1.4676095623887152e-06,1.2481493511116478e-06,2.5715636825184446e-06,1.9645469827935767e-06,1.952223757752125e-06,1.7449106116673752e-06,8.58364952938791e-06,7.748901982677682e-06,3.3468131916198015e-06,1.4051137869484865e-06,7.77279400166436e-06,1.4410844404233667e-05,5.2148963878876486e-06,8.483494127149325e-07,2.2022946199652403e-06
189,1.953344101774428e-06,1.4610860660478507e-06,1.291250033973434e-06,2.5726628467952666e-06,1.9569603013771172e-06,1.9932327230756558e-06,1.713259239121967e-06,8.728790729344592e-06,7.72527554380473e-06,3.328800953774458e-06,1.3887905568011847e-06,7.424849885692918e-06,1.4627473409155656e-05,5.5089742457770635e-06,8.490073788532484e-07,2.2166410884091953e-06
190,1.886838313635436e-06,1.4564636488974723e-06,1.3367500479089494e-06,2.5747296789838677e-06,1.963361904555837e-06,2.03911858614843e-06,1.6812517588679579e-06,8.858371820042233e-06,7.683816392192026e-06,3.3203478204312707e-06,1.3726761598477741e-06,7.091258950909055e-06,1.483948912607605e-05,5.8130416969216774e-06,8.497675189330619e-07,2.2320665278415954e-06
191,1.825594574196459e-06,1.4541170272127681e-06,1.3845263751378223e-06,2.57743287349588e-06,1.9833848683525445e-06,2.090088751238176e-06,1.6491809399196703e-06,8.972822109476247e-06,7.6237062947413865e-06,3.3197625477748456e-06,1.3571966682125365e-06,6.774559000414186e-06,1.504603465203729e-05,6.122963414929118e-06,8.507352134706432e-07,2.248380824817271e-06
192,1.7704265123599844e-06,1.4543862478286542e-06,1.4344786221229555e-06,2.580112989726951e-06,2.016445945588093e-06,2.1462346129241706e-06,1.6175958168844918e-06,9.073875931879072e-06,7.545582557311743e-06,3.324684553455435e-06,1.3426374211376498e-06,6.476265790973396e-06,1.5248811246962799e-05,6.434766380646383e-06,8.520019293558129e-07,2.2657633193735957e-06
193,1.7220477315437187e-06,1.457528232987995e-06,1.4864827641546394e-06,2.581881810409247e-06,2.06167670974648e-06,2.207754136949716e-06,1.5871994649858468e-06,9.164029156068638e-06,7.452276682087217e-06,3.33228589331348e-06,1.329092976737172e-06,6.196947023122479e-06,1.5451736916881796e-05,6.745267829432381e-06,8.536142647403945e-07,2.2845384385794457e-06
194,1.6809128318673788e-06,1.4636512590583165e-06,1.5402604970842398e-06,2.5817382039432444e-06,2.117996505805717e-06,2.2749944835380207e-06,1.5587617722254472e-06,9.245710446029225e-06,7.3484324792633565e-06,3.339785698386968e-06,1.3165044047948645e-06,5.936395022272019e-06,1.5659650166317286e-05,7.052324023138814e-06,8.555844096301423e-07,2.304881895818395e-06
195,1.647192015968108e-06,1.4726290695558268e-06,1.5952562953582108e-06,2.578618703711094e-06,2.184143180671978e-06,2.3482844871800108e-06,1.5330436513554883e-06,9.32043379731472e-06,7.239313249508939e-06,3.345166827153596e-06,1.30475044104381e-06,5.693894834081147e-06,1.5876763587984243e-05,7.354553571924565e-06,8.579420958164229e-07,2.3267232337320736e-06
196,1.6208070195193326e-06,1.4841307879304876e-06,1.6505902557340816e-06,2.571412153885952e-06,2.258575525170123e-06,2.427711847116353e-06,1.5106960984576867e-06,9.388287104230715e-06,7.129783656489218e-06,3.347595367190338e-06,1.2936683429773472e-06,5.468516994828087e-06,1.6105501867399556e-05,7.650653919356336e-06,8.607314052605222e-07,2.3497921749799626e-06
197,1.6014288451763941e-06,1.497829456395556e-06,1.7051501022000049e-06,2.5590334348469054e-06,2.33937565364014e-06,2.513018597516666e-06,1.4921512323323493e-06,9.448021886975893e-06,7.024203348432185e-06,3.347252288763197e-06,1.2829718718432026e-06,5.2593411223885625e-06,1.634576998541936e-05,7.93861642460908e-06,8.639456288641297e-07,2.3736264466527156e-06
198,1.588465301841884e-06,1.513684007355305e-06,1.7578555112105754e-06,2.5406120676701557e-06,2.4243163314585975e-06,2.6036420501901367e-06,1.4775710562947716e-06,9.497588479773177e-06,6.926928746213549e-06,3.3448488806751534e-06,1.272190458140069e-06,5.065518323062572e-06,1.6594556984809807e-05,8.215268795732883e-06,8.674740384879293e-07,2.397539949785045e-06
199,1.58110153449263e-06,1.5320600500685341e-06,1.8079821373027048e-06,2.5157760932879697e-06,2.5111115435129094e-06,2.6987937525369546e-06,1.466871078855235e-06,9.534714800215134e-06,6.842479230346159e-06,3.3412231183040726e-06,1.2607406088625734e-06,4.886154538039958e-06,1.6846184683811038e-05,8.476464102952027e-06,8.710912358151237e-07,2.4206727018720233e-06
200,1.5784589929380216e-06,1.5535678258404857e-06,1.8553690659741419e-06,2.4849117634006145e-06,2.597691694798302e-06,2.79750147516891e-06,1.45976938628291e-06,9.557413021381075e-06,6.775014418299471e-06,3.337249738731382e-06,1.2481113238753974e-06,4.720107144143429e-06,1.709338585211141e-05,8.717765376493777e-06,8.744980288395473e-07,2.442163510926603e-06
201,1.5798607493803224e-06,1.5788487734721351e-06,1.900446629660993e-06,2.449212351499678e-06,2.6823266522328445e-06,2.8986076642160975e-06,1.455804615075557e-06,9.56457020171778e-06,6.727657003913037e-06,3.334000288775254e-06,1.2340474827039954e-06,4.565813989998875e-06,1.7328729478431126e-05,8.935098927719564e-06,8.774015711672248e-07,2.4613181717669998e-06
202,1.5849833381834506e-06,1.608565117357632e-06,1.9441036745903647e-06,2.410423332726299e-06,2.7635593584110527e-06,3.0007224153315228e-06,1.4543227629905722e-06,9.556601619528412e-06,6.7021486159308075e-06,3.3327899535891863e-06,1.2185943539883695e-06,4.421240947363598e-06,1.7545726226623653e-05,9.125021159763466e-06,8.795898983843463e-07,2.4776400559496636e-06
203,1.5937358323885e-06,1.643484835209589e-06,1.987425631994495e-06,2.3704094453989496e-06,2.840054430608254e-06,3.1021835191824185e-06,1.4545374576562767e-06,9.535856259298618e-06,6.6987680324388285e-06,3.3349678191677897e-06,1.2019631654555078e-06,4.284031516514202e-06,1.773939165218811e-05,9.28471700303108e-06,8.809669066020413e-07,2.490819107015863e-06
204,1.606098438057191e-06,1.6844538519942849e-06,2.031417184828819e-06,2.33080156424679e-06,2.9105342061007047e-06,3.2011311951036446e-06,1.455714920806948e-06,9.506476205186073e-06,6.716318636914913e-06,3.3417319359125103e-06,1.1843293623800982e-06,4.151867304134807e-06,1.790650331066378e-05,9.412072915942163e-06,8.815380693068276e-07,2.5008540297393717e-06
205,1.6221503104278042e-06,1.7322802589772256e-06,2.076858452887259e-06,2.2928786964758236e-06,2.973910382056673e-06,3.2957093810418495e-06,1.4573077115370095e-06,9.473680281855515e-06,6.752158580249627e-06,3.354103238172939e-06,1.1657263667993054e-06,4.0228384300774354e-06,1.8045848618960416e-05,9.505941233330186e-06,8.813602293602382e-07,2.5082237520949763e-06
206,1.642094215461512e-06,1.787671417266035e-06,2.124273320429894e-06,2.257615152537424e-06,3.0295216329299283e-06,3.3842621791615873e-06,1.4589189879547102e-06,9.442716313440755e-06,6.802327214339573e-06,3.3728352355748103e-06,1.146098192413513e-06,3.895572255361871e-06,1.815844531035932e-05,9.56636526853323e-06,8.805168201457763e-07,2.513844742670878e-06
207,1.6661019694099788e-06,1.8512181982394167e-06,2.173873929549624e-06,2.2257287197408614e-06,3.0772163489388682e-06,3.4653548475842195e-06,1.4602667183055923e-06,9.41783592207495e-06,6.861877431044419e-06,3.398183957654796e-06,1.1254397182220558e-06,3.7691357289729864e-06,1.8247442515241332e-05,9.594482569289883e-06,8.791677923316149e-07,2.5187671543120863e-06
208,1.6941705471056242e-06,1.9233166151782514e-06,2.2254732737822845e-06,2.1976522013063937e-06,3.1171318185341858e-06,3.5375800737744234e-06,1.4612486883939697e-06,9.401583444112088e-06,6.92559271484462e-06,3.4297578302504586e-06,1.1039193543475842e-06,3.6429311949434848e-06,1.831749037843554e-05,9.592073755452252e-06,8.775926662347207e-07,2.523893736180587e-06
209,1.7261782662113619e-06,2.0040408332955366e-06,2.278433544022225e-06,2.1734833511655974e-06,3.1494230342361877e-06,3.599420464996988e-06,1.461945980525958e-06,9.394598017215719e-06,6.9891336784826285e-06,3.4665289418944084e-06,1.0819251354073227e-06,3.516666549273649e-06,1.8373586010361735e-05,9.56099628336744e-06,8.761188311259473e-07,2.5299315550316675e-06
210,1.7620146881633422e-06,2.093072780277981e-06,2.3316608691031664e-06,2.1529870894205574e-06,3.1743058178974234e-06,3.6494581064597227e-06,1.4624860753707397e-06,9.395975397074032e-06,7.050156851692889e-06,3.506890534922881e-06,1.0600174487436767e-06,3.390245667199284e-06,1.841954640621895e-05,9.502790009610798e-06,8.749872122495838e-07,2.5374369600130425e-06
211,1.801575067115367e-06,2.1897728450847565e-06,2.3836829258213597e-06,2.1356337181845258e-06,3.192324759171208e-06,3.686758070656025e-06,1.4629241277779421e-06,9.40396642719084e-06,7.108661133956122e-06,3.5488615596407076e-06,1.0388230238658338e-06,3.263499390786454e-06,1.845654303840198e-05,9.418470566419122e-06,8.742694895955538e-07,2.546793628261106e-06
212,1.844700881969535e-06,2.2934054544935776e-06,2.432858204690091e-06,2.1206964814223308e-06,3.2044568980750676e-06,3.7110673414259982e-06,1.4632432280393647e-06,9.416705708511203e-06,7.166351446101519e-06,3.590629193184515e-06,1.0189523063974845e-06,3.1360194224874205e-06,1.8482382945301314e-05,9.30827481411466e-06,8.738669198336354e-07,2.558171878014049e-06
213,1.891266244721845e-06,2.403346973125337e-06,2.477635227003416e-06,2.1074818975453296e-06,3.211906248861347e-06,3.7227665363712506e-06,1.4633976919865107e-06,9.432859031051715e-06,7.225528367417112e-06,3.6312046280531262e-06,1.0009848431767e-06,3.007294091629746e-06,1.8491821800700637e-05,9.171425562965856e-06,8.735971871255044e-07,2.571524487043077e-06
214,1.9413115580294896e-06,2.5190609722229577e-06,2.5166667524228436e-06,2.0955516216264754e-06,3.2157384010445656e-06,3.7226830828063785e-06,1.4633594711619414e-06,9.452158774386756e-06,7.288076755252908e-06,3.6707630528460926e-06,9.854740683805593e-07,2.876904874795844e-06,1.847754456266887e-05,9.006377541291876e-06,8.733580254932909e-07,2.5865649632498705e-06
215,1.994987009590279e-06,2.6399061155480402e-06,2.548685251232909e-06,2.0846810962063196e-06,3.2165570952636383e-06,3.7118474926752764e-06,1.4631862727453955e-06,9.475684125776574e-06,7.354839155195279e-06,3.710541321309583e-06,9.729101690592182e-07,2.7445987629148645e-06,1.84313388387217e-05,8.811649702319767e-06,8.732494077538036e-07,2.602671368333022e-06
216,2.052330554531838e-06,2.765024274461003e-06,2.572333246142185e-06,2.0745818909439324e-06,3.214336288373796e-06,3.691294971628714e-06,1.463051861866458e-06,9.505797156647754e-06,7.4255247186573894e-06,3.7524248128160333e-06,9.636680897345732e-07,2.6103910174540714e-06,1.834519021666453e-05,8.586743210905608e-06,8.73571732604712e-07,2.6187884007973325e-06
217,2.1130821045393944e-06,2.8933793438385036e-06,2.5862210463660222e-06,2.0646851242551608e-06,3.2084343679706196e-06,3.6619835491183387e-06,1.4631772686863556e-06,9.545836103557733e-06,7.499102157057494e-06,3.7984610817098686e-06,9.579977294033428e-07,2.4747702411449967e-06,1.8212156072335758e-05,8.332615111735995e-06,8.747851899875615e-07,2.6334918910483404e-06
218,2.176633902387756e-06,3.0237955071254207e-06,2.589187346357599e-06,2.054195360949525e-06,3.1978181075054464e-06,3.6247274999554533e-06,1.463747168964216e-06,9.599636100822183e-06,7.574354717117449e-06,3.850553344781705e-06,9.560413621221487e-07,2.338848031503174e-06,1.80269771696836e-05,8.051605366520112e-06,8.774742547881148e-07,2.645273570050423e-06
219,2.2421347176806314e-06,3.154867304518417e-06,2.5805305931416637e-06,2.042342789274267e-06,3.181474781308642e-06,3.580059965173941e-06,1.4649420644086092e-06,9.670845854798336e-06,7.65037461803832e-06,3.910311353581955e-06,9.578290415715143e-07,2.2043036181363147e-06,1.7786529450074178e-05,7.747093164618883e-06,8.822788371614544e-07,2.6529147049820932e-06
220,2.3086800173091804e-06,3.2848249966914016e-06,2.5600797073345175e-06,2.0285637306491668e-06,3.1588253649538284e-06,3.5282343841293895e-06,1.4670201569545756e-06,9.762163890954494e-06,7.727044344343648e-06,3.978861301019684e-06,9.632505909124144e-07,2.0731241385901043e-06,1.749022727676984e-05,7.4231636131289705e-06,8.898187168050007e-07,2.6557652207321428e-06
221,2.3753980662216394e-06,3.4115540460989098e-06,2.528120800731104e-06,2.012430823813481e-06,3.1299141924378814e-06,3.4695231301112453e-06,1.4702656236751425e-06,9.8747510313711e-06,7.805477735124188e-06,4.05664770241662e-06,9.720352799433316e-07,1.947284713409077e-06,1.7140294265817346e-05,7.0843698610123634e-06,9.006244675222531e-07,2.6538569028247253e-06
222,2.4414556811890636e-06,3.5328134546459644e-06,2.485304904005477e-06,1.9935242052332895e-06,3.0953258163488343e-06,3.40453389723794e-06,1.4748316335959545e-06,1.0007901263268386e-05,7.888135086609114e-06,4.143392798704019e-06,9.83769599889363e-07,1.8285431666861283e-06,1.6741751091841562e-05,6.735592607263185e-06,9.150687652054632e-07,2.647864482330279e-06
223,2.506249895583156e-06,3.6465306751001737e-06,2.4326808121054445e-06,1.971520171901134e-06,3.0559344812538573e-06,3.334243567868274e-06,1.48069310343209e-06,1.0158949552000436e-05,7.978379005732582e-06,4.238202167017414e-06,9.979989799935415e-07,1.7183957049461265e-06,1.6302060785982917e-05,6.381981732390357e-06,9.333400279988235e-07,2.638924995681771e-06
224,2.569773830078516e-06,3.751098119551728e-06,2.371805739364417e-06,1.94642215067822e-06,3.012593423940997e-06,3.259842329841693e-06,1.4877881631883608e-06,1.0323533137588843e-05,8.079621167540588e-06,4.339622435498262e-06,1.0143913852994515e-06,1.6180874361480346e-06,1.583038826570825e-05,6.028899035778766e-06,9.55465689524344e-07,2.6283549028030395e-06
225,2.632848898197798e-06,3.845653312756569e-06,2.304696137098325e-06,1.9187272872503774e-06,2.965851145670911e-06,3.1826394709647147e-06,1.496205554278988e-06,1.0496244200972599e-05,8.194458374396544e-06,4.445532881612943e-06,1.0328382834843764e-06,1.5285786469841874e-06,1.5336495044922332e-05,5.681759959439671e-06,9.813329455975436e-07,2.6173499533518496e-06
226,2.6970504554844634e-06,3.9302549615140735e-06,2.233523490050842e-06,1.8894531163920308e-06,2.9158317562882945e-06,3.1041045915166696e-06,1.5062579994396644e-06,1.0671425304688501e-05,8.324087505025541e-06,4.55299566065569e-06,1.0534337300743588e-06,1.4504975016606237e-06,1.4829430279987707e-05,5.345762536557806e-06,1.0106731862602588e-06,2.6067452475976265e-06
227,2.764371427707259e-06,4.005827805610044e-06,2.160271290861507e-06,1.8599773374419325e-06,2.8623684941731346e-06,3.0259086715377113e-06,1.5184289442814495e-06,1.0843857691842656e-05,8.46811699836372e-06,4.65827461764819e-06,1.0763832263383072e-06,1.3841520399656497e-06,1.4316340936885514e-05,5.025572317301092e-06,1.0430398829331282e-06,2.5968733960414264e-06
228,2.8367842856287625e-06,4.07382682352407e-06,2.086583429370497e-06,1.8317217276598267e-06,2.80530245476949e-06,2.949799421439246e-06,1.5332636935972015e-06,1.100933215929192e-05,8.624810958958922e-06,4.757172858524214e-06,1.101889156451524e-06,1.3296079387994625e-06,1.3801952385040183e-05,4.725036430620924e-06,1.0778370833371738e-06,2.5875267267770574e-06
229,2.9159488071249467e-06,4.1357207861966165e-06,2.0138000241214694e-06,1.805865129607356e-06,2.7447905159851366e-06,2.877322926281181e-06,1.5512720775465886e-06,1.1165188199968732e-05,8.791632223853493e-06,4.845658900083653e-06,1.130039709940055e-06,1.2868083887405622e-06,1.3289043299755236e-05,4.446988473143778e-06,1.114421330135328e-06,2.5780221997529906e-06
230,3.0032099891711244e-06,4.192553944756616e-06,1.9430794412879496e-06,1.7832224386861047e-06,2.6814865838861873e-06,2.809605904468569e-06,1.5729338150703338e-06,1.1310761754584732e-05,8.965812076793422e-06,4.920445702680152e-06,1.160746677611921e-06,1.2556784811363554e-06,1.27794277636798e-05,4.19319229901607e-06,1.152248815586675e-06,2.5673684479619014e-06
231,3.099735258194809e-06,4.2448243469388255e-06,1.8755138209066124e-06,1.7642423235749491e-06,2.616491344012545e-06,2.747323880264406e-06,1.5988029410149159e-06,1.1447465486960406e-05,9.144773457833536e-06,4.979106877896913e-06,1.1937419054282901e-06,1.2361313924793477e-06,1.2274683124669206e-05,3.964446095230395e-06,1.190986612510811e-06,2.5545196943479183e-06
232,3.2065230276168716e-06,4.2926383609100365e-06,1.8121352154900443e-06,1.7490330573311129e-06,2.551132838388584e-06,2.690751562481764e-06,1.6295304073745473e-06,1.1578198098647146e-05,9.326306784848478e-06,5.019673787824196e-06,1.2285898968628064e-06,1.228014487784452e-06,1.1776454302509724e-05,3.760784565894116e-06,1.2304848132780358e-06,2.5386566738073823e-06
233,3.3242192080850663e-06,4.335892918994597e-06,1.7537937238550548e-06,1.7374123140410365e-06,2.486753873336956e-06,2.639839129499967e-06,1.6657186780369382e-06,1.1706079717836242e-05,9.508333803082338e-06,5.040232051320755e-06,1.2647085684974678e-06,1.2310842771724021e-06,1.1286653583565488e-05,3.5816399658240934e-06,1.2706059360775926e-06,2.5193894143820655e-06
234,3.4529031034605555e-06,4.374322491083679e-06,1.7010234527581278e-06,1.7290201216528743e-06,2.4245406449557275e-06,2.594362135207341e-06,1.7077511362545588e-06,1.1833020284202701e-05,9.688231886690401e-06,5.039053206990406e-06,1.3013956483932e-06,1.2449803931490552e-06,1.080776635299705e-05,3.425968950829403e-06,1.3110524105999625e-06,2.4967835983258336e-06
235,3.591964917653537e-06,4.407433974634206e-06,1.6540096709201407e-06,1.7234457862970387e-06,2.365345042497074e-06,2.554058863576344e-06,1.7557239483456784e-06,1.1958904067056725e-05,9.862113962451e-06,5.01507483333377e-06,1.3378296931921259e-06,1.269177485459548e-06,1.0343055506607215e-05,3.2924796600007134e-06,1.3513032605285548e-06,2.4711952367747576e-06
236,3.7400674390399504e-06,4.434469056715472e-06,1.6126409276380699e-06,1.7202550385952135e-06,2.3095797354034348e-06,2.5185917992186835e-06,1.8094483582470033e-06,1.208174396525684e-05,1.0024711542413048e-05,4.968274328865795e-06,1.373066209321844e-06,1.3029706270769158e-06,9.896246826207522e-06,3.179870545543613e-06,1.3906251153169608e-06,2.443027093385776e-06
237,3.895197616302613e-06,4.454534676820502e-06,1.5765601654046282e-06,1.7189825005369965e-06,2.2572897729935757e-06,2.4873627783796855e-06,1.8684522734927756e-06,1.2198477321138919e-05,1.0170056526790065e-05,4.8998509197494935e-06,1.4060724679843011e-06,1.345496338245477e-06,9.470618640001378e-06,3.086855766645959e-06,1.4281232069513155e-06,2.4125846397905272e-06
238,4.05485163286908e-06,4.466894470045949e-06,1.5452103197072711e-06,1.7192482215318517e-06,2.208343964614912e-06,2.4593885362438426e-06,1.9319828207813e-06,1.2305969089143493e-05,1.0292387793743092e-05,4.8121552572536636e-06,1.435850667769925e-06,1.3957408316167275e-06,9.068030348635733e-06,3.0120038451322197e-06,1.4628671667722869e-06,2.3801373269871474e-06
239,4.216361738848035e-06,4.471248080391866e-06,1.5179690650183144e-06,1.720910529149452e-06,2.162595938656637e-06,2.433367222400251e-06,1.999041763478679e-06,1.240198890423928e-05,1.0386672751042393e-05,4.708236041138745e-06,1.4616577912382183e-06,1.4525396625764391e-06,8.688609160193305e-06,2.953638693549325e-06,1.4940472961333154e-06,2.3461424305123404e-06
240,4.377266417843667e-06,4.467846059338486e-06,1.4943978295677254e-06,1.724073142682552e-06,2.1199577546735503e-06,2.4079216857623594e-06,2.068443053898718e-06,1.2485922637960252e-05,1.044883300314031e-05,4.591263867205148e-06,1.4831725547267308e-06,1.5146303782780305e-06,8.331292293699116e-06,2.9099392928537263e-06,1.521054645465909e-06,2.3114617280510514e-06
241,4.535540214815807e-06,4.457447116952612e-06,1.474433492163157e-06,1.7289901922015876e-06,2.080421433717403e-06,2.381922353773173e-06,2.138866212373775e-06,1.2558995213925998e-05,1.047610436052196e-05,4.46430151584613e-06,1.5004696023707467e-06,1.5807791901443053e-06,7.994735706756016e-06,2.8790950765697847e-06,1.5435001891087316e-06,2.2773735387130755e-06
242,4.689595934054991e-06,4.441203144835023e-06,1.458323044473075e-06,1.7360177354628205e-06,2.044020361362468e-06,2.3547013293253883e-06,2.208915838243726e-06,1.2624051962193703e-05,1.046745582315009e-05,4.330399098062555e-06,1.5138309384218385e-06,1.6499394245985268e-06,7.677964909320179e-06,2.859295794414406e-06,1.5612842202652671e-06,2.2453379648405777e-06
243,4.838128893382668e-06,4.420511716091763e-06,1.4463602371772902e-06,1.745634019777231e-06,2.0107560570789126e-06,2.3259951940103194e-06,2.277195337410214e-06,1.2685231493401672e-05,1.0423441234171895e-05,4.192591729009767e-06,1.523514166108352e-06,1.7213872432694487e-06,7.380538537330835e-06,2.8485624737531998e-06,1.5746925046053495e-06,2.216726871341783e-06
244,4.979867658716321e-06,4.396811409919535e-06,1.4386749299743294e-06,1.758443365200876e-06,1.9806152993326373e-06,2.2956678868493086e-06,2.342359267938957e-06,1.2747754071610889e-05,1.0345189187725353e-05,4.053775890321414e-06,1.52961587985259e-06,1.794751289232736e-06,7.1024026642268e-06,2.8446199219558153e-06,1.5843351635728488e-06,2.192742179201141e-06
245,5.113236410335688e-06,4.371288865965271e-06,1.435179750853009e-06,1.7751091983936197e-06,1.953634336745563e-06,2.2634214766030042e-06,2.403104253410605e-06,1.2817639801822881e-05,1.023317649813223e-05,3.91671956468609e-06,1.5320777515242234e-06,1.8698627737171636e-06,6.843736012561965e-06,2.844932130216819e-06,1.5909049811232959e-06,2.1744612665026827e-06
246,5.236063946299423e-06,4.3445759473282346e-06,1.4355804791924748e-06,1.796254851425877e-06,1.9298159369826746e-06,2.2286854220973484e-06,2.4580826491672592e-06,1.290113726878126e-05,1.0086769995758151e-05,3.7840529481272408e-06,1.530734790231021e-06,1.9464929483466933e-06,6.604912235882557e-06,2.8468966959448405e-06,1.5949738731902844e-06,2.162822141801279e-06
247,5.3456199695953295e-06,4.31663027301913e-06,1.4393726029423702e-06,1.8224142123021648e-06,1.908989740363347e-06,2.1907783831251537e-06,2.5058192840244317e-06,1.3004079144649967e-05,9.904902463369045e-06,3.658050986647554e-06,1.5253376182136398e-06,2.024197314355413e-06,6.38648649775513e-06,2.84817149291163e-06,1.5969313420550128e-06,2.1585436531026257e-06
248,5.43907516275815e-06,4.286867449541663e-06,1.4458508667954953e-06,1.8540511657595645e-06,1.8909131769656249e-06,2.149246063837596e-06,2.5448565746021458e-06,1.313145114156251e-05,9.687591123924516e-06,3.5404241145697563e-06,1.5156331145622249e-06,2.1024598577476397e-06,6.189127228000075e-06,2.847025499462803e-06,1.5970072694100573e-06,2.162059724927109e-06
249,5.5141502241099546e-06,4.254379699583213e-06,1.4542079095619913e-06,1.8915579352240699e-06,1.8755785507021653e-06,2.104103618840093e-06,2.574184268736709e-06,1.3286983121801983e-05,9.437523598290105e-06,3.4323213951111523e-06,1.501544118633012e-06,2.181072869350793e-06,6.013529443552129e-06,2.8425252523911145e-06,1.5953547494693275e-06,2.1734567915578653e-06
250,5.569607764963506e-06,4.218077692963558e-06,1.4637227991708204e-06,1.935173800118408e-06,1.8633529734543949e-06,2.055807614339616e-06,2.593622160386973e-06,1.3472589373539404e-05,9.160514478251407e-06,3.334467770803933e-06,1.4833320645926549e-06,2.260448281377209e-06,5.860313554231697e-06,2.8344985531982013e-06,1.5921034692132805e-06,2.192430711364925e-06
251,5.605385869767331e-06,4.17678152059549e-06,1.473906939063392e-06,1.9849251353248702e-06,1.8548215064330135e-06,2.0050451340404296e-06,2.6038745397759773e-06,1.3688136151315725e-05,8.864286561167343e-06,3.2472286166992728e-06,1.4616343485378911e-06,2.3416397441193896e-06,5.72984416253734e-06,2.8234215228715853e-06,1.5872723928318925e-06,2.218328956319301e-06
252,5.622432814103903e-06,4.1293718069231315e-06,1.4845028807563574e-06,2.040659773782999e-06,1.8506541896489764e-06,1.9525446002338005e-06,2.606340807686302e-06,1.3931918556684702e-05,8.556519502076334e-06,3.17054751262038e-06,1.4373462194053136e-06,2.4261119644788643e-06,5.621977596991676e-06,2.810330800266879e-06,1.5806334816431146e-06,2.2502422103767743e-06
253,5.622416631213613e-06,4.074984254125055e-06,1.4953749232870568e-06,2.1020868881657284e-06,1.8517227358722667e-06,1.899019756748014e-06,2.602827493723073e-06,1.4201389766151778e-05,8.243463328461888e-06,3.1038816718508693e-06,1.4113898513379775e-06,2.5154244069456817e-06,5.535804519853404e-06,2.796635458106236e-06,1.571715130430953e-06,2.2870458159719395e-06
254,5.607322397906107e-06,4.013106720494914e-06,1.506367835839781e-06,2.1688069992888166e-06,1.859276013319588e-06,1.8451999977348536e-06,2.595209768648454e-06,1.4493547438546385e-05,7.929445779614331e-06,3.046236704982213e-06,1.3845310083322312e-06,2.610978075690528e-06,5.4694411729529e-06,2.7837559183751817e-06,1.5599998444423716e-06,2.3273750965139303e-06
255,5.578908140027142e-06,3.943558580056811e-06,1.5171838583160462e-06,2.240440021774614e-06,1.8749303478590186e-06,1.7918483677331906e-06,2.5851971936521266e-06,1.4804917615276159e-05,7.616951392584377e-06,2.9964345749288437e-06,1.3573867321596493e-06,2.7138718991662774e-06,5.420034347718919e-06,2.7728199089776392e-06,1.5452110008161992e-06,2.369631298972809e-06
256,5.538302586245483e-06,3.866507653693471e-06,1.5273423040124202e-06,2.316803172743797e-06,1.9004656707723685e-06,1.7397283512435678e-06,2.5743396985650157e-06,1.5131395564928848e-05,7.307065787326035e-06,2.953637900735324e-06,1.3305462249216506e-06,2.824817318863921e-06,5.3841752201096505e-06,2.764583331011837e-06,1.5275222288385947e-06,2.41215399083243e-06
257,5.486063167553379e-06,3.78257582518637e-06,1.536230052862168e-06,2.397928829861589e-06,1.9376026098885633e-06,1.689533877493122e-06,2.564109496409398e-06,1.5468167180564323e-05,7.000208014902413e-06,2.917772362651917e-06,1.3046075476875292e-06,2.944095837041753e-06,5.3586529772550315e-06,2.7594235475847494e-06,1.5075785874112604e-06,2.4535804650739763e-06
258,5.422526506780484e-06,3.69284233811273e-06,1.5431535001135412e-06,2.4838622570184546e-06,1.987906680681146e-06,1.64184422263089e-06,2.5558405103264973e-06,1.5809754462390214e-05,6.6969455535340235e-06,2.8894906416195367e-06,1.280079190026047e-06,3.071652329234097e-06,5.341233322531634e-06,2.7572971299651203e-06,1.4863495622901063e-06,2.493194980762382e-06
259,5.3480545848215645e-06,3.5985821355137774e-06,1.5473730968278712e-06,2.574432168139452e-06,2.0527473673492302e-06,1.5971371740590237e-06,2.550559589670001e-06,1.615013932914168e-05,6.398536161741355e-06,2.8697952741259598e-06,1.2572654088376174e-06,3.2072934250379987e-06,5.331146056014857e-06,2.75777138583886e-06,1.4649349749046487e-06,2.5310050295747825e-06
260,5.26306360324066e-06,3.5008440902999814e-06,1.5482222903062967e-06,2.6692035571817787e-06,2.133199332867379e-06,1.5557934358718752e-06,2.548841339037625e-06,1.6482982864360702e-05,6.106909432932821e-06,2.859705525091024e-06,1.236255043857522e-06,3.3507363373221236e-06,5.329167360536549e-06,2.760197744195454e-06,1.4444342651204201e-06,2.567507893611822e-06
261,5.168007457863246e-06,3.400121573874323e-06,1.545334703191442e-06,2.7676206506761404e-06,2.229964426235629e-06,1.5181036117939972e-06,2.5507330672954122e-06,1.6802004705374033e-05,5.824169672578644e-06,2.860153867134965e-06,1.2170306935973823e-06,3.5014446045174673e-06,5.33741003818162e-06,2.763912804725796e-06,1.4258850723939925e-06,2.6034033339425135e-06
262,5.063483656062506e-06,3.2963251019610224e-06,1.5388250029118524e-06,2.869185376474759e-06,2.3434182704234647e-06,1.4843266887184457e-06,2.5557739584327e-06,1.7101544971531858e-05,5.552160145444652e-06,2.871977320176645e-06,1.1996041910284006e-06,3.658461208806224e-06,5.35891920989002e-06,2.768313793990206e-06,1.410206725727225e-06,2.639490537815583e-06
263,4.950425783088966e-06,3.1891079592265032e-06,1.5292367468702647e-06,2.973521274822544e-06,2.473691296182671e-06,1.4547085786874316e-06,2.5631634511217016e-06,1.737723396051973e-05,5.292643466972291e-06,2.895814411967189e-06,1.184046450666694e-06,3.820302547313028e-06,5.397048279992815e-06,2.7728457346709946e-06,1.3981357307414554e-06,2.676668867022098e-06
264,4.830225602251571e-06,3.0783491695875768e-06,1.5172656879437404e-06,3.0802559157770213e-06,2.6206477025409855e-06,1.4294741098470938e-06,2.5720635371280384e-06,1.7626561677789867e-05,5.047992199859339e-06,2.9319867275572747e-06,1.1703823918451614e-06,3.984872147519336e-06,5.454728013388387e-06,2.7770937777087966e-06,1.3901876139667728e-06,2.715826210483481e-06
265,4.704729878068479e-06,2.964499888874858e-06,1.503482224638261e-06,3.1887883555500044e-06,2.7838430464986237e-06,1.4089083514406993e-06,2.5818808346697485e-06,1.7849061514497267e-05,4.821760325090455e-06,2.980642015713712e-06,1.158480570617221e-06,4.149470083173766e-06,5.533937990292135e-06,2.781026648816639e-06,1.3866375656878538e-06,2.757635925319145e-06
266,4.576191459926699e-06,2.848675884148025e-06,1.4882090564127725e-06,3.298176882716272e-06,2.9626093808732846e-06,1.393450781372149e-06,2.5923448356525697e-06,1.804595134660633e-05,4.618774318354408e-06,3.042164934573875e-06,1.148073815710447e-06,4.310931983097057e-06,5.635539863759242e-06,2.7851570744506325e-06,1.3875043540275262e-06,2.8024700159080143e-06
267,4.447214430812138e-06,2.7325637850306343e-06,1.4715191047373511e-06,3.4072783177403457e-06,3.1561780908821826e-06,1.3836760268373406e-06,2.60333837010901e-06,1.8219321213485497e-05,4.444828637675928e-06,3.117449125847284e-06,1.1388554748203038e-06,4.465853975488388e-06,5.759351839795573e-06,2.790371974578442e-06,1.3925447296502792e-06,2.850503673311641e-06
268,4.3205859369599784e-06,2.6182137704864506e-06,1.4533355650380403e-06,3.5149581797201227e-06,3.3636438071126262e-06,1.3801711554394515e-06,2.614664384241283e-06,1.8370983010248768e-05,4.3061391137735825e-06,3.207722836019589e-06,1.1305022745767716e-06,4.610923521478222e-06,5.90432726804156e-06,2.7975488819269773e-06,1.4012624442758117e-06,2.901868172747666e-06
269,4.198931672839232e-06,2.5077484043533927e-06,1.4336474878621204e-06,3.620204225475147e-06,3.5837686613619397e-06,1.3833852926826617e-06,2.6260230531841797e-06,1.850111025329429e-05,4.208696178738186e-06,3.3141283792750476e-06,1.122656324257458e-06,4.743331930729573e-06,6.068843109037468e-06,2.807367180728288e-06,1.4129660541529699e-06,2.9566677367800804e-06
270,4.084412758260841e-06,2.4030769890566616e-06,1.4127232041565638e-06,3.7221909254673065e-06,3.814835873949033e-06,1.393523204168476e-06,2.6372146023623545e-06,1.8607278842144717e-05,4.157759818618724e-06,3.4374459004538123e-06,1.1149979820890433e-06,4.861051632082243e-06,6.251093007869708e-06,2.8204324248006672e-06,1.426880143867328e-06,3.0148238554292303e-06
271,3.978678553422348e-06,2.3057626440310523e-06,1.3911632835212349e-06,3.820360575545543e-06,4.054681490285054e-06,1.4104969351385798e-06,2.6483062549634468e-06,1.868466964526412e-05,4.157671472484979e-06,3.578011944224232e-06,1.107367284911306e-06,4.9628143026650705e-06,6.449393215440903e-06,2.837393934279944e-06,1.4422101932028696e-06,3.0758581601805005e-06
272,3.882919860236334e-06,2.2170482845318557e-06,1.3697717478238809e-06,3.914520127640487e-06,4.300747962145441e-06,1.4339108687169858e-06,2.65962322447554e-06,1.8727327781423323e-05,4.211887767639248e-06,3.7356340526001857e-06,1.0998189725276097e-06,5.047983629042722e-06,6.6621204322193465e-06,2.8588985089512565e-06,1.4580948836376746e-06,3.138720194206063e-06
273,3.797827787414521e-06,2.1378791862784456e-06,1.3493502140436626e-06,4.004903325681909e-06,4.550051193942635e-06,1.4630918638634307e-06,2.6716265015441664e-06,1.872967193918792e-05,4.323015789560322e-06,3.909466091353326e-06,1.0926023324732476e-06,5.116569142248208e-06,6.887277889390801e-06,2.8855005639638487e-06,1.4735262368772484e-06,3.2017108341386126e-06
274,3.723552563511386e-06,2.068850899513025e-06,1.3305401422104055e-06,4.092083599397537e-06,4.799269078045342e-06,1.4971630394432802e-06,2.6847160294788306e-06,1.8687607355636903e-05,4.492764987343181e-06,4.097938540358302e-06,1.086076056444708e-06,5.169229178899972e-06,7.122160576352261e-06,2.9175748448679263e-06,1.4873976355341302e-06,3.2625581762018617e-06
275,3.6597251846581588e-06,2.0101542965426856e-06,1.3137591416585513e-06,4.176658824930062e-06,5.045083314421256e-06,1.5350944829668689e-06,2.6990185041355093e-06,1.8599022656191765e-05,4.7218949703740496e-06,4.298766628346978e-06,1.0805793733092912e-06,5.20700884469857e-06,7.363493978041022e-06,2.955352266061091e-06,1.4987533046928392e-06,3.3186790195260798e-06
276,3.605432963954623e-06,1.961548525063509e-06,1.2991946316609941e-06,4.258820654087236e-06,5.2846280434324505e-06,1.575726831955497e-06,2.7143409032438183e-06,1.8463786342326593e-05,5.010236898198345e-06,4.509081838343141e-06,1.07633460848618e-06,5.230925142194573e-06,7.60770852461538e-06,2.999156133087143e-06,1.5070405395487885e-06,3.3675849602499825e-06
277,3.5591766210839193e-06,1.92235832577675e-06,1.2868360428313956e-06,4.338084564269078e-06,5.515916250776852e-06,1.6178584863894469e-06,2.7303711978501023e-06,1.8283464519637427e-05,5.356722284846038e-06,4.72579896467448e-06,1.073402427725759e-06,5.241612754365573e-06,7.850894352569838e-06,3.0495153368457293e-06,1.5120951866273037e-06,3.4073279368298446e-06
278,3.5189199895266676e-06,1.8915556397339671e-06,1.2765248526356158e-06,4.413358157956079e-06,5.738128822782892e-06,1.6603956092286814e-06,2.746932666836933e-06,1.8060959309256466e-05,5.759300914511659e-06,4.946123872913893e-06,1.071656120619853e-06,5.23906656986206e-06,8.088657876126266e-06,3.106921512473956e-06,1.5139549585522192e-06,3.436791315129457e-06
279,3.4822634034348316e-06,1.8679826553697816e-06,1.267963117253436e-06,4.483273125565435e-06,5.951524493331113e-06,1.7024547542396036e-06,2.764039653344022e-06,1.780029483982082e-05,6.214801080022052e-06,5.167759241244582e-06,1.0707996069009293e-06,5.222624083390181e-06,8.316348349889158e-06,3.1714830810393146e-06,1.5127895530895405e-06,3.4556611974240297e-06
280,3.446815458805257e-06,1.8506445374570638e-06,1.2607078772773818e-06,4.546619989142687e-06,6.1568513204738835e-06,1.7433677623391785e-06,2.7817073778179072e-06,1.7506605116327463e-05,6.718885560323646e-06,5.388554395881546e-06,1.0704748073601094e-06,5.191341188574335e-06,8.529634495876398e-06,3.2427832657873733e-06,1.5089563020881261e-06,3.4641673230934163e-06
281,3.4106644553475687e-06,1.8388790009161334e-06,1.2542365128423799e-06,4.602771396003838e-06,6.3545149537866025e-06,1.782614668526844e-06,2.799680900994012e-06,1.7186060455369783e-05,7.266062897387434e-06,5.606076982992854e-06,1.0704018832074334e-06,5.144531486530001e-06,8.72504286011178e-06,3.319951994679923e-06,1.5029789021126818e-06,3.462815137629627e-06
282,3.3725768249046743e-06,1.8322919818129334e-06,1.2480621744955648e-06,4.651960053940492e-06,6.543974786489892e-06,1.81970811894795e-06,2.817336220399714e-06,1.684550127608083e-05,7.849630668426037e-06,5.817650436224849e-06,1.0704225881092619e-06,5.082137698452473e-06,8.900158310618676e-06,3.401770091689588e-06,1.4954135313457791e-06,3.4521467950134682e-06
283,3.3318002913510345e-06,1.8305800026867855e-06,1.2418285372604666e-06,4.695259075459164e-06,6.7236366623412066e-06,1.854100434373397e-06,2.833879307779448e-06,1.649190282917933e-05,8.46179066976899e-06,6.020674724472075e-06,1.0704139304996487e-06,5.004877907505638e-06,9.053384958072953e-06,3.4867600792137534e-06,1.4867902108631782e-06,3.432501980600157e-06
284,3.287752729748518e-06,1.8334091901370313e-06,1.235360358102382e-06,4.734232066165472e-06,6.891118036700802e-06,1.8852428959901434e-06,2.8486517432335807e-06,1.613197830533107e-05,9.094351151986943e-06,6.2128754144015955e-06,1.0701961752593565e-06,4.914236592939882e-06,9.183286611924088e-06,3.573387745763422e-06,1.4777125486333446e-06,3.403966921191519e-06
285,3.239848707352905e-06,1.8403451884589678e-06,1.2286540737107474e-06,4.77042184535857e-06,7.043624349008319e-06,1.9127940889555686e-06,2.8612300009945236e-06,1.5772042052458755e-05,9.739878007368888e-06,6.392500339937398e-06,1.0695524729873936e-06,4.812332209820455e-06,9.287772584245937e-06,3.660257511876802e-06,1.4689253552176949e-06,3.366587116884216e-06
286,3.1874943790224464e-06,1.8507724421684415e-06,1.2217971285678372e-06,4.804932006294886e-06,7.1783050552194414e-06,1.9368128222375876e-06,2.8712971626761652e-06,1.5417913720734096e-05,1.0392547908686068e-05,6.558535904840805e-06,1.0683481257309248e-06,4.701687917385626e-06,9.363861474611781e-06,3.745997338409238e-06,1.4612012801798578e-06,3.3205042038697643e-06
287,3.130215849774789e-06,1.8638752583453047e-06,1.2148440229260516e-06,4.8382224581911004e-06,7.292577310799218e-06,1.9578299094739434e-06,2.8785509665793986e-06,1.5074458532680943e-05,1.1047993866084933e-05,6.7109053851672195e-06,1.0666664557171841e-06,4.5849238934574e-06,9.40863031675371e-06,3.8288914228296335e-06,1.455171226959543e-06,3.2658705305209206e-06
288,3.0678638126492888e-06,1.8787686012766787e-06,1.20771404381069e-06,4.870047632715401e-06,7.384449823753912e-06,1.9767721322119916e-06,2.8827881800943777e-06,1.474473688564679e-05,1.1702137573772408e-05,6.8506139830685086e-06,1.0648482041174986e-06,4.464397421438129e-06,9.420864032321481e-06,3.9066705599091635e-06,1.4512475140212482e-06,3.2029091927483047e-06
289,3.0006924835758717e-06,1.8946689076773619e-06,1.2001905823006002e-06,4.8994221252546805e-06,7.452897286567965e-06,1.994741796742944e-06,2.8840023090342604e-06,1.4429548622883333e-05,1.2349912902098096e-05,6.979751997256249e-06,1.0633750843580204e-06,4.341974544784889e-06,9.402225037889194e-06,3.976743096195557e-06,1.449621022270535e-06,3.132266136875742e-06
290,2.9291550275449665e-06,1.9109191919857368e-06,1.192047152520494e-06,4.924557597511052e-06,7.4982873927413265e-06,2.012804175028777e-06,2.8822910329083514e-06,1.4128060313740414e-05,1.2984854529870643e-05,7.101185421593912e-06,1.0627079604731948e-06,4.219123758501234e-06,9.357257881889866e-06,4.036789175643464e-06,1.4502810839492357e-06,3.055253388771642e-06
291,2.8536735737605793e-06,1.926935935651654e-06,1.1832134342714893e-06,4.942812240472204e-06,7.522713012020148e-06,2.0319224931038676e-06,2.8776493831654157e-06,1.3839045457227432e-05,1.3599565361219391e-05,7.217878064529172e-06,1.0632027902056719e-06,4.097159500606763e-06,9.292400425970988e-06,4.085304371046123e-06,1.4530583940419177e-06,2.973663691288818e-06
292,2.774716383163907e-06,1.94225630514138e-06,1.1738518008266154e-06,4.950861817838251e-06,7.529964320845739e-06,2.052924069595014e-06,2.8699129598141655e-06,1.3561865213147495e-05,1.4186467705747445e-05,7.332138302289045e-06,1.0650755488036267e-06,3.977338296706636e-06,9.214643604914311e-06,4.12161728099007e-06,1.4577427205339494e-06,2.889312883040367e-06
293,2.6930412990497376e-06,1.9565836727600504e-06,1.164296882632757e-06,4.945258774340212e-06,7.52500922161914e-06,2.076387082918309e-06,2.858899127107096e-06,1.3296986621930545e-05,1.4738597202426346e-05,7.445299232763941e-06,1.0683846759532433e-06,3.86083428043665e-06,9.130480908949747e-06,4.145433604964913e-06,1.4643236845665471e-06,2.803674955117043e-06
294,2.6098102558930806e-06,1.9696781825162054e-06,1.1549358434093283e-06,4.923188698636016e-06,7.513197403036539e-06,2.10254451793039e-06,2.8445440015661944e-06,1.3046311183590467e-05,1.5250474475560287e-05,7.557976430647011e-06,1.07305766587512e-06,3.7487256901595433e-06,9.045481252230982e-06,4.156548705104877e-06,1.4732139112256137e-06,2.7177913931866306e-06
295,2.526497860498927e-06,1.9812204113088018e-06,1.1461405281017998e-06,4.883058013136305e-06,7.499580393411889e-06,2.1312613557149347e-06,2.826902851946055e-06,1.2813425645008168e-05,1.571862154190748e-05,7.670499347084255e-06,1.078943212239091e-06,3.6419228308973868e-06,8.964348897489629e-06,4.155043556264651e-06,1.4852050009373026e-06,2.6324009356750866e-06
296,2.4446474257056155e-06,1.990792566687933e-06,1.138264646120098e-06,4.824732359581166e-06,7.488520806393162e-06,2.1620098589272014e-06,2.8060106695480066e-06,1.2603516837579034e-05,1.6140884807173372e-05,7.783123222634344e-06,1.0858904355338251e-06,3.5409928820143367e-06,8.890954616764812e-06,4.141531555315338e-06,1.5011871273369981e-06,2.548184197612909e-06
297,2.3656859390969264e-06,1.9979189349255824e-06,1.131626352711296e-06,4.749468976209144e-06,7.483442552948828e-06,2.1938362453249406e-06,2.7816473821538202e-06,1.2422686380489625e-05,1.6514686398882365e-05,7.895979451663104e-06,1.0938704945246795e-06,3.4460028507830575e-06,8.827992548858152e-06,4.117023222132459e-06,1.521940936975904e-06,2.465954804724353e-06
298,2.2909671131856614e-06,2.002093815166295e-06,1.1264464125413783e-06,4.659650903652586e-06,7.486569658003411e-06,2.2254377845381698e-06,2.753158569777826e-06,1.2276781339461432e-05,1.683590241982118e-05,8.008920210595952e-06,1.103046477915246e-06,3.356464623876577e-06,8.776520649327844e-06,4.082523142456957e-06,1.548141563433979e-06,2.386614792157385e-06
299,2.221842031902737e-06,2.002851981924768e-06,1.122825222492462e-06,4.5583584028793734e-06,7.498794281338533e-06,2.255427823212092e-06,2.71954956716199e-06,1.2170257977955266e-05,1.7099535544878948e-05,8.12145979153047e-06,1.1137213987379412e-06,3.271425798226377e-06,8.735854352540543e-06,4.038782233414639e-06,1.5804165805281682e-06,2.3109740784046642e-06
300,2.1595341693513065e-06,1.9999598256528716e-06,1.1208000868355188e-06,4.448788630872093e-06,7.5199016350138785e-06,2.282680858226237e-06,2.6798982860420233e-06,1.2105713444830722e-05,1.7301303268201112e-05,8.232828080398067e-06,1.126226146843108e-06,3.189742184863978e-06,8.704023688500758e-06,3.986439002483605e-06,1.619303991133791e-06,2.239710613868432e-06
301,2.104956019775479e-06,1.993670453022654e-06,1.1203785726454574e-06,4.333671780204688e-06,7.54902213601116e-06,2.3065067896132445e-06,2.6338336281880626e-06,1.2084143899921928e-05,1.7438897535699813e-05,8.341879737932737e-06,1.1408055478165167e-06,3.1103781805563126e-06,8.678797158089918e-06,3.926331070534052e-06,1.6651335287774511e-06,2.173481724770244e-06
302,2.0586411587706654e-06,1.9848573751702662e-06,1.121473058077745e-06,4.214933764360695e-06,7.584925740068626e-06,2.3265037768813744e-06,2.5817512222065764e-06,1.2105247360203743e-05,1.7512545418783405e-05,8.44693441495759e-06,1.1575373790899e-06,3.032536816816843e-06,8.658917232991172e-06,3.859606545081626e-06,1.7179229868969802e-06,2.1129669370031113e-06
303,2.0207550609409484e-06,1.9749068564109857e-06,1.1238160292829117e-06,4.0937307439076345e-06,7.626021053557076e-06,2.3422706811122575e-06,2.5246451116854455e-06,1.2167255212126257e-05,1.7524818872764993e-05,8.546081404867975e-06,1.17635905712933e-06,2.9556754275556865e-06,8.644701287473694e-06,3.787581019303965e-06,1.7773326812532033e-06,2.058767404138e-06
304,1.991182336209922e-06,1.9654347443297263e-06,1.1269661936035695e-06,3.970733816449014e-06,7.670249873993957e-06,2.3533208626823618e-06,2.463689267487767e-06,1.2266515794419e-05,1.747981018553593e-05,8.637884516514139e-06,1.197202230172412e-06,2.8795521590783973e-06,8.637446434921365e-06,3.7115637159343014e-06,1.842688684960123e-06,2.011329741400508e-06
305,1.9697371613159403e-06,1.9579770137893607e-06,1.1304192481022538e-06,3.846401854508229e-06,7.71509614542937e-06,2.3592615680185843e-06,2.3998584139649957e-06,1.2397468166085736e-05,1.7382095220326375e-05,8.721698875088804e-06,1.2200846443598733e-06,2.804287093841154e-06,8.63821858854658e-06,3.632777300880906e-06,1.9131029715147976e-06,1.971067877748882e-06
306,1.9563740698835175e-06,1.9537630458036466e-06,1.1337624680548889e-06,3.721081158472368e-06,7.757799927973679e-06,2.3599878573241804e-06,2.333795081533767e-06,1.2553297447876413e-05,1.72358766453694e-05,8.797269056455794e-06,1.2450651886901536e-06,2.7303372162082014e-06,8.647111969010581e-06,3.5522622864420043e-06,1.98765359062419e-06,1.938557493806758e-06
307,1.951228423099015e-06,1.953613427482452e-06,1.1368111987156478e-06,3.5950072248677546e-06,7.795734965659775e-06,2.3557061085858375e-06,2.2658903861575768e-06,1.272685160435121e-05,1.7044282042472745e-05,8.864078100989157e-06,1.2721506352774603e-06,2.658351946605751e-06,8.663192415769761e-06,3.470714871164863e-06,2.065445029078604e-06,1.9145248610462166e-06
308,1.954489278511251e-06,1.957936915980885e-06,1.1396544839885855e-06,3.4683787789398042e-06,7.82678900686481e-06,2.3468328377152902e-06,2.1964682666278568e-06,1.2911348718680097e-05,1.680861784131486e-05,8.921097321346245e-06,1.301239767591737e-06,2.588949078417851e-06,8.684569196742489e-06,3.388521229075074e-06,2.145460220996018e-06,1.899660355297657e-06
309,1.9662319616245328e-06,1.966790335140364e-06,1.1425593680708302e-06,3.341547428638286e-06,7.84955531776669e-06,2.3338612067759553e-06,2.126012539676601e-06,1.3100842502273082e-05,1.6527996602038812e-05,8.967184668101405e-06,1.3320991327750567e-06,2.5224797044478632e-06,8.708326501825676e-06,3.306161310030001e-06,2.2263884851216844e-06,1.8944814464159773e-06
310,1.9863080280657508e-06,1.9799953866058984e-06,1.1458363678234905e-06,3.215215726183103e-06,7.863276518486844e-06,2.3172148340499e-06,2.055373936527435e-06,1.3290543777882101e-05,1.6200152346685618e-05,9.001656344063769e-06,1.3643447675638608e-06,2.4588898702507228e-06,8.730394452746146e-06,3.2246380903918467e-06,2.306585943730949e-06,1.899273188997758e-06
311,2.0142920159187574e-06,1.997235095091466e-06,1.149803174183474e-06,3.090521616007717e-06,7.8677041315462e-06,2.2971646130970904e-06,1.9858629218819396e-06,1.3477016952392474e-05,1.5823324636408356e-05,9.024220004813894e-06,1.397408577246968e-06,2.3977564123187427e-06,8.74553199309589e-06,3.145531689938802e-06,2.384129794620532e-06,1.9140361965281075e-06
312,2.0494728645745135e-06,2.0180130124141963e-06,1.1547879637355693e-06,2.9689839762916307e-06,7.863100672821202e-06,2.2739595836792224e-06,1.919143081485233e-06,1.3658255236320969e-05,1.539814727948518e-05,9.03420390002699e-06,1.430505199517846e-06,2.3384636592784393e-06,8.747861079920738e-06,3.0707342422013008e-06,2.456972233116076e-06,1.9384316499360623e-06
313,2.090998194264302e-06,2.041528464593296e-06,1.1610598344234781e-06,2.8523649299467056e-06,7.850382345732792e-06,2.2481199019990684e-06,1.856954919625653e-06,1.3833609604690899e-05,1.4928767575828108e-05,9.030035024038115e-06,1.4626510148234032e-06,2.280457137476929e-06,8.732137934553079e-06,3.0021306491814045e-06,2.5231887463113315e-06,1.971740006075784e-06
314,2.1382521566671393e-06,2.066623642622727e-06,1.1687365838005429e-06,2.742474380730185e-06,7.831167376336324e-06,2.2205844016207007e-06,1.8008340377801744e-06,1.400345374991577e-05,1.4422907892896613e-05,9.009618319157336e-06,1.4927435821003398e-06,2.2235214219965115e-06,8.695096812450869e-06,2.941351174433183e-06,2.5811712777184494e-06,2.0128914916412467e-06
315,2.1912737937422975e-06,2.0918731707516877e-06,1.1777798252896397e-06,2.6409151936564835e-06,7.80754034538946e-06,2.1925387206477892e-06,1.7519684718409472e-06,1.4168448274969813e-05,1.389067342096364e-05,8.971101531164687e-06,1.5196346624695648e-06,2.1680031008586602e-06,8.636013026560955e-06,2.889629159013528e-06,2.6297373122380347e-06,2.0605739162645344e-06
316,2.2509039035841184e-06,2.1158080209063346e-06,1.188079754450312e-06,2.5488585908523284e-06,7.781498024208626e-06,2.1651188861151354e-06,1.7111982890724618e-06,1.4328420176245743e-05,1.3342462500109747e-05,8.913226778895031e-06,1.5421763836354511e-06,2.114887592195612e-06,8.556183598583877e-06,2.847765165391949e-06,2.668242461686713e-06,2.1133013746615614e-06
317,2.3185472548652124e-06,2.1371677564382925e-06,1.1995352085360776e-06,2.4669678044892885e-06,7.7542364032269e-06,2.139262336213385e-06,1.6790562179216557e-06,1.4481211162213143e-05,1.2787221482949871e-05,8.835141321898954e-06,1.5593093353157586e-06,2.065648814056085e-06,8.457677780178647e-06,2.8161081831221165e-06,2.696583203355682e-06,2.1693869076024843e-06
318,2.395717457199773e-06,2.1550188999488435e-06,1.2120624951379031e-06,2.395485453927216e-06,7.72572108120719e-06,2.115694560358095e-06,1.6557824577482925e-06,1.4622164760578512e-05,1.2232058346350352e-05,8.736155455150218e-06,1.570183702644552e-06,2.0219050899240827e-06,8.342357981461725e-06,2.794503888775813e-06,2.7149450900064577e-06,2.2269594505852296e-06
319,2.4836569165332996e-06,2.1687380620602146e-06,1.2255728293278633e-06,2.3344103239407422e-06,7.694879525866454e-06,2.0948817045664043e-06,1.6413556991710494e-06,1.4744575756917582e-05,1.1682913267133633e-05,8.615911869999761e-06,1.5742416710606996e-06,1.9850952410992793e-06,8.212036312188784e-06,2.7823138610224504e-06,2.7235127571153276e-06,2.2841901426349606e-06
320,2.583161277795649e-06,2.178037824335241e-06,1.239991791777981e-06,2.2836258844808868e-06,7.660227633373327e-06,2.0769274777206997e-06,1.6355740926753217e-06,1.4840636465397594e-05,1.1145299901147094e-05,8.474876948892969e-06,1.5712241209585865e-06,1.956346572223585e-06,8.069372879509577e-06,2.778620691949908e-06,2.722454054105056e-06,2.3396034505699003e-06
321,2.694522478061143e-06,2.1830960203635252e-06,1.2553058171731148e-06,2.2428735306939504e-06,7.620547059250627e-06,2.0615122138027774e-06,1.6381242296080398e-06,1.4902332691139012e-05,1.0624536438711091e-05,8.31469068208021e-06,1.5610557113047366e-06,1.9364949717256164e-06,7.918307310802093e-06,2.7825900668193015e-06,2.712110396385501e-06,2.3921198606453315e-06
322,2.8174906919040344e-06,2.1845849226266125e-06,1.271557250306553e-06,2.2116429207398536e-06,7.5754279226353855e-06,2.0479513379006735e-06,1.6486110251632409e-06,1.4922252211275338e-05,1.0125457770639202e-05,8.138098577464309e-06,1.5436736816525003e-06,1.9261239099531877e-06,7.763499391663937e-06,2.7937751261472703e-06,2.6931548244482786e-06,2.4407543751858307e-06
323,2.9512258261039183e-06,2.1834451008906575e-06,1.288765350460332e-06,2.1891679497523205e-06,7.52560692536631e-06,2.035392466732948e-06,1.6666195149268191e-06,1.489444361025162e-05,9.65187104514634e-06,7.948587294051092e-06,1.5189909788124548e-06,1.9255538762021527e-06,7.609474780753512e-06,2.8121234837349246e-06,2.6666238938403746e-06,2.484365061653114e-06
324,3.09429755933715e-06,2.180596571460735e-06,1.3068180467706561e-06,2.1745974055627925e-06,7.472998004913131e-06,2.023063946175313e-06,1.6918314023667155e-06,1.4815249596355789e-05,9.206196552675057e-06,7.749969740526642e-06,1.487034772785263e-06,1.93484158610757e-06,7.460316355381807e-06,2.837706306763702e-06,2.633798255682215e-06,2.521835105761549e-06
325,3.244854308912695e-06,2.1768511463114463e-06,1.325378011267386e-06,2.1672006955605917e-06,7.420349844234413e-06,2.0104305964677577e-06,1.7240802166187251e-06,1.4683872409047506e-05,8.789771016125994e-06,7.545970169333169e-06,1.4481232520706578e-06,1.9538447887791654e-06,7.319731576097432e-06,2.8704190878915644e-06,2.596003746000202e-06,2.5525577530344584e-06
326,3.400999735700631e-06,2.172974849568043e-06,1.3438449849089473e-06,2.166426355416323e-06,7.370664010864964e-06,1.9971811616451264e-06,1.7632522870132103e-06,1.4502510071448716e-05,8.403671920159652e-06,7.339754474298695e-06,1.4029361604127266e-06,1.982313641451607e-06,7.19106642875919e-06,2.9098037173099284e-06,2.5544882145220553e-06,2.5767258111914176e-06
327,3.5612176218234932e-06,2.1697140639411316e-06,1.3614549348144993e-06,2.171810359417285e-06,7.326625366706807e-06,1.983083483913539e-06,1.8091539639718476e-06,1.4276040822651395e-05,8.049237850207229e-06,7.133464397818471e-06,1.352407293713438e-06,2.019993925465192e-06,7.077479001227034e-06,2.9549521065374566e-06,2.510367053745401e-06,2.595163033533732e-06
328,3.724529439778464e-06,2.1677726068269445e-06,1.3775556194972452e-06,2.1829119269375454e-06,7.290179482632738e-06,1.96788099925045e-06,1.8614759044886636e-06,1.4011238042580822e-05,7.727814772956627e-06,6.927908412592226e-06,1.2975092576193343e-06,2.0667201225315928e-06,6.982331932006801e-06,3.0044768526258363e-06,2.464546384872949e-06,2.6089275783561765e-06
