,EMG1,EMG2,EMG3,EMG4,EMG5,EMG6,EMG7,EMG8,EMG9,EMG10,EMG11,EMG12,EMG13,EMG14,EMG15,EMG16
0,3.7356987733084043e-07,8.440724815615176e-08,-4.233984060098051e-08,3.013947619419812e-07,4.723811353328356e-07,-5.725168992369935e-09,2.764084775842765e-07,1.064199779885504e-06,-3.6272235467690043e-08,2.209984839956929e-08,1.5314572903007317e-07,9.739636867403631e-08,8.524421702778088e-07,3.606188470714609e-07,2.4417856836203644e-07,1.2214957608721796e-06
1,5.084235694892004e-07,1.3776556285081232e-07,1.5105800709460133e-07,5.040816643395892e-07,7.262947923179072e-07,6.168034078355752e-07,4.171315435182553e-07,1.2690882675310833e-06,1.3337004906309363e-07,4.107998740075008e-07,1.856387234752155e-07,1.4215354778827746e-07,1.0532845246183403e-06,4.473573626979443e-07,2.953862821177947e-07,1.6998552884276011e-06
2,6.420905372007772e-07,1.9193447711094066e-07,3.390722101849503e-07,7.00221983086965e-07,9.778494524294264e-07,1.2084771196295747e-06,5.589627278903233e-07,1.467303260688652e-06,2.995673880928822e-07,7.844528409553314e-07,2.184035093087465e-07,1.860266658526184e-07,1.256475916663456e-06,5.308860544377064e-07,3.5166396459022504e-07,2.192551995911913e-06
3,7.71510744227851e-07,2.459976168909957e-07,5.207949607273823e-07,8.879102687764944e-07,1.2213801307464997e-06,1.7568074559520287e-06,6.997272021567186e-07,1.6565210284558954e-06,4.6016118774822685e-07,1.1375674311087049e-06,2.511329008533636e-07,2.2729875578272532e-07,1.4600445722218431e-06,6.084856239097782e-07,4.129316011565164e-07,2.696207017516328e-06
4,8.942659961453048e-07,2.9918178318910695e-07,6.952960898688376e-07,1.0652685237435825e-06,1.4516395832376657e-06,2.2514865787808464e-06,8.374569544201967e-07,1.8346878773487001e-06,6.13457931828106e-07,1.4658138117013645e-06,2.83718399876171e-07,2.6501774659326876e-07,1.661906166941993e-06,6.784252315324235e-07,4.790877976694435e-07,3.2076394466302714e-06
5,1.008516065918356e-06,3.5089712000731575e-07,8.61593305009131e-07,1.2306752289220151e-06,1.6640620017666262e-06,2.685024175235664e-06,9.704675080930543e-07,2.000255358828279e-06,7.583370013748e-07,1.7659460162870389e-06,3.1620484462190867e-07,2.989614688125774e-07,1.8600857712999843e-06,7.400205368671831e-07,5.500192910157832e-07,3.724070667099142e-06
6,1.112898401093211e-06,4.00827233099611e-07,1.0186416744982837e-06,1.3830601889652848e-06,1.8552530750686065e-06,3.0531146755034777e-06,1.097508027717497e-06,2.152307126161282e-06,8.941660134163978e-07,2.035498791237136e-06,3.487214415579902e-07,3.294798451850437e-07,2.0530238796028715e-06,7.934116350200329e-07,6.256056066395984e-07,4.243261417629831e-06
7,1.2066626960501871e-06,4.4892865113710606e-07,1.1653513445363593e-06,1.521986515359823e-06,2.0235095069702523e-06,3.354655377983071e-06,1.217838083824985e-06,2.2904069585400637e-06,1.0205945261286597e-06,2.272699516983007e-06,3.8146330312883127e-07,3.573524696775239e-07,2.2397197926849063e-06,8.392115532445736e-07,7.057085028770834e-07,4.763540909896655e-06
8,1.2897670074746156e-06,4.952951489612892e-07,1.300609311000869e-06,1.6474860798466555e-06,2.1689540447270504e-06,3.5913980298376296e-06,1.3310678606797072e-06,2.414268295316667e-06,1.1373748648083464e-06,2.476684800464472e-06,4.147563383473143e-07,3.8364734757372886e-07,2.41955078971852e-06,8.781660071939756e-07,7.901426721036111e-07,5.2837093009091766e-06
9,1.3626475161595965e-06,5.400252926336561e-07,1.4233368427667916e-06,1.7599215638726483e-06,2.2931071783458835e-06,3.7674164463938037e-06,1.4368670240440957e-06,2.523562275977023e-06,1.2443257060522934e-06,2.6477012838888727e-06,4.491409805569568e-07,4.0955673622955163e-07,2.591905962723311e-06,9.109658398498153e-07,8.786299748274854e-07,5.8028542493541634e-06
10,1.4258592961975227e-06,5.831754858852613e-07,1.532665011613574e-06,1.8600203938837742e-06,2.3981304599283502e-06,3.888529282447278e-06,1.534777802989271e-06,2.618041266341037e-06,1.341419323033821e-06,2.7870533599664196e-06,4.853688735714583e-07,4.362681633486476e-07,2.755953645789829e-06,9.382171539526734e-07,9.707531721847358e-07,6.320100370708009e-06
11,1.4798627620885457e-06,6.247973713258316e-07,1.6281747894725043e-06,1.9489135706692094e-06,2.486155827756639e-06,3.961599489968511e-06,1.6242210266109971e-06,2.697824969898456e-06,1.428900479983322e-06,2.8968878301584784e-06,5.243319431390686e-07,4.6491002714506857e-07,2.9106586031167375e-06,9.60463820230599e-07,1.0659235105898257e-06,6.8343012853423905e-06
12,1.5249766033973065e-06,6.650047046844962e-07,1.7100172536013084e-06,2.0280176490006487e-06,2.5589334217056883e-06,3.9937154549531746e-06,1.7046388523634399e-06,2.7635356803289102e-06,1.5073716805064816e-06,2.9799741311075873e-06,5.670577612518075e-07,4.965387897103e-07,3.0549091556498657e-06,9.78244496336472e-07,1.1633829752674643e-06,7.343794322087298e-06
13,1.5613994368814236e-06,7.039956218829126e-07,1.7788359025939823e-06,2.0988057636877217e-06,2.617746033060051e-06,3.991539572356686e-06,1.7756907305916697e-06,2.816126613121097e-06,1.5777663687044071e-06,3.039456935235693e-06,6.14806604179567e-07,5.321343646077743e-07,3.187680860349787e-06,9.921803702913784e-07,1.2622620699061115e-06,7.84630723047394e-06
14,1.5892333208472798e-06,7.420410773616631e-07,1.8355955127487721e-06,2.1626315914392397e-06,2.6634695377781335e-06,3.961058226060498e-06,1.8373875627414215e-06,2.8566281769354573e-06,1.6411757423020934e-06,3.078500960074133e-06,6.691313360240131e-07,5.726027236439096e-07,3.308261922454804e-06,1.0029849203994011e-06,1.361674925975899e-06,8.33889688239409e-06
15,1.6085294088768956e-06,7.794614742947117e-07,1.8814273090265923e-06,2.220750936169554e-06,2.6967119278142055e-06,3.907619102759926e-06,1.8900312373844486e-06,2.8861790685479108e-06,1.6986650837541789e-06,3.0999254493639875e-06,7.317986341794861e-07,6.187986432379449e-07,3.4164952380076996e-06,1.0113783394601784e-06,1.4607850501102657e-06,8.817707874025955e-06
16,1.6194029743479428e-06,8.165846365257961e-07,1.9174785165551867e-06,2.2744885749700885e-06,2.717959276187878e-06,3.8359798239052355e-06,1.9339767561884123e-06,2.9063159576587127e-06,1.7512355827796197e-06,3.106004441820592e-06,8.047134839927137e-07,6.715649816536917e-07,3.5129095939319076e-06,1.018026278528854e-06,1.5587653042693827e-06,9.277536147111817e-06
17,1.6221458625249311e-06,8.537121641970559e-07,1.9447337482417235e-06,2.325317074128069e-06,2.7276716593334218e-06,3.7502611833693142e-06,1.9694155703170348e-06,2.9191513964876947e-06,1.7998684280695975e-06,3.098453059214536e-06,8.900133217604043e-07,7.31762078300012e-07,3.5986160594933387e-06,1.0235166283073169e-06,1.6546831860139985e-06,9.711513752254486e-06
18,1.6172436056831488e-06,8.910883475205682e-07,1.963899792541038e-06,2.3747503200036904e-06,2.726348579312954e-06,3.6539190272612465e-06,1.996290109516329e-06,2.927258216323108e-06,1.8454894104857038e-06,3.078532128173139e-06,9.902251899064835e-07,8.00288679923904e-07,3.674992770069062e-06,1.0283248949770257e-06,1.7474256027726665e-06,1.011123400858512e-05
19,1.6053390858759256e-06,9.28842890696317e-07,1.9754905652679376e-06,2.424185541509952e-06,2.7146294165528154e-06,3.5497959762637645e-06,2.014288656975835e-06,2.9333868117978507e-06,1.8888719033082127e-06,3.0472657268285537e-06,1.1082927877129792e-06,8.781064200995482e-07,3.743360232958117e-06,1.0328043957746932e-06,1.8356752856304914e-06,1.0467300467027393e-05
20,1.587195334142191e-06,9.66944788895933e-07,1.9800534537676036e-06,2.474806645711038e-06,2.6934287190271512e-06,3.4401879348039793e-06,2.022922361875876e-06,2.94018865041842e-06,1.9306208396707566e-06,3.0057362645695557e-06,1.2474464202040502e-06,9.662804756584683e-07,3.804842146551607e-06,1.0372016845104877e-06,1.9179233931698584e-06,1.0770189211510252e-05
21,1.5636252324514527e-06,1.005219901346161e-06,1.978269314853577e-06,2.5275159189121625e-06,2.6639651203245614e-06,3.3269873257625217e-06,2.0217078420358857e-06,2.95004038972411e-06,1.971239415026709e-06,2.955292029000996e-06,1.4109993140440866e-06,1.066038134440367e-06,3.860427638104692e-06,1.0416564629415681e-06,1.99260354521855e-06,1.1011463546143802e-05
22,1.5353817854348932e-06,1.0434198718168352e-06,1.970802920258278e-06,2.582866445829055e-06,2.6275856650085123e-06,3.2119460036030136e-06,2.010375272394318e-06,2.9650089101358487e-06,2.011137654860446e-06,2.8974890071514764e-06,1.6021600508265028e-06,1.1787642043715853e-06,3.91109304079645e-06,1.0462521393338101e-06,2.0583387177447275e-06,1.118518221690632e-05
23,1.5031266626936366e-06,1.0812808389691023e-06,1.9581275811185697e-06,2.641056990478512e-06,2.585600913595715e-06,3.0968390652648192e-06,1.989022594253655e-06,2.986916705979947e-06,2.0505482257178096e-06,2.8338156223261335e-06,1.8239302541596476e-06,1.3059193918365706e-06,3.957818379095137e-06,1.0511593957734668e-06,2.1141141748824815e-06,1.128879141113681e-05
24,1.4675889938980154e-06,1.118541629160868e-06,1.9405482798394526e-06,2.7019768804765955e-06,2.539366182204057e-06,2.9833868650645462e-06,1.9582065138030037e-06,3.017358147608664e-06,2.089449671743265e-06,2.765530809338735e-06,2.0791470535417776e-06,1.4489902137542157e-06,4.001421467752192e-06,1.0567382870265251e-06,2.159221589086343e-06,1.1322679984980518e-05
25,1.4297793151050519e-06,1.1549482542253716e-06,1.9183433573302547e-06,2.7651750573466333e-06,2.490390032236626e-06,2.8730826277623075e-06,1.9189557703571866e-06,3.0575756959330743e-06,2.1275344722008773e-06,2.6937975321966585e-06,2.3706642119964113e-06,1.6094521375155912e-06,4.0422821094148755e-06,1.0634888592946772e-06,2.193010606080279e-06,1.1288485465821566e-05
26,1.3909949680240638e-06,1.1902633236156751e-06,1.8918486419930299e-06,2.8297380301516315e-06,2.440179193711966e-06,2.7670905056392e-06,1.8726589917564577e-06,3.1082998016782383e-06,2.1641975956971067e-06,2.6198507048832313e-06,2.7015493896325674e-06,1.7886713462823059e-06,4.080190256276497e-06,1.0719372035109074e-06,2.2146728257374156e-06,1.1187485933424382e-05
27,1.352615267994633e-06,1.2242457990774663e-06,1.861450559510307e-06,2.8942219833428455e-06,2.3899915912723707e-06,2.6662468236784384e-06,1.820826021221056e-06,3.1696792571582947e-06,2.198550474228768e-06,2.5449223076004596e-06,3.0751741834935007e-06,1.9878414235390084e-06,4.1145163994641665e-06,1.0825781413212508e-06,2.2232652293766835e-06,1.1020464551652245e-05
28,1.3159159477095495e-06,1.2565837051645474e-06,1.8275744286392774e-06,2.956743300318535e-06,2.3407376194028727e-06,2.5711474649728157e-06,1.764838920786072e-06,3.2413397005335073e-06,2.2294900644424413e-06,2.4700110730808394e-06,3.495131880741812e-06,2.2080331181448693e-06,4.1445717120403365e-06,1.0958637178541999e-06,2.2179725847356823e-06,1.0789027303343778e-05
29,1.2819954493080916e-06,1.2868707318819825e-06,1.7907533189260388e-06,3.0152002402959554e-06,2.29295643507384e-06,2.4822903100088106e-06,1.7058375388490265e-06,3.322510263300541e-06,2.255881561232239e-06,2.3957800160504166e-06,3.964951005666043e-06,2.4502376720013876e-06,4.169847078309284e-06,1.112180499330728e-06,2.19850711486265e-06,1.0497184909191782e-05
30,1.2517444508646708e-06,1.3146992191590081e-06,1.7517422274620117e-06,3.067552455321734e-06,2.2468161013674947e-06,2.400210007291709e-06,1.6447505552218545e-06,3.4120439739790077e-06,2.276818366163949e-06,2.3226867154934776e-06,4.487686897832345e-06,2.7153381542182446e-06,4.190066967675115e-06,1.1318153814519218e-06,2.1654929942155454e-06,1.015214708847606e-05
31,1.225834284043822e-06,1.3397913330770322e-06,1.7115368676042613e-06,3.1121069233697316e-06,2.2022305010289667e-06,2.3255318168855973e-06,1.582367436176421e-06,3.5082985273767782e-06,2.291766748537602e-06,2.251116732122169e-06,5.065590057844084e-06,3.0040925410836366e-06,4.205165415541883e-06,1.1549432966441936e-06,2.120574113358346e-06,9.763975265249294e-06
32,1.204755376611226e-06,1.3620910739139576e-06,1.6712214890029025e-06,3.1477654306148874e-06,2.15908739603074e-06,2.258912403488318e-06,1.5193895617420067e-06,3.6090909219624046e-06,2.3005203987403626e-06,2.1813259290836844e-06,5.6999819271004715e-06,3.3170843905234235e-06,4.215170525896279e-06,1.181642341266607e-06,2.0661105912791575e-06,9.344307683312248e-06
33,1.1889025745382365e-06,1.3818035188026888e-06,1.631738908758533e-06,3.1741323519178813e-06,2.1174498200323377e-06,2.200919068114253e-06,1.4564972463216607e-06,3.711929833287339e-06,2.303115724067693e-06,2.1133853033178065e-06,6.391229451678096e-06,3.6545326391334143e-06,4.219992173393287e-06,1.211884100560582e-06,2.004665227917695e-06,8.904782926390187e-06
34,1.178627503571227e-06,1.3993368962018508e-06,1.593747418926471e-06,3.1913315131619986e-06,2.0775614321421106e-06,2.1519542606168924e-06,1.3944684656342843e-06,3.814511629115723e-06,2.299792255881648e-06,2.0473572207529e-06,7.138599856213269e-06,4.016072420039249e-06,4.219264535156785e-06,1.245492554224674e-06,1.9385934529219457e-06,8.455874311454328e-06
35,1.1741868333189391e-06,1.4151620511312159e-06,1.5576490278721902e-06,3.1995770269166147e-06,2.0396440943298456e-06,2.112257438403362e-06,1.334272472455401e-06,3.915220787809537e-06,2.2909185540927896e-06,1.983521731954085e-06,7.9400147624146e-06,4.400699283902402e-06,4.2123868008277105e-06,1.2821470056824378e-06,1.8698831811044302e-06,8.00644693458015e-06
36,1.1756430841617456e-06,1.429705242637471e-06,1.5237382381423627e-06,3.198873840210586e-06,2.0037397020001662e-06,2.0818919518261735e-06,1.2770180759934348e-06,4.013380859468825e-06,2.2768685938956468e-06,1.9223505122833394e-06,8.791908679783368e-06,4.806851051451069e-06,4.198753088809007e-06,1.3214279728053142e-06,1.8001842347838785e-06,7.5637861497964676e-06
37,1.1828086702542603e-06,1.443316594103163e-06,1.4923175629726507e-06,3.1890987755599917e-06,1.9697901215852115e-06,2.0606613007654347e-06,1.2237797941672348e-06,4.1092221585268965e-06,2.2579372716977428e-06,1.8642887717919427e-06,9.689203494158735e-06,5.232431050641798e-06,4.177995655242692e-06,1.3628563709181846e-06,1.7308664837134185e-06,7.13369770323808e-06
38,1.1952383191111925e-06,1.4562527633592445e-06,1.4636741596602724e-06,3.170260878457374e-06,1.937824551871696e-06,2.0480246745680064e-06,1.1754619888987047e-06,4.20367331997154e-06,2.23431545366619e-06,1.8096301389167802e-06,1.0625222286580416e-05,5.6746983974424e-06,4.150019420477656e-06,1.4059619370043716e-06,1.6630206942049569e-06,6.720566804488589e-06
39,1.2122604344103456e-06,1.4686510901746684e-06,1.438008008415313e-06,3.1426727416343753e-06,1.908056495607678e-06,2.0430821578763152e-06,1.132786778894891e-06,4.298100178878337e-06,2.206070473364372e-06,1.7585608562067113e-06,1.1591470469740053e-05,6.130111543408931e-06,4.114801462493753e-06,1.450352519402229e-06,1.5974397027988147e-06,6.327451192066474e-06
40,1.2330694594652485e-06,1.4805112171469236e-06,1.4154523077837347e-06,3.1069686643869224e-06,1.8808747673291457e-06,2.0446087655580645e-06,1.0963332793433991e-06,4.394044258154989e-06,2.173169516137861e-06,1.7112051125702532e-06,1.2577402417372057e-05,6.594143095429548e-06,4.072117410343711e-06,1.4956682994153253e-06,1.5346234749979555e-06,5.956236494228257e-06
41,1.2568581808963842e-06,1.4916689166034586e-06,1.3961290555758193e-06,3.063981225635717e-06,1.856767888179158e-06,2.0510892491430406e-06,1.0665380229622336e-06,4.492939397989236e-06,2.1356543469004904e-06,1.66759190874478e-06,1.3570307424671048e-05,7.061024129912322e-06,4.021414024392177e-06,1.541464062149873e-06,1.4748244290422418e-06,5.607837313745872e-06
42,1.2829224353235335e-06,1.501782949988083e-06,1.3801048735047663e-06,3.014535265184821e-06,1.836181316434008e-06,2.0608258955671473e-06,1.0436660247797741e-06,4.595798110205183e-06,2.0938928347299036e-06,1.6276375559374034e-06,1.455526651838758e-05,7.523505222559614e-06,3.962065973247904e-06,1.587160823370431e-06,1.4181248113725475e-06,5.282417249608475e-06
43,1.3107179570028831e-06,1.5104234510850288e-06,1.367306722597908e-06,2.9593024707248942e-06,1.8193901248414619e-06,2.0722352382061047e-06,1.0278089389862123e-06,4.7029445663531894e-06,2.0486787877548006e-06,1.5911767277270989e-06,1.5514959152271578e-05,7.972822617340737e-06,3.8939301997146485e-06,1.632101214017737e-06,1.3644710019715974e-06,4.979590983600963e-06
44,1.3398887313747494e-06,1.5172795054920384e-06,1.3575449500086494e-06,2.898849227393089e-06,1.8065059758148008e-06,2.0842088632737386e-06,1.0189083080660709e-06,4.813942437638893e-06,2.0011162423288026e-06,1.5580134880811516e-06,1.6429327368711764e-05,8.399008437313992e-06,3.817673704474898e-06,1.6756399215176796e-06,1.3136365733275004e-06,4.698605767677853e-06
45,1.3702583764713482e-06,1.5223671005231734e-06,1.3506433792203998e-06,2.833853439925433e-06,1.7975712475588098e-06,2.09625262835381e-06,1.016764792649807e-06,4.927769560153667e-06,1.9524231118212546e-06,1.5280217475771028e-06,1.7275794992253356e-05,8.791573734754671e-06,3.734585237194286e-06,1.717221178814422e-06,1.2652475724710775e-06,4.438549007345923e-06
46,1.4017864395381206e-06,1.52610818098616e-06,1.3465657159368155e-06,2.76528971722163e-06,1.7925856950280614e-06,2.1082956862252214e-06,1.0210627909587756e-06,5.043110386157574e-06,1.9037827129739554e-06,1.5012655264022566e-06,1.803082218168841e-05,9.1404609345611e-06,3.6461585352621927e-06,1.7564824712313157e-06,1.2189773664350996e-06,4.198593449480912e-06
47,1.4345005677122861e-06,1.529265570535777e-06,1.3454261417327726e-06,2.694376619275677e-06,1.7914343838963851e-06,2.120344536932413e-06,1.0314550253304689e-06,5.158602838626833e-06,1.856267711343437e-06,1.4780031043505409e-06,1.867253471888557e-05,9.437003627720655e-06,3.5538077204569525e-06,1.7933269698718264e-06,1.174789722327393e-06,3.978193430186189e-06
48,1.4684092330190277e-06,1.5328063276927905e-06,1.3473626809122426e-06,2.6222924497179382e-06,1.7938466890522301e-06,2.1322915076083925e-06,1.0476344836472826e-06,5.272933379793238e-06,1.8107829706206434e-06,1.458535754795641e-06,1.9183347301086143e-05,9.674508771687583e-06,3.45873729990527e-06,1.8278354970422913e-06,1.1330131076003803e-06,3.777121953963838e-06
49,1.5034879152613533e-06,1.5377479372659178e-06,1.3524057840163348e-06,2.5498974103610767e-06,1.7994328680693897e-06,2.1439831814329435e-06,1.0693250249365764e-06,5.384746825670573e-06,1.7680073236610813e-06,1.4430681057892486e-06,1.9551573395964037e-05,9.848058190277252e-06,3.3618354782454713e-06,1.860118176406996e-06,1.0941880289601934e-06,3.59533083544662e-06
50,1.5397612708944456e-06,1.545022131645809e-06,1.3604700775328652e-06,2.4776623951457245e-06,1.8076972872491715e-06,2.155348202790784e-06,1.0962833085293473e-06,5.492453052720027e-06,1.7283999011557022e-06,1.4317377932367442e-06,1.977128316946864e-05,9.953532652078422e-06,3.2636655815237833e-06,1.8902707702621302e-06,1.0588320613889212e-06,3.4327064797126966e-06
51,1.5773102679364733e-06,1.5553948410204664e-06,1.3714183862041363e-06,2.405783227080901e-06,1.8180478167818328e-06,2.1664331265176394e-06,1.1283677975509694e-06,5.5940682903854045e-06,1.6922622977753231e-06,1.4247351712455331e-06,1.984019834776066e-05,9.986841240110191e-06,3.164690336525957e-06,1.9183646484044762e-06,1.0272994679552397e-06,3.288809008144374e-06
52,1.6161965623575073e-06,1.5694255402333703e-06,1.3850668922141817e-06,2.3343826675063025e-06,1.8298906060107796e-06,2.1773976523661428e-06,1.1655497166437893e-06,5.687185795713748e-06,1.6597486838022989e-06,1.4223262925544237e-06,1.9757075330898448e-05,9.944539450409268e-06,3.065522685911634e-06,1.9443823462995516e-06,9.99767758230312e-07,3.162684178833662e-06
53,1.6564434068395374e-06,1.5874409868675954e-06,1.4011133655304035e-06,2.263725031675764e-06,1.8427592655121251e-06,2.188509160417161e-06,1.2078093546937007e-06,5.769130083950788e-06,1.630859280926037e-06,1.4247605234504294e-06,1.952144570079859e-05,9.82554905512729e-06,2.9668960700224267e-06,1.968203297805005e-06,9.762663174846292e-07,3.0527967549620428e-06
54,1.698049013678887e-06,1.6095297385124781e-06,1.4191136384973617e-06,2.194312112838496e-06,1.8564031701933475e-06,2.20009155446476e-06,1.2550240886284582e-06,5.837318501751585e-06,1.6055168071801103e-06,1.4322237051563531e-06,1.913650633183238e-05,9.632528569584938e-06,2.869444224550293e-06,1.9896995778942197e-06,9.567111309450192e-07,2.957032555465537e-06
55,1.7410061946738973e-06,1.635537364837942e-06,1.4385938706572293e-06,2.126766013346139e-06,1.8707763254643097e-06,2.212393012477205e-06,1.3069152718143984e-06,5.889753971555075e-06,1.5836582843533282e-06,1.4449022124041051e-06,1.861226231702365e-05,9.372057253181631e-06,2.773617693757294e-06,2.0088212718205927e-06,9.409415362305682e-07,2.8727457214744195e-06
56,1.7853280411484e-06,1.6650696976688465e-06,1.4591967274776815e-06,2.0616439784614017e-06,1.885877383269363e-06,2.225425210529381e-06,1.363069431512156e-06,5.925445804281513e-06,1.5652717044953475e-06,1.463028944757808e-06,1.7965985424032326e-05,9.053869575073011e-06,2.6797720998558563e-06,2.0255902780358196e-06,9.287200521235119e-07,2.7969609222121326e-06
57,1.8309907883969958e-06,1.6975432038169787e-06,1.4806961578340634e-06,1.999405499643337e-06,1.9015546088103378e-06,2.2389205818159937e-06,1.4230477163969987e-06,5.9445706234911254e-06,1.5503857747151887e-06,1.486856673163144e-06,1.721995487488694e-05,8.689653511622582e-06,2.5881902400859127e-06,2.0400681417624988e-06,9.197248094089645e-07,2.7267626179414815e-06
58,1.877810765870714e-06,1.7322739885006244e-06,1.5028576360248207e-06,1.940471520140321e-06,1.917416398812162e-06,2.2524630780416886e-06,1.4865135794244498e-06,5.948367555198125e-06,1.5389942967821306e-06,1.5166202752349584e-06,1.639823694595878e-05,8.291695229602816e-06,2.499018542485898e-06,2.0523371644535154e-06,9.135798225383604e-07,2.6596891933748364e-06
59,1.9254258764281706e-06,1.768572280736736e-06,1.525283690057066e-06,1.8851626030699634e-06,1.932812892964455e-06,2.2656161150608255e-06,1.5532774200065466e-06,5.938916024993117e-06,1.5309543300193627e-06,1.5524604771898038e-06,1.5524068000368986e-05,7.871602768890292e-06,2.4122961835585797e-06,2.062429949993228e-06,9.098892901696042e-07,2.5939377455006853e-06
60,1.973479067216493e-06,1.8057872394555702e-06,1.5473961383654513e-06,1.833546479230142e-06,1.946901255879788e-06,2.277871353941356e-06,1.6232213931131977e-06,5.918936139064079e-06,1.5259692709280713e-06,1.5943019689214224e-06,1.4618375066317422e-05,7.439446538699106e-06,2.3281040735569433e-06,2.0702429578176404e-06,9.082813920784984e-07,2.528356176956589e-06
61,2.0218254516066246e-06,1.843232028065593e-06,1.5685549148533923e-06,1.7854040139861146e-06,1.958922069498081e-06,2.2885047095338427e-06,1.696129613049409e-06,5.8916261521960895e-06,1.5237380825849607e-06,1.6417806201196353e-06,1.3699144453465639e-05,7.00346291130629e-06,2.2466915269896966e-06,2.0755586815177514e-06,9.084802274381125e-07,2.462362414622262e-06
62,2.070497917803807e-06,1.8800192392146867e-06,1.5881561933697757e-06,1.7403209037936623e-06,1.9686017038715787e-06,2.2965767647310027e-06,1.7715231822195365e-06,5.860401463734017e-06,1.5241680402343967e-06,1.69425744918935e-06,1.278125092436316e-05,6.57016115801214e-06,2.1684298576654236e-06,2.0781460477193566e-06,9.103245456141207e-07,2.39593852250167e-06
63,2.1195216614620365e-06,1.9149541246113197e-06,1.6055923387720575e-06,1.697737889852217e-06,1.976348851448228e-06,2.3011573905343095e-06,1.848597423068683e-06,5.828440916602357e-06,1.5274092349224102e-06,1.7509138877783686e-06,1.1876605711992288e-05,6.1446436782741725e-06,2.093642277178053e-06,2.0778618403718815e-06,9.136941269008327e-07,2.32963191819109e-06
64,2.168809927395048e-06,1.9465915363241793e-06,1.6201826897909604e-06,1.6569758110941284e-06,1.98305813999808e-06,2.3016098864609814e-06,1.926227979569222e-06,5.798278937368482e-06,1.5337550687303776e-06,1.8109159095708747e-06,1.0994477440506787e-05,5.731001638479206e-06,2.0224972269861547e-06,2.0747645838739347e-06,9.184562427272739e-07,2.2643693273342973e-06
65,2.218089708866506e-06,1.9734260195616647e-06,1.6312389673024564e-06,1.6173772572486166e-06,1.9896945738172096e-06,2.297734139321696e-06,2.0029735859310048e-06,5.77177876876322e-06,1.5435851995903976e-06,1.8735442850228809e-06,1.0141794207302801e-05,5.3326130678568006e-06,1.9550638104760473e-06,2.0691934098063357e-06,9.244863348050044e-07,2.2011330274920084e-06
66,2.266793973179192e-06,1.9941145305114568e-06,1.6382244080694881e-06,1.5785361049237054e-06,1.99695574640767e-06,2.289694876559765e-06,2.0771347270700457e-06,5.750400233234213e-06,1.5572597385357343e-06,1.9381620136488777e-06,9.323422566322684e-06,4.952226833408201e-06,1.8914711923253338e-06,2.061706196936961e-06,9.316642145631268e-07,2.140749241197883e-06
67,2.314015229203587e-06,2.0076390726485654e-06,1.6408848108217776e-06,1.5404684398506393e-06,2.005133422085451e-06,2.2777747224357345e-06,2.1469526592884743e-06,5.735396775853963e-06,1.5749589349148435e-06,2.0040630249652403e-06,8.54250664962793e-06,4.591915980534341e-06,1.8319675416793762e-06,2.0528696316026825e-06,9.398141937396816e-07,2.0838742319486293e-06
68,2.358593205109458e-06,2.0133222738681665e-06,1.6392987021435199e-06,1.503602485448595e-06,2.014140063943509e-06,2.2620743751200447e-06,2.210864438234705e-06,5.727769848547154e-06,1.5966560889270416e-06,2.0704238457644325e-06,7.800840426904678e-06,4.253117859400297e-06,1.7768239142184873e-06,2.0430432660680424e-06,9.486671909629756e-07,2.031082522998065e-06
69,2.399322587743035e-06,2.0106733081241198e-06,1.6338022523507733e-06,1.4685655114071672e-06,2.0236445373402253e-06,2.2423116930335045e-06,2.267651754887093e-06,5.7280767056868446e-06,1.6222288511405144e-06,2.1364015196741015e-06,7.099214260620695e-06,3.936845296604193e-06,1.7262898791844517e-06,2.0323617046445076e-06,9.578912590924714e-07,1.982913695514333e-06
70,2.435115019455664e-06,1.9992481925721942e-06,1.624791588295657e-06,1.4359338932171328e-06,2.033223324599069e-06,2.2177812721561577e-06,2.3164558973274623e-06,5.736299723285029e-06,1.651549504601165e-06,2.2011456348467273e-06,6.437725623002134e-06,3.6438973213299764e-06,1.6806897345008047e-06,2.020948305167298e-06,9.67165585863219e-07,1.939770841193024e-06
71,2.4649899685386182e-06,1.9787315983135393e-06,1.6125353112398508e-06,1.40615238453906e-06,2.0424202515915267e-06,2.187417022162533e-06,2.356769487651641e-06,5.751918146633101e-06,1.6844870442882607e-06,2.2636915885018653e-06,5.8160225689210785e-06,3.374875789965263e-06,1.6405077211056449e-06,2.0091406786214883e-06,9.762329094414324e-07,1.9017472063750432e-06
72,2.4880503054939252e-06,1.949137626216128e-06,1.5971677557553064e-06,1.3796248969736703e-06,2.0507036077098142e-06,2.149944465316201e-06,2.388485164845121e-06,5.774120170827464e-06,1.7209209809236202e-06,2.322980189304434e-06,5.233443171945391e-06,3.130051761150593e-06,1.6063152722865395e-06,1.997553694175876e-06,9.84918683973103e-07,1.8685447187874133e-06
73,2.5036160376660475e-06,1.910920283848122e-06,1.5788837555357073e-06,1.3568223855254665e-06,2.057384680286494e-06,2.1042124215101008e-06,2.4119272963742963e-06,5.8019616908172185e-06,1.7608722746413701e-06,2.3780705178411074e-06,4.6891104717216646e-06,2.909276622327442e-06,1.5785778603574648e-06,1.987006485460513e-06,9.93178574072987e-07,1.8395323044815988e-06
74,2.511422576940777e-06,1.864994174690049e-06,1.5581505412126377e-06,1.3382866777136511e-06,2.061615140432354e-06,2.049660972717059e-06,2.427728010409172e-06,5.834352194822988e-06,1.804685746869068e-06,2.428397810564392e-06,4.182080967627637e-06,2.7120253963786888e-06,1.5575230739515605e-06,1.978354046796223e-06,1.001181667789917e-06,1.8139132093989664e-06
75,2.511641029257243e-06,1.8127151143270756e-06,1.5357258834928283e-06,1.3245213443497203e-06,2.0626126915151997e-06,1.986681106863898e-06,2.436602185522158e-06,5.869930164990269e-06,1.8530983159764638e-06,2.473959389463351e-06,3.7115191633946184e-06,2.537504458619042e-06,1.5432112326666132e-06,1.972255223077266e-06,1.009324351531354e-06,1.7909130733526712e-06
76,2.5046476472416973e-06,1.7557533273614383e-06,1.5124643925984973e-06,1.315868458654781e-06,2.0600800527304533e-06,1.9166880443902053e-06,2.4392237703988106e-06,5.90701475425854e-06,1.9071275593379537e-06,2.5153214501593027e-06,3.2767573048261996e-06,2.3847442630128223e-06,1.5357651205251834e-06,1.9689995154476414e-06,1.0180981096083357e-06,1.7698446424405568e-06
77,2.4908204469328965e-06,1.6958451837865523e-06,1.4890877910364914e-06,1.3124723462197138e-06,2.0545074964881612e-06,1.8419051092844234e-06,2.4361830612821563e-06,5.943788535172193e-06,1.9678671468564857e-06,2.5533846873954043e-06,2.8771973648091464e-06,2.2526536062654204e-06,1.5355239474506274e-06,1.9685134453934826e-06,1.0279146657128058e-06,1.7500239350324796e-06
78,2.4706128637600116e-06,1.6345840629005716e-06,1.4660802797882226e-06,1.314334933627815e-06,2.0470676359008203e-06,1.7649587052600817e-06,2.4278723627369652e-06,5.978676971863604e-06,2.0363009683103097e-06,2.589050978422347e-06,2.512206908971174e-06,2.14000838534271e-06,1.5429392311204332e-06,1.9705182028219254e-06,1.0390462920121517e-06,1.730713265061623e-06
79,2.444725729295399e-06,1.5733520992948778e-06,1.4436925323067806e-06,1.3214248502181981e-06,2.0391596282671495e-06,1.688480658351299e-06,2.4143980632319036e-06,6.010691048270465e-06,2.1131737910083664e-06,2.62298541018404e-06,2.181140672023034e-06,2.045372214542675e-06,1.5583452236089102e-06,1.974666350208029e-06,1.0516680338354504e-06,1.7112443872781387e-06
80,2.414128893984039e-06,1.513287297675548e-06,1.4219620126001228e-06,1.3337977727311773e-06,2.0319760999644825e-06,1.6148956498141005e-06,2.3957098599844955e-06,6.039517688355385e-06,2.198920755184259e-06,2.6555340175431996e-06,1.883378727789525e-06,1.9670878872650836e-06,1.581842614147824e-06,1.9805785224282734e-06,1.0658823034126246e-06,1.691228932862617e-06
81,2.3799515517031633e-06,1.4552228140749857e-06,1.4007778133070097e-06,1.3516540065519463e-06,2.026394695493241e-06,1.5464197583373396e-06,2.3718932156877837e-06,6.0654025896621735e-06,2.2936424293552566e-06,2.686787390648396e-06,1.6182205636076491e-06,1.9034648739893726e-06,1.6133007425106196e-06,1.9879075548958336e-06,1.0817059051602725e-06,1.6706666227201483e-06
82,2.3433276862455544e-06,1.3996747076167884e-06,1.3800571425159188e-06,1.3752803272010395e-06,2.02313999150551e-06,1.4851605054642062e-06,2.343411193616426e-06,6.089064417460069e-06,2.3970833331001755e-06,2.716674895279965e-06,1.3847190345490623e-06,1.852991423680471e-06,1.652344442312463e-06,1.996447550687815e-06,1.0990738989050693e-06,1.6499092282394857e-06
83,2.3052420270282685e-06,1.3469096707916415e-06,1.3599373048955289e-06,1.4049331508609282e-06,2.0229409483676665e-06,1.4331587179061416e-06,2.3111728928089596e-06,6.111752232497489e-06,2.508619696981081e-06,2.7449308363921752e-06,1.18163079580476e-06,1.8143160763725512e-06,1.6983264369237145e-06,2.0061039525666317e-06,1.117855281397709e-06,1.6295377236197668e-06
84,2.266446493347556e-06,1.2970576628167507e-06,1.3408079860815793e-06,1.4407681753513542e-06,2.0264974406560482e-06,1.3923445241726992e-06,2.2764732322607638e-06,6.135287009444818e-06,2.6272697897241766e-06,2.7709808660754017e-06,1.0074768106337162e-06,1.786080366229163e-06,1.7504190839228637e-06,2.0167063917586113e-06,1.1378543395109432e-06,1.6102040141686138e-06
85,2.2275139608673555e-06,1.250231875260602e-06,1.323154733149552e-06,1.4828208156139983e-06,2.034296652033209e-06,1.3645118159373076e-06,2.2409199727986738e-06,6.161841935103492e-06,2.7516778281493204e-06,2.7939202229187753e-06,8.606069133737253e-07,1.7668250248100313e-06,1.8078184673315798e-06,2.0278677441375814e-06,1.158798159346466e-06,1.592489731396804e-06
86,2.189025761426817e-06,1.2065908619964284e-06,1.3073565405641795e-06,1.530992018928459e-06,2.046440710680447e-06,1.3513158841143682e-06,2.206404916476763e-06,6.193423286369827e-06,2.8801060647332215e-06,2.81267837542101e-06,7.392418507171746e-07,1.754972522340936e-06,1.8698321261236009e-06,2.0389775745681546e-06,1.1803074833236984e-06,1.5768186802370243e-06
87,2.151773036711715e-06,1.1662902451609698e-06,1.2935974684428406e-06,1.5850502661855166e-06,2.0625939754674735e-06,1.3542387365749592e-06,2.175071269519471e-06,6.23135406968309e-06,3.0105036844454636e-06,2.826347779962514e-06,6.415073752498738e-07,1.7488521591905296e-06,1.935739679370021e-06,2.049212741401775e-06,1.201904352777113e-06,1.5634310925002012e-06
88,2.1167731322821405e-06,1.129376053212592e-06,1.2819390355396862e-06,1.6446415163186544e-06,2.082065498488059e-06,1.3745536533088899e-06,2.1491945488165154e-06,6.276086550394275e-06,3.1405632163902234e-06,2.834511728928726e-06,5.654482060614803e-07,1.7468073699285333e-06,2.004644635288975e-06,2.057501157798635e-06,1.2231346453358788e-06,1.5524295761180265e-06
89,2.0850381383966588e-06,1.0957319437443866e-06,1.272449310797249e-06,1.7092547759302927e-06,2.104007024030138e-06,1.4133165964837811e-06,2.130969973547893e-06,6.327295387428769e-06,3.2677071425885955e-06,2.837402327450123e-06,5.090436592183185e-07,1.7473088525081799e-06,2.075548856091348e-06,2.0625257758333057e-06,1.2437179750843354e-06,1.5438868572201824e-06
90,2.057295039416279e-06,1.0651035653347691e-06,1.265227565777873e-06,1.7781366694171084e-06,2.1276973706578295e-06,1.4713634283907434e-06,2.1222974731879846e-06,6.384018953438772e-06,3.389180145602759e-06,2.835866113404945e-06,4.7026054714132925e-07,1.7489731559373758e-06,2.147587855318295e-06,2.0628747886340327e-06,1.263542850341908e-06,1.537945180224515e-06
91,2.0338594822581764e-06,1.0371301187170098e-06,1.2603176872302656e-06,1.8501978247090346e-06,2.152816753773134e-06,1.5493052254056715e-06,2.124672775074777e-06,6.444780576492095e-06,3.5023932821470107e-06,2.8311880192942825e-06,4.4710499663904686e-07,1.7505545435202745e-06,2.220228694016606e-06,2.057366056089057e-06,1.2825148436475014e-06,1.5348294100475527e-06
92,2.0146316617490403e-06,1.0113520211572863e-06,1.2576595114577745e-06,1.923952300712058e-06,2.1795068572501227e-06,1.6475268765418755e-06,2.139212061420723e-06,6.507768678290852e-06,3.605369047691469e-06,2.8248240889067252e-06,4.376349962145256e-07,1.7510250915947246e-06,2.2933313289891653e-06,2.045375473078929e-06,1.300441996484459e-06,1.5347637499564419e-06
93,1.9991127242748373e-06,9.872130161649085e-07,1.2571360025980283e-06,1.997504479360488e-06,2.208152150228026e-06,1.766189301872233e-06,2.16671606565285e-06,6.571149266687086e-06,3.6970031235762945e-06,2.818127665897227e-06,4.3996527493291653e-07,1.7497250369934171e-06,2.3670640804679437e-06,2.0269129427774964e-06,1.3170534537743796e-06,1.5378445247993508e-06
94,1.9864736043290345e-06,9.640979448171648e-07,1.2586252710753385e-06,2.0685856892470906e-06,2.2391890414360357e-06,1.905216197201822e-06,2.2076646129568038e-06,6.633418716665519e-06,3.776998978900309e-06,2.812155075572343e-06,4.5227662314505117e-07,1.7464811879164968e-06,2.4417377534984627e-06,2.002444339597217e-06,1.3320695545606727e-06,1.5439650170816116e-06
95,1.9757519143630896e-06,9.414727748277443e-07,1.2619934943031265e-06,2.1347260329826163e-06,2.2731763749846887e-06,2.06428115326096e-06,2.2621692376092405e-06,6.693547342499295e-06,3.845536675609024e-06,2.8075505862022297e-06,4.7281005322652773e-07,1.7416218141674698e-06,2.5177312760563353e-06,1.9726583246255565e-06,1.3452197611627274e-06,1.5528778067084223e-06
96,1.9660980020427128e-06,9.190834516417818e-07,1.2670842140906054e-06,2.19368370467294e-06,2.310903619215279e-06,2.2428698760151053e-06,2.329958289587536e-06,6.750787009266639e-06,3.9028319864238865e-06,2.804507899133668e-06,4.998576621212496e-07,1.735841390010261e-06,2.5955728480583732e-06,1.938284856848128e-06,1.3562075627686351e-06,1.5643139608260011e-06
97,1.9568804374269304e-06,8.970215636101399e-07,1.273789020094152e-06,2.244000711362575e-06,2.353300072290094e-06,2.4404185538485913e-06,2.410400370288832e-06,6.8042971201379604e-06,3.948737905219211e-06,2.8028558131219037e-06,5.317837752641019e-07,1.729938535624525e-06,2.675960016233207e-06,1.8999627580578412e-06,1.3646824911063947e-06,1.5779922858899145e-06
98,1.947605680319841e-06,8.755818391715199e-07,1.2821546249207146e-06,2.285299114171841e-06,2.4012116695472462e-06,2.656437220958293e-06,2.502626110904621e-06,6.852864332016309e-06,3.982582979438104e-06,2.8022145299675095e-06,5.671143708097169e-07,1.724612790212984e-06,2.7595803202950178e-06,1.858181767452632e-06,1.3702399081601112e-06,1.5935922440459218e-06
99,1.9378241942632076e-06,8.550928410608637e-07,1.2923740220065614e-06,2.318099552034823e-06,2.4552005842492808e-06,2.8905594285446076e-06,2.6058148540957465e-06,6.894893394065074e-06,4.003359531091103e-06,2.8020864461125393e-06,6.046526920993809e-07,1.7204556641151154e-06,2.8469107370044762e-06,1.813377459078892e-06,1.3724109141760022e-06,1.6108661441935488e-06
100,1.927185828500388e-06,8.358748789068194e-07,1.3046454554028186e-06,2.3433210048144205e-06,2.515447526532616e-06,3.142500030377587e-06,2.7195132575744888e-06,6.928661184365494e-06,4.010071180610403e-06,2.801847899617695e-06,6.434803023089009e-07,1.7179964420157077e-06,2.938125637952563e-06,1.7661494220826766e-06,1.3706690972288836e-06,1.6297901213716938e-06
101,1.915619739119255e-06,8.182650074163429e-07,1.3190517303920814e-06,2.3617927116277483e-06,2.5817696303999026e-06,3.411886066474936e-06,2.843746845517525e-06,6.952675147571325e-06,4.001958289498753e-06,2.800727707055902e-06,6.828234403334939e-07,1.7176329823660204e-06,3.03305497190244e-06,1.717401415597642e-06,1.3645661226778542e-06,1.650538285115619e-06
102,1.9034921941027416e-06,8.026198894104822e-07,1.3355349300362668e-06,2.374000358077564e-06,2.653770884955998e-06,3.6979812849734385e-06,2.978812986917873e-06,6.965934448527691e-06,3.978565886198748e-06,2.7978715827346033e-06,7.219494708415221e-07,1.7195209384292856e-06,3.1312269582557734e-06,1.6682885026261407e-06,1.3539598827783642e-06,1.6732718982319865e-06
103,1.891585242662743e-06,7.892912057496984e-07,1.3539151498379405e-06,2.380058918431082e-06,2.731040439474417e-06,3.999456522083035e-06,3.1248756159005227e-06,6.967963427609326e-06,3.939834599339283e-06,2.7925258238627493e-06,7.602052130884194e-07,1.7236046076018332e-06,3.232048334090842e-06,1.6200783833599469e-06,1.3391188871877942e-06,1.6979150390531946e-06
104,1.8808562150111378e-06,7.786184244527192e-07,1.3739236379728722e-06,2.379800995569617e-06,2.8131708747812566e-06,4.314311710760645e-06,3.281617028221112e-06,6.958587194506471e-06,3.886352883290421e-06,2.7842914782460516e-06,7.971367284879348e-07,1.7298136197986128e-06,3.334985782607302e-06,1.574034888843332e-06,1.320643379861267e-06,1.7240636739243132e-06
105,1.8721682294354335e-06,7.709562985017807e-07,1.3952522811238263e-06,2.3729471176564195e-06,2.899601578392993e-06,4.63987293563704e-06,3.4480698043455948e-06,6.937470048878794e-06,3.819611767385113e-06,2.7733265315719226e-06,8.325754888103404e-07,1.738222209520138e-06,3.439647807313338e-06,1.531315591773674e-06,1.299364299847817e-06,1.7510763151035513e-06
106,1.8662106126014126e-06,7.666674698071381e-07,1.417576783601384e-06,2.359363542946799e-06,2.9895426494436737e-06,4.972791093936073e-06,3.62257615117101e-06,6.903607228111419e-06,3.7418914163833577e-06,2.7603178788073e-06,8.666350272111798e-07,1.7489956889456536e-06,3.545865433769807e-06,1.4929013389054013e-06,1.2762740233744767e-06,1.7783227312772593e-06
107,1.8635751202591766e-06,7.660620357026771e-07,1.4405129105854004e-06,2.339330212948418e-06,3.0819921693128908e-06,5.309096698707282e-06,3.802833699888004e-06,6.855254370540311e-06,3.655767217142799e-06,2.746170094334605e-06,8.99632699398195e-07,1.7622655121199154e-06,3.6538235684780535e-06,1.4596166903993184e-06,1.252417436009002e-06,1.8054460139276494e-06
108,1.8648013132415415e-06,7.69368468651817e-07,1.4635764646096477e-06,2.313678933635779e-06,3.1756458733421416e-06,5.6443597851740185e-06,3.986030207429743e-06,6.790553987811475e-06,3.563738795616671e-06,2.7316604950588556e-06,9.319780605330407e-07,1.778175827509742e-06,3.7641203994170677e-06,1.4321953899682206e-06,1.2287817677451343e-06,1.8324431942884041e-06
109,1.8702973089404182e-06,7.76760831005496e-07,1.4862192087434131e-06,2.283701497856529e-06,3.2687013859819094e-06,5.973811540786511e-06,4.169052285968196e-06,6.708419035621705e-06,3.4681995369243955e-06,2.7173084992070253e-06,9.640616822380744e-07,1.7970326179107876e-06,3.877663397518375e-06,1.4112786082343673e-06,1.2062503991860673e-06,1.859509479425948e-06
110,1.8802078118378525e-06,7.883777999477223e-07,1.5078534435167174e-06,2.2508641863003983e-06,3.358750843854587e-06,6.2921980231926295e-06,4.348702425875701e-06,6.609101159786623e-06,3.3713857006045742e-06,2.70334418112082e-06,9.961838438641907e-07,1.8193032973370112e-06,3.995467997729628e-06,1.3973279576149532e-06,1.1855959470178914e-06,1.886759821945777e-06
111,1.8943730678030474e-06,8.042952144858211e-07,1.5278066320437714e-06,2.216535448934125e-06,3.4428978757798714e-06,6.5934717043672814e-06,4.521839955059957e-06,6.494338685724958e-06,3.27514593201752e-06,2.6896292086699833e-06,1.028547105655507e-06,1.8454395013746488e-06,4.118462543538486e-06,1.390534971250397e-06,1.1674718769594754e-06,1.914010921861275e-06
112,1.912417082883536e-06,8.244936293232564e-07,1.545326508404193e-06,2.18190759298237e-06,3.518086074084946e-06,6.870739846777125e-06,4.685465785373565e-06,6.367243184015962e-06,3.1807715513520717e-06,2.6756994913452663e-06,1.0612741046569789e-06,1.8757365404218276e-06,4.247327550693369e-06,1.3907926047113098e-06,1.152371031492534e-06,1.9407489145200038e-06
113,1.933854954674643e-06,8.488572802529615e-07,1.5597254299015985e-06,2.148020787369708e-06,3.5815314133517387e-06,7.116692152933237e-06,4.836858372884923e-06,6.232012824228648e-06,3.0890395928353964e-06,2.6609916094574787e-06,1.0944414745506643e-06,1.9103712374599564e-06,4.382401736524617e-06,1.397714268706898e-06,1.1405667671712065e-06,1.9662504384815324e-06
114,1.9581284953827095e-06,8.771855923856984e-07,1.570598959401557e-06,2.1157105244949103e-06,3.631168774898779e-06,7.324374239441671e-06,4.973740448967755e-06,6.093503876399025e-06,3.000436717020593e-06,2.64496759122453e-06,1.1281686162755956e-06,1.9494900053929646e-06,4.52373290339374e-06,1.4106811928096092e-06,1.132094052713265e-06,1.989718109496956e-06
115,1.98462448677297e-06,9.09229337817482e-07,1.5779923211504461e-06,2.085514979058548e-06,3.665998472817347e-06,7.488001612926718e-06,5.0942284334213265e-06,5.956762917060909e-06,2.9154123177835366e-06,2.6270667325441757e-06,1.162678068383782e-06,1.9931413520168493e-06,4.671192987990066e-06,1.428936312195127e-06,1.1267864119284604e-06,2.010361302496548e-06
116,2.012777349631082e-06,9.447778832348096e-07,1.5824121244834386e-06,2.0576442497704136e-06,3.686103202517123e-06,7.603534703096571e-06,5.196418726342083e-06,5.826605970093199e-06,2.8344479402599076e-06,2.606729743986163e-06,1.19821301178276e-06,2.04109747170818e-06,4.824405734502363e-06,1.451676942924581e-06,1.1243419724601563e-06,2.0274734039346694e-06
117,2.04224540314338e-06,9.837545614272835e-07,1.5846819838269826e-06,2.032027312536836e-06,3.6922032315697253e-06,7.668870269470332e-06,5.277945252410906e-06,5.707227864428416e-06,2.7579294271178735e-06,2.5834874701391857e-06,1.234884476833942e-06,2.092739666302726e-06,4.982430575824754e-06,1.4781005889643763e-06,1.124384272385171e-06,2.040525518728536e-06
118,2.073031612269099e-06,1.0262559776870048e-06,1.5857417528413061e-06,2.0084591822680676e-06,3.6849853464149867e-06,7.683521469044407e-06,5.33595765045527e-06,5.601906713587404e-06,2.686049187849127e-06,2.5569551051762383e-06,1.2725916446472192e-06,2.147019879604026e-06,5.143470527498277e-06,1.5075097560601535e-06,1.1265043191367707e-06,2.049198612424908e-06
119,2.1054188846493195e-06,1.0725031078971174e-06,1.5864713807180035e-06,1.9868080632983257e-06,3.6646604263205063e-06,7.64777351931726e-06,5.367523690730022e-06,5.512955713699312e-06,2.618825671039693e-06,2.526808977118329e-06,1.3110582447913447e-06,2.20245257656624e-06,5.3049253504333095e-06,1.5394949684405118e-06,1.1302784652193893e-06,2.053327675578142e-06
120,2.1397313722409537e-06,1.1227193204559602e-06,1.5875657353400665e-06,1.967152256491875e-06,3.630985399967478e-06,7.561897966205107e-06,5.370216695445335e-06,5.4418726459420795e-06,2.5561322185522762e-06,2.4927843444560693e-06,1.349918289167131e-06,2.257207688523877e-06,5.46392661256095e-06,1.5739708552295033e-06,1.1352563020046763e-06,2.0528628542358347e-06
121,2.1761097843220505e-06,1.1770119250756166e-06,1.58948516336421e-06,1.949797165426045e-06,3.583621015238076e-06,7.426318914237091e-06,5.342722424485172e-06,5.389460257157593e-06,2.4977796946686367e-06,2.454630030563609e-06,1.3887450278177192e-06,2.3093742634981547e-06,5.6181139941249155e-06,1.6109627865070875e-06,1.14098682261243e-06,2.047928254289692e-06
122,2.214431408215917e-06,1.2353166486849459e-06,1.592466474973881e-06,1.9352113280887755e-06,3.52257356199696e-06,7.242738408061862e-06,5.28527208543813e-06,5.355814871187535e-06,2.4437284359583597e-06,2.41216899816978e-06,1.4270441620841243e-06,2.3572862288261624e-06,5.766063015520283e-06,1.6503389362662357e-06,1.1471539564377016e-06,2.038909380432745e-06
123,2.2543185452662123e-06,1.297392082351582e-06,1.5965504186753305e-06,1.9238967830292987e-06,3.4485068872394153e-06,7.015203437751183e-06,5.199706143036795e-06,5.3402635588733575e-06,2.3942756832688712e-06,2.365513038533768e-06,1.4642855305752151e-06,2.3997376530098986e-06,5.9069853766713615e-06,1.6916854470675476e-06,1.1537326163115444e-06,2.0264163916322873e-06
124,2.295182936629268e-06,1.3628263012853452e-06,1.6016430987491446e-06,1.916227084199943e-06,3.3627949459167315e-06,6.750293655000843e-06,5.0891747888410325e-06,5.341345033863363e-06,2.3500198880482844e-06,2.3151194980932933e-06,1.4999195809365168e-06,2.4360864973215035e-06,6.0399540815469075e-06,1.7343128266829066e-06,1.1610132060878043e-06,2.0110794310988874e-06
125,2.3362717282215774e-06,1.431035821108514e-06,1.6076194142467104e-06,1.912359032632355e-06,3.267360380014999e-06,6.456426978456602e-06,4.9576574660758625e-06,5.356831536388441e-06,2.311607118906597e-06,2.261590658571092e-06,1.5333885342500125e-06,2.4663262001400575e-06,6.163244108861602e-06,1.7772670233663367e-06,1.1694628053330862e-06,1.993366079366522e-06
126,2.376679880590471e-06,1.5013040633300764e-06,1.6144067683765264e-06,1.9122611520483817e-06,3.164462167489775e-06,6.142729329736445e-06,4.809444302461023e-06,5.38376146039852e-06,2.2794741835641493e-06,2.205530766648546e-06,1.5642425626000009e-06,2.4910710005841304e-06,6.274125642515661e-06,1.8193210543665205e-06,1.1795153056254653e-06,1.9735895806690336e-06
127,2.4154142279512542e-06,1.5728985135001397e-06,1.6219922565091375e-06,1.9157871820785803e-06,3.056517140460226e-06,5.817968384121963e-06,4.648627851592494e-06,5.4185507992132025e-06,2.2537489097646704e-06,2.1476268592033147e-06,1.592290255121886e-06,2.5113358046578383e-06,6.369008249598025e-06,1.859059160116268e-06,1.1914115519169767e-06,1.952007701361717e-06
128,2.4515577517333684e-06,1.6451494638408846e-06,1.6303453731803234e-06,1.922747701473723e-06,2.945932594030723e-06,5.489874127204887e-06,4.478725460852104e-06,5.457269200230987e-06,2.2342543825577545e-06,2.088757650498185e-06,1.6175843865485734e-06,2.5281736681906053e-06,6.443760155339455e-06,1.8951209214902782e-06,1.20513953012953e-06,1.928876374904084e-06
129,2.484448041746458e-06,1.7173894698643998e-06,1.6393380173428036e-06,1.932968138815438e-06,2.8349507577450522e-06,5.164870132267945e-06,4.302621082355307e-06,5.495989602807004e-06,2.2205226725131383e-06,2.0299158534274514e-06,1.6402213629512002e-06,2.5424569305151227e-06,6.494165935390771e-06,1.9265108054486444e-06,1.2204449214380693e-06,1.9044702608283536e-06
130,2.5138123602448856e-06,1.7888887867198614e-06,1.6487608046103297e-06,1.946305564430436e-06,2.725552350418137e-06,4.84805432591313e-06,4.1227930513931385e-06,5.531002025952641e-06,2.2117681476176847e-06,1.971978362011119e-06,1.660137126149362e-06,2.5549327516320532e-06,6.516516501966742e-06,1.952798094733385e-06,1.2368763120604174e-06,1.879094685945711e-06
131,2.5398154182616367e-06,1.85887793012422e-06,1.6583883752368558e-06,1.9626387906338627e-06,2.6194321215152444e-06,4.543300176902304e-06,3.941525129710345e-06,5.558837183141046e-06,2.2068060940148015e-06,1.91552622085788e-06,1.6770147033273366e-06,2.5663212282266595e-06,6.508320324677036e-06,1.9741333224984694e-06,1.2538319145892888e-06,1.8530925359010982e-06
132,2.5629399090536454e-06,1.92653271891213e-06,1.667997769734049e-06,1.9818755923035177e-06,2.5180162918625398e-06,4.253462714339569e-06,3.7608828039855633e-06,5.576291242910621e-06,2.2040299954826026e-06,1.8608181149712996e-06,1.6902503878243925e-06,2.577269577039968e-06,6.469009624655772e-06,1.9911472890889387e-06,1.2705905803632133e-06,1.8269051710601072e-06
133,2.583708231007218e-06,1.990969862462944e-06,1.6773642688135027e-06,2.0039528531983884e-06,2.422481570623272e-06,3.9806818967761475e-06,3.5825242568290876e-06,5.5806572614939105e-06,2.201630356420959e-06,1.8078855960718235e-06,1.6989709472087251e-06,2.5883178086441432e-06,6.400267079555166e-06,2.0047959981761155e-06,1.2863683419479056e-06,1.8011976605430908e-06
134,2.6024120678869444e-06,2.0514361822381583e-06,1.6862935012055102e-06,2.028752986931597e-06,2.333735365517098e-06,3.726663298474462e-06,3.4075433219365134e-06,5.5700712896166855e-06,2.1980551332063164e-06,1.7567426011924117e-06,1.7021915356289824e-06,2.600066722978554e-06,6.305648821629344e-06,2.016158317580189e-06,1.3004106032728171e-06,1.7768917368053957e-06
135,2.619043767464672e-06,2.107556573610587e-06,1.6946710076595414e-06,2.055939463562635e-06,2.2523515993854217e-06,3.492774771009115e-06,3.236456191648093e-06,5.543553406045448e-06,2.192399330616644e-06,1.7076387409483225e-06,1.6990766813429685e-06,2.613381056883838e-06,6.189718978153403e-06,2.0262219136547357e-06,1.312068713484157e-06,1.7549920356342972e-06
136,2.6334202155201564e-06,2.159347343340872e-06,1.7024631913280573e-06,2.0848186208320008e-06,2.17853402313558e-06,3.2799446314559904e-06,3.06932841418304e-06,5.500520171686412e-06,2.184384054848937e-06,1.6611501839661034e-06,1.6891142713886586e-06,2.6293001198547686e-06,6.057299094945931e-06,2.0357536250814933e-06,1.3208494194966975e-06,1.7363563767397312e-06
137,2.6452915557219493e-06,2.206958112620948e-06,1.7096426512095226e-06,2.114311812963871e-06,2.1121895490670096e-06,3.0885454400752206e-06,2.906007396711604e-06,5.440270263609627e-06,2.1740103307158617e-06,1.6180615453343167e-06,1.6721186506097243e-06,2.6487001333498493e-06,5.913068449637545e-06,2.0453012894336157e-06,1.3264284399958126e-06,1.721598209411424e-06
138,2.654326485851138e-06,2.250365714144759e-06,1.7161125665970073e-06,2.1430703809992075e-06,2.0530565015872373e-06,2.9184576491845152e-06,2.746399115298671e-06,5.362086057792539e-06,2.16131788153069e-06,1.5792354496346e-06,1.6481818613061417e-06,2.672032580988105e-06,5.761253399859239e-06,2.0552231223020376e-06,1.328639966480578e-06,1.711113812316607e-06
139,2.660091209835871e-06,2.289235640146195e-06,1.721736247502101e-06,2.1697565135128226e-06,2.0007531356140357e-06,2.7693187842143924e-06,2.5906769638104687e-06,5.265816863259358e-06,2.1464367617552444e-06,1.5455343972348465e-06,1.6177075077977782e-06,2.699281802219062e-06,5.605328899480227e-06,2.065637714081319e-06,1.3275469727574428e-06,1.7051926177777128e-06
140,2.6621548449856916e-06,2.3229600448418355e-06,1.7264576286457819e-06,2.193411238844357e-06,1.9547751493688145e-06,2.640820165949421e-06,2.4393470867838185e-06,5.152372788105541e-06,2.129681297055462e-06,1.517712938019224e-06,1.5815140323694083e-06,2.730116415106664e-06,5.447910863727815e-06,2.0763450219870366e-06,1.323544885751156e-06,1.7041583784151314e-06
141,2.660265145930685e-06,2.3507520592780494e-06,1.7303792999040878e-06,2.2136896105853763e-06,1.914601698490058e-06,2.53288354489637e-06,2.293216419890814e-06,5.023836314034936e-06,2.1114436472689913e-06,1.4963698453639834e-06,1.5408822798198755e-06,2.764157681763621e-06,5.290775747283229e-06,2.086825205621748e-06,1.3172738853612758e-06,1.7083785866543976e-06
142,2.654402180723918e-06,2.371736871606365e-06,1.7337101377321935e-06,2.2307722264209975e-06,1.8799168768125915e-06,2.445583103502863e-06,2.1533478408644336e-06,4.883169971836136e-06,2.091950108977063e-06,1.4820172928784174e-06,1.4974597994879122e-06,2.801146764013872e-06,5.134854545964867e-06,2.0963814678138845e-06,1.3093708339633461e-06,1.7181054177887947e-06
143,2.6446191369952993e-06,2.385104303403506e-06,1.7366427630714341e-06,2.245006689478598e-06,1.850765704525566e-06,2.3788575199383532e-06,2.020979507761581e-06,4.733649912215953e-06,2.071063488750352e-06,1.4750943837429999e-06,1.4530443472064824e-06,2.840832407454825e-06,4.980253693904133e-06,2.104409407954355e-06,1.3003193325163497e-06,1.7333220603916525e-06
144,2.6307840146447425e-06,2.390385484984028e-06,1.7392882470070637e-06,2.2565868113951593e-06,1.8275203517571387e-06,2.3322626242103306e-06,1.8973455813182554e-06,4.578268456311281e-06,2.0482129941418205e-06,1.4758680152711294e-06,1.4093374222601651e-06,2.8827454039324605e-06,4.826386719735976e-06,2.1106297950649233e-06,1.290479436422779e-06,1.753684048044846e-06
145,2.6124224775056425e-06,2.3877323318613966e-06,1.7417004146814802e-06,2.2654990311025606e-06,1.8107215765944454e-06,2.3049484920485103e-06,1.7834809358455413e-06,4.4193069661080605e-06,2.0224702142649217e-06,1.484351183064824e-06,1.3677709739718376e-06,2.926169748154302e-06,4.672244179493724e-06,2.1150919161991266e-06,1.2801797588353266e-06,1.7785068917116672e-06
146,2.5888383603807493e-06,2.3779630921616858e-06,1.743888320709303e-06,2.2716320469041268e-06,1.8009192675272692e-06,2.2957757204256223e-06,1.6801386736349162e-06,4.258208686315493e-06,1.9928067920574537e-06,1.5002958856320444e-06,1.3294479446958746e-06,2.970344940587927e-06,4.516802022741286e-06,2.1179675445914063e-06,1.269752765237906e-06,1.8068262816013489e-06
147,2.5595176353914816e-06,2.3622904935091845e-06,1.745738039168733e-06,2.2748374068057542e-06,1.7985507171019125e-06,2.3033757393433364e-06,1.5877900068798119e-06,4.095812603436401e-06,1.958454019161058e-06,1.5232625872155004e-06,1.2951477317972438e-06,3.0147209830693742e-06,4.359467205691482e-06,2.119396496113128e-06,1.2594884996748973e-06,1.8375840536378193e-06
148,2.524540737933922e-06,2.3418952697980093e-06,1.7469205465225568e-06,2.274910065578887e-06,1.803865482716639e-06,2.326103068379312e-06,1.5066126976178194e-06,3.932814624834113e-06,1.919178059883324e-06,1.5527271165054943e-06,1.265346871722859e-06,3.0591678254504648e-06,4.200353420303062e-06,2.1195342352681067e-06,1.2495593541518743e-06,1.869795426826076e-06
149,2.48468889370009e-06,2.3175850098296122e-06,1.7468915916010684e-06,2.2715978344522745e-06,1.8169109729006473e-06,2.3620044862899504e-06,1.436459065454705e-06,3.7700968983867363e-06,1.8754021646997207e-06,1.5880949210842764e-06,1.2402646382840547e-06,3.1040955899260027e-06,4.040223368785453e-06,2.118614839108126e-06,1.240001963580855e-06,1.9025162420167656e-06
150,2.4411904318902424e-06,2.2896691682429645e-06,1.7449793620400436e-06,2.2647026794816375e-06,1.837530834457833e-06,2.4089373208715967e-06,1.3768430410082408e-06,3.608675377256649e-06,1.8281807337556078e-06,1.6286097921057962e-06,1.2199444454377133e-06,3.1503881125336634e-06,3.880174324988911e-06,2.1168731487294906e-06,1.2307993564469297e-06,1.9347336393293125e-06
151,2.395331729320421e-06,2.2580737119543707e-06,1.7405469760771287e-06,2.2542107035601445e-06,1.8653687381156196e-06,2.4647551764108962e-06,1.3269883369469655e-06,3.4495579999693316e-06,1.7790033054216755e-06,1.6732755935634448e-06,1.204316578541752e-06,3.1991179095724156e-06,3.7213587796977893e-06,2.1144316200398266e-06,1.2219712002097965e-06,1.9654067018577974e-06
152,2.3482571637382703e-06,2.2226645975304045e-06,1.733221853569482e-06,2.2403365503478483e-06,1.8999400355750838e-06,2.5273299407816552e-06,1.2859742084715774e-06,3.2938897749856913e-06,1.729514473821472e-06,1.7208147211572337e-06,1.1931791049480728e-06,3.251163943403565e-06,3.5649057400446476e-06,2.1112220958452635e-06,1.2135607832682596e-06,1.9935972544895137e-06
153,2.301042415316071e-06,2.183624666731462e-06,1.7230541839321998e-06,2.2234411390952467e-06,1.9406975434884725e-06,2.59441674117449e-06,1.2529495280963917e-06,3.143103313699277e-06,1.6813095350327366e-06,1.7696599041324992e-06,1.186139088116271e-06,3.3069136351775166e-06,3.4118964938205375e-06,2.1069282035151816e-06,1.2055649182905632e-06,2.018472318508851e-06
154,2.254793112792239e-06,2.1416229559989016e-06,1.7104430116049266e-06,2.203901612224241e-06,1.9869839876047267e-06,2.663627791021644e-06,1.227279713733281e-06,2.9986837416148e-06,1.6358363566785518e-06,1.8180559277489854e-06,1.182637338308648e-06,3.3661734267933052e-06,3.2632085386682317e-06,2.1010399416394966e-06,1.1979003555134459e-06,2.0391526881095063e-06
155,2.2105672956746432e-06,2.0976535775702445e-06,1.6958820616738596e-06,2.1820616795091924e-06,2.037994563719312e-06,2.732615684279792e-06,1.2085046934982787e-06,2.8617680812840504e-06,1.5943285466271518e-06,1.8642878475623292e-06,1.1821070772568755e-06,3.4282658440963238e-06,3.1192955214610905e-06,2.093104459381063e-06,1.190375581497376e-06,2.054664280804718e-06
156,2.1691879182681595e-06,2.0527304718603567e-06,1.6797488764310062e-06,2.1583092442297825e-06,2.092884686350389e-06,2.7993282361548363e-06,1.1961523007429723e-06,2.7329814944457938e-06,1.5577388698118567e-06,1.9069280626160596e-06,1.1841660194380705e-06,3.4921351823756383e-06,2.9801844686937994e-06,2.0830148047761165e-06,1.1826517083984903e-06,2.064197856682523e-06
157,2.1311066579574747e-06,2.0077209280387187e-06,1.6622582496390129e-06,2.13317895658418e-06,2.150907679967695e-06,2.862232137261019e-06,1.1895660830491568e-06,2.612593722625369e-06,1.5267137963360326e-06,1.9449884799365023e-06,1.188690452065979e-06,3.5563237108085344e-06,2.8458419321822484e-06,2.0710412263853674e-06,1.1743052804814665e-06,2.0675009480776993e-06
158,2.09638414758109e-06,1.963335478006816e-06,1.643490411933102e-06,2.1073166790976605e-06,2.211426694027069e-06,2.9204659940848917e-06,1.1878620406616122e-06,2.5008393147568912e-06,1.5016620441282161e-06,1.977936255273192e-06,1.1957269056501324e-06,3.6189546859421347e-06,2.7166229716821054e-06,2.057558741435283e-06,1.164972958756385e-06,2.0650866851062495e-06
159,2.06476945859287e-06,1.9200881975138728e-06,1.623419132700293e-06,2.081290495824314e-06,2.2737894262469886e-06,2.9738470987687427e-06,1.190036606041809e-06,2.39816284037315e-06,1.4829259703920018e-06,2.0055867298840825e-06,1.2053300302841222e-06,3.6779749026449732e-06,2.593349098299462e-06,2.0427204687198675e-06,1.1543918261008328e-06,2.0581443311529426e-06
160,2.0358538413690353e-06,1.8781809303126542e-06,1.6020431893294513e-06,2.055435829048536e-06,2.337164882245922e-06,3.0226937988628124e-06,1.19515888731589e-06,2.3052078496989296e-06,1.4709669920662027e-06,2.027947313856256e-06,1.217430098334669e-06,3.731621233679761e-06,2.4769687389821797e-06,2.026300769939369e-06,1.142363910848819e-06,2.0482155396402793e-06
161,2.0091992582452667e-06,1.8374275721524715e-06,1.5796568818149557e-06,2.029879521824635e-06,2.4004900412850036e-06,3.0675141066990063e-06,1.2025034950828502e-06,2.2226152385860665e-06,1.4663985717446665e-06,2.0451429857348346e-06,1.231765210130672e-06,3.7788004597199185e-06,2.3681585230632764e-06,2.0077712855072173e-06,1.1287941610648196e-06,2.036804465727242e-06
162,1.9843768019070783e-06,1.7973189133090919e-06,1.5570393200214162e-06,2.0047114948494034e-06,2.462550597648489e-06,3.108662599524959e-06,1.211535405509523e-06,2.15086879530801e-06,1.4698408043872979e-06,2.0574402244559805e-06,1.2478956182206177e-06,3.8191712644490864e-06,2.267154488633426e-06,1.9865621995315186e-06,1.1137030865957405e-06,2.0251059592450682e-06
163,1.9610526397394517e-06,1.7572597869311028e-06,1.535356418786908e-06,1.9802213768095976e-06,2.5220709884589836e-06,3.146140429983593e-06,1.2218058162625764e-06,2.090256727550401e-06,1.4817999402927284e-06,2.0652284223900004e-06,1.2653269966617687e-06,3.852974302273724e-06,2.173863327978583e-06,1.962349800259868e-06,1.0971186755151872e-06,2.013915594171566e-06
164,1.939144140287291e-06,1.7169037403711097e-06,1.5158585283424057e-06,1.957072154101442e-06,2.577790152660382e-06,3.179655723471222e-06,1.232856012459356e-06,2.0408344804953107e-06,1.5026846436171955e-06,2.068968316970786e-06,1.2836537991216815e-06,3.8807936017257075e-06,2.0881570692677486e-06,1.9351703788185833e-06,1.079021039947331e-06,2.0036593751411806e-06
165,1.918802124632001e-06,1.6764145548539958e-06,1.4996269947268918e-06,1.936246435072771e-06,2.6286330254641838e-06,3.208827367188836e-06,1.2441477774234407e-06,2.002386602566654e-06,1.5328328550326392e-06,2.0691959758761132e-06,1.302547384397379e-06,3.903416746734516e-06,2.010127590962266e-06,1.9053036414595043e-06,1.0594498386246996e-06,1.9944278356958572e-06
166,1.9001646245995374e-06,1.6365182031002254e-06,1.4874801418551069e-06,1.918772643759262e-06,2.6739399727275027e-06,3.2333650406471997e-06,1.2550238118524787e-06,1.9745322389206487e-06,1.5724683600914327e-06,2.066443741459969e-06,1.3216160358621004e-06,3.921847372603234e-06,1.9400877587078787e-06,1.8730432523358575e-06,1.0386080537587077e-06,1.9859478336357843e-06
167,1.8831221747969724e-06,1.5983259783103772e-06,1.4799520177617502e-06,1.9054417729140874e-06,2.713484495650623e-06,3.2531914839263323e-06,1.2647845642323382e-06,1.9570179917482378e-06,1.62163480954874e-06,2.0610481310713283e-06,1.340345378779651e-06,3.937369940246428e-06,1.878363920358057e-06,1.838492623060874e-06,1.016825500018106e-06,1.9775414774304208e-06
168,1.8672473121730319e-06,1.5630550144842508e-06,1.4772838614836198e-06,1.896666038580686e-06,2.7471581932095263e-06,3.268489326343152e-06,1.2728861395142461e-06,1.9499439234774817e-06,1.680150900061408e-06,2.0530714697079993e-06,1.3581586275837793e-06,3.9514723794574715e-06,1.8251421761124464e-06,1.8014690392883087e-06,9.944968533472542e-07,1.968154437051913e-06
169,1.8518971638548703e-06,1.5318341509456137e-06,1.4794338191883644e-06,1.892453101956333e-06,2.7746436070046756e-06,3.279639945789071e-06,1.279050706425486e-06,1.9536633577831315e-06,1.7476619985847424e-06,2.042386707818954e-06,1.3744746175835884e-06,3.965545778968464e-06,1.7804983793376962e-06,1.7615811429986866e-06,9.720979595625242e-07,1.9565230665240375e-06
170,1.83643590306124e-06,1.5056309521252148e-06,1.4860776116253581e-06,1.8924428905655525e-06,2.7954160852986013e-06,3.2871330335147908e-06,1.2832001613716079e-06,1.9685376139198556e-06,1.8238283620799614e-06,2.028790718575077e-06,1.3887903459209334e-06,3.9805490060218335e-06,1.7444950531030667e-06,1.718492784389149e-06,9.501782574802745e-07,1.941486663440169e-06
171,1.8203699271995784e-06,1.4851990641396412e-06,1.496597291066367e-06,1.8960045848455827e-06,2.808965525477644e-06,3.291579495635367e-06,1.2854150997745172e-06,1.994813006030196e-06,1.908477761684009e-06,2.0120487872306886e-06,1.4008950628397558e-06,3.996901465832528e-06,1.7172096914538067e-06,1.672235181351015e-06,9.292733891212235e-07,1.9222863607814077e-06
172,1.8032689454076751e-06,1.4710134171857129e-06,1.510106470569441e-06,1.9023934787476402e-06,2.814922081038627e-06,3.293794346783598e-06,1.2860325184912135e-06,2.0325339488172203e-06,2.001540692467314e-06,1.9918019839481444e-06,1.411086396188965e-06,4.014620372952405e-06,1.698657394133012e-06,1.6233466163090085e-06,9.098372505628828e-07,1.898694324891637e-06
173,1.7846877546621685e-06,1.463233183517595e-06,1.5255464887453728e-06,1.9109430096249628e-06,2.8129773653715044e-06,3.2947570688017666e-06,1.2857360644952275e-06,2.0814154732091136e-06,2.102883571693629e-06,1.9674299388125646e-06,1.4201619030641595e-06,4.033476106796165e-06,1.6886550144219807e-06,1.5727490571249399e-06,8.922326960403603e-07,1.8710068522853549e-06
174,1.7642266924814491e-06,1.461703412043862e-06,1.541877584283773e-06,1.9212239291110386e-06,2.8027546270937605e-06,3.295364886497535e-06,1.2854896171545324e-06,2.1407855723487185e-06,2.2122322184617163e-06,1.9381505505978535e-06,1.4291922125841587e-06,4.052961660811211e-06,1.6867085441768096e-06,1.5214578591705896e-06,8.767254723688165e-07,1.8399867280445068e-06
175,1.7415488435065382e-06,1.465994073083324e-06,1.5583560008139233e-06,1.9330882428026498e-06,2.7838315211102356e-06,3.2961449964462223e-06,1.2863358180338085e-06,2.209606493576136e-06,2.329145883123623e-06,1.9034515044360864e-06,1.4392459737197418e-06,4.0721140583811575e-06,1.6919651202262842e-06,1.4703202595058193e-06,8.634576022878159e-07,1.8067387917266482e-06
176,1.7163489403420544e-06,1.4754831930538285e-06,1.5747594500370048e-06,1.9465758382925643e-06,2.7559393039659023e-06,3.297153088929399e-06,1.2892102161149522e-06,2.2864900453661345e-06,2.4530049243974814e-06,1.8635378158260662e-06,1.4512049968351411e-06,4.089456869429079e-06,1.7032597297823692e-06,1.41993574958062e-06,8.524352262374921e-07,1.7724882811587146e-06
177,1.6884143676324786e-06,1.489434510532446e-06,1.5913639705195021e-06,1.961737963093332e-06,2.7191876512133163e-06,3.2980706136015707e-06,1.2948631283204918e-06,2.3697155068947714e-06,2.583162038709809e-06,1.819390438949503e-06,1.465701150397006e-06,4.103207215975581e-06,1.7192672253922436e-06,1.3707182244556064e-06,8.435570519831113e-07,1.7383585225783188e-06
178,1.6576505557820047e-06,1.506995499467007e-06,1.6086959939506593e-06,1.9784869913104805e-06,2.674146316922286e-06,3.298326074813002e-06,1.3038323414407045e-06,2.4573699863158265e-06,2.7192686847751942e-06,1.7724517274460284e-06,1.483127837986373e-06,4.111535472799779e-06,1.73864969138788e-06,1.3229857267894775e-06,8.366576480635224e-07,1.7052644030577155e-06
179,1.6240296271711551e-06,1.5271533644504068e-06,1.6273210510673534e-06,1.9965584585451016e-06,2.621689714733482e-06,3.297130335179447e-06,1.3164308658605351e-06,2.5476895411357534e-06,2.8615217432538984e-06,1.7243429147286904e-06,1.5036918321106523e-06,4.112646868118574e-06,1.7600680372445283e-06,1.2770465316799662e-06,8.315458407285011e-07,1.6738773745349427e-06
180,1.5876400093172873e-06,1.5487562806132767e-06,1.6477656007849226e-06,2.0155332021200555e-06,2.562689299810498e-06,3.293477134165155e-06,1.332769339156244e-06,2.6394695227592863e-06,3.0106280044417272e-06,1.6767906069361237e-06,1.5274596417050893e-06,4.104738976937735e-06,1.7821602403519846e-06,1.2332420451487545e-06,8.280287717910344e-07,1.6445801059893491e-06
181,1.5487852205308307e-06,1.570588514660879e-06,1.6704257758780438e-06,2.0348408646768102e-06,2.497847453290685e-06,3.2862270866037767e-06,1.352779558316827e-06,2.73226014748793e-06,3.1675087845599106e-06,1.6315605670930137e-06,1.5543317283661692e-06,4.086037198781794e-06,1.8036983291314228e-06,1.1919296504093822e-06,8.259101710826452e-07,1.617437756696303e-06
182,1.5079759666828668e-06,1.5913859697989665e-06,1.6954323881801352e-06,2.053818225755415e-06,2.4278431911746315e-06,3.2743308472814194e-06,1.3762346385974055e-06,2.8261679644646378e-06,3.3329030816810466e-06,1.5903064393310054e-06,1.5839784437343291e-06,4.055009705958113e-06,1.8238129604426635e-06,1.1534684692179275e-06,8.249928326974416e-07,1.5922329113871813e-06
183,1.4658654275000494e-06,1.6097981419842594e-06,1.7225738461631934e-06,2.0718968293008935e-06,2.35359406681568e-06,3.2571073282541146e-06,1.4027841715606164e-06,2.9213792948764764e-06,3.5070637930992406e-06,1.5544445257364991e-06,1.615865973806274e-06,4.010672671112822e-06,1.8419615246293587e-06,1.118208324089104e-06,8.250895237712656e-07,1.5685752180940154e-06
184,1.4231964887114289e-06,1.6244619789707254e-06,1.7513074011525745e-06,2.0888084344354653e-06,2.276361684962218e-06,3.234409479741871e-06,1.4319553433565932e-06,3.0177176241309105e-06,3.689644778855058e-06,1.5251003743544245e-06,1.6493901400528234e-06,3.952833581155377e-06,1.8576696222444877e-06,1.0864446767373582e-06,8.260075208018055e-07,1.5460606758619232e-06
185,1.3807188067094958e-06,1.6342589397975717e-06,1.7808476501608048e-06,2.104648029884216e-06,2.197618137710555e-06,3.206577897897633e-06,1.4631468623214498e-06,3.1144130889780578e-06,3.8797347116711175e-06,1.5031072263270905e-06,1.6839533156729379e-06,3.8821877536100024e-06,1.870416195425741e-06,1.0583979381459824e-06,8.275315716913275e-07,1.5244068018631759e-06
186,1.3390983386483177e-06,1.6385941229711634e-06,1.810309084976976e-06,2.1197717489151937e-06,2.1187658993719495e-06,3.1742273464034616e-06,1.4957216075444462e-06,3.2100270532754928e-06,4.075977374049719e-06,1.4890477932000765e-06,1.7188901829228584e-06,3.800246570192806e-06,1.8798372005460978e-06,1.034247421194538e-06,8.294712051965306e-07,1.5034953628533275e-06
187,1.2989229391225052e-06,1.6374941298263863e-06,1.8388426073395212e-06,2.1345993664322925e-06,2.0408942977771495e-06,3.1379675634681234e-06,1.529166452288531e-06,3.302477007966111e-06,4.276731313088681e-06,1.483316008075346e-06,1.7533540353854758e-06,3.70915372958512e-06,1.8860357135904886e-06,1.01413948641419e-06,8.317580283086839e-07,1.4832916397000983e-06
188,1.2607690370490952e-06,1.6314767620783994e-06,1.8657139220869336e-06,2.1493957548683517e-06,1.964691528296964e-06,3.098148709078368e-06,1.5631972369951469e-06,3.3892002195703286e-06,4.480229705529885e-06,1.4861629376438911e-06,1.786256933140864e-06,3.611485810335608e-06,1.8896764446674666e-06,9.98170906864558e-07,8.344689220846225e-07,1.4636664500838574e-06
189,1.2252038590742025e-06,1.6213103972492858e-06,1.890277418104806e-06,2.1641427251612713e-06,1.8905258102602633e-06,3.054791187965486e-06,1.5977799486671198e-06,3.467449353820858e-06,4.684761712419239e-06,1.497679628741298e-06,1.8162614026734757e-06,3.510033871069782e-06,1.8917684604039966e-06,9.864187793119165e-07,8.377213940033299e-07,1.4442443865013096e-06
190,1.1927631639120983e-06,1.607831659605003e-06,1.911840117957188e-06,2.1785740427472036e-06,1.818652770362874e-06,3.007801801993001e-06,1.6330791147798238e-06,3.5346622063555054e-06,4.888841427812399e-06,1.5177239196843742e-06,1.8418765526864617e-06,3.407508711100664e-06,1.8933209806930422e-06,9.789749113256675e-07,8.415601069617984e-07,1.4244265752599862e-06
191,1.163992874668929e-06,1.59188458528281e-06,1.9295645578637807e-06,2.1923002674172903e-06,1.7493940037818553e-06,2.9572816590051026e-06,1.669300208595918e-06,3.588879990741675e-06,5.0912549743928685e-06,1.5458849619151368e-06,1.8616820328445617e-06,3.3062220960674296e-06,1.8951160126327289e-06,9.759249742007407e-07,8.459571938189799e-07,1.4036230907952145e-06
192,1.1395006974876076e-06,1.5742889235501175e-06,1.9425688716249266e-06,2.2049522136845723e-06,1.6831270746907577e-06,2.9036689328866853e-06,1.7064805354287563e-06,3.6291198508490365e-06,5.291037701801252e-06,1.5815156047382537e-06,1.8745503011528785e-06,3.2078744863480685e-06,1.8976626076257408e-06,9.7731205350883e-07,8.508829612668056e-07,1.3815496734181972e-06
193,1.1199597056948242e-06,1.5557538036837892e-06,1.9501383441321112e-06,2.2163842020641866e-06,1.6201719373289145e-06,2.8477201987693067e-06,1.7443991501373177e-06,3.655479847421102e-06,5.487537727150754e-06,1.6238189657524533e-06,1.8797639909070296e-06,3.113554338329388e-06,1.9012187203392592e-06,9.831455443354413e-07,8.563226018792626e-07,1.358354540059713e-06
194,1.1060611625361676e-06,1.5368268784451924e-06,1.9518491837619645e-06,2.226927877110246e-06,1.5608235398647367e-06,2.7904554228446215e-06,1.7826585313315172e-06,3.668858196411117e-06,5.6805267674527004e-06,1.6720118127436302e-06,1.8770453363965661e-06,3.0239476546236355e-06,1.9058572368129963e-06,9.93447174493888e-07,8.62251847255868e-07,1.3344854179006061e-06
195,1.0984269343702517e-06,1.517982646898331e-06,1.9475666663883466e-06,2.2375014609821995e-06,1.5055665998740055e-06,2.7331124437581657e-06,1.820805593379844e-06,3.670433423525886e-06,5.870173852167569e-06,1.7254875154220902e-06,1.8665049961688096e-06,2.939562928667194e-06,1.9116970619871196e-06,1.0082541679198293e-06,8.686603169549869e-07,1.3104337310468016e-06
196,1.0975338161442865e-06,1.4997503034041898e-06,1.9374303735990143e-06,2.2493951314006096e-06,1.45520796110228e-06,2.677094587102677e-06,1.8583818792165487e-06,3.6611790861383187e-06,6.056805148026947e-06,1.7838502075559944e-06,1.848514972355202e-06,2.8607501425623456e-06,1.91920445657491e-06,1.0275573174879543e-06,8.755862485533225e-07,1.2865386492349396e-06
197,1.1036966282651494e-06,1.4827319219660007e-06,1.921884596931363e-06,2.2638779226351877e-06,1.4107488782409618e-06,2.6238698792752634e-06,1.8949045475902284e-06,3.6416617955100106e-06,6.240519400845511e-06,1.8468248008854914e-06,1.8236013349266851e-06,2.78755532890914e-06,1.9292316571243445e-06,1.0512725812526159e-06,8.830942891098662e-07,1.2629146408637595e-06
198,1.1170818630688672e-06,1.4675154895600742e-06,1.9016512968309947e-06,2.2819145220507276e-06,1.3731523663574058e-06,2.574791825752948e-06,1.9297997580988008e-06,3.6122421513673154e-06,6.420782172956361e-06,1.9141309085010716e-06,1.7924576919201714e-06,2.7196255427192516e-06,1.942733065673643e-06,1.0792938591764167e-06,8.912341547490649e-07,1.2394777272614174e-06
199,1.1376859263998587e-06,1.4545712090550178e-06,1.8775504682437152e-06,2.304074339576774e-06,1.3432361906840404e-06,2.530890791600799e-06,1.9623326190463904e-06,3.573487238520518e-06,6.596112765801895e-06,1.9853706297059953e-06,1.756023874336411e-06,2.656235204487767e-06,1.9604710281076393e-06,1.111541006836275e-06,9.000321398739585e-07,1.216060602753534e-06
200,1.165285791215853e-06,1.4441944311445596e-06,1.8502754622637928e-06,2.3306221103947323e-06,1.3216879931976858e-06,2.4927251220804496e-06,1.99163193502017e-06,3.526411800490159e-06,6.7638880669290675e-06,2.059931752528992e-06,1.7154793429235018e-06,2.5963250258129734e-06,1.9829198061859663e-06,1.1479308730526852e-06,9.095185277932729e-07,1.192559763027852e-06
201,1.1994363496563488e-06,1.4365184231752299e-06,1.8202702995074747e-06,2.3617838244343057e-06,1.3090569630853872e-06,2.4603342260350996e-06,2.01683903444158e-06,3.4724324278126853e-06,6.920262243361762e-06,2.1368922911079517e-06,1.6721227992512004e-06,2.5385320767720877e-06,2.0102797097168677e-06,1.188284349935858e-06,9.19787305101678e-07,1.1689888396024043e-06
202,1.239523866646515e-06,1.4315859613410614e-06,1.7876777404414134e-06,2.3980308293876375e-06,1.3057052596371496e-06,2.433318536564295e-06,2.0373115110039407e-06,3.4132311158196332e-06,7.060357154776663e-06,2.214945278149957e-06,1.6272345618684906e-06,2.4813610723585163e-06,2.0424836866903228e-06,1.2322273740393805e-06,9.310297961746799e-07,1.1454814386915508e-06
203,1.284801504571184e-06,1.4294569891183447e-06,1.7523167269800246e-06,2.4401374063309863e-06,1.3118188982234278e-06,2.4110413505592054e-06,2.0528267091029156e-06,3.3506467642336858e-06,7.1788666854632035e-06,2.292401078830718e-06,1.581969081272231e-06,2.423514938479249e-06,2.0792523519922442e-06,1.2791495634029375e-06,9.434687455555065e-07,1.1223691591951294e-06
204,1.3343709507333732e-06,1.4303146939392159e-06,1.7138090415326258e-06,2.4889442510664033e-06,1.3274873324698024e-06,2.392845179333361e-06,2.0636945652179826e-06,3.286514577741716e-06,7.270921038007752e-06,2.3672600599036336e-06,1.537261448628337e-06,2.3641459399584485e-06,2.12027414449119e-06,1.3282390967326399e-06,9.572557135728783e-07,1.1002115580887045e-06
205,1.387172531969183e-06,1.4344847997672516e-06,1.671914702301332e-06,2.5450257579158446e-06,1.3527409838305782e-06,2.378169374027931e-06,2.0706401081176054e-06,3.2224060518507128e-06,7.332838730041686e-06,2.437310801524925e-06,1.4937662923022052e-06,2.30286678521268e-06,2.1653679652327517e-06,1.378558729713119e-06,9.724303676711588e-07,1.0796394440591273e-06
206,1.4420127605114315e-06,1.44231369523577e-06,1.6268489001033266e-06,2.608502560726132e-06,1.387489370935021e-06,2.3665462136351125e-06,2.0745102113774735e-06,3.1593989367946776e-06,7.362443852711357e-06,2.5003198514666204e-06,1.4518454196322293e-06,2.2396431151793477e-06,2.2144274750245205e-06,1.429160847276558e-06,9.889438973267102e-07,1.0611543575140893e-06
207,1.4975698316110354e-06,1.453993619364541e-06,1.5792992937749339e-06,2.679024127329105e-06,1.431450139892779e-06,2.357481654892949e-06,2.0760549297861493e-06,3.0980199238191992e-06,7.358952982592435e-06,2.554336106333521e-06,1.411576430866154e-06,2.1747403795833365e-06,2.2672212563780627e-06,1.4792850133090666e-06,1.0067333299318854e-06,1.0450427476316044e-06
208,1.5524203974244685e-06,1.4694815882673594e-06,1.5301923169528306e-06,2.755798720926915e-06,1.4841814917401774e-06,2.3502676779470935e-06,2.0758620378783767e-06,3.0383461388566536e-06,7.322742105615868e-06,2.5978506078874625e-06,1.3728084026426333e-06,2.108738276544071e-06,2.323279057090482e-06,1.5285221904522922e-06,1.0258014355877458e-06,1.0313789429638249e-06
209,1.6052058777991946e-06,1.4885583114351423e-06,1.4804975047312955e-06,2.837684474018307e-06,1.5451885137075294e-06,2.3438870829940813e-06,2.074354572949724e-06,2.980218924111949e-06,7.255166341924624e-06,2.6296083525913357e-06,1.3353279286606379e-06,2.04254542244194e-06,2.381924983959487e-06,1.5767425117812928e-06,1.0462032219012e-06,1.0200549336161342e-06
210,1.6548826375178353e-06,1.51095545940015e-06,1.431198423387356e-06,2.9234597747523982e-06,1.613966319721311e-06,2.337151160166616e-06,2.0718729500997868e-06,2.9235945382958717e-06,7.158289834089661e-06,2.648398129760556e-06,1.299056450056931e-06,1.9773670755806974e-06,2.4423697057259795e-06,1.623888079864993e-06,1.0679369167049144e-06,1.0108150557949025e-06
211,1.700886000726266e-06,1.536421849483241e-06,1.3833240276577653e-06,3.0121926660377637e-06,1.6899286425889685e-06,2.328992039065793e-06,2.0688311169703794e-06,2.8689678127594642e-06,7.034383162803239e-06,2.6532462985632734e-06,1.2640878298051695e-06,1.91458589910122e-06,2.50380148088166e-06,1.669858454312081e-06,1.090850082603248e-06,1.0033035819556109e-06
212,1.7431175793243522e-06,1.5646580475870891e-06,1.3379365664433457e-06,3.1034458464039922e-06,1.7723183750628435e-06,2.31870404382817e-06,2.0657901771528158e-06,2.8176610013119695e-06,6.885294925287611e-06,2.643848691327363e-06,1.230539744536361e-06,1.855554468669897e-06,2.565463260020927e-06,1.7144536855374556e-06,1.1146231021156169e-06,9.971852640553094e-07
213,1.7817761274892726e-06,1.5952210677323702e-06,1.2960761003713747e-06,3.197139218364665e-06,1.8602528980652516e-06,2.306026139180657e-06,2.063408091326168e-06,2.7718287595790174e-06,6.7120653060754476e-06,2.62075381615158e-06,1.1984170049117584e-06,1.8013774346611468e-06,2.6267079832589054e-06,1.7573129586187456e-06,1.1387930577425043e-06,9.92318827876261e-07
214,1.817145922791788e-06,1.6275124189611724e-06,1.2586909285309328e-06,3.293137625402938e-06,1.952954479420273e-06,2.2910740194884965e-06,2.0623537811325762e-06,2.7341927669542807e-06,6.515166953844285e-06,2.585136729513314e-06,1.1676407006042702e-06,1.7527704588935522e-06,2.6870426695506743e-06,1.7979497591061205e-06,1.1627981308110911e-06,9.888055988454843e-07
215,1.8494621366281782e-06,1.6607912665995379e-06,1.2265676393567875e-06,3.390874818200862e-06,2.0499469608284666e-06,2.2741424704656107e-06,2.0632058076575707e-06,2.7076213491853642e-06,6.295327935390483e-06,2.538403890670311e-06,1.138188674115179e-06,1.710015645813165e-06,2.7461877863870153e-06,1.8359041909314868e-06,1.1860658569708315e-06,9.868463885918208e-07
216,1.8788401465140917e-06,1.6941530043591176e-06,1.2002743894217236e-06,3.4893159913051414e-06,2.1509616035328388e-06,2.2554518477867362e-06,2.0663276341471903e-06,2.6947377272205767e-06,6.054416024909977e-06,2.4819394859282535e-06,1.1102110670678084e-06,1.6729797527807091e-06,2.8040937003496116e-06,1.8708359927833304e-06,1.2080789931937874e-06,9.865707313147537e-07
217,1.9051972167993156e-06,1.7265294470319282e-06,1.1801459940047744e-06,3.587212956856626e-06,2.2556696851992407e-06,2.2350295604374936e-06,2.071768503974014e-06,2.6977048807825254e-06,5.795828715547411e-06,2.4171143702806287e-06,1.0840536688378337e-06,1.641162556417856e-06,2.8608751458530566e-06,1.902424092628637e-06,1.2283328517063687e-06,9.879822624322377e-07
218,1.928254976636172e-06,1.7567560087559747e-06,1.1663248210839425e-06,3.683282132822467e-06,2.3635301018686036e-06,2.212827080109489e-06,2.079262570215897e-06,2.718189594622514e-06,5.52418183039893e-06,2.3454447819740783e-06,1.0601888444549012e-06,1.6137875886723747e-06,2.916848941765906e-06,1.930218065619665e-06,1.2462665994994681e-06,9.910124531918446e-07
219,1.947767061462585e-06,1.783712210454196e-06,1.158811574587832e-06,3.776067123190041e-06,2.4738004076263307e-06,2.1889436163623782e-06,2.0883805533424354e-06,2.7574259960743537e-06,5.244576245543069e-06,2.2686506877522554e-06,1.039089269920624e-06,1.5899606288608598e-06,2.9726789798788573e-06,1.9536056388553836e-06,1.2612792782719354e-06,9.955925182675436e-07
220,1.963869079745132e-06,1.8065323364377078e-06,1.1574621524914708e-06,3.863704835609205e-06,2.5856018316467366e-06,2.163811114775086e-06,2.0987705565185515e-06,2.816281031866535e-06,4.961932800197335e-06,2.1884717762493326e-06,1.0211137290248079e-06,1.568849494535506e-06,3.029288145701022e-06,1.9718558954442763e-06,1.2728212471017263e-06,1.0016947160350561e-06
221,1.9772576699943834e-06,1.824814327882878e-06,1.1619349026189412e-06,3.943962965841721e-06,2.6979171902243713e-06,2.138289124563467e-06,2.110294157784741e-06,2.8952390626334484e-06,4.680624769340302e-06,2.106389931939788e-06,1.006469628438464e-06,1.5497984862907457e-06,3.0875793458589492e-06,1.984299139496886e-06,1.2805493126715932e-06,1.0093844245953859e-06
222,1.9890334603400636e-06,1.8386916840802638e-06,1.1716483440943607e-06,4.0145663092828405e-06,2.8094589429770867e-06,2.1136273507533565e-06,2.1229677727192574e-06,2.994329056875074e-06,4.40439069382398e-06,2.0235040085393375e-06,9.952662225083548e-07,1.5323408535825348e-06,3.148290425913772e-06,1.9907004559847536e-06,1.284485046493736e-06,1.0188494745942576e-06
223,2.0003360848800564e-06,1.8486858130370057e-06,1.1857921225922231e-06,4.073541139774631e-06,2.9185426416759497e-06,2.091287194620329e-06,2.1368373990672454e-06,3.113109254250423e-06,4.136476019745586e-06,1.940630504667815e-06,9.875965896134957e-07,1.5161201084670125e-06,3.211909258562749e-06,1.9914986654821447e-06,1.285021445392151e-06,1.0303164560545918e-06
224,2.0120552585689544e-06,1.855405337493131e-06,1.2033954945299618e-06,4.119435812911057e-06,3.0231392140619868e-06,2.072694520168368e-06,2.151915100339339e-06,3.2507220403095075e-06,3.879810390564536e-06,1.8585174491667996e-06,9.835496105785764e-07,1.5008060933050346e-06,3.27851149893842e-06,1.9876211300283015e-06,1.2827707499722144e-06,1.0439248801986664e-06
225,2.024750775834908e-06,1.859276405205849e-06,1.223447717802242e-06,4.151491406894462e-06,3.1210740955891116e-06,2.0590194866554234e-06,2.168150488211355e-06,3.405887521569773e-06,3.6369648109057447e-06,1.7780059706312532e-06,9.83137712222439e-07,1.4861441192071463e-06,3.3476306126695736e-06,1.9801015911566747e-06,1.278416510842101e-06,1.059689875668876e-06
226,2.0386699622725512e-06,1.8604192268130113e-06,1.2450564856597713e-06,4.169787128199473e-06,3.21025620394331e-06,2.051035986041776e-06,2.185394108197778e-06,3.5767957348306126e-06,3.4099370824958863e-06,1.7000643979524102e-06,9.862244744795928e-07,1.4720862882310876e-06,3.4182003548485885e-06,1.9698629127049424e-06,1.2726385718697912e-06,1.0775464038591884e-06
227,2.0537406843524065e-06,1.8586222826384371e-06,1.2675695907889804e-06,4.175232112139902e-06,3.288887380522724e-06,2.0490593592905955e-06,2.20341122607977e-06,3.761023097010815e-06,3.200034151378404e-06,1.6257102469486829e-06,9.925270909310053e-07,1.458777134902889e-06,3.4885157529107913e-06,1.9576744896660576e-06,1.2660457058682904e-06,1.0973972050044768e-06
228,2.0695590274001314e-06,1.8533549861038432e-06,1.290545681653816e-06,4.169306439857771e-06,3.3555988875420143e-06,2.0529297410190846e-06,2.221979190549437e-06,3.95558957180736e-06,3.0079068438668357e-06,1.5558738518421753e-06,1.0017080660924326e-06,1.446385301672897e-06,3.556267057889924e-06,1.9441055397631543e-06,1.2590900358324857e-06,1.1191493546849931e-06
229,2.085404033376333e-06,1.8438770885474788e-06,1.313581273540491e-06,4.153614980125199e-06,3.4093929570688363e-06,2.0620239344141408e-06,2.2409696654823626e-06,4.157179418154939e-06,2.833591103242196e-06,1.491305008358566e-06,1.013481834731003e-06,1.4350113308179133e-06,3.618750002758551e-06,1.9294584000518445e-06,1.2520133283366237e-06,1.1427434394936517e-06
230,2.1002825149772383e-06,1.8295362666990187e-06,1.3361679886886773e-06,4.129421825436919e-06,3.4493556020521315e-06,2.0753197013652093e-06,2.2603159079454696e-06,4.362476202517533e-06,2.6765175887603514e-06,1.4325724071733783e-06,1.0276373541729267e-06,1.4247519538352808e-06,3.6732324954029027e-06,1.9137830662540565e-06,1.2448840325885772e-06,1.1681266710262533e-06
231,2.1130796648754014e-06,1.8101556038480524e-06,1.3577099922054298e-06,4.097321253441372e-06,3.474413439941178e-06,2.091529883255603e-06,2.2798913436091514e-06,4.568513997628837e-06,2.5355619303580956e-06,1.3800766102001846e-06,1.0440131562626547e-06,1.4157643243971636e-06,3.717396544289762e-06,1.8969972038157636e-06,1.2377434609605971e-06,1.1951918574447897e-06
232,2.1228538497550806e-06,1.7861909928782337e-06,1.377661700511761e-06,4.057133960359942e-06,3.4834902704869112e-06,2.109267209216208e-06,2.299374125839986e-06,4.7729432161780765e-06,2.409142748317105e-06,1.3340200327445645e-06,1.062531044824e-06,1.4081967137963776e-06,3.7498243743698033e-06,1.87899886234133e-06,1.2307501273582619e-06,1.2237505929814293e-06
233,2.1290991013626966e-06,1.7584921094260917e-06,1.395682887359749e-06,4.008053920174951e-06,3.475991060223627e-06,2.1271675046022006e-06,2.318163854026448e-06,4.974151999664305e-06,2.2953391058622314e-06,1.2944037063349377e-06,1.0832634819117728e-06,1.4020518016250155e-06,3.7704219040320676e-06,1.8596410037619397e-06,1.2241712586866741e-06,1.2535024241905223e-06
234,2.131725260580574e-06,1.7279065786806299e-06,1.4117206106415965e-06,3.948971914363324e-06,3.4521681752269786e-06,2.1439459458433395e-06,2.3354405478353968e-06,5.171234856386229e-06,2.192123750019521e-06,1.2610896311649447e-06,1.106414631959843e-06,1.3971383671560223e-06,3.780549882050948e-06,1.8386438260021007e-06,1.218287353368906e-06,1.2839938290670806e-06
235,2.1307623712378744e-06,1.6950834639246084e-06,1.4259702558480273e-06,3.87883051274496e-06,3.413097713887399e-06,2.1584350853262157e-06,2.3503580583280593e-06,5.363834820944414e-06,2.0977810296618006e-06,1.2338533282789367e-06,1.1321986628881815e-06,1.3931476905388193e-06,3.7827255208080775e-06,1.8156403133733436e-06,1.2133772460460563e-06,1.314644115830113e-06
236,2.1261034695993635e-06,1.6605551066692005e-06,1.4387567723634315e-06,3.796932122567328e-06,3.3603406839694865e-06,2.169608179694217e-06,2.362200378934593e-06,5.551912964844339e-06,2.011292065703494e-06,1.212412908298792e-06,1.1607461192627133e-06,1.3897481777125957e-06,3.7800097474193424e-06,1.7903704388701705e-06,1.2097446304477922e-06,1.344838527386429e-06
237,2.1175141399743697e-06,1.6248726104715863e-06,1.4504206052331494e-06,3.703194535415929e-06,3.295503791474525e-06,2.176527421317104e-06,2.3703965515379173e-06,5.735539871542575e-06,1.932418529566605e-06,1.1964821768244373e-06,1.1921093468764818e-06,1.3866012368107831e-06,3.7754233402850197e-06,1.7628679207668666e-06,1.20766859272951e-06,1.3740088389031889e-06
238,2.104781712440608e-06,1.5886090074756788e-06,1.4612582288365507e-06,3.5983027652637217e-06,3.2199743565302856e-06,2.178334385873205e-06,2.3744759861618928e-06,5.91482228801952e-06,1.8615098125136688e-06,1.1857800472767607e-06,1.2262778748064048e-06,1.3833581095284411e-06,3.771712582477172e-06,1.7335016489521792e-06,1.2073274920152115e-06,1.4016348325847655e-06
239,2.087805666550572e-06,1.552329040782601e-06,1.471514956954749e-06,3.483649624712732e-06,3.1350321392747786e-06,2.174486826895692e-06,2.3740712680326402e-06,6.089986703393063e-06,1.7992433867821925e-06,1.1799376945186055e-06,1.2631677319460775e-06,1.3797777573196709e-06,3.771395291821689e-06,1.7028734993265978e-06,1.2087805683632266e-06,1.4272318539898386e-06
240,2.066642787263247e-06,1.5166227928230586e-06,1.4813901085171086e-06,3.3610098067169536e-06,3.0421822305654694e-06,2.1650788394208833e-06,2.3689877549803665e-06,6.261473761111475e-06,1.7464039925981304e-06,1.178405003548692e-06,1.302653832454237e-06,1.37590268120227e-06,3.7767286984957526e-06,1.671693022153101e-06,1.2119765885592518e-06,1.450427989790878e-06
241,2.0415755610123614e-06,1.4820867482313376e-06,1.4910152816770161e-06,3.232099008839039e-06,2.943314983344489e-06,2.1508820215345434e-06,2.359296606956932e-06,6.429867156495907e-06,1.703690106925283e-06,1.180478488370573e-06,1.3446194912350807e-06,1.3720528553298644e-06,3.7894827365095364e-06,1.6406687457980408e-06,1.216754261787216e-06,1.471020299499563e-06
242,2.013115899332457e-06,1.4492225549049303e-06,1.5004166918973816e-06,3.0983572272206718e-06,2.8405166235845573e-06,2.1331246496739285e-06,2.345398104849096e-06,6.595683460399134e-06,1.6715770796296313e-06,1.1854403268267172e-06,1.3889345032390508e-06,1.368620357992708e-06,3.8107743369606333e-06,1.6103856567650763e-06,1.2228583565107656e-06,1.4888786687416235e-06
243,1.9818441597010646e-06,1.4183663151805969e-06,1.509516670328525e-06,2.9610734521702623e-06,2.7357283730416743e-06,2.113330417449343e-06,2.328029670268592e-06,6.759219855286554e-06,1.6502698521553658e-06,1.1926634105030188e-06,1.4353737268416454e-06,1.3659066857176803e-06,3.841161240997666e-06,1.5812517771443267e-06,1.2299867022744079e-06,1.5038481842675927e-06
244,1.9482113899088765e-06,1.3896864912697764e-06,1.518195200871074e-06,2.821573236283811e-06,2.630604473856022e-06,2.0933477663827642e-06,2.3082160288484847e-06,6.920501649654265e-06,1.6397057431420903e-06,1.2015814103978287e-06,1.4835407668109073e-06,1.3641025107657743e-06,3.880841034751956e-06,1.5535435988037214e-06,1.2378213639414298e-06,1.5158363059808197e-06
245,1.912471537333506e-06,1.3632577631748847e-06,1.5263485771363548e-06,2.681255640120679e-06,2.5266918007076064e-06,2.0754131786386665e-06,2.2871387179279693e-06,7.0791014326326775e-06,1.6395612152399991e-06,1.2116110595688298e-06,1.5328297510725757e-06,1.363307189353974e-06,3.929673578331014e-06,1.5274419225135057e-06,1.2459999545675562e-06,1.5250035218803006e-06
246,1.874692873309707e-06,1.339182151912292e-06,1.5338605818960796e-06,2.541556874038268e-06,2.4256843885885405e-06,2.0620924200518254e-06,2.2659242650202094e-06,7.23371801918904e-06,1.6492490100931922e-06,1.2221447412572222e-06,1.582441212202018e-06,1.3635452262345202e-06,3.986975172201763e-06,1.5030480646431823e-06,1.2541044003170803e-06,1.5318621621483382e-06
247,1.8348089611883615e-06,1.3176298567160926e-06,1.540511147687612e-06,2.4039260249311687e-06,2.3294541930068864e-06,2.05610805399782e-06,2.2454845285156564e-06,7.381844339805195e-06,1.6679097524258278e-06,1.2326289306240826e-06,1.6314140782586288e-06,1.3647969691415042e-06,4.051279445423763e-06,1.4804212410773112e-06,1.261741071909645e-06,1.537192209771145e-06
248,1.7928240582109563e-06,1.2987657582463232e-06,1.5459768703163107e-06,2.2697755655202146e-06,2.2398450212002474e-06,2.0601226396686656e-06,2.2265600624534677e-06,7.519965925777939e-06,1.6943959087194819e-06,1.242707239867885e-06,1.6786001625964008e-06,1.3670734764370361e-06,4.1202279440045305e-06,1.4596231002367795e-06,1.2686238711472153e-06,1.541812938107476e-06
249,1.749113534358055e-06,1.2826766100399218e-06,1.5499663784930979e-06,2.140380998857759e-06,2.1584760674947823e-06,2.0765304366638708e-06,2.2099154224071057e-06,7.644298185372612e-06,1.7272709170224856e-06,1.252361273990143e-06,1.7226234083287486e-06,1.3705222511136748e-06,4.1905739276910765e-06,1.4407510969410272e-06,1.2745443365068174e-06,1.546353316452083e-06
250,1.7045080083002475e-06,1.2693459364135484e-06,1.5522942067439657e-06,2.016797584412155e-06,2.086699959120934e-06,2.1073225281665857e-06,2.196509453431054e-06,7.751611097901558e-06,1.7649375459808275e-06,1.2619324685422914e-06,1.7619496219800147e-06,1.37542738328431e-06,4.258310460968567e-06,1.4239093459234999e-06,1.279249830075821e-06,1.5511419348744386e-06
251,1.6600717584576666e-06,1.2586277916945658e-06,1.5527761821364015e-06,1.8998468341405465e-06,2.0255860501288686e-06,2.1540499089006915e-06,2.1875264512611328e-06,7.839717155378454e-06,1.8059210502392318e-06,1.2719875740927631e-06,1.7950855539483002e-06,1.3821236167940972e-06,4.319097029008925e-06,1.4091077259351982e-06,1.2823670172208387e-06,1.5562046012004735e-06
252,1.6168564682723406e-06,1.2502417651707594e-06,1.551078881056535e-06,1.7901263532529634e-06,1.9758456788393513e-06,2.2178344072889875e-06,2.1842754262932013e-06,7.907620750748129e-06,1.8490408731628094e-06,1.2831277148067976e-06,1.8207900195199667e-06,1.390992958367973e-06,4.36902938083868e-06,1.3961719222007344e-06,1.2834659741720365e-06,1.561324446567455e-06
253,1.5758081433209973e-06,1.2438553358424022e-06,1.5466708873684736e-06,1.6880351052367639e-06,1.9378066658456585e-06,2.299404801251145e-06,2.1880584326061146e-06,7.955546447493028e-06,1.8932837356198288e-06,1.2958633396853738e-06,1.8381691388566168e-06,1.4024724520332597e-06,4.405398803686397e-06,1.3847297964909152e-06,1.2822118334423213e-06,1.566134832785063e-06
254,1.5377303205997256e-06,1.2392032310085556e-06,1.5389560980591195e-06,1.593870913152981e-06,1.9115078379035764e-06,2.399161168492103e-06,2.2000902509445784e-06,7.984845346234773e-06,1.9375935495520835e-06,1.3106034597162008e-06,1.8466785552643946e-06,1.4169327828990603e-06,4.426988216988186e-06,1.3742791101185579e-06,1.2784905401853987e-06,1.5701913373912774e-06
255,1.5032186626396653e-06,1.2361256745698146e-06,1.5275447697924214e-06,1.507929271826532e-06,1.8968692116737438e-06,2.517205246731712e-06,2.2214469509763515e-06,7.99759145412156e-06,1.9808582152742774e-06,1.3277017579487507e-06,1.8461866991229855e-06,1.4345172825199105e-06,4.433852092894025e-06,1.3643487308163654e-06,1.2724558869319973e-06,1.573035123470247e-06
256,1.4725904522365223e-06,1.2344935740720545e-06,1.5123857631812433e-06,1.4304669632848386e-06,1.8938469659866892e-06,2.6532812083835e-06,2.252974986960701e-06,7.995865494037813e-06,2.022185396301986e-06,1.347437187608884e-06,1.837115145314842e-06,1.455079856194312e-06,4.426886283819461e-06,1.3547255102841719e-06,1.2645197391785504e-06,1.5742965803577242e-06
257,1.4458549007469156e-06,1.234088011558848e-06,1.4936146244447225e-06,1.3615641722613053e-06,1.9024744968105214e-06,2.806682830585541e-06,2.29515582257348e-06,7.98107049709084e-06,2.061328330599289e-06,1.369922986275156e-06,1.8204714955247539e-06,1.4782442445814518e-06,4.407480042108143e-06,1.3455531716655014e-06,1.255301818321526e-06,1.5737804280180638e-06
258,1.4227555597763646e-06,1.2345412267091665e-06,1.471385906633145e-06,1.301028106010152e-06,1.9227513078652845e-06,2.9762263686246605e-06,2.3479906703390114e-06,7.953723989440764e-06,2.0988781424889964e-06,1.395057023511183e-06,1.7976863331943077e-06,1.5035254711560794e-06,4.377361608587292e-06,1.3372021324765579e-06,1.2455160093706935e-06,1.571468600806986e-06
259,1.402891388578118e-06,1.2354289760632494e-06,1.4459238176276274e-06,1.2484001094532108e-06,1.9544567091514004e-06,3.160279798616891e-06,2.4109463227510825e-06,7.91387428078112e-06,2.135990939010513e-06,1.4225865886206098e-06,1.7703908929364913e-06,1.5304096270425072e-06,4.3385592384661e-06,1.330085965570373e-06,1.2358385969529889e-06,1.5674906999342753e-06
260,1.385885892683975e-06,1.2365027894851172e-06,1.4176452427086193e-06,1.2030305882079573e-06,1.9970117917101975e-06,3.3567482821602036e-06,2.4829514948860873e-06,7.861891458543694e-06,2.173878265198072e-06,1.4522839887971522e-06,1.7402639624322547e-06,1.5583147451478172e-06,4.293306223510888e-06,1.32454281175173e-06,1.2268430733691983e-06,1.562081865427173e-06
261,1.371515435728808e-06,1.23790501700076e-06,1.3871401406024119e-06,1.1641485040308957e-06,2.0494416824866836e-06,3.56303343632821e-06,2.562421611800454e-06,7.799204704061022e-06,2.213422187180035e-06,1.4841381987433199e-06,1.7089151099141583e-06,1.5864819113884592e-06,4.243786985539044e-06,1.3207689919164943e-06,1.218975330346419e-06,1.5554891885208015e-06
262,1.3596961563305918e-06,1.2401736126810954e-06,1.3550386329660132e-06,1.1308867580505758e-06,2.1103936931369636e-06,3.7761124985187598e-06,2.6473185990944267e-06,7.728585414694161e-06,2.255028261904286e-06,1.5184386159337102e-06,1.6777587721333175e-06,1.6139591165239048e-06,4.1917921947960175e-06,1.3188027492495525e-06,1.2125138451860931e-06,1.5478802149499913e-06
263,1.350359852396088e-06,1.2440180843656152e-06,1.3219217751774141e-06,1.102308186301684e-06,2.1781677117904406e-06,3.9927791250805136e-06,2.735337215290277e-06,7.653789288913236e-06,2.2986238890085305e-06,1.555698909915859e-06,1.6479258010234887e-06,1.6397599184066474e-06,4.138527962539259e-06,1.3185160976697155e-06,1.207534306241483e-06,1.5393249819763856e-06
264,1.343388966510356e-06,1.2500575423373944e-06,1.2883094945156456e-06,1.07746153515706e-06,2.2508054702452383e-06,4.2099342959670056e-06,2.8242769698444237e-06,7.578747614210854e-06,2.3437093123047383e-06,1.5964578509960304e-06,1.6202360423125669e-06,1.663074528735551e-06,4.084717314892119e-06,1.3196187529523188e-06,1.2039095425825885e-06,1.529865888657964e-06
265,1.3386906071288031e-06,1.2586849290237006e-06,1.2546358358077765e-06,1.0554066800157567e-06,2.3262860616201495e-06,4.424792157318131e-06,2.9124398957065168e-06,7.506716198121232e-06,2.3894849070738356e-06,1.641083716779902e-06,1.5952095605044752e-06,1.6833984453908032e-06,4.030779721848599e-06,1.3217081969271357e-06,1.2013830007475604e-06,1.5196330558818934e-06
266,1.3363059142912416e-06,1.2700699213911462e-06,1.221206567963058e-06,1.0351981914936084e-06,2.4027596523036713e-06,4.63489664019409e-06,2.998815220218894e-06,7.439678335826844e-06,2.435116275668203e-06,1.6897017310922225e-06,1.5731129101564091e-06,1.700599082935195e-06,3.9768597834057376e-06,1.3242896940151865e-06,1.1997126202647232e-06,1.508842633559335e-06
267,1.33645261324533e-06,1.2842698472807193e-06,1.1882412807513002e-06,1.0159223277439593e-06,2.4787004670410745e-06,4.837912445147781e-06,3.0829744032187945e-06,7.378137480522922e-06,2.480025153348398e-06,1.7422641031467484e-06,1.5539994887814727e-06,1.7149418207173638e-06,3.9227840237519816e-06,1.326757953450853e-06,1.1987456622227973e-06,1.497635382990802e-06
268,1.339492257018383e-06,1.3013705040560472e-06,1.1559941220693179e-06,9.968085645918417e-07,2.552909168304299e-06,5.031268085716518e-06,3.1647761034015787e-06,7.321309852892416e-06,2.523971991154924e-06,1.7986926674064265e-06,1.5376972733368509e-06,1.726993323866785e-06,3.8681211425552006e-06,1.32845968051286e-06,1.198341057615974e-06,1.4859393969131075e-06
269,1.345849318218209e-06,1.3215104655341215e-06,1.1248148088991752e-06,9.773209265238444e-07,2.6243742842465727e-06,5.211825671287258e-06,3.2440575135287814e-06,7.267532325924242e-06,2.566857419619285e-06,1.8589367371178332e-06,1.5238026858481464e-06,1.7374234550203967e-06,3.8123819369333903e-06,1.3288140317778575e-06,1.1982826129643289e-06,1.4734437081188428e-06
270,1.3559156658071694e-06,1.3447563169627795e-06,1.0951212139624616e-06,9.571793652516039e-07,2.6920871576277072e-06,5.375782134062904e-06,3.320452562580458e-06,7.2146421044230885e-06,2.608422590529866e-06,1.9228457866989575e-06,1.511771796875016e-06,1.7469296560133145e-06,3.7552910637611414e-06,1.327385910755e-06,1.1982917520260109e-06,1.4596457225855026e-06
271,1.3699657695762975e-06,1.370975352261675e-06,1.0673898041234724e-06,9.363485123547814e-07,2.7549437172364503e-06,5.518919690201327e-06,3.3933440973643046e-06,7.1602451808983475e-06,2.648103990597434e-06,1.9899720431274174e-06,1.5011000521304849e-06,1.7563672838610541e-06,3.697020521033478e-06,1.3239554844318812e-06,1.1980322625883545e-06,1.4439853746580588e-06
272,1.3881074332191031e-06,1.399823296241588e-06,1.0421652026150238e-06,9.150283766333682e-07,2.811814206759107e-06,5.637132677687723e-06,3.4618291110263934e-06,7.101928821644053e-06,2.6851113922947477e-06,2.0594519809149047e-06,1.4914854297978172e-06,1.766847718827658e-06,3.6382611624878756e-06,1.3185951725878083e-06,1.1970592481317834e-06,1.4260717549639233e-06
273,1.4102710474695436e-06,1.430800509023521e-06,1.0200067858925336e-06,8.936236469104089e-07,2.8617451102379278e-06,5.726990035514107e-06,3.52459279405904e-06,7.037474770649372e-06,2.7185495893175417e-06,2.1299901690285964e-06,1.482880075423296e-06,1.7796296799020044e-06,3.580109302549797e-06,1.3116508337817057e-06,1.1948570586664202e-06,1.405915506493564e-06
274,1.4361951394837165e-06,1.4632822459055294e-06,1.0014135359207347e-06,8.726565046187753e-07,2.904135963073442e-06,5.7859777514422965e-06,3.5797604048972005e-06,6.9650889899663725e-06,2.7474305040928613e-06,2.1999823282393202e-06,1.475416211502802e-06,1.7959058975845346e-06,3.523841327840662e-06,1.303622746426734e-06,1.1910044769620806e-06,1.3840036988141478e-06
275,1.465417251886536e-06,1.4965418525293318e-06,9.867898660303866e-07,8.526718512514426e-07,2.9386914772115484e-06,5.812217388650363e-06,3.624915124388214e-06,6.883670019274556e-06,2.7707348007104633e-06,2.2677926032605788e-06,1.4692437954661135e-06,1.8166376830879306e-06,3.470607004754013e-06,1.2950139544988256e-06,1.1852774344889688e-06,1.3611320364960838e-06
276,1.4973114668687804e-06,1.5298538158982768e-06,9.764051879583057e-07,8.342089021487522e-07,2.9651532721589757e-06,5.8041350772577124e-06,3.6573616363491496e-06,6.793115417866106e-06,2.7877435239208193e-06,2.3320344464352924e-06,1.4643552138823078e-06,1.842478039613132e-06,3.421120556431571e-06,1.28621029743039e-06,1.1775713291722338e-06,1.3381452261052387e-06
277,1.5311384622216946e-06,1.5626531324533794e-06,9.703402006658399e-07,8.178028282343585e-07,2.983146105032957e-06,5.760794019922816e-06,3.6745378149166526e-06,6.694541732272305e-06,2.7984110427453676e-06,2.3917278108594545e-06,1.4605199602815241e-06,1.8737418450820525e-06,3.375543895668096e-06,1.2774786790762547e-06,1.1677988184271153e-06,1.315817492708658e-06
278,1.566107981847284e-06,1.5946636444601852e-06,9.684918562594371e-07,8.039575285625707e-07,2.992377581935714e-06,5.682704055267922e-06,3.6744538614140297e-06,6.590250663192442e-06,2.8033969916623047e-06,2.446366730210007e-06,1.457404231167668e-06,1.9103908261104636e-06,3.3335743537528892e-06,1.2690509761650015e-06,1.1559369294666864e-06,1.2949020865587885e-06
279,1.6015126004450436e-06,1.6259905564080666e-06,9.70632030159953e-07,7.931097772955034e-07,2.992996844447504e-06,5.572321963363419e-06,3.6560864228506596e-06,6.483431952436028e-06,2.803875203044236e-06,2.4959265804800656e-06,1.4547724527853292e-06,1.9520300703406772e-06,3.2945209224884177e-06,1.2611425384849217e-06,1.142116537789797e-06,1.276177965206837e-06
280,1.6368900360942564e-06,1.657144589589192e-06,9.764507946205951e-07,7.856003588600632e-07,2.9858224759784808e-06,5.433916450271611e-06,3.6196184320153745e-06,6.377734462192306e-06,2.801429785652598e-06,2.54078158259132e-06,1.4525524930602058e-06,1.9979267883488003e-06,3.2573538045261863e-06,1.253891930106953e-06,1.1265708184546356e-06,1.2603845946700592e-06
281,1.6721072506203806e-06,1.688897709491006e-06,9.856053460207051e-07,7.816423894609018e-07,2.972329931296671e-06,5.272982225471296e-06,3.5663965781621915e-06,6.276813994329427e-06,2.797971969512869e-06,2.581543759741189e-06,1.4506845625030495e-06,2.0470655374335725e-06,3.220919821379059e-06,1.2473414719448514e-06,1.1095187553549135e-06,1.2481293003563086e-06
282,1.7073063130739674e-06,1.7220288862597363e-06,9.978105604767855e-07,7.812990841126895e-07,2.95439602816626e-06,5.095529047083964e-06,3.49861106643886e-06,6.183903633943813e-06,2.795488678882221e-06,2.618873662051956e-06,1.4489251207084853e-06,2.0982074932938896e-06,3.1842327286038613e-06,1.2415003423736343e-06,1.0911473881194657e-06,1.239851392341244e-06
283,1.742742260088615e-06,1.7571731212996418e-06,1.0128765554385543e-06,7.844954335200775e-07,2.9339107015542816e-06,4.90752076189188e-06,3.4188454695414348e-06,6.101439716544802e-06,2.7957146495195474e-06,2.653302984980583e-06,1.4468274616220397e-06,2.149927510238585e-06,3.146516670976193e-06,1.2364064352536757e-06,1.0716462637565618e-06,1.2357958288706844e-06
284,1.7786792160142304e-06,1.794853947906031e-06,1.0306359926775195e-06,7.910625079874813e-07,2.9124804919871658e-06,4.714506338306584e-06,3.329647759224322e-06,6.030792593643349e-06,2.799982785968976e-06,2.6850877478563296e-06,1.443924790781992e-06,2.2006715376161474e-06,3.107052349318102e-06,1.2321136188981616e-06,1.0511962611130203e-06,1.2359813745939303e-06
285,1.8154198947744727e-06,1.8355693358416622e-06,1.050864407228629e-06,8.007682674621894e-07,2.8913902117498233e-06,4.521357069640828e-06,3.233269710780513e-06,5.972166331728419e-06,2.809327637009282e-06,2.7140949649236152e-06,1.4399398778558583e-06,2.248873831995582e-06,3.0652191342592607e-06,1.2287006618445712e-06,1.0299402910441097e-06,1.2402464555519187e-06
286,1.8532839481541821e-06,1.87978259513504e-06,1.0732773905596922e-06,8.13318418590073e-07,2.8717705172146393e-06,4.332187912742332e-06,3.131721447481769e-06,5.924714498707442e-06,2.824622417991285e-06,2.739747395030966e-06,1.4348572792052775e-06,2.2931198415778315e-06,3.0207741210234963e-06,1.2263940312291225e-06,1.0079701247904863e-06,1.2483829743212993e-06
287,1.8924464878277577e-06,1.927822725427608e-06,1.097559890266112e-06,8.283825420053658e-07,2.8547777637288715e-06,4.150509713858375e-06,3.0270499292041067e-06,5.8868546031405525e-06,2.8465269902343864e-06,2.7610419002058793e-06,1.42886694338909e-06,2.332279889423532e-06,2.9740116080410006e-06,1.2256483084606797e-06,9.853407080953882e-07,1.2602324132679792e-06
288,1.9328062886255778e-06,1.979794864546999e-06,1.1233487492369198e-06,8.456427365586415e-07,2.841665095970747e-06,3.979353149382018e-06,2.921495796971446e-06,5.856631448744538e-06,2.8753264235104158e-06,2.776608035041419e-06,1.4222729256129694e-06,2.3654990667572833e-06,2.9256607237095355e-06,1.2270274245614634e-06,9.62106402258698e-07,1.2756442309950797e-06
289,1.9739667050373676e-06,2.0355451263203096e-06,1.1501704077869647e-06,8.647920435899009e-07,2.8337579185968566e-06,3.821204537657198e-06,2.817346935825553e-06,5.831833095095609e-06,2.910846521543926e-06,2.7848726179400354e-06,1.4154115416635579e-06,2.39202092611274e-06,2.8766708898653184e-06,1.2310065159631262e-06,9.3834038290717e-07,1.2943569366970218e-06
290,2.0152406284974487e-06,2.0947412590425074e-06,1.1774216599389539e-06,8.855231995170514e-07,2.8323852167391946e-06,3.677969523814701e-06,2.7166509276203544e-06,5.809736735892639e-06,2.952423692927544e-06,2.7844857395118233e-06,1.4085940703050194e-06,2.4110227286163483e-06,2.8279966713416077e-06,1.2378699251798409e-06,9.141619927612684e-07,1.3159426622118035e-06
291,2.0556920111557854e-06,2.157124605736413e-06,1.2044134189462114e-06,9.075854887035633e-07,2.8387852510097004e-06,3.5511177559539263e-06,2.621047517178784e-06,5.786878073842162e-06,2.9988630518138713e-06,2.7748882126828122e-06,1.4020959811728362e-06,2.4217065852692333e-06,2.780420905297625e-06,1.2477171421212467e-06,8.897969725057833e-07,1.3398710885043785e-06
292,2.0942707319564876e-06,2.222743118863598e-06,1.2304003667961629e-06,9.308254385734535e-07,2.8539674006625043e-06,3.4418647447833704e-06,2.5318284805081563e-06,5.759279615604091e-06,3.048507921113915e-06,2.7565626106423433e-06,1.3961873758452117e-06,2.4236673950740143e-06,2.734450484537825e-06,1.2605502536334541e-06,8.65608856679153e-07,1.3656147222514097e-06
293,2.1299315544542604e-06,2.291898603444077e-06,1.254645305612063e-06,9.551222072519071e-07,2.8785343789626415e-06,3.3512501244918525e-06,2.450108648671647e-06,5.723001899812447e-06,3.0995351336849765e-06,2.7307155393987354e-06,1.3911479189885858e-06,2.41721055971972e-06,2.6902634740972815e-06,1.2764060785782971e-06,8.420858647649924e-07,1.3926839029461528e-06
294,2.1616715641837818e-06,2.36484069206855e-06,1.2765853468635075e-06,9.80295397308704e-07,2.9125465166365163e-06,3.28011165617213e-06,2.3769037245461453e-06,5.674645114686156e-06,3.150383182057352e-06,2.698726516070731e-06,1.3872097765197357e-06,2.403265861800937e-06,2.647656850715972e-06,1.2954305185190646e-06,8.198228566393951e-07,1.420570167185974e-06
295,2.1886031003790175e-06,2.441496510735942e-06,1.295923934442273e-06,1.0060697649069934e-06,2.9554857306418943e-06,3.2289748200075196e-06,2.3130399111970374e-06,5.611663256304657e-06,3.200167497793914e-06,2.6618911870638716e-06,1.384470408381164e-06,2.383006109951252e-06,2.6060564988947924e-06,1.3178411731595408e-06,7.994785187102739e-07,1.448678252607947e-06
296,2.210118489185767e-06,2.521460552199149e-06,1.3125503145999974e-06,1.03206342684211e-06,3.0062777346613856e-06,3.1979205394757746e-06,2.259008999864053e-06,5.5325346328584774e-06,3.2489756342780187e-06,2.621546500600303e-06,1.3828792129709713e-06,2.357571604415381e-06,2.5647307988453727e-06,1.343812445766233e-06,7.817015518545653e-07,1.4763283137472394e-06
297,2.226047547122437e-06,2.6041530395740588e-06,1.3264827155675163e-06,1.0577753003106271e-06,3.0633817507119594e-06,3.1865511188452216e-06,2.2148919174630547e-06,5.436880933303551e-06,3.297875720857269e-06,2.579202814921493e-06,1.3823217724634652e-06,2.3279811120033603e-06,2.5231932265819557e-06,1.3733559256133645e-06,7.671344830485547e-07,1.5027891244940857e-06
298,2.236700691405572e-06,2.6888733434945836e-06,1.3378973505171636e-06,1.0826033287395964e-06,3.125048282816617e-06,3.19406343760145e-06,2.180352877749062e-06,5.325577972448445e-06,3.3485491004008e-06,2.5363999361933e-06,1.3827412663047914e-06,2.295027755393165e-06,2.4815445096101503e-06,1.4062892712406274e-06,7.56544013786712e-07,1.527246209201789e-06
299,2.2427579661957016e-06,2.7747519189186085e-06,1.3470706535249135e-06,1.1058712203086646e-06,3.1897091061311554e-06,3.2193350096570804e-06,2.1546697526874586e-06,5.200791610832995e-06,3.4027337169850065e-06,2.4944453955810034e-06,1.384224065049912e-06,2.2591302686874784e-06,2.4404551831813476e-06,1.4423302315611242e-06,7.50926918192871e-07,1.548769635092975e-06
300,2.2450204591063872e-06,2.8608635549015037e-06,1.3542380405497202e-06,1.1268479763080495e-06,3.256238349684091e-06,3.261016731576312e-06,2.1367828927721614e-06,5.06584992240682e-06,3.4617871731187375e-06,2.4543155897045985e-06,1.3869835472612726e-06,2.220296703569725e-06,2.400776088096489e-06,1.4811958331552348e-06,7.515069650630155e-07,1.5664645671200625e-06
301,2.244130987221895e-06,2.946502259495683e-06,1.3595205877583963e-06,1.144837692406948e-06,3.323888899266732e-06,3.317667634201415e-06,2.125326169233845e-06,4.924929073577026e-06,3.526539457899742e-06,2.416694032702709e-06,1.39123084269144e-06,2.178293818809724e-06,2.363144785346021e-06,1.5225617601441701e-06,7.597291017324662e-07,1.5797762784172802e-06
302,2.2404528476121373e-06,3.0313300750811564e-06,1.3629188638672843e-06,1.1593446846316034e-06,3.3920079112010817e-06,3.3878573327988376e-06,2.1186323707411884e-06,4.782551941463814e-06,3.5973917393802164e-06,2.381954467170509e-06,1.3970196101269354e-06,2.13293803946792e-06,2.3278637173403846e-06,1.5659574078582609e-06,7.772716405925517e-07,1.58862860096061e-06
303,2.2342090906542913e-06,3.1153139791942632e-06,1.3643271129366053e-06,1.170160081026202e-06,3.4597596650046794e-06,3.470134348338994e-06,2.1148409370306395e-06,4.642983924179273e-06,3.674506739338587e-06,2.350077410660402e-06,1.4041713953544343e-06,2.0843060107220144e-06,2.2949454450512496e-06,1.6107632488399187e-06,8.060105808360513e-07,1.5932460243316809e-06
304,2.2257735591758583e-06,3.198679577290115e-06,1.3635896563427473e-06,1.1772604608257956e-06,3.5260469823202985e-06,3.562872031426877e-06,2.112222316835025e-06,4.509811906898656e-06,3.757938609643022e-06,2.3206034644090323e-06,1.4122907212681227e-06,2.0327521890753562e-06,2.2641645125238093e-06,1.6563148599294661e-06,8.479770498275397e-07,1.5939869440115757e-06
305,2.2158726556817343e-06,3.282010968711306e-06,1.3605544413439015e-06,1.1806099044850988e-06,3.589724568646158e-06,3.6640861858390094e-06,2.109542874417434e-06,4.3858742983971225e-06,3.847570188860709e-06,2.292633681614509e-06,1.4208143694961093e-06,1.9788122786041592e-06,2.2351146939660384e-06,1.7020346626099608e-06,9.053351453730223e-07,1.5914660963136417e-06
306,2.205523058997002e-06,3.3662923084163577e-06,1.3550809190809644e-06,1.1800671506363276e-06,3.6499099141873177e-06,3.771310812762011e-06,2.106155694840554e-06,4.273352316746541e-06,3.942874545015549e-06,2.2648919124038124e-06,1.4290616202471442e-06,1.923096172455356e-06,2.207371148579773e-06,1.7475145990748973e-06,9.803073503697637e-07,1.5867342763722208e-06
307,2.195798726192036e-06,3.4526629457639197e-06,1.3471019250966315e-06,1.1754964368617887e-06,3.7060481544332423e-06,3.881604281867672e-06,2.101731815759361e-06,4.173829546689572e-06,4.042743319241388e-06,2.235977800853474e-06,1.436271091808125e-06,1.8662144749058628e-06,2.18080894646701e-06,1.7924516349988808e-06,1.0750448493083446e-06,1.5812035718467616e-06
308,2.187658835856845e-06,3.541981464281857e-06,1.3367802452430733e-06,1.1669666548111246e-06,3.757644265489631e-06,3.991742164265973e-06,2.095879532018852e-06,4.088283260950637e-06,4.145588459888262e-06,2.2048395485657476e-06,1.441642101113805e-06,1.808797539038304e-06,2.155904419465098e-06,1.8364549895829916e-06,1.1915593333945864e-06,1.5763807960816568e-06
309,2.181869355947712e-06,3.634501437850255e-06,1.324610672302416e-06,1.154855046670565e-06,3.803859582478122e-06,4.098556131342161e-06,2.088021274387862e-06,4.016987778648922e-06,4.249682808332315e-06,2.1712037125389353e-06,1.4444378845212688e-06,1.7515885747693225e-06,2.133775340326248e-06,1.8788749860473036e-06,1.3317726261864416e-06,1.5736628307189488e-06
310,2.1789536475829072e-06,3.729806649708444e-06,1.3113541138279948e-06,1.139809171622615e-06,3.843234908553376e-06,4.199256205597102e-06,2.0776307825073256e-06,3.959397065541984e-06,4.3535287746565025e-06,2.135631021331256e-06,1.444152235573684e-06,1.695462416362167e-06,2.1159483583411885e-06,1.918756662242193e-06,1.4975819896380533e-06,1.5743105713819994e-06
311,2.1791898540689604e-06,3.82692946931166e-06,1.2978565577540073e-06,1.1226303928570953e-06,3.873726484638789e-06,4.291601953554837e-06,2.0645384922061523e-06,3.914170866539496e-06,4.456011820079987e-06,2.099171618482772e-06,1.440603606001241e-06,1.6413089384980464e-06,2.1040394445363214e-06,1.9550013941679947e-06,1.690855595241879e-06,1.579494168119282e-06
312,2.182619605027469e-06,3.924584792484978e-06,1.2848831253279526e-06,1.1041325449802675e-06,3.893073325677533e-06,4.373947199081095e-06,2.0489860702959337e-06,3.879425542389988e-06,4.556199998478822e-06,2.0629368829453124e-06,1.4338265531956985e-06,1.5898888811967814e-06,2.0995282700876847e-06,1.9867368723907087e-06,1.913417612016443e-06,1.5902704468083659e-06
313,2.189046102666229e-06,4.021506653969488e-06,1.2730482908714165e-06,1.0850375077517595e-06,3.899340401823897e-06,4.4452414319601706e-06,2.0314489170774256e-06,3.853105790252335e-06,4.652916936118739e-06,2.0279113781951446e-06,1.42387579901394e-06,1.541763005287075e-06,2.1037267646137524e-06,2.0136124518664466e-06,2.1670319998797275e-06,1.607535100797721e-06
314,2.198102678459892e-06,4.116770889394837e-06,1.2628026146743248e-06,1.0659443572289804e-06,3.891418002458821e-06,4.504951765807497e-06,2.0124476368953786e-06,3.833322229206624e-06,4.744524076036842e-06,1.9950048200513214e-06,1.410762081825884e-06,1.497309517894281e-06,2.1178830153610126e-06,2.0357446451855518e-06,2.453289668457627e-06,1.6320323909230177e-06
315,2.2093674038254272e-06,4.209899102200724e-06,1.254412533386188e-06,1.0473096058333372e-06,3.869314801623558e-06,4.55279769370814e-06,1.9924327790172953e-06,3.818658718439462e-06,4.829167366659444e-06,1.9651000525746807e-06,1.3945339360719082e-06,1.4568083990003535e-06,2.143203125296875e-06,2.0534191485949074e-06,2.773437691065275e-06,1.6644029440752627e-06
316,2.2223751680897125e-06,4.300656509408804e-06,1.2479421584935638e-06,1.0294079978533632e-06,3.834144482072338e-06,4.588459067122101e-06,1.971682710574744e-06,3.8084994412676095e-06,4.90518357865395e-06,1.938953360692432e-06,1.3753874386305385e-06,1.4205286633082062e-06,2.1806951522418338e-06,2.0668541590726605e-06,3.128266185370804e-06,1.705224534865472e-06
317,2.2365291122113803e-06,4.388687923763301e-06,1.2432479114266141e-06,1.012360874904424e-06,3.7877529600670084e-06,4.611724311946458e-06,1.9502343995918765e-06,3.8032384345698547e-06,4.971298533524897e-06,1.9170490252007437e-06,1.3537337409502565e-06,1.3887248378719416e-06,2.230977305130926e-06,2.0762294942633038e-06,3.5180272288690716e-06,1.754994777323571e-06
318,2.251093111481833e-06,4.473249435131618e-06,1.23996483773989e-06,9.96265620069151e-07,3.7321783273980105e-06,4.623138042357504e-06,1.927969969027417e-06,3.8041884366470806e-06,5.026597788459177e-06,1.8995890980967649e-06,1.3301974604398696e-06,1.3615412936129503e-06,2.2941836593762564e-06,2.0819064258488022e-06,3.942350736070469e-06,1.814090776005037e-06
319,2.265314030476309e-06,4.553193096859423e-06,1.2375200066539244e-06,9.812949800045719e-07,3.66939563940422e-06,4.624480611288074e-06,1.9048705342548707e-06,3.8132199739484005e-06,5.0704130751147415e-06,1.8866159229924999e-06,1.3055597305901428e-06,1.3389476424668907e-06,2.369972546345517e-06,2.0845197294596975e-06,4.4002956479294535e-06,1.8827730452127272e-06
320,2.2785398327662166e-06,4.627164253564335e-06,1.2352733875539263e-06,9.67649797601176e-07,3.6014794888130897e-06,4.618536179202011e-06,1.8812645481425195e-06,3.832331298845431e-06,5.102220508267441e-06,1.8780771672417279e-06,1.2806772410112562e-06,1.320784813804567e-06,2.457583643008184e-06,2.0848294418995934e-06,4.890659883831121e-06,1.961166013466737e-06
321,2.2902811349076846e-06,4.693848679853223e-06,1.2327868799578262e-06,9.554552352743522e-07,3.530790953587489e-06,4.60839176887484e-06,1.857893783594487e-06,3.863329050512498e-06,5.1215095983521305e-06,1.8737615484696665e-06,1.2563673426263661e-06,1.3068427843359728e-06,2.555886229991713e-06,2.083565056281582e-06,5.412388689350506e-06,2.0492317542514693e-06
322,2.300217210828539e-06,4.752129089151483e-06,1.230008402833905e-06,9.44751611526979e-07,3.4599159872036947e-06,4.596913875061705e-06,1.8357604049220803e-06,3.907706723063243e-06,5.127674711434381e-06,1.8732353222231135e-06,1.2332791933500884e-06,1.2968730651762773e-06,2.663456259478605e-06,2.0814028781973178e-06,5.964780025345513e-06,2.1468676285745044e-06
323,2.308081219256145e-06,4.801108703486805e-06,1.2271783709545136e-06,9.355826109686648e-07,3.391514178072647e-06,4.586777521459585e-06,1.815874884647028e-06,3.966694627138503e-06,5.120236231909694e-06,1.875829584127672e-06,1.2118392933095875e-06,1.2905849607970695e-06,2.7786967842704957e-06,2.078995294879312e-06,6.547358312086618e-06,2.2540192125383857e-06
324,2.3134900059316024e-06,4.840007403893808e-06,1.2245858518285514e-06,9.280872769397438e-07,3.3282876178576592e-06,4.580872930642596e-06,1.799076928184042e-06,4.0413082553507095e-06,5.099379480516396e-06,1.8806021541583973e-06,1.192285997600324e-06,1.287701285453153e-06,2.8998432267301785e-06,2.0770098792502683e-06,7.1594880743131315e-06,2.3706032177612407e-06
325,2.3159080760443682e-06,4.867909661229939e-06,1.2224383855889504e-06,9.225092906542083e-07,3.273000890550247e-06,4.582576656772808e-06,1.7860006202865818e-06,4.13221688259505e-06,5.066325398435572e-06,1.886321006982431e-06,1.174697001806034e-06,1.2879925977717952e-06,3.024828185310407e-06,2.076156368848452e-06,7.799869102762588e-06,2.4963559412376886e-06
326,2.3147557964347676e-06,4.883442884805741e-06,1.220923315021657e-06,9.191016231703439e-07,3.228362782639894e-06,4.595538482511277e-06,1.7771616535874758e-06,4.239484889070324e-06,5.023329243736865e-06,1.891586954005869e-06,1.1589615560460705e-06,1.291191418680014e-06,3.1511925962063824e-06,2.0771005433464377e-06,8.466051284826376e-06,2.6308164079023474e-06
327,2.309532922076184e-06,4.884687755593207e-06,1.2203336427525054e-06,9.180070177229214e-07,3.1968650323304488e-06,4.623171671670224e-06,1.7730922149181356e-06,4.362371075098594e-06,4.973487915456039e-06,1.8950310254080584e-06,1.144759457591925e-06,1.2968754886638774e-06,3.2761667983543445e-06,2.0803128052953083e-06,9.154122338056802e-06,2.7733576746289867e-06
328,2.2999182716725875e-06,4.869501547929672e-06,1.2210818510797545e-06,9.192320554635834e-07,3.1807589151406306e-06,4.668272281998955e-06,1.7744119491672589e-06,4.49924689056841e-06,4.920418338987156e-06,1.8954913518551142e-06,1.131621677014741e-06,1.3044431124742303e-06,3.3969579447384714e-06,2.0860358604433668e-06,9.858727485255797e-06,2.9231082020186334e-06
