,EMG1,EMG2,EMG3,EMG4,EMG5,EMG6,EMG7,EMG8,EMG9,EMG10,EMG11,EMG12,EMG13,EMG14,EMG15,EMG16
0,2.5179442680809433e-07,5.8361540753458394e-08,1.157032027221172e-07,5.129650025367946e-07,8.899816898443517e-07,8.884058164789288e-07,7.756043361534404e-07,5.520411018730695e-07,4.991194138413511e-07,4.863660095107298e-07,-3.119153669883261e-11,5.819697218134815e-07,1.4200688460433068e-07,-4.416249696049193e-09,1.9197276460762344e-07,1.7159681311425432e-07
1,3.298452482509096e-07,1.7792957737871543e-07,2.3538763666157357e-07,6.250447459214289e-07,1.1635494084280433e-06,1.2352880152866123e-06,8.734140800094751e-07,7.708340409226038e-07,6.957291256579624e-07,8.748310484579285e-07,4.397260477246222e-07,6.542638190834697e-07,3.336484399100513e-07,1.9190760772755726e-07,2.5730418124014875e-07,3.378246274314618e-07
2,4.0952129476829124e-07,2.9578008985624975e-07,3.546707148487504e-07,7.37347516591188e-07,1.425441229194799e-06,1.5712432298322174e-06,9.781276216479522e-07,9.935090538968514e-07,8.941681230320961e-07,1.2390790112220799e-06,8.593751446910708e-07,7.311467838063361e-07,5.225866877217377e-07,3.802352850436029e-07,3.231867740588774e-07,4.991444874467986e-07
3,4.892212891662266e-07,4.10632091778477e-07,4.729052859003509e-07,8.481047692051598e-07,1.6727968084458948e-06,1.8959578835736985e-06,1.0891008628485411e-06,1.2181882629794325e-06,1.0911688460169467e-06,1.576608339258723e-06,1.2502827642416435e-06,8.116818217001654e-07,7.069248805058346e-07,5.591277459615061e-07,3.888124900275676e-07,6.518650867128306e-07
4,5.674539708020966e-07,5.213245392358664e-07,5.897482534914503e-07,9.558346920393289e-07,1.9034005780845447e-06,2.2088839687275827e-06,1.2056249831213174e-06,1.4432076520643862e-06,1.2835559608378494e-06,1.8852065469941856e-06,1.6057608711772418e-06,8.951713390010243e-07,8.849190746114022e-07,7.271671912531698e-07,4.5345207434848093e-07,7.933109396723937e-07
5,6.428758530100048e-07,6.267906543967015e-07,7.049987906702835e-07,1.0594998470619015e-06,2.1158604598126178e-06,2.5091228425714515e-06,1.326883761750068e-06,1.667035800328597e-06,1.4682934601406271e-06,2.1628469395542187e-06,1.9212317964522166e-06,9.811584253947668e-07,1.0549571048220668e-06,8.830438764310519e-07,5.164441672395812e-07,9.220823540397065e-07
6,7.144558929837227e-07,7.260308861475631e-07,8.184117675101142e-07,1.1585445074329132e-06,2.3093839753781027e-06,2.795320062734336e-06,1.451965356301675e-06,1.8882380921551217e-06,1.6427451452018881e-06,2.407676526695554e-06,2.194131151167566e-06,1.0692909280868785e-06,1.2156638976467974e-06,1.0256753885623956e-06,5.772088610750518e-07,1.0378892061104909e-06
7,7.81683005504999e-07,8.181850489413662e-07,9.296237192119157e-07,1.2527524860410272e-06,2.4833353558554152e-06,3.0655910260096513e-06,1.5798606523842613e-06,2.1055250202823158e-06,1.8050838067378277e-06,2.6180020432938604e-06,2.423696668101979e-06,1.1591768135977013e-06,1.3660311568670209e-06,1.1542995617903272e-06,6.35229152115292e-07,1.141108348371407e-06
8,8.446144115305226e-07,9.026164404087307e-07,1.0381944297139675e-06,1.3420366456080166e-06,2.636964075815617e-06,3.317596086250022e-06,1.7094160571188834e-06,2.317701017147053e-06,1.954409628461502e-06,2.7924045851146478e-06,2.6107232903458218e-06,1.2503071598240434e-06,1.505364171285869e-06,1.2685744415572633e-06,6.899922436867911e-07,1.2323342440869475e-06
9,9.036906931898989e-07,9.78878526658533e-07,1.143701967645071e-06,1.4263160278784429e-06,2.769524649856498e-06,3.5489088792812308e-06,1.839293953170527e-06,2.523463247467804e-06,2.090376284382406e-06,2.9302793476782246e-06,2.7573203278937303e-06,1.34200950073998e-06,1.6330887455121477e-06,1.3687282935640117e-06,7.40971243505805e-07,1.3121287783864091e-06
10,9.594485866556307e-07,1.046646948152827e-06,1.2458321157001745e-06,1.5054913178481336e-06,2.88063279722215e-06,3.75760550910507e-06,1.9679369425002757e-06,2.7212654573843836e-06,2.2126865402577376e-06,3.0324261116658364e-06,2.866645259182473e-06,1.4333931384883609e-06,1.7486760379658413e-06,1.4556564570665455e-06,7.876427748769893e-07,1.3810122254560745e-06
11,1.012339028868076e-06,1.1057768504256344e-06,1.3444205512847506e-06,1.5794693900315098e-06,2.9704864857061453e-06,3.942700424080348e-06,2.093578341990574e-06,2.9093864996796557e-06,2.3208760654215255e-06,3.1009723152209715e-06,2.94258285484818e-06,1.5233161240260688e-06,1.851769755695703e-06,1.530835467353774e-06,8.295233857821796e-07,1.439567333817309e-06
12,1.0627249264949927e-06,1.156430916172888e-06,1.4394058111629682e-06,1.6481684534521055e-06,3.039742801814914e-06,4.104078799346145e-06,2.2143722691458434e-06,3.0860558863507346e-06,2.4143681539467187e-06,3.1386750382345523e-06,2.9893777081238715e-06,1.6104476590928738e-06,1.942382034232723e-06,1.5961168756888281e-06,8.662850560719895e-07,1.488512359240912e-06
13,1.1109441542562056e-06,1.1990783723958795e-06,1.5307020814633472e-06,1.7114397063524e-06,3.089163158301455e-06,4.2419808762520184e-06,2.328519980910922e-06,3.2494878467656e-06,2.492542597164723e-06,3.1483815943586305e-06,3.011262293613225e-06,1.6934248881543089e-06,2.0210585373530317e-06,1.653538320610244e-06,8.978855837513396e-07,1.5287222780067612e-06
14,1.1573080197706114e-06,1.2343295806648166e-06,1.6180953656214643e-06,1.768981749620868e-06,3.1193437734618987e-06,4.356437109893279e-06,2.4342307987469366e-06,3.397925538275178e-06,2.5547726532015886e-06,3.1330671489774883e-06,3.012134383785022e-06,1.7709905282139809e-06,2.0889421238804154e-06,1.7051648184700286e-06,9.245435023895944e-07,1.5612519767291696e-06
15,1.202064152612669e-06,1.2628017281151231e-06,1.7012077372441343e-06,1.8203631462065773e-06,3.1307972622191445e-06,4.447010984323999e-06,2.529653903750089e-06,3.529858001761351e-06,2.600590286599219e-06,3.0960616818507117e-06,2.9953408938777484e-06,1.8420582708475381e-06,2.147627428618917e-06,1.7529567141150134e-06,9.465960438970579e-07,1.5873569766660322e-06
16,1.2453954638806777e-06,1.2851465358625418e-06,1.77946758893446e-06,1.865135672131042e-06,3.1242603221621134e-06,4.512892759320018e-06,2.6129896265524883e-06,3.6443263083826807e-06,2.6299149429030377e-06,3.0409904848792816e-06,2.9636114406350993e-06,1.9057742625047608e-06,2.198830272696043e-06,1.7986935300640127e-06,9.64409949721613e-07,1.6084455802835414e-06
17,1.2874348098871276e-06,1.302102198993755e-06,1.8521093701725496e-06,1.902948303918028e-06,3.100796870008829e-06,4.5530644466615815e-06,2.682666840289935e-06,3.7410083796171764e-06,2.6430568095551607e-06,2.9714469712714176e-06,2.91910206031019e-06,1.9615912079898113e-06,2.2440922309749872e-06,1.843921290599459e-06,9.78376609464083e-07,1.6259615693535365e-06
18,1.3282990856841814e-06,1.3144294563375502e-06,1.918278028800612e-06,1.9336141710223755e-06,3.0615996958972056e-06,4.566364040823616e-06,2.737421598801149e-06,3.819907720826417e-06,2.640585283716808e-06,2.8907377067884592e-06,2.863447139932765e-06,2.0092766499712277e-06,2.2846847288007816e-06,1.8899365868565704e-06,9.889209160536515e-07,1.641278297486187e-06
19,1.3681375646576588e-06,1.3228047011803283e-06,1.977205072272802e-06,1.9571603438248436e-06,3.007893005109094e-06,4.551797438010108e-06,2.7763968441524555e-06,3.880877189378399e-06,2.6234286218477022e-06,2.8018654461959776e-06,2.7978217216070923e-06,2.048816904881479e-06,2.3216488604694906e-06,1.937866832248128e-06,9.964610397952288e-07,1.6556312088649922e-06
20,1.407100995297186e-06,1.327756615437697e-06,2.0283872741832803e-06,1.973915626667223e-06,2.941198108880062e-06,4.5093117126097454e-06,2.7993819619199425e-06,3.923396458236672e-06,2.5930773763659228e-06,2.707578356442752e-06,2.7231225851454126e-06,2.0802684243076636e-06,2.355886893909862e-06,1.988774101722724e-06,1.0013671176357477e-06,1.670049448771038e-06
21,1.4452240717503381e-06,1.3296371186151464e-06,2.0717283000111048e-06,1.984608203255111e-06,2.863668376825484e-06,4.440439305200043e-06,2.8070091491317344e-06,3.946698697015004e-06,2.5514661558702728e-06,2.6103200956127347e-06,2.64024147100944e-06,2.103631310191105e-06,2.3883743491016337e-06,2.0436417512782577e-06,1.004018968280311e-06,1.6852899918183846e-06
22,1.482338016993334e-06,1.3286282853653063e-06,2.1075891851527285e-06,1.9903558166767775e-06,2.778036508386902e-06,4.348181581477554e-06,2.80060909735856e-06,3.949945644271627e-06,2.500563148824553e-06,2.512127704613582e-06,2.5502375633006206e-06,2.1187594174858323e-06,2.4205082213431653e-06,2.1032460246594856e-06,1.0049018652064107e-06,1.7018069550148738e-06
23,1.518108138498669e-06,1.3248220660078363e-06,2.1367035755698374e-06,1.992496778606763e-06,2.6871717376916805e-06,4.23627690566212e-06,2.7817332970582525e-06,3.9322438615493695e-06,2.44207771800819e-06,2.4146483072748636e-06,2.4543292871170676e-06,2.1253190492865353e-06,2.4543598482979614e-06,2.168077096875582e-06,1.0046032844157243e-06,1.7197746679561974e-06
24,1.5521546496456992e-06,1.3183496977355017e-06,2.159989035093698e-06,1.992367080172427e-06,2.593665313618454e-06,4.108484965124352e-06,2.7517387119835524e-06,3.89267391927397e-06,2.3774884066921964e-06,2.319359029306938e-06,2.353831164968428e-06,2.122917110697525e-06,2.4925596460093928e-06,2.238397732710944e-06,1.0037143169797555e-06,1.7391734594709177e-06
25,1.5840956188447119e-06,1.3094406490066154e-06,2.1783637426261375e-06,1.9911375720171713e-06,2.4996681182586823e-06,3.968336832690356e-06,2.711711920011632e-06,3.83062669788574e-06,2.3081961213997246e-06,2.2277706782851005e-06,2.250163318244468e-06,2.1114384518247916e-06,2.5378572650697648e-06,2.314310827829232e-06,1.0027381330612228e-06,1.7598763100671093e-06
26,1.6134862164738763e-06,1.2983504048584895e-06,2.192656700071408e-06,1.9897232912554906e-06,2.4068385761935383e-06,3.8192836105901e-06,2.662581249529124e-06,3.746445796877229e-06,2.235600690527477e-06,2.141364159189775e-06,2.1449210813333893e-06,2.0913629974892796e-06,2.5927080026343915e-06,2.3957206036562046e-06,1.002047844263394e-06,1.7816342422781795e-06
27,1.6397928018387816e-06,1.2852621932107191e-06,2.2035657107247077e-06,1.988793797548929e-06,2.316306031525241e-06,3.6648819224494803e-06,2.605207552950963e-06,3.6419665678663377e-06,2.161157622259138e-06,2.0613845542032633e-06,2.039876929453999e-06,2.063810817537062e-06,2.659132620089148e-06,2.4822677874076923e-06,1.0018743132719749e-06,1.8039747482960883e-06
28,1.6624384370182336e-06,1.2703045283143056e-06,2.2115732469155917e-06,1.9888816737486577e-06,2.2287326264146276e-06,3.5087843173156866e-06,2.5404151380669706e-06,3.520488182382859e-06,2.086413342194455e-06,1.9887451629754138e-06,1.9368279913121878e-06,2.0303388096720465e-06,2.738745543908562e-06,2.5733443700050634e-06,1.0023355557818945e-06,1.8261578777440835e-06
29,1.6808997005799997e-06,1.2536731395144322e-06,2.216886531377291e-06,1.9904262314015635e-06,2.1445362085595233e-06,3.354539420077215e-06,2.4689516176438934e-06,3.3861502071604134e-06,2.0128973869009367e-06,1.9240435558086097e-06,1.8374006106943932e-06,1.992726733457579e-06,2.8327577862234005e-06,2.6681705890423458e-06,1.0035207374212184e-06,1.8472935125071324e-06
30,1.6948937741075555e-06,1.2356889541974633e-06,2.219513330474921e-06,1.993663623398402e-06,2.0642064575944673e-06,3.2053138050177695e-06,2.391416010114227e-06,3.243191563982307e-06,1.9419596217325926e-06,1.8675734058271066e-06,1.7429501765571158e-06,1.952876736136242e-06,2.9419635618324104e-06,2.765919432927522e-06,1.0055662183766103e-06,1.8665396181454556e-06
31,1.704569087122059e-06,1.2167312333224852e-06,2.219374690319124e-06,1.998501906560304e-06,1.9885172395304163e-06,3.06366657348894e-06,2.3083116250025683e-06,3.095528562826058e-06,1.874723067816049e-06,1.8193068246542896e-06,1.6545302898685926e-06,1.912722099777529e-06,3.0667484193969965e-06,2.8659565746118826e-06,1.0086568400470388e-06,1.883226071340448e-06
32,1.710476746884621e-06,1.1972081146996657e-06,2.2162872620369074e-06,2.004532610060079e-06,1.9184701033641395e-06,2.9314785978490747e-06,2.2203053674961625e-06,2.9466430945665377e-06,1.8121571836354234e-06,1.7788770504146404e-06,1.5729155799410624e-06,1.8740690724065741e-06,3.2070530497165615e-06,2.9681257701366206e-06,1.012979279933913e-06,1.8968722925517402e-06
33,1.7132962021283009e-06,1.177647278227038e-06,2.2098576986765666e-06,2.011174551166873e-06,1.855036919546137e-06,2.8100537438217113e-06,2.1285103878713548e-06,2.799632106641354e-06,1.755145548081792e-06,1.7456302785354356e-06,1.4987137771075053e-06,1.8384487315642028e-06,3.3623005094690077e-06,3.0727705295584223e-06,1.0186878994189424e-06,1.9071342198614993e-06
34,1.7135656765743074e-06,1.1587418729945476e-06,2.199451663654479e-06,2.017833341142829e-06,1.7989311490699178e-06,2.7003022797320564e-06,2.034504246658448e-06,2.6573312212409944e-06,1.704431305754818e-06,1.7188516057142606e-06,1.432488303218898e-06,1.8070703851505411e-06,3.531372962730846e-06,3.1803574667935968e-06,1.0259013960855706e-06,1.9137200263708687e-06
35,1.7115846529950226e-06,1.1412348582270686e-06,2.1842857476764092e-06,2.0239842333611332e-06,1.7505400935083624e-06,2.602873285971124e-06,1.9400452069394255e-06,2.522350953389345e-06,1.6605048595356981e-06,1.6980706268012767e-06,1.374774601988416e-06,1.7808818686489787e-06,3.7127105017881e-06,3.291040766762861e-06,1.0346986593078818e-06,1.916385217951113e-06
36,1.7074215202114434e-06,1.125758311359864e-06,2.163574051218021e-06,2.029144766712288e-06,1.7099549224489377e-06,2.5181752615830384e-06,1.8467611908277937e-06,2.3969566683094347e-06,1.6235663229983783e-06,1.6831456950474763e-06,1.3259927929282674e-06,1.7606677597971135e-06,3.9045024082135555e-06,3.40453129750524e-06,1.0450742063319986e-06,1.915009742152135e-06
37,1.700969572011747e-06,1.112747785897335e-06,2.136664111038137e-06,2.032736368693656e-06,1.6770012291425462e-06,2.446319673685806e-06,1.7560313633977143e-06,2.2829542786968374e-06,1.5935707721763234e-06,1.6741091515475099e-06,1.2863471145167395e-06,1.7471069752167436e-06,4.104752263640675e-06,3.5202300318010496e-06,1.0568975609283297e-06,1.9095889253803473e-06
38,1.6920795885639022e-06,1.1024326493272768e-06,2.1031166552489246e-06,2.0339465459480974e-06,1.6512940011956243e-06,2.3870501360492778e-06,1.6690084880453462e-06,2.1817184025828174e-06,1.5703155551111506e-06,1.6710456553779072e-06,1.2557768866726987e-06,1.7407545887678031e-06,4.311120036471959e-06,3.6373925743008653e-06,1.0699410431567138e-06,1.9001390084229041e-06
39,1.6807117083841864e-06,1.0949116088290943e-06,2.06269337951393e-06,2.0318012890302464e-06,1.6323591191976137e-06,2.339726437278188e-06,1.586671674424813e-06,2.0943126429573233e-06,1.5535159827962834e-06,1.6740425699770137e-06,1.2339594445960995e-06,1.741984460459973e-06,4.520846525990573e-06,3.7551404927718026e-06,1.0839368435493079e-06,1.8866984856104499e-06
40,1.6669614646926657e-06,1.0902780541294029e-06,2.0152933113404255e-06,2.025508407486971e-06,1.6197384802613956e-06,2.303429351159311e-06,1.5098592851491392e-06,2.021574250687914e-06,1.5428285418607085e-06,1.6830848912246632e-06,1.2203601544475687e-06,1.7509851578113554e-06,4.730987691225187e-06,3.872265313757872e-06,1.0986037208123036e-06,1.869454612591141e-06
41,1.6509627898804928e-06,1.0886566727519594e-06,1.9609647367529533e-06,2.0148280335041025e-06,1.612977169231581e-06,2.277167988825146e-06,1.4392390512164248e-06,1.9640935836766557e-06,1.5379029672744512e-06,1.6979600013052598e-06,1.2143311268995287e-06,1.7678330306514696e-06,4.938655816185e-06,3.986978039705407e-06,1.1136372628012964e-06,1.8488538141393786e-06
42,1.6328527525337195e-06,1.0901199928859283e-06,1.9000457453893694e-06,2.000152876745899e-06,1.6115398447387333e-06,2.2600550732575393e-06,1.3752400405398937e-06,1.9221397875589784e-06,1.5385276203783806e-06,1.718314524191312e-06,1.2152026412540288e-06,1.792557348808708e-06,5.140883062843434e-06,4.096812100697687e-06,1.1286796063405755e-06,1.8255819828380618e-06
43,1.6128546451823526e-06,1.0946098357930942e-06,1.833267442420865e-06,1.9822799569614834e-06,1.614763798916163e-06,2.251310658359897e-06,1.3180213574330856e-06,1.8956207082502572e-06,1.5447468421559168e-06,1.7438250486320998e-06,1.2222866205097958e-06,1.8251738852259324e-06,5.33420279276725e-06,4.1987255867194185e-06,1.143302612397976e-06,1.8004092545047233e-06
44,1.5913440659697523e-06,1.1019187006920414e-06,1.7616389663701014e-06,1.962163964936921e-06,1.6218558977870282e-06,2.2500940092980464e-06,1.2674806298957836e-06,1.884095887548907e-06,1.5568370842993202e-06,1.7742845080091344e-06,1.2347916632150955e-06,1.8657597554967382e-06,5.5143849276961986e-06,4.289323337765002e-06,1.1570061742237915e-06,1.7740024485794108e-06
45,1.568839642993084e-06,1.1116797256635126e-06,1.6862548488957612e-06,1.9408659430500225e-06,1.6319339325920996e-06,2.255318141824717e-06,1.223266701777214e-06,1.8868340700622504e-06,1.5752128400073319e-06,1.8095188064360827e-06,1.2517390281831583e-06,1.914556628519424e-06,5.676574513786663e-06,4.365101719175951e-06,1.1692168974419333e-06,1.7468461620059158e-06
46,1.545963627620105e-06,1.1233670718384821e-06,1.6082660620135655e-06,1.9195852961329772e-06,1.6441621430742355e-06,2.265561637896378e-06,1.18481868923216e-06,1.9028756889355861e-06,1.6003466441302721e-06,1.8493017554948948e-06,1.2719704807907357e-06,1.9719686931404416e-06,5.815686315309041e-06,4.4226556099466705e-06,1.1793536521106582e-06,1.7193003383089254e-06
47,1.5233670034250102e-06,1.1363357525837837e-06,1.528928456654621e-06,1.8995573978618498e-06,1.6579220778263831e-06,2.2790376358984753e-06,1.1514647462492027e-06,1.931036501936879e-06,1.6326726995862927e-06,1.8933980854298869e-06,1.2942771757940558e-06,2.038397214881225e-06,5.926830265866876e-06,4.458910317622997e-06,1.186986894779335e-06,1.691711421522288e-06
48,1.5016215466395573e-06,1.1498846868968312e-06,1.4495278322761111e-06,1.8818346526027993e-06,1.6728628302872974e-06,2.2936314731306198e-06,1.1225447770914583e-06,1.969927896854893e-06,1.6724832520267759e-06,1.941633506567699e-06,1.3176057497057784e-06,2.114043080742431e-06,6.005751848289003e-06,4.471453457403091e-06,1.1919598370826425e-06,1.6645255376053654e-06
49,1.481171797680591e-06,1.1633620514829714e-06,1.3712324186397328e-06,1.8671587106661982e-06,1.6887748036219492e-06,2.307130435158854e-06,1.0974835479979274e-06,2.01815641398911e-06,1.7199145595347048e-06,1.993903408251793e-06,1.341247656605212e-06,2.198796413167864e-06,6.049290467757659e-06,4.4587573092680195e-06,1.1943744905836656e-06,1.6383547232223974e-06
50,1.4623783702780664e-06,1.176281397302789e-06,1.2950330005942922e-06,1.8559908436358596e-06,1.705415641081087e-06,2.3176425363764754e-06,1.0757848592998968e-06,2.0746816993870873e-06,1.7750221834676296e-06,2.050151671408241e-06,1.364940675443416e-06,2.292169151546929e-06,6.055476943508092e-06,4.420013589290982e-06,1.194510021189234e-06,1.6139051637533904e-06
51,1.4455450030889264e-06,1.1882949708155232e-06,1.2217715256295797e-06,1.8485587785010038e-06,1.722456517763386e-06,2.324010281626193e-06,1.0569949711603663e-06,2.1391117828987047e-06,1.8378256422146634e-06,2.1103273011536613e-06,1.3888446995410431e-06,2.393242901437294e-06,6.023025301522873e-06,4.354914518928613e-06,1.1927444661806768e-06,1.591799932195086e-06
52,1.430862445106465e-06,1.1990248889655254e-06,1.1521608185556827e-06,1.8448408800519803e-06,1.7395355533105724e-06,2.3259918350572137e-06,1.040695143366322e-06,2.2117103029517345e-06,1.9082603956875244e-06,2.1742834936387973e-06,1.4133707791627077e-06,2.500679557487506e-06,5.95110180034227e-06,4.264005369922483e-06,1.189468693670722e-06,1.5724603512419385e-06
53,1.4183402364456343e-06,1.2079655680458748e-06,1.086796338989289e-06,1.8445705842346191e-06,1.7562851358920786e-06,2.324106537559829e-06,1.0264956368555049e-06,2.293074449109396e-06,1.98607607428381e-06,2.2416336793786523e-06,1.4389322181176303e-06,2.6127835485585554e-06,5.8402107475590415e-06,4.149359472488909e-06,1.1849941841206767e-06,1.5560908300292514e-06
54,1.4078375738668003e-06,1.214558561392092e-06,1.0261886630967749e-06,1.8473283931690016e-06,1.7723172417463005e-06,2.319236392034038e-06,1.0139846775135349e-06,2.383698134379314e-06,2.070786305676564e-06,2.311664745272937e-06,1.4657522864355068e-06,2.7275806880537444e-06,5.693313749835547e-06,4.014680046068577e-06,1.1794921939583554e-06,1.54267845663435e-06
55,1.3992121539880595e-06,1.218333031964903e-06,9.707727860791862e-07,1.8526988885114502e-06,1.7872363899881651e-06,2.3122309912217942e-06,1.0027250150045697e-06,2.4836776864488667e-06,2.161837250479258e-06,2.3833655764252444e-06,1.493804039114667e-06,2.842923224002726e-06,5.515878233377542e-06,3.864585647116541e-06,1.1730010515946048e-06,1.531975229911569e-06
56,1.3924619429675952e-06,1.2189992440587785e-06,9.20888667502543e-07,1.860427288992358e-06,1.8006714320461795e-06,2.3037465368890165e-06,9.923984484078257e-07,2.5926207984415687e-06,2.2589551368158556e-06,2.455496817440052e-06,1.5228803033511253e-06,2.956593773490103e-06,5.3148489708206384e-06,3.7036750394320596e-06,1.1654951727675238e-06,1.5234901365787305e-06
57,1.3877221380258406e-06,1.2164750129862535e-06,8.767830937625328e-07,1.8704952911116323e-06,1.812278177643872e-06,2.294271433362298e-06,9.82966563383738e-07,2.709654427934038e-06,2.3622748309738776e-06,2.5267005585712394e-06,1.5527219119307875e-06,3.066317520174918e-06,5.097374090791437e-06,3.5359893859792197e-06,1.1569201181689657e-06,1.5165275299090764e-06
58,1.3851369177850196e-06,1.2108339998443492e-06,8.386641410813209e-07,1.883082588636192e-06,1.8216911720425111e-06,2.2840970577168475e-06,9.746433848966788e-07,2.833429313460199e-06,2.4720418801802953e-06,2.5957061351072377e-06,1.583061573025785e-06,3.169677119621621e-06,4.869934403367366e-06,3.364966589350014e-06,1.1471498666203462e-06,1.5103009198607356e-06
59,1.3847471563097703e-06,1.2021833588910036e-06,8.067898268090525e-07,1.8984736294112125e-06,1.8284431008302204e-06,2.2732101881028355e-06,9.677047953734246e-07,2.962155380450932e-06,2.58820852180109e-06,2.661443577219676e-06,1.6135234853809178e-06,3.26408233912862e-06,4.637983691390748e-06,3.1935946427273803e-06,1.136011319788179e-06,1.5040775982126927e-06
60,1.3864927612877029e-06,1.1906024015032153e-06,7.815189147839134e-07,1.917005229381195e-06,1.832000301640277e-06,2.2613097575747385e-06,9.623242157626654e-07,3.0937362279692098e-06,2.71023902391187e-06,2.72291771440226e-06,1.643518438482471e-06,3.346898870495075e-06,4.405877771445333e-06,3.0245108187795702e-06,1.1234714858781202e-06,1.4972975947688065e-06
61,1.3902909354438837e-06,1.1762463045702483e-06,7.632746540339646e-07,1.939076060637348e-06,1.8320075321296225e-06,2.2480740311790107e-06,9.585426441853248e-07,3.2258783702226053e-06,2.8370711133719174e-06,2.779130716606208e-06,1.6722763836842957e-06,3.4155563224862538e-06,4.1768959147545556e-06,2.8599873117543036e-06,1.1098328177497433e-06,1.4896888014812808e-06
62,1.3960640710090381e-06,1.159481013601457e-06,7.52454623664999e-07,1.9651433369115965e-06,1.828501164444956e-06,2.233561930314688e-06,9.563500330661073e-07,3.356056534303685e-06,2.9670929474721843e-06,2.8292529971997022e-06,1.6989641592371053e-06,3.4674453822400353e-06,3.953340534266991e-06,2.70185525451545e-06,1.0957645040239142e-06,1.4813487463506156e-06
63,1.403671231522157e-06,1.1408743576166497e-06,7.493560737236734e-07,1.995656593960282e-06,1.8218228824194199e-06,2.2184046916716344e-06,9.557880947425292e-07,3.4816005471487638e-06,3.0981076202514766e-06,2.8727076388291762e-06,1.722758575175192e-06,3.499918291487692e-06,3.7368247188914887e-06,2.551459236335683e-06,1.082168828031659e-06,1.4726686782125142e-06
64,1.412827800314023e-06,1.1210831407485105e-06,7.541443519975011e-07,2.0309824391827555e-06,1.812346936901592e-06,2.2035859028019274e-06,9.569872667925313e-07,3.6001658177206034e-06,3.2273267017267096e-06,2.9089609372958492e-06,1.7428381405979088e-06,3.5108047698303555e-06,3.5287375388921334e-06,2.4097017719708376e-06,1.069980679114162e-06,1.4641313001931099e-06
65,1.4230862766891536e-06,1.1007653359456742e-06,7.668452879104236e-07,2.0713725267073045e-06,1.8003597361842695e-06,2.190044805191388e-06,9.601553686270276e-07,3.7102775769312427e-06,3.3515256201087525e-06,2.937387571602286e-06,1.7583565088265262e-06,3.499204129504505e-06,3.330603645014264e-06,2.277170174245261e-06,1.0600340916089783e-06,1.456195692501414e-06
66,1.4338646552268246e-06,1.080530367226218e-06,7.873435248430452e-07,2.1169298180065988e-06,1.7862097663646735e-06,2.1784647813726395e-06,9.655935850609932e-07,3.8115223997387884e-06,3.4674562114279836e-06,2.957384083545323e-06,1.7684950535950991e-06,3.465974493780559e-06,3.1440714774326008e-06,2.1542733786480925e-06,1.05304988552004e-06,1.4493384070467737e-06
67,1.4444789834182284e-06,1.06088531460503e-06,8.15376117113257e-07,2.167544078895656e-06,1.7704641694752572e-06,2.1693175870190774e-06,9.737222999707285e-07,3.9044190699462416e-06,3.5723273585859194e-06,2.9684381012898156e-06,1.7726396822577455e-06,3.4136092229764613e-06,2.970649088004189e-06,2.041312632495465e-06,1.0496441339092708e-06,1.4441110755409435e-06
68,1.4542179215135776e-06,1.0422129278413709e-06,8.505227955792618e-07,2.222842254754582e-06,1.7538118665388535e-06,2.1629782580538e-06,9.850510516049542e-07,3.990199599798164e-06,3.664068160869839e-06,2.97025828639915e-06,1.7706014527290764e-06,3.345571531822672e-06,2.8115180027146023e-06,1.938509602432711e-06,1.0502823163977249e-06,1.4410948497068857e-06
69,1.4625321526917332e-06,1.0248032016036408e-06,8.92218689026042e-07,2.282177992046357e-06,1.736829762334624e-06,2.159765000309127e-06,1.0001141341308945e-06,4.07058731191585e-06,3.7413684942444018e-06,2.963214850709576e-06,1.7627201258650336e-06,3.2655160016650753e-06,2.6675827065824095e-06,1.8460193500048284e-06,1.0552280984455175e-06,1.4407592977628632e-06
70,1.469220704466323e-06,1.008863939591111e-06,9.398098103252305e-07,2.34470756901933e-06,1.719894232181582e-06,2.1598937761415275e-06,1.0194269439998313e-06,4.147571503726838e-06,3.803689048810378e-06,2.9485893625227686e-06,1.7497465252243302e-06,3.176880070741468e-06,2.5396823897519323e-06,1.7638864465664896e-06,1.0645216809014002e-06,1.4433326605493908e-06
71,1.4743967760010977e-06,9.944866141320689e-07,9.926165148243894e-07,2.4095701273751034e-06,1.7032923886102817e-06,2.1633763494960496e-06,1.0434510853537074e-06,4.223177623829454e-06,3.85129880391589e-06,2.9281792182582146e-06,1.7325521238202597e-06,3.082866158395102e-06,2.428740746208975e-06,1.692013217514358e-06,1.0779708268786755e-06,1.4487843580464092e-06
72,1.4782397873835066e-06,9.816208067592146e-07,1.0499361879510217e-06,2.476013002419855e-06,1.6873423625330292e-06,2.1699224266325667e-06,1.072551949066467e-06,4.299193584740056e-06,3.885172865825663e-06,2.9036866930588325e-06,1.71183684175966e-06,2.986445818993181e-06,2.3356709718714857e-06,1.630222344010269e-06,1.0951539293394908e-06,1.456922179161314e-06
73,1.4807778712549027e-06,9.700700682763431e-07,1.110993247006668e-06,2.543372253069807e-06,1.6724170196659543e-06,2.1789687333709337e-06,1.1069722727217343e-06,4.376835735774686e-06,3.906596510961433e-06,2.876410986714149e-06,1.6879825257955981e-06,2.8902019292472442e-06,2.2611701850584578e-06,1.578291228194984e-06,1.1154348533434901e-06,1.4675258109647173e-06
74,1.4819043580771913e-06,9.595172874840846e-07,1.1749235590811277e-06,2.6110493152848626e-06,1.659013056365094e-06,2.1898956478180555e-06,1.1468344103888488e-06,4.456463883219377e-06,3.916628989334727e-06,2.8472473578093313e-06,1.661081329552556e-06,2.7961477066780425e-06,2.2056359342845017e-06,1.5358747106236987e-06,1.1379944690644377e-06,1.4804236098851518e-06
75,1.4815638429823268e-06,9.495915621804586e-07,1.2408270221199825e-06,2.678551107193274e-06,1.647912302519543e-06,2.2022848630424638e-06,1.1921611746922243e-06,4.5374609324747e-06,3.915750288919179e-06,2.816804140408064e-06,1.6310674113250533e-06,2.7056974628274268e-06,2.1691847060304137e-06,1.5024363986221268e-06,1.161888604400678e-06,1.4954956657253088e-06
76,1.4798687947733575e-06,9.39920706556342e-07,1.3078512743837293e-06,2.745457790054179e-06,1.6402157628456466e-06,2.2159645224895104e-06,1.2428773266198508e-06,4.618249251302925e-06,3.903822087915337e-06,2.7854404493476995e-06,1.597819138638633e-06,2.619849953156022e-06,2.151679995290035e-06,1.477296814373918e-06,1.186082496389298e-06,1.5126709550958555e-06
77,1.4770426727206542e-06,9.301450835299076e-07,1.375269868649858e-06,2.8112331166774922e-06,1.6371645110861897e-06,2.2308071540749986e-06,1.29876355359898e-06,4.696419607155657e-06,3.880340665399767e-06,2.75314569926856e-06,1.5611893091737907e-06,2.53950279101981e-06,2.1527511559740463e-06,1.4597267722654475e-06,1.2094345716577752e-06,1.5319405492110708e-06
78,1.4733495779415878e-06,9.199619997064187e-07,1.4425107364925136e-06,2.874982418161276e-06,1.639962155209596e-06,2.2465818990747086e-06,1.3594237635075245e-06,4.769070960003522e-06,3.844884280510933e-06,2.719452714484629e-06,1.5210995783543275e-06,2.465676742505937e-06,2.1718150561583893e-06,1.4489450940424521e-06,1.2307368097331023e-06,1.5533172175671511e-06
79,1.4691901934361999e-06,9.091872711698816e-07,1.5090914075324302e-06,2.93529779454398e-06,1.6497535466152482e-06,2.263058535521925e-06,1.4243638479944801e-06,4.833328988048318e-06,3.797469795594292e-06,2.6835966875935054e-06,1.4777542157225878e-06,2.3994646987042195e-06,2.2081888579761708e-06,1.4441063481981583e-06,1.2488911180417625e-06,1.5767162583820605e-06
80,1.4652441348901558e-06,8.97752939054697e-07,1.5744853268232932e-06,2.9902531516844157e-06,1.6676455726836698e-06,2.2801504571990057e-06,1.4931757542695253e-06,4.886765082817269e-06,3.738625872786476e-06,2.6448768490050975e-06,1.4317868082029402e-06,2.341781798679888e-06,2.2612916330485637e-06,1.4445071932814757e-06,1.263079374279792e-06,1.6018620281962865e-06
81,1.4624148102486591e-06,8.856891816543242e-07,1.6380189513825434e-06,3.037559072753386e-06,1.694627103523664e-06,2.297894388573953e-06,1.5656875601655607e-06,4.927515985558529e-06,3.669387418924515e-06,2.6029742225900857e-06,1.3841680385841627e-06,2.2931533833982396e-06,2.3307626001482346e-06,1.4498965378655418e-06,1.2727481059205906e-06,1.628305732041281e-06
82,1.4616370212600534e-06,8.731327304681064e-07,1.6988726988787524e-06,3.07481930145226e-06,1.731441034143107e-06,2.3163750189243465e-06,1.6419347488789186e-06,4.954196196939458e-06,3.5914145278679664e-06,2.558039485491991e-06,1.3359445578482552e-06,2.2536461778009467e-06,2.4164440220342533e-06,1.4604849688065949e-06,1.2774970582074229e-06,1.6554700249222736e-06
83,1.46375711258315e-06,8.602972208676429e-07,1.7561205849450475e-06,3.0998119296056344e-06,1.7785432838145719e-06,2.3357309406411374e-06,1.7219595248516708e-06,4.965810515218513e-06,3.507055528856699e-06,2.51061683622671e-06,1.2880312902208899e-06,2.2229061109095193e-06,2.518304293078609e-06,1.4766240785796497e-06,1.2770543506267932e-06,1.6826275037742679e-06
84,1.4694737489214955e-06,8.474177932772535e-07,1.808731132159509e-06,3.11078451473942e-06,1.8361511075017869e-06,2.356172976044628e-06,1.805616429818933e-06,4.961756963455737e-06,3.419149773347597e-06,2.4615651587171585e-06,1.241170513988565e-06,2.200245027943983e-06,2.6362784188792193e-06,1.4985778194930054e-06,1.2712918492737676e-06,1.7089203123062673e-06
85,1.4792532495915954e-06,8.347220323854671e-07,1.8556353506869183e-06,3.1067411479180606e-06,1.9042506703845804e-06,2.3778988425765795e-06,1.8925562094150463e-06,4.941887693487719e-06,3.330688612382711e-06,2.4119847067917324e-06,1.1959717177507292e-06,2.184736156756366e-06,2.7700258404493386e-06,1.526592860181844e-06,1.2602089253741661e-06,1.7335579156327822e-06
86,1.4932555855403906e-06,8.224309447305651e-07,1.895954291493355e-06,3.0876249812794575e-06,1.9825112554702527e-06,2.401014447034961e-06,1.9823499821160273e-06,4.906611567178682e-06,3.2445299344096632e-06,2.363058691281861e-06,1.1529385191301552e-06,2.175372944892643e-06,2.9187259087404115e-06,1.5610175021549633e-06,1.2439919202092087e-06,1.7561050880446986e-06
87,1.5113169401168817e-06,8.107826639093366e-07,1.929226489728036e-06,3.054307576508325e-06,2.0702028734500653e-06,2.4256299922210473e-06,2.074549938313699e-06,4.8570421951665835e-06,3.1631798104098922e-06,2.3158584794355104e-06,1.1124763258060314e-06,2.171319713092823e-06,3.0809789049082187e-06,1.602227630265034e-06,1.223149087038291e-06,1.7766455609886399e-06
88,1.532966727108738e-06,8.000238271396404e-07,1.9554310602765583e-06,3.008359631179474e-06,2.166202731827865e-06,2.451985195798162e-06,2.168618597013877e-06,4.795096330223027e-06,3.0886285942755887e-06,2.271227373390374e-06,1.0748840231583702e-06,2.17203912956397e-06,3.254771449309067e-06,1.6504598531315485e-06,1.1985134942770893e-06,1.795711972809219e-06
89,1.5574463707777691e-06,7.903538799286257e-07,1.9748109098608656e-06,2.9516442239191123e-06,2.2690683929286426e-06,2.4803522181036337e-06,2.2638775850689467e-06,4.723390686723204e-06,3.022357129177729e-06,2.2296904041649037e-06,1.0403317776340556e-06,2.1771149505621763e-06,3.4374569043863733e-06,1.7057330194276429e-06,1.1710606776757126e-06,1.8140393855741913e-06
90,1.5837240396431854e-06,7.8190360755164e-07,1.9876289829358894e-06,2.8859007179271527e-06,2.377087167592394e-06,2.5107639765799287e-06,2.3595322206611545e-06,4.644893965983554e-06,2.965531834245021e-06,2.191360637939062e-06,1.008833273317211e-06,2.185993887877408e-06,3.625772692498635e-06,1.767848100842934e-06,1.14173041757377e-06,1.83230173637334e-06
91,1.6105204387157417e-06,7.747581677226919e-07,1.9939712671976407e-06,2.8125856046024656e-06,2.488255850713613e-06,2.5428165775115557e-06,2.4546650518570075e-06,4.5624456109265505e-06,2.919159116419413e-06,2.156005203652532e-06,9.802326898796865e-07,2.1979631319493005e-06,3.815926354747013e-06,1.83638437874538e-06,1.1113449096190284e-06,1.8509663232983092e-06
92,1.6364137982010845e-06,7.689556837663873e-07,1.993719162058484e-06,2.7330399600767505e-06,2.6002614590658915e-06,2.575675296386449e-06,2.5482005500813928e-06,4.478331030949e-06,2.8840215126553112e-06,2.123344238627014e-06,9.542593171294235e-07,2.2123531122649895e-06,4.003721435411491e-06,1.91065465290517e-06,1.0805624017509391e-06,1.8703068095152929e-06
93,1.6600578972817046e-06,7.644689085582547e-07,1.986774505417635e-06,2.6487166882337118e-06,2.710495415635954e-06,2.6081985626272863e-06,2.638913589981568e-06,4.394039681233015e-06,2.860502442550009e-06,2.0933827545578445e-06,9.306760071329307e-07,2.228781650389946e-06,4.1847357323276454e-06,1.989628601031786e-06,1.0498597326268606e-06,1.8905414797998053e-06
94,1.680343833859928e-06,7.612091995738714e-07,1.973405573054039e-06,2.5612052672361594e-06,2.816056355360377e-06,2.639022785706446e-06,2.7254340351709894e-06,4.310175782937143e-06,2.848474482194174e-06,2.0664961184009796e-06,9.094326508368535e-07,2.2472799713264096e-06,4.354624103722239e-06,2.071880130189113e-06,1.019554770477274e-06,1.91195473625707e-06
95,1.6963857980762943e-06,7.590191766541781e-07,1.9544499673089764e-06,2.472085147289392e-06,2.9138862461033004e-06,2.6665722990762033e-06,2.8062677158992466e-06,4.226460359274688e-06,2.847275074160814e-06,2.043233177360028e-06,8.906792335938035e-07,2.2681869926077376e-06,4.509497693619954e-06,2.1555991234742407e-06,9.898132304535412e-07,1.9348448616704533e-06
96,1.707578426223063e-06,7.576564628275227e-07,1.9312419477931096e-06,2.382798515363697e-06,3.0012269432838756e-06,2.6891108388819857e-06,2.8800114722416243e-06,4.141853080036559e-06,2.855766814530946e-06,2.024078138003215e-06,8.746379370771454e-07,2.2918510395981857e-06,4.64612066669248e-06,2.2386419191570888e-06,9.606266506746637e-07,1.9593626374113075e-06
97,1.7138764333146935e-06,7.568575734086156e-07,1.9053435607995572e-06,2.294616685258937e-06,3.076190585434446e-06,2.704928713008079e-06,2.945727900451607e-06,4.054824450855858e-06,2.872497688247417e-06,2.0093464610019057e-06,8.614776785513873e-07,2.3183224643498497e-06,4.761684754542727e-06,2.318589690446925e-06,9.318452304584629e-07,1.985466836339406e-06
98,1.7159534746836926e-06,7.564868878069743e-07,1.8782563782087204e-06,2.2086156279294954e-06,3.138032228235112e-06,2.7126379276518394e-06,3.0031853330431563e-06,3.963761739439432e-06,2.8958196037891627e-06,1.9991853964916067e-06,8.512574939550766e-07,2.347192589531916e-06,4.853395678122231e-06,2.3928799328703412e-06,9.032846505053806e-07,2.0130588709079748e-06
99,1.714975665146985e-06,7.566250465518189e-07,1.8512428909992148e-06,2.1256423006230962e-06,3.1869614001339954e-06,2.711484959666448e-06,3.0528351686250166e-06,3.867455290215765e-06,2.923827400382287e-06,1.9935804713995635e-06,8.439038169497505e-07,2.3776367452751765e-06,4.918537793774871e-06,2.459079318201468e-06,8.747841457137084e-07,2.0420908563555147e-06
100,1.712198211552882e-06,7.574925695709103e-07,1.8252838387579852e-06,2.0463329871890947e-06,3.2236285124358273e-06,2.7014902031394386e-06,3.0956521612423195e-06,3.765512923694926e-06,2.9542980185219604e-06,1.9922920488059264e-06,8.392034474887331e-07,2.408633796458057e-06,4.955221726608487e-06,2.5151141425877427e-06,8.461580510642835e-07,2.072470031831115e-06
101,1.7086905583040074e-06,7.592977482956037e-07,1.801130526552046e-06,1.971133558549022e-06,3.248600899435763e-06,2.6832429306640028e-06,3.1329269900932155e-06,3.6585134331286924e-06,2.9848641084781965e-06,1.9947569050747204e-06,8.36838840377974e-07,2.4392212392573857e-06,4.963065947156063e-06,2.559253551411812e-06,8.171501923085809e-07,2.10385698016681e-06
102,1.7052612902620773e-06,7.621406238771246e-07,1.7793906943257318e-06,1.900295921618315e-06,3.26220311022985e-06,2.657590459820369e-06,3.1659777980915172e-06,3.5478626115102064e-06,3.0133259950493197e-06,2.0000350974365596e-06,8.364910513357676e-07,2.468593161146622e-06,4.943025087446103e-06,2.590145968950317e-06,7.87463104225109e-07,2.135574595786053e-06
103,1.702465286959564e-06,7.659977350717381e-07,1.7605914140215067e-06,1.8339494835298434e-06,3.2648106166601415e-06,2.6256282055969728e-06,3.195805241595665e-06,3.435462669155622e-06,3.0378559355671636e-06,2.0068453693884643e-06,8.379496501990303e-07,2.495970309498049e-06,4.896656993573955e-06,2.6072150339192256e-06,7.568026156518691e-07,2.1667653937767977e-06
104,1.7005879929147133e-06,7.707889791891224e-07,1.7451814246984786e-06,1.7722184735855134e-06,3.2572040102419053e-06,2.5888655611390987e-06,3.222822680138708e-06,3.3233118265209735e-06,3.0569725856710336e-06,2.013748319987011e-06,8.411333958284972e-07,2.520383308322128e-06,4.825753390543092e-06,2.6110137157930837e-06,7.249080843546479e-07,2.1967579907843823e-06
105,1.699607615649155e-06,7.764982421618888e-07,1.7334702487335827e-06,1.7152345874508228e-06,3.240561654073608e-06,2.5491371295016275e-06,3.24675142936377e-06,3.2132000412421147e-06,3.0693752514420236e-06,2.0193780176370805e-06,8.460368112464802e-07,2.5405966161090448e-06,4.732504569724618e-06,2.603077279663945e-06,6.915986929832327e-07,2.22534133005154e-06
106,1.6991931327105931e-06,7.832346651119974e-07,1.7255505986735377e-06,1.66306691832344e-06,3.2161216103561463e-06,2.50824886202739e-06,3.26671640610984e-06,3.1067088510207454e-06,3.0739135029442316e-06,2.02247445090898e-06,8.526771938949161e-07,2.5552368764963897e-06,4.619618782279301e-06,2.585396554668874e-06,6.568461894286166e-07,2.252660560402605e-06
107,1.698778451300166e-06,7.911807900597539e-07,1.7212771974803985e-06,1.6157386067092865e-06,3.184903245664411e-06,2.4676882606882734e-06,3.2815477309060813e-06,3.0054610841652893e-06,3.069829552028012e-06,2.0218073821698756e-06,8.610742290825669e-07,2.563008604933117e-06,4.490180056438294e-06,2.5598661763088095e-06,6.208405955894195e-07,2.278881514885831e-06
108,1.6976575805582628e-06,8.004940212114493e-07,1.7203342101367832e-06,1.5733324741454208e-06,3.1477260728773077e-06,2.428585765068877e-06,3.2901540119484927e-06,2.911268407328379e-06,3.057005416037042e-06,2.0163184063750553e-06,8.712770426487552e-07,2.5628944939813244e-06,4.3475005962525746e-06,2.5279482011614875e-06,5.839654262418384e-07,2.3039981498535943e-06
109,1.6950087102074273e-06,8.112262858084959e-07,1.7223372432977254e-06,1.536014914311035e-06,3.105298743555274e-06,2.391871513187425e-06,3.2917851105834227e-06,2.8259853372516956e-06,3.0358349518420787e-06,2.005398586801093e-06,8.833976459283679e-07,2.5542817090635976e-06,4.195064989004872e-06,2.4905948466391157e-06,5.467111006849586e-07,2.327875666036887e-06
110,1.6899102389526834e-06,8.232896267434748e-07,1.7268642017000064e-06,1.5039498517725078e-06,3.0581356935087256e-06,2.3584464261935807e-06,3.2861858343143323e-06,2.7512794307448473e-06,3.0067819486283666e-06,1.9889336432190075e-06,8.975833126611573e-07,2.5369870755270267e-06,4.036372791563179e-06,2.44835993986623e-06,5.096458675201963e-07,2.350352606735282e-06
111,1.6815001406337064e-06,8.364970751930775e-07,1.7333766589963198e-06,1.4772284076713334e-06,3.006517563416845e-06,2.329233513386932e-06,3.2737383972272305e-06,2.6885677923150124e-06,2.970126525898715e-06,1.967115035488719e-06,9.139561828471212e-07,2.5112270244622576e-06,3.874610831216187e-06,2.4016583360273328e-06,4.7339933381824564e-07,2.3712809334559416e-06
112,1.6692213424856967e-06,8.506604671476888e-07,1.7411494714121499e-06,1.4558369663123683e-06,2.9507440974747757e-06,2.305146963394927e-06,3.2555318088964956e-06,2.639031598162327e-06,2.9261398950202613e-06,1.940355584544978e-06,9.325733378653487e-07,2.4775916797444596e-06,3.712469286779266e-06,2.351059315687184e-06,4.3859618956073344e-07,2.3904973609762143e-06
113,1.6529421264176728e-06,8.656418538328335e-07,1.7493407890344964e-06,1.4395974271078818e-06,2.891450713931748e-06,2.2870432681517092e-06,3.233182892486487e-06,2.6035213261028016e-06,2.8753054092873465e-06,1.909389251385198e-06,9.53416856305589e-07,2.4370432410498227e-06,3.552321432206875e-06,2.297377429627582e-06,4.058318351852192e-07,2.4077742116638813e-06
114,1.6329195103782874e-06,8.812928317248343e-07,1.7571634925769775e-06,1.4280986253466907e-06,2.829653312607633e-06,2.2756223575894426e-06,3.2084095379732593e-06,2.5824393029312916e-06,2.8182441472931193e-06,1.8753122401778308e-06,9.764175950308653e-07,2.390889862532584e-06,3.3965038850919586e-06,2.241521032559856e-06,3.75736105456178e-07,2.422869001569593e-06
115,1.6097535869573332e-06,8.973564015354266e-07,1.7640512337109099e-06,1.4206682124480973e-06,2.766546303129964e-06,2.271304553215075e-06,3.1826164811520236e-06,2.575753391719201e-06,2.7555784917891577e-06,1.8394500955272529e-06,1.0014869388046719e-06,2.3406277549593616e-06,3.247390161871015e-06,2.1843512444508256e-06,3.4904607125952497e-07,2.4357145969099885e-06
116,1.5843915718231562e-06,9.134541856493525e-07,1.7697904204135507e-06,1.4163919930510682e-06,2.7032475938249114e-06,2.2742074697800704e-06,3.156758823559285e-06,2.5830669647584696e-06,2.6880001893799083e-06,1.8031506306645029e-06,1.0285416558015464e-06,2.287680864556058e-06,3.107248547262548e-06,2.1266489851724684e-06,3.26630824335132e-07,2.4465983950439655e-06
117,1.5580683869022591e-06,9.291795258381671e-07,1.7745836954554697e-06,1.414240595651444e-06,2.640623976957074e-06,2.2842515917686965e-06,3.1314931438281185e-06,2.6036332492508913e-06,2.61641040595329e-06,1.7676642264077113e-06,1.057552250469581e-06,2.2332561800374157e-06,2.9780068617213637e-06,2.0690403608468744e-06,3.094924396192436e-07,2.456157986979974e-06
118,1.5321050493202406e-06,9.441812532540858e-07,1.778947389162522e-06,1.4133347444507786e-06,2.579306787732123e-06,2.3012975873373124e-06,3.1073959448803135e-06,2.6363819799244444e-06,2.5419762407274977e-06,1.7341965798082999e-06,1.0885692979672648e-06,2.1783691592438987e-06,2.861061369092694e-06,2.0118839639713584e-06,2.9875519738330846e-07,2.4651775048439263e-06
119,1.507689042461898e-06,9.581561378575262e-07,1.7834428066172907e-06,1.4131797720879078e-06,2.5198387005666597e-06,2.32523627977878e-06,3.0850052437977506e-06,2.6800234690548624e-06,2.4661128237524147e-06,1.7039894626886124e-06,1.1216544701202721e-06,2.123849903369875e-06,2.7572176198387914e-06,1.955274794252069e-06,2.956409767271005e-07,2.4743703573972478e-06
120,1.485766129767306e-06,9.70858055192073e-07,1.7884266533362263e-06,1.4136755794961889e-06,2.462701039558583e-06,2.3559997083231983e-06,3.064648224450464e-06,2.7331455577957876e-06,2.390367796514962e-06,1.6782643475444874e-06,1.1567985683386963e-06,2.0703038107878926e-06,2.6667215375230584e-06,1.8992438313289353e-06,3.0148918814601366e-07,2.484334729991246e-06
121,1.4670046683782073e-06,9.822137621492515e-07,1.793975837179384e-06,1.4149679408360522e-06,2.4082001870078944e-06,2.3934721302728708e-06,3.0462917403595744e-06,2.7942471609705547e-06,2.3162089476580157e-06,1.6581169449036475e-06,1.1939269741194002e-06,2.018169252555417e-06,2.589324086150308e-06,1.84402869820246e-06,3.178413455474561e-07,2.495591495123123e-06
122,1.4517961774144397e-06,9.923939564031634e-07,1.799935464282171e-06,1.4173544454052593e-06,2.3564472116171108e-06,2.437323579945479e-06,3.029600728553538e-06,2.8617849666091825e-06,2.2448676250413827e-06,1.6444671541999362e-06,1.2329212567144065e-06,1.967825637334983e-06,2.5244174708784883e-06,1.7901462064660995e-06,3.464972918342163e-07,2.5085281381203625e-06
123,1.4403273688143703e-06,1.001711506522044e-06,1.8059523585377826e-06,1.4212949306501358e-06,2.3074487179461127e-06,2.4868829066422842e-06,3.0141210136613667e-06,2.934310951621895e-06,2.1773048955204975e-06,1.6380003143721904e-06,1.2735761084837487e-06,1.919592663760268e-06,2.471199149141188e-06,1.7382888982571426e-06,3.894713430000517e-07,2.5233374747696644e-06
124,1.4326886994221994e-06,1.0104963617052006e-06,1.811461016047394e-06,1.4274089003108196e-06,2.2611808920595386e-06,2.5412210739177204e-06,2.9994924482468482e-06,3.0106476285010695e-06,2.1141750874883276e-06,1.639096322965125e-06,1.315566074355171e-06,1.873653482796377e-06,2.428681926407168e-06,1.6892953034251503e-06,4.4888895027966603e-07,2.5401515642917934e-06
125,1.4289207287577182e-06,1.0190974120302101e-06,1.8157430026706034e-06,1.4363797532774588e-06,2.2177430010483143e-06,2.5994975131510777e-06,2.9856851277429423e-06,3.0899376703023123e-06,2.055779550938136e-06,1.6478526623310304e-06,1.3584988179615817e-06,1.8300860293476957e-06,2.3955295961512707e-06,1.64414789091804e-06,5.269116839380078e-07,2.5593064451489213e-06
126,1.4290080984556778e-06,1.0279162219864734e-06,1.8181465744230142e-06,1.4488027544595815e-06,2.1776244887080078e-06,2.661389514551338e-06,2.97316005396257e-06,3.1714654865074553e-06,2.0021621142950517e-06,1.6642034007922855e-06,1.4019748000244368e-06,1.7890520240403143e-06,2.3699300805871326e-06,1.6038381108319526e-06,6.257235961673823e-07,2.581451204668337e-06
127,1.4328982288241004e-06,1.0373531342567821e-06,1.8183388308610175e-06,1.465084858671716e-06,2.141808886597512e-06,2.7273383125596133e-06,2.9628006656024763e-06,3.2543554473434117e-06,1.953314064071463e-06,1.6879919232077272e-06,1.4455923420834426e-06,1.7509438438454057e-06,2.349699907987416e-06,1.5691747582098654e-06,7.475297652017706e-07,2.607360663114646e-06
128,1.4405087861398207e-06,1.0477054864697009e-06,1.8164006222126597e-06,1.4854392126038904e-06,2.11156814140423e-06,2.7984906289431215e-06,2.955600934677057e-06,3.337398720368799e-06,1.90927890791003e-06,1.7189010811885743e-06,1.4889778906879988e-06,1.7162970105956682e-06,2.3326513021100976e-06,1.5406822643539767e-06,8.945358639018193e-07,2.6376071091680643e-06
129,1.4517129472966145e-06,1.0591008711346514e-06,1.812714536686357e-06,1.5098848502965795e-06,2.0881426583933967e-06,2.876409599023036e-06,2.952311757047426e-06,3.419172873901436e-06,1.87017298938529e-06,1.7563456613712213e-06,1.531828993318273e-06,1.685563205857445e-06,2.31704122268501e-06,1.5186273513404295e-06,1.0689218072642034e-06,2.672344941394839e-06
130,1.4663767351663008e-06,1.0714883752665982e-06,1.8077277334189052e-06,1.5381903933563153e-06,2.0725610330080462e-06,2.962719252673604e-06,2.9533154173463574e-06,3.4983440653247724e-06,1.836249273714971e-06,1.7995048068737365e-06,1.5738402663200576e-06,1.658944706425643e-06,2.30180761874205e-06,1.5030921760349194e-06,1.272798400249095e-06,2.711363902671069e-06
131,1.48439011847698e-06,1.0846616868093219e-06,1.801732078529698e-06,1.5698213670900632e-06,2.0656682734791813e-06,3.058839220377845e-06,2.9587775441415818e-06,3.5738696960197977e-06,1.8078606510337686e-06,1.8474707553456185e-06,1.614536170971965e-06,1.6363245429356309e-06,2.2864695070237462e-06,1.4939922819741528e-06,1.5081715563219932e-06,2.7543971228393446e-06
132,1.5056235267768046e-06,1.0982949771081661e-06,1.7947748812521365e-06,1.603964825501133e-06,2.068200296001998e-06,3.165907169659971e-06,2.968840953790076e-06,3.6449466603928017e-06,1.7852582296202774e-06,1.8993640779766523e-06,1.6531846155458383e-06,1.6172654835689643e-06,2.2708267440273058e-06,1.4910438479440471e-06,1.7769334199330537e-06,2.8014734112204357e-06
133,1.529898525703366e-06,1.1120409370366774e-06,1.7866700696254452e-06,1.639636445195134e-06,2.0807520785853405e-06,3.284855470836476e-06,2.983636431417878e-06,3.710777364302079e-06,1.7684803536868184e-06,1.954441478877131e-06,1.6888918208358316e-06,1.601094235949606e-06,2.25465649600506e-06,1.493721136662342e-06,2.080793876608739e-06,2.8530917197599473e-06
134,1.5569949809733263e-06,1.1256981314533521e-06,1.777002098811071e-06,1.6757955201784565e-06,2.10371160932288e-06,3.41645933893045e-06,3.0031368999993136e-06,3.7702805387895013e-06,1.75741494312665e-06,2.0122222871639284e-06,1.7208048254346543e-06,1.5870151009988714e-06,2.2375180542436984e-06,1.5012350743573497e-06,2.4211294152268783e-06,2.9102059619241447e-06
135,1.5866087580133899e-06,1.1392825450103604e-06,1.765152583638891e-06,1.7113639029356287e-06,2.1372705283013532e-06,3.5612035596157703e-06,3.027028403309305e-06,3.821827172752694e-06,1.7518253490817502e-06,2.072485932622978e-06,1.748273419400669e-06,1.574138985768297e-06,2.218740169264718e-06,1.512618461749431e-06,2.798867018530811e-06,2.9740978322142127e-06
136,1.6182691289185014e-06,1.1528954534564459e-06,1.7504475383702718e-06,1.7451296117381142e-06,2.181449518158343e-06,3.719035488522333e-06,3.054704336076375e-06,3.863126800168349e-06,1.7512901164995144e-06,2.1351344519458116e-06,1.7709441325318478e-06,1.5614605590304394e-06,2.197605961466763e-06,1.526901739259218e-06,3.214515024527002e-06,3.046127325780048e-06
137,1.651318943091724e-06,1.1665362054641422e-06,1.7323790929351622e-06,1.7756572137353177e-06,2.2360322250295095e-06,3.8891727446347514e-06,3.08539171181249e-06,3.89146277688244e-06,1.7552619752572454e-06,2.2000252093690963e-06,1.7888444759300972e-06,1.5479322795362152e-06,2.173544281854564e-06,1.5431913560511666e-06,3.668379284628735e-06,3.127397037320536e-06
138,1.685045592989143e-06,1.1800199498686899e-06,1.710794003134377e-06,1.8013637505955963e-06,2.3004415265996194e-06,4.069998519617588e-06,3.1183997392290933e-06,3.904326638815361e-06,1.763318761442995e-06,2.266785511768812e-06,1.802398519679632e-06,1.5326417056107962e-06,2.1461254436909775e-06,1.5606376860869946e-06,4.16083151395347e-06,3.2184823344023955e-06
139,1.71892621122296e-06,1.1929944145022259e-06,1.685976403141923e-06,1.8207929837938923e-06,2.3736695457338746e-06,4.258983286999936e-06,3.153429265906786e-06,3.900141138642505e-06,1.7753605199709537e-06,2.3346645730542978e-06,1.8122691629028094e-06,1.5149642181439203e-06,2.11499123815653e-06,1.5784671454498094e-06,4.692359365702489e-06,3.3193166104311402e-06
140,1.7527976837649198e-06,1.2050314858940203e-06,1.6585716679007403e-06,1.8329627991041513e-06,2.454300330245889e-06,4.45264627701549e-06,3.1907623355353747e-06,3.878622650729122e-06,1.7915180254664869e-06,2.402531451348721e-06,1.819097506449025e-06,1.494644607853564e-06,2.079960349797998e-06,1.596057238690823e-06,5.2633364768446145e-06,3.4292431554116064e-06
141,1.7868045567493844e-06,1.215791184841292e-06,1.6294120545466455e-06,1.8375983753618583e-06,2.5405617690944844e-06,4.646651544865542e-06,3.231151833763754e-06,3.840641584860557e-06,1.811877157308648e-06,2.469088028738412e-06,1.8233407661288494e-06,1.4718553005040895e-06,2.0412563336036585e-06,1.612946896856901e-06,5.873721271670283e-06,3.54720414306004e-06
142,1.8211678206279646e-06,1.22517545832287e-06,1.599402835626192e-06,1.8351207632392286e-06,2.6303373167821704e-06,4.83612245451101e-06,3.275452686327611e-06,3.7878041221851393e-06,1.8362674547529619e-06,2.5332368954316262e-06,1.8252690106284402e-06,1.4472104876555261e-06,1.9995967635635366e-06,1.6288318031240942e-06,6.522817049521436e-06,3.6719341569515676e-06
143,1.8559347415788285e-06,1.2333587813019808e-06,1.5695024328269226e-06,1.8264044149194095e-06,2.721207336821667e-06,5.0161736622375494e-06,3.324271733076838e-06,3.7220326985013575e-06,1.8642139933432623e-06,2.5943464424865696e-06,1.824984339120201e-06,1.4216552005277214e-06,1.956002376258057e-06,1.6435499777411747e-06,7.209022991157913e-06,3.8020380140238904e-06
144,1.890864246832792e-06,1.240695464362595e-06,1.5406740903707215e-06,1.8124419859915452e-06,2.8106387565130045e-06,5.1825572183479135e-06,3.3778763746052537e-06,3.645276466613132e-06,1.8950649379064426e-06,2.65219892312533e-06,1.822397611108453e-06,1.3962453333390873e-06,1.9114569300640697e-06,1.6569838583315463e-06,7.929508591904053e-06,3.935958090059331e-06
145,1.9255165166508586e-06,1.2476218791925587e-06,1.5137710173173337e-06,1.7940703388960563e-06,2.8962402920629993e-06,5.332279068006889e-06,3.4363222618269e-06,3.559363395293275e-06,1.9282249209422032e-06,2.7066755574967726e-06,1.81724777623689e-06,1.3719285466725198e-06,1.8666628411969244e-06,1.6690015798176802e-06,8.679884637142399e-06,4.071880001162907e-06
146,1.959468561498989e-06,1.2546298310514574e-06,1.4894535613997588e-06,1.7718589501703787e-06,2.975932592349646e-06,5.464094273257701e-06,3.4995823308307928e-06,3.4659822569375947e-06,1.9632586572103303e-06,2.7574089170059852e-06,1.8091961531853906e-06,1.349410172828359e-06,1.8219718794175771e-06,1.6796022132460847e-06,9.453954335830241e-06,4.2076247185721964e-06
147,1.9924644955332933e-06,1.2622456544678252e-06,1.4681766963403359e-06,1.7461722041924832e-06,3.0480985426650294e-06,5.5788340787142165e-06,3.5675499596779476e-06,3.3667853238851845e-06,1.999727345300441e-06,2.8036525731592428e-06,1.797917975341694e-06,1.3291180236350337e-06,1.7774249453107674e-06,1.6890974896853728e-06,1.0243527216341276e-05,4.340588725778989e-06
148,2.024390060721287e-06,1.2709420658151604e-06,1.4501936620842736e-06,1.7173103303416449e-06,3.1118163306608e-06,5.679420458514182e-06,3.639945151183114e-06,3.26352905228036e-06,2.0369607548625416e-06,2.844503241050865e-06,1.7831191762816016e-06,1.3112567128077494e-06,1.7328774246450525e-06,1.6980599953823616e-06,1.1038271687757988e-05,4.467767534625237e-06
149,2.055120914033999e-06,1.281040660627013e-06,1.4355490802825622e-06,1.6856379993737136e-06,3.1669855736335125e-06,5.770304246379127e-06,3.716198596052714e-06,3.158085355172793e-06,2.074038179049229e-06,2.8793506935284326e-06,1.76448618303347e-06,1.295926688239025e-06,1.6881833866829162e-06,1.707110235345094e-06,1.1825568005932878e-05,4.585839015445432e-06
150,2.0843633277123576e-06,1.2926725247686136e-06,1.4240968520650547e-06,1.651702193404719e-06,3.2140686742476986e-06,5.856396158259225e-06,3.795362461701866e-06,3.0522535919688823e-06,2.109963836801336e-06,2.9082020645505014e-06,1.7416547952889801e-06,1.2832228347800152e-06,1.6433558392951927e-06,1.7168157717562574e-06,1.2590312418434339e-05,4.6912594134132415e-06
151,2.111650437860569e-06,1.3057689676003027e-06,1.4155845345869937e-06,1.6163281414378025e-06,3.2535951052680173e-06,5.94217413863228e-06,3.876029407517936e-06,2.9475604620515715e-06,2.143829967447527e-06,2.9315894964781273e-06,1.71429123150226e-06,1.2732526184147783e-06,1.5986726840957402e-06,1.7277506008320118e-06,1.3314850790766985e-05,4.780359041667298e-06
152,2.1365602340297787e-06,1.3200609846805202e-06,1.4097559309445229e-06,1.5806161949513589e-06,3.2858971148386665e-06,6.031428026551744e-06,3.9562431960099585e-06,2.8452780337175076e-06,2.17486055841794e-06,2.9501100898477245e-06,1.6822916395641121e-06,1.2661290781737435e-06,1.5547440194482776e-06,1.740526920376941e-06,1.3979444836535242e-05,4.849488415399437e-06
153,2.158944852651133e-06,1.335095494060982e-06,1.4063711322225735e-06,1.5458237214035469e-06,3.311275234445328e-06,6.127345086279562e-06,4.033582098253201e-06,2.7465700716244162e-06,2.2023394838015933e-06,2.963980071792606e-06,1.6460077122690048e-06,1.2619928804424648e-06,1.5124826975767004e-06,1.7557055363849694e-06,1.4563600457870631e-05,4.895313720842024e-06
154,2.1789059705514e-06,1.3502584150812127e-06,1.4051627252877016e-06,1.5132171766833502e-06,3.330420075170636e-06,6.232687209568516e-06,4.105589211656806e-06,2.6524959741901746e-06,2.2254544365202832e-06,2.9729689777550445e-06,1.6063590447048715e-06,1.2610155546592277e-06,1.4729408937733113e-06,1.7736942479758843e-06,1.5048296173844795e-05,4.915257108349425e-06
155,2.196547977450032e-06,1.364812965579379e-06,1.4058328760032204e-06,1.4839670794526733e-06,3.3448036541930863e-06,6.350131086080174e-06,4.1703061350863224e-06,2.56386567429196e-06,2.2432072055970487e-06,2.976713116481014e-06,1.564733497136092e-06,1.2633388881575321e-06,1.4371890508404221e-06,1.794708889828593e-06,1.541858029234623e-05,4.9078132726729276e-06
156,2.2117995303328885e-06,1.3779797688413602e-06,1.4080793166236746e-06,1.4590914179817862e-06,3.3567436110771117e-06,6.482598672860747e-06,4.2265141936936796e-06,2.481149081020865e-06,2.254560399250132e-06,2.9751326215741297e-06,1.5227156379406783e-06,1.268990722643214e-06,1.4063805074095653e-06,1.8187331702722056e-06,1.5665246228785974e-05,4.872379637479491e-06
157,2.2244969023244717e-06,1.389065360513948e-06,1.411586644943829e-06,1.4394258963419892e-06,3.3690175921479412e-06,6.633218729280555e-06,4.273645001328489e-06,2.4044788910837654e-06,2.258757655917987e-06,2.968699775783355e-06,1.4818058786707945e-06,1.2778376722875176e-06,1.3818405404793588e-06,1.845482028951913e-06,1.5784211241279585e-05,4.808648010341551e-06
158,2.2346229022139517e-06,1.3976244106988134e-06,1.4160785847597116e-06,1.4256046584983742e-06,3.3842665432907345e-06,6.804855775392934e-06,4.311618834194364e-06,2.3336388608896657e-06,2.2556166694809824e-06,2.958442931329322e-06,1.4432726796469988e-06,1.289640429295904e-06,1.365015552296807e-06,1.874514934408396e-06,1.577417039555293e-05,4.716254341502871e-06
159,2.242471830743626e-06,1.4036018233280965e-06,1.421486740093909e-06,1.4180432638809282e-06,3.4045740366308954e-06,6.999525258049129e-06,4.340805932444788e-06,2.2680347427897068e-06,2.2456566578647996e-06,2.9457220793889145e-06,1.4081458672223965e-06,1.3042228161125102e-06,1.3573289298519848e-06,1.9055336788288596e-06,1.563558353809583e-05,4.595249474278002e-06
160,2.248598618232871e-06,1.4073472362074973e-06,1.428026428069447e-06,1.416915502907999e-06,3.431418397533175e-06,7.21805791473205e-06,4.3620746479144264e-06,2.2067506190378487e-06,2.2300136277660293e-06,2.931919701821488e-06,1.3772660395834252e-06,1.3215828318873797e-06,1.360058748158537e-06,1.9386135774583655e-06,1.537243168402796e-05,4.446930557684781e-06
161,2.2535823268147194e-06,1.4094405644179262e-06,1.4360709279937418e-06,1.4221232203335462e-06,3.465919367354759e-06,7.460096463537391e-06,4.376777751378786e-06,2.1487315253075146e-06,2.210193993871876e-06,2.91815548924368e-06,1.3513310148983542e-06,1.3417908745201165e-06,1.3743090076694689e-06,1.9741187749750997e-06,1.4994140810656759e-05,4.274163930071677e-06
162,2.2578270141200777e-06,1.4104323887344564e-06,1.4460422173027952e-06,1.433273981093869e-06,3.5091391363915965e-06,7.72425508239907e-06,4.386613028853471e-06,2.093043262041594e-06,2.1877598632812876e-06,2.905079202486826e-06,1.3309320701931859e-06,1.3647934110489875e-06,1.4010284692853246e-06,2.01240514039297e-06,1.4515234652382822e-05,4.081028418434267e-06
163,2.2615526491706976e-06,1.4106700872303082e-06,1.4584474066616957e-06,1.4496875930314176e-06,3.5622396337736588e-06,8.008278824971683e-06,4.393395279637323e-06,2.039133157956953e-06,2.1640517160901014e-06,2.8928377134768427e-06,1.3165666630734876e-06,1.3903078840810692e-06,1.44099203017314e-06,2.0536240094954557e-06,1.3953307632284398e-05,3.872214794342258e-06
164,2.264865048982043e-06,1.4102706624132237e-06,1.4739090386566461e-06,1.4704808005680253e-06,3.626423948601569e-06,8.309202850031804e-06,4.398765395992259e-06,1.9869691648239133e-06,2.1401019834779648e-06,2.881213679740759e-06,1.3086058316504994e-06,1.4178270305476354e-06,1.4947481555479625e-06,2.097758938915916e-06,1.332687084174033e-05,3.652519573966973e-06
165,2.2677798909307086e-06,1.4092178816057475e-06,1.4930878947392026e-06,1.494754741917882e-06,3.7026902956792245e-06,8.62358381297136e-06,4.403910493798658e-06,1.9369701933504023e-06,2.116780991171303e-06,2.869714472333685e-06,1.3072375619335588e-06,1.4466653435867044e-06,1.5625923535418853e-06,2.1447234307905075e-06,1.265383259338782e-05,3.42648559967784e-06
166,2.2701842279360946e-06,1.4075464653394423e-06,1.5165768241038844e-06,1.5217628214568588e-06,3.791555821252081e-06,8.947788109758241e-06,4.409505737404838e-06,1.889829186389798e-06,2.094941885538762e-06,2.857527631979179e-06,1.3124273914848273e-06,1.4759953818758655e-06,1.6446348061082713e-06,2.1943275308299763e-06,1.1950604313324646e-05,3.198214992751901e-06
167,2.2717378949333175e-06,1.4055192059466565e-06,1.5448213149135564e-06,1.5509062545101924e-06,3.892913381433495e-06,9.278242297183648e-06,4.415938042912387e-06,1.8463861246230123e-06,2.075369474966521e-06,2.843572758046946e-06,1.3239078682510113e-06,1.5048614070272627e-06,1.7409252788710376e-06,2.246193397835386e-06,1.1231541727257921e-05,2.9714066124725126e-06
168,2.2718054006265876e-06,1.4036734134095858e-06,1.5780447469935913e-06,1.5816039994939469e-06,4.006064293772199e-06,9.61158867946415e-06,4.423525211721982e-06,1.8075421189713966e-06,2.0587002434525943e-06,2.826749058233493e-06,1.3411878832815927e-06,1.5321793657342663e-06,1.8514839809691311e-06,2.2998299398301773e-06,1.0508643678942297e-05,2.7494882245885974e-06
169,2.2696180751984804e-06,1.4026990108716735e-06,1.6162077569854227e-06,1.6132091626675472e-06,4.129866486251122e-06,9.944737100274043e-06,4.432448980001847e-06,1.774137207716314e-06,2.0455070462693265e-06,2.8061692527170436e-06,1.3635624556163292e-06,1.5567499205326752e-06,1.976233393509999e-06,2.354884254970899e-06,9.79158982033593e-06,2.535618452749769e-06
170,2.26472927422162e-06,1.4032302263050171e-06,1.659078142724748e-06,1.645006707531608e-06,4.2628048032045515e-06,1.027478085430311e-05,4.442436617654042e-06,1.7468503669265061e-06,2.036405996382858e-06,2.7812442702653043e-06,1.3901207422516932e-06,1.5773597189924148e-06,2.114960124156687e-06,2.411339415870524e-06,9.087981778677466e-06,2.332557893137064e-06
171,2.25742237633469e-06,1.4056785056865302e-06,1.7063983519270483e-06,1.6762017392280107e-06,4.4028615480796445e-06,1.0598716896224836e-05,4.45246619730672e-06,1.7262416179050316e-06,2.0319924073619726e-06,2.7517161746711307e-06,1.4197763498785244e-06,1.593000289042329e-06,2.267296354793755e-06,2.4694431607888243e-06,8.403550669623918e-06,2.1425688328983484e-06
172,2.24863876271865e-06,1.4101972567704047e-06,1.7580413872924992e-06,1.7059419627520471e-06,4.547351308960947e-06,1.0912940041250579e-05,4.460753823203645e-06,1.7128997237810598e-06,2.032713302150635e-06,2.7176953611844256e-06,1.4512944635557827e-06,1.6031014061722157e-06,2.432651880028418e-06,2.529438094343873e-06,7.742349218635788e-06,1.9674028827550592e-06
173,2.2395383592726436e-06,1.4167953323309287e-06,1.8140733378736447e-06,1.7334715943162856e-06,4.692864297037317e-06,1.121257402770247e-05,4.465002327985887e-06,1.7075148123950461e-06,2.038876296678266e-06,2.6796078938438624e-06,1.4832579098994943e-06,1.6076188247857846e-06,2.6101281988157624e-06,2.5913236543156414e-06,7.107116901291657e-06,1.8083508466611299e-06
174,2.231160179590263e-06,1.4255222431534045e-06,1.8747093419933316e-06,1.7582953685499352e-06,4.83525322510749e-06,1.149090288559288e-05,4.46266504202289e-06,1.710775818661677e-06,2.0507261332372386e-06,2.638072792905217e-06,1.5140292851051156e-06,1.6069043344827678e-06,2.798450462834068e-06,2.6547403011911513e-06,6.499841968261771e-06,1.6663180247725216e-06
175,2.2243219110931554e-06,1.436566674538676e-06,1.9401770488497407e-06,1.78021480274747e-06,4.9697403668766394e-06,1.1739351400191311e-05,4.451118970835448e-06,1.7231818200614116e-06,2.0684087585418662e-06,2.593909723555763e-06,1.541850801758702e-06,1.6014787522502904e-06,2.995983651645951e-06,2.7189578084697136e-06,5.9222973718612495e-06,1.541872319761908e-06
176,2.219590517283464e-06,1.4501768809911396e-06,2.010560269045439e-06,1.7993353812057854e-06,5.091348310887314e-06,1.1948256501953032e-05,4.427906092333743e-06,1.7449209795124556e-06,2.091916166329698e-06,2.5483074768218704e-06,1.5650946484418942e-06,1.5918881057593183e-06,3.200914788965069e-06,2.7829487146021315e-06,5.3762946755309185e-06,1.435259956017982e-06
177,2.2172514696254766e-06,1.4665176749604996e-06,2.0857250673903443e-06,1.8161541534183296e-06,5.1955376207829745e-06,1.2108193597011394e-05,4.391143681908268e-06,1.7758548034682621e-06,2.1212241837640655e-06,2.502865395798514e-06,1.5825084704975987e-06,1.5786543027369778e-06,3.411475370447134e-06,2.84543289652676e-06,4.863609359222629e-06,1.346463311222028e-06
178,2.2173505825245974e-06,1.4856127818613405e-06,2.1653041425496814e-06,1.8316238310771729e-06,5.278736248592434e-06,1.2211448973730397e-05,4.3398806684600875e-06,1.8155294920994712e-06,2.1565446751030305e-06,2.4593225033185783e-06,1.5933169542614898e-06,1.5622443114744983e-06,3.6259432775492717e-06,2.9047842778757225e-06,4.385782262081699e-06,1.275319518234385e-06
179,2.2198200666796195e-06,1.507350407494978e-06,2.2486371092975133e-06,1.8470272815104382e-06,5.338632472107972e-06,1.2253336014108223e-05,4.274038104852395e-06,1.8631793199654321e-06,2.1984010990240937e-06,2.419209427640695e-06,1.597188902886918e-06,1.543064581969874e-06,3.84235920166531e-06,2.9589509869511225e-06,3.944033346357408e-06,1.221600014027982e-06
180,2.224568402092302e-06,1.531479673499284e-06,2.334682039150218e-06,1.863701333685414e-06,5.37425670145627e-06,1.22330682205046e-05,4.1939003014498794e-06,1.9177428349521476e-06,2.247442126067813e-06,2.3836816630098614e-06,1.5941611857797364e-06,1.521474675952931e-06,4.058195467093646e-06,3.0056603562557104e-06,3.5392910696030238e-06,1.1850161683886317e-06
181,2.231453121051891e-06,1.5575810257777704e-06,2.421987168332764e-06,1.8828232845972958e-06,5.385902708107016e-06,1.2153834056880707e-05,4.099653637410675e-06,1.9779006845667164e-06,2.304276234103141e-06,2.3534592532096054e-06,1.5845550462045225e-06,1.4977713899782235e-06,4.270260375219698e-06,3.0429058214238904e-06,3.1721596309070314e-06,1.165207276144099e-06
182,2.240173221765875e-06,1.585000926140303e-06,2.5087190416195836e-06,1.9053418377376647e-06,5.374899169679131e-06,1.2021802007795467e-05,3.991458015764403e-06,2.0421702349579006e-06,2.3695237752776734e-06,2.3287730214790428e-06,1.568839810120142e-06,1.4721638808032197e-06,4.474886053828317e-06,3.069389526320145e-06,2.842766515552329e-06,1.1617080407815677e-06
183,2.2501417005663173e-06,1.6128033595475863e-06,2.592682191311798e-06,1.9319494930847558e-06,5.343145336493795e-06,1.1844242537870283e-05,3.869885732494058e-06,2.1090619052002873e-06,2.443840885679047e-06,2.3094228753089662e-06,1.547455277866388e-06,1.4447874952574283e-06,4.668152774676039e-06,3.0845884834075867e-06,2.5506226206668446e-06,1.1738931537373485e-06
184,2.260405010046106e-06,1.6398659995378602e-06,2.6713515166479796e-06,1.963037399011712e-06,5.292440352218876e-06,1.1627620055664681e-05,3.7362079583679873e-06,2.177224505460078e-06,2.5277226409655345e-06,2.2950227950546974e-06,1.5207450131409791e-06,1.4158111052385298e-06,4.845877235763356e-06,3.0884356829215058e-06,2.2945992984507035e-06,1.2009408417486886e-06
185,2.26971871568172e-06,1.6651314173681388e-06,2.742029945139828e-06,1.9986488816335467e-06,5.223986004748337e-06,1.1376589339755232e-05,3.592326133712074e-06,2.2455346492454716e-06,2.6212868403562336e-06,2.2852703515503847e-06,1.489074347678181e-06,1.3856199747916833e-06,5.003596901641235e-06,3.0810295048352195e-06,2.073003754612163e-06,1.2418361519140473e-06
186,2.2768411761237606e-06,1.6878183129299798e-06,2.802179409370994e-06,2.0384502510611445e-06,5.138407238655726e-06,1.1094056829698227e-05,3.4405349011410676e-06,2.313137008348275e-06,2.7242340187041847e-06,2.2799830510346676e-06,1.45297131012936e-06,1.354861209971367e-06,5.1370484495902846e-06,3.0627378739117746e-06,1.8836873211268082e-06,1.2954307229701852e-06
187,2.2809340855427884e-06,1.7074298790847507e-06,2.84980054189825e-06,2.081802568219564e-06,5.036151132371846e-06,1.0781854899371821e-05,3.2833583163576645e-06,2.3794685007905883e-06,2.835911089265441e-06,2.278876944513543e-06,1.4131572123827997e-06,1.324258618340955e-06,5.2430852829282384e-06,3.034456709395646e-06,1.724132101140618e-06,1.3605194612858862e-06
188,2.2818465309025326e-06,1.723626102767805e-06,2.8836563186476034e-06,2.128017615043668e-06,4.917923898368182e-06,1.0441672035618598e-05,3.123518486145628e-06,2.4443027642089684e-06,2.9553389728039544e-06,2.281353576883226e-06,1.3705222207062584e-06,1.294420529409821e-06,5.320455558471852e-06,2.997576956606878e-06,1.5915468334789153e-06,1.4358364938174173e-06
189,2.2801296838662278e-06,1.7360830636381496e-06,2.90323510570626e-06,2.1766690819121925e-06,4.784987825596218e-06,1.007600944337441e-05,2.9639294329793244e-06,2.5077378425663194e-06,3.0812037664407355e-06,2.2865690484193527e-06,1.3260945963584971e-06,1.2657886664402394e-06,5.369946944613923e-06,2.953695345175822e-06,1.4830494401253763e-06,1.5199793176970561e-06
190,2.2767783274739922e-06,1.7443823680113993e-06,2.908472389112754e-06,2.227678692394624e-06,4.639256252656194e-06,9.688861272684056e-06,2.807607843817197e-06,2.57001106355954e-06,3.2119312618168035e-06,2.2937937990057903e-06,1.2809641328189417e-06,1.2386413218960191e-06,5.393877361792341e-06,2.9043970802512445e-06,1.3958418105084314e-06,1.6113608820117305e-06
191,2.2728481651704046e-06,1.7480481375220525e-06,2.8993516672825103e-06,2.281123328818746e-06,4.483190810150768e-06,9.28589702640844e-06,2.657484359841819e-06,2.6312744192176605e-06,3.345919348966558e-06,2.3027547793167282e-06,1.2361491529612967e-06,1.2131216654119032e-06,5.395293180122949e-06,2.8511937937625695e-06,1.327191941009801e-06,1.7082519777037224e-06
192,2.269203740035125e-06,1.7468021153437062e-06,2.875658031392407e-06,2.3370261036089648e-06,4.319611921292828e-06,8.87414591599864e-06,2.5161783144598614e-06,2.6915866122563002e-06,3.4817236748163565e-06,2.3136296763442014e-06,1.1924765456874186e-06,1.1893593120012843e-06,5.377176961608203e-06,2.79541765697145e-06,1.274291105864976e-06,1.8089056681104901e-06
193,2.2664747763047402e-06,1.7407960183690254e-06,2.8370631025788938e-06,2.3952582205228284e-06,4.1515707346715854e-06,8.46134581564646e-06,2.3858453850535527e-06,2.7511007069311162e-06,3.6179044937289708e-06,2.3267545888922572e-06,1.1505500816570762e-06,1.1676206728979365e-06,5.341821523114567e-06,2.738019645328812e-06,1.2342166563788118e-06,1.9116366873721793e-06
194,2.265026254940503e-06,1.730559261536241e-06,2.783407413669698e-06,2.4554131263563546e-06,3.982315108826221e-06,8.055192384033561e-06,2.2681657112313403e-06,2.8102350167625945e-06,3.752698633896201e-06,2.342410546197263e-06,1.1107879709753233e-06,1.148329404404785e-06,5.2905249640626626e-06,2.679502505223525e-06,1.2040891750613886e-06,2.0147455948652467e-06
195,2.2648649441205637e-06,1.7167480106716231e-06,2.71503015000979e-06,2.5166484899376064e-06,3.815265591100858e-06,7.662737934889945e-06,2.164420353001976e-06,2.8696989212596936e-06,3.883920828560596e-06,2.3608005311076327e-06,1.0734623422644966e-06,1.131935451460297e-06,5.223633751150297e-06,2.6201022783500924e-06,1.1813479101598302e-06,2.116424978091743e-06
196,2.265607239886932e-06,1.6999857822291412e-06,2.6330745995509e-06,2.577618114336203e-06,3.6539482267703105e-06,7.290115911250963e-06,2.0755467484290066e-06,2.9303266033552123e-06,4.009129243630036e-06,2.382024367096428e-06,1.0387563490534193e-06,1.1187652882628943e-06,5.1408395795361605e-06,2.560043826097828e-06,1.1639579187082314e-06,2.2148627779027005e-06
197,2.266535095229694e-06,1.6809287110168466e-06,2.5395987698818065e-06,2.636517694174901e-06,3.5018660302713247e-06,6.942573419760543e-06,2.002120936391471e-06,2.992798808727054e-06,4.125841162353389e-06,2.406015523121287e-06,1.0068475248302213e-06,1.1089691075556135e-06,5.041666422738223e-06,2.499647611737213e-06,1.1503799961752523e-06,2.308487818589913e-06
198,2.2667189259968593e-06,1.6603818736664544e-06,2.437380122858388e-06,2.6912754138920956e-06,3.362284454172696e-06,6.6246073624692515e-06,1.944308757354244e-06,3.057491369284956e-06,4.231706941025666e-06,2.4325034170582047e-06,9.779342173250067e-07,1.1025497563014778e-06,4.92602012415033e-06,2.4392255204484448e-06,1.1393933964121635e-06,2.3960682201777246e-06
199,2.2652848008479855e-06,1.6392627297431362e-06,2.3295258941125965e-06,2.7399293668018685e-06,3.2380086209189203e-06,6.340000570023833e-06,1.9018634925696494e-06,3.124576451527292e-06,4.3246582928139285e-06,2.4609694687675737e-06,9.522056038400754e-07,1.0993830050871822e-06,4.794599384664309e-06,2.378911521347839e-06,1.1300415105397794e-06,2.476524342045901e-06
200,2.2617722866828773e-06,1.618476613579081e-06,2.219091331002656e-06,2.7810753356467477e-06,3.1312691420099675e-06,6.091708867455131e-06,1.8742278997638703e-06,3.194227073390127e-06,4.403024792904315e-06,2.4906450150476073e-06,9.298190966374923e-07,1.099206808007067e-06,4.64905406186825e-06,2.3186408839463297e-06,1.1216919936218264e-06,2.548670518148371e-06
201,2.2563036211538523e-06,1.5988568447543222e-06,2.1088296196055557e-06,2.8141523384257664e-06,3.043692394944754e-06,5.88168538190839e-06,1.860733576133012e-06,3.2667121958562947e-06,4.465597120443837e-06,2.520591062572239e-06,9.1086528476164e-07,1.1016449194272643e-06,4.4918433841724235e-06,2.258277481249554e-06,1.1139351187206774e-06,2.6111683915030536e-06
202,2.249401681533458e-06,1.5811511102215604e-06,2.001081641061572e-06,2.8394113971199183e-06,2.976287696667252e-06,5.7107441556897495e-06,1.8607621813201863e-06,3.3423087983561385e-06,4.5116386108782285e-06,2.5497683720852032e-06,8.953187128051362e-07,1.1062948183358606e-06,4.325824843371255e-06,2.1976848227691635e-06,1.1063516693498915e-06,2.6626982299673156e-06
203,2.24161117331679e-06,1.5660077456480911e-06,1.8977809796684149e-06,2.857584097896038e-06,2.9294704525143824e-06,5.578500859498465e-06,1.873721537482229e-06,3.4210865930630304e-06,4.54083776475353e-06,2.5770857539109015e-06,8.830283526478186e-07,1.1127998515792017e-06,4.1538097417531415e-06,2.1367036086161303e-06,1.0984682825240005e-06,2.70216050628425e-06
204,2.2331981072758986e-06,1.5540158172748698e-06,1.8005522500798775e-06,2.8694344600154974e-06,2.9031661940916286e-06,5.483432746071111e-06,1.898883415622566e-06,3.502676207936783e-06,4.5531352098805905e-06,2.6014747368972004e-06,8.737828294771238e-07,1.120833957423003e-06,3.978384277131263e-06,2.0751800353344066e-06,1.0899547808018942e-06,2.728808092814529e-06
205,2.2240446394911453e-06,1.5457601674423883e-06,1.710826430323251e-06,2.875487205249092e-06,2.8970051074127104e-06,5.423121471575101e-06,1.9352627769809035e-06,3.586124750094071e-06,4.548393566819789e-06,2.6219115479443205e-06,8.674339248801099e-07,1.1301014174555533e-06,3.8020489751352797e-06,2.013055686830801e-06,1.0808070447838426e-06,2.7423339156844978e-06
206,2.21367747261615e-06,1.5417766040987052e-06,1.6298811859448126e-06,2.8760918073944606e-06,2.9105784910869117e-06,5.3946047051296846e-06,1.981597237563027e-06,3.6698908225215726e-06,4.526135662707279e-06,2.6373658804569885e-06,8.639748298828815e-07,1.1404490215303809e-06,3.627432543955325e-06,1.9504322545225942e-06,1.0713193852878533e-06,2.7429086322052e-06
207,2.2014506912947247e-06,1.5424788236839842e-06,1.5587968872650832e-06,2.8716457122251125e-06,2.943671841012027e-06,5.394637097266257e-06,2.0363221797865556e-06,3.751940365147456e-06,4.485646108011889e-06,2.6468346864469895e-06,8.635190764838549e-07,1.1519603481151307e-06,3.4572779074481053e-06,1.8876108155002281e-06,1.0619036377526846e-06,2.731109486066198e-06
208,2.1869514159016857e-06,1.548164196432082e-06,1.4983839013974046e-06,2.862705415107478e-06,2.99632915275984e-06,5.4197517257305755e-06,2.0975226274173766e-06,3.829813729412995e-06,4.4263122097730734e-06,2.6494470778765093e-06,8.662600312661559e-07,1.1648955277948488e-06,3.2941389326475822e-06,1.8251340588504924e-06,1.0529399104641821e-06,2.7077630844262685e-06
209,2.1704253925278186e-06,1.559036986540927e-06,1.449131651719887e-06,2.8499451350545747e-06,3.068669697072287e-06,5.466181593415604e-06,2.163016396537527e-06,3.90064243052536e-06,4.34783495028981e-06,2.644467554238615e-06,8.724361628016083e-07,1.1795245079857134e-06,3.14002957545384e-06,1.7637927675680058e-06,1.0447281762619628e-06,2.6738463579249893e-06
210,2.1529107034720546e-06,1.5752630227841593e-06,1.4112051186842204e-06,2.834092016299431e-06,3.160609159026989e-06,5.529800597998689e-06,2.2306235282658833e-06,3.961346460881655e-06,4.25025097293922e-06,2.6313027183894903e-06,8.822740870417272e-07,1.1959748612446232e-06,2.9962728334270537e-06,1.7045329991692187e-06,1.0374714104992741e-06,2.6305526023046736e-06
211,2.136025744739893e-06,1.5970980701590748e-06,1.384480154866558e-06,2.815914882167976e-06,3.2717440976701358e-06,5.606233618999234e-06,2.298426864063503e-06,4.009114848382732e-06,4.133973296291878e-06,2.609715839449239e-06,8.959490334706129e-07,1.2141645451649366e-06,2.8635313171813732e-06,1.6482725863475059e-06,1.0312852624560143e-06,2.5794186461026154e-06
212,2.1215801311334015e-06,1.6249226572653634e-06,1.368578704165635e-06,2.796216262336548e-06,3.4014213085820513e-06,5.6911358901362274e-06,2.3648269528660003e-06,4.041881723740356e-06,3.9999644079129296e-06,2.5800841734860167e-06,9.135660351155035e-07,1.2338149874778695e-06,2.741861215953772e-06,1.595740681916435e-06,1.0262747991914049e-06,2.5222723633878888e-06
213,2.111219837389581e-06,1.65911795202678e-06,1.3629030621502058e-06,2.775735930427577e-06,3.5487571505796446e-06,5.780484175667332e-06,2.428442471866378e-06,4.058572884839579e-06,3.8499679165894516e-06,2.5433331477826368e-06,9.351216841641299e-07,1.2545114976501026e-06,2.6307421029916326e-06,1.5474455358343036e-06,1.0225862623022013e-06,2.460949827540882e-06
214,2.106238117972789e-06,1.6999537778450028e-06,1.366719677309223e-06,2.755017426147211e-06,3.712512873339779e-06,5.870782092453144e-06,2.488061515762402e-06,4.059214213568857e-06,3.6866111054013813e-06,2.5005249454142747e-06,9.60467978536197e-07,1.275754750159503e-06,2.529123592119622e-06,1.5037135615739892e-06,1.0203460581483557e-06,2.3970480573903397e-06
215,2.107558012350575e-06,1.7475393460389334e-06,1.3792794635187154e-06,2.7344590129497567e-06,3.8910536263045516e-06,5.959266870893296e-06,2.542746498299518e-06,4.044972956735317e-06,3.513214323277351e-06,2.4525035463557913e-06,9.893096242632855e-07,1.2969816096429108e-06,2.4355270185640593e-06,1.4646911164190989e-06,1.0195847520482691e-06,2.3319292430751157e-06
216,2.1158394579845924e-06,1.8017497829721632e-06,1.399868786887644e-06,2.7146105214629384e-06,4.08252835268145e-06,6.044172305561372e-06,2.59198757545044e-06,4.018033038228049e-06,3.333360640081616e-06,2.3998610303258654e-06,1.0212253670728182e-06,1.317664118370072e-06,2.3482701317170564e-06,1.4303782156993106e-06,1.020247550609756e-06,2.2668601658737955e-06
217,2.131604698996826e-06,1.8621318306602344e-06,1.4277378800011832e-06,2.6964427202012263e-06,4.2850435833590165e-06,6.124850790483516e-06,2.6356986350981303e-06,3.981213128941252e-06,3.1504812390533105e-06,2.343022838193228e-06,1.0556871752966268e-06,1.3374852407997646e-06,2.2657966765961187e-06,1.4007957682947688e-06,1.022239115977938e-06,2.203097514508967e-06
218,2.155242134703451e-06,1.9278600418775706e-06,1.4619825763807905e-06,2.6813195753886916e-06,4.496649134415489e-06,6.201433136489836e-06,2.6740494226922115e-06,3.937418701059848e-06,2.967621395848192e-06,2.2822117647932432e-06,1.0920620014128439e-06,1.3563564904056813e-06,2.1869273776828533e-06,1.3761446677692162e-06,1.025443005707119e-06,2.1419172749992477e-06
219,2.186918725810955e-06,1.9978010929508914e-06,1.5014921900593116e-06,2.67069275094664e-06,4.715259114703243e-06,6.274058767414412e-06,2.707423051765704e-06,3.889242843632553e-06,2.7873672528346514e-06,2.2174102661130657e-06,1.129633163955485e-06,1.3742473074244282e-06,2.1109387856740607e-06,1.35677603260652e-06,1.0297331173111627e-06,2.0846150597862495e-06
220,2.226521491537466e-06,2.07070248988464e-06,1.5450584433120962e-06,2.665737353535055e-06,4.938663166391186e-06,6.342324095835925e-06,2.7365254571400754e-06,3.838927641110274e-06,2.611918857475231e-06,2.1485198373649676e-06,1.1676891798007268e-06,1.3910422360419987e-06,2.0375862976664217e-06,1.3430847321815503e-06,1.0349780369297855e-06,2.032400260737728e-06
221,2.2735982227005516e-06,2.1454363497633248e-06,1.5916682457010664e-06,2.667150748208476e-06,5.16463769924506e-06,6.405443498884656e-06,2.7622549531979937e-06,3.7885196008929813e-06,2.4432501041759057e-06,2.075632772822224e-06,1.205622215558825e-06,1.4065045839889391e-06,1.9671522752483282e-06,1.3354780642321878e-06,1.0410069517584274e-06,1.986211283894918e-06
222,2.327256583031883e-06,2.2211816040780344e-06,1.640782628868361e-06,2.6751995307386255e-06,5.391085313280561e-06,6.462777468631129e-06,2.7852988226058806e-06,3.739991842540287e-06,2.2831710207846214e-06,1.999237573360373e-06,1.2429166734859733e-06,1.4203359318191185e-06,1.9004437740529199e-06,1.3343327640618958e-06,1.0475584398990232e-06,1.946616560979349e-06
223,2.3861110511226363e-06,2.29745536359302e-06,1.6923283944802278e-06,2.6899148576380096e-06,5.616083552408812e-06,6.514193040565092e-06,2.80587035153445e-06,3.6952738962542354e-06,2.133264926797429e-06,1.920310504268501e-06,1.2790547969990943e-06,1.4323229319620932e-06,1.838665976275032e-06,1.3398981307896836e-06,1.0543093774150104e-06,1.913830942747783e-06
224,2.4483602564189437e-06,2.3739548242113687e-06,1.74646671293716e-06,2.7112296766435e-06,5.837690155208382e-06,6.560128532843985e-06,2.8237456984481377e-06,3.6561612796479443e-06,1.994863285453515e-06,1.8402448203226805e-06,1.313470216915163e-06,1.4424955853879169e-06,1.7831948777989419e-06,1.3522452025791107e-06,1.0610260480562791e-06,1.8877442273424056e-06
225,2.5119926569434184e-06,2.4502811011952233e-06,1.8034720125035472e-06,2.7389376600843636e-06,6.053565995039437e-06,6.601433922569228e-06,2.8384344695824946e-06,3.624138516790404e-06,1.8690719210888134e-06,1.7606324576545759e-06,1.345578598441975e-06,1.451220443986202e-06,1.73535159784743e-06,1.37127986073175e-06,1.0677038408763103e-06,1.8679430384008785e-06
226,2.5750563358998427e-06,2.525735297878393e-06,1.8637942786137269e-06,2.7725658199630842e-06,6.260875623063233e-06,6.639102195273486e-06,2.8493610402880237e-06,3.6002182022898128e-06,1.7567523149767549e-06,1.683126065469768e-06,1.3748789580725683e-06,1.4591980208971785e-06,1.6962842143448126e-06,1.39679192674528e-06,1.0745343703179753e-06,1.8537731085745484e-06
227,2.635886428387235e-06,2.5993079968038157e-06,1.928055352949938e-06,2.8113358930678966e-06,6.456764204100347e-06,6.674041923216992e-06,2.856054817364026e-06,3.5848404069764246e-06,1.658505986464591e-06,1.609507468039378e-06,1.4010971660023644e-06,1.467352373444295e-06,1.6669376445111177e-06,1.4285368736041918e-06,1.0817454572756417e-06,1.8444088307415906e-06
228,2.6932049881955403e-06,2.6697785443267603e-06,1.9968586280967085e-06,2.854234142254195e-06,6.6390478625839255e-06,6.706978777801783e-06,2.8583547341352965e-06,3.5778903327168365e-06,1.5747079104110334e-06,1.541758639348444e-06,1.4242351024714193e-06,1.4766434999081755e-06,1.6480258251637816e-06,1.4662777416993497e-06,1.0895071849941748e-06,1.8388852983186855e-06
229,2.7460717534479404e-06,2.735762647846762e-06,2.070556706377767e-06,2.900034461003151e-06,6.806610367580058e-06,6.738410129911362e-06,2.856570625262821e-06,3.578884196559627e-06,1.5055000266080698e-06,1.4819571621376312e-06,1.4444719202345433e-06,1.487908365269334e-06,1.6400055944354308e-06,1.5097071847458976e-06,1.0979608619147961e-06,1.83617338032639e-06
230,2.7936991763303916e-06,2.7956530315795155e-06,2.1491246326661748e-06,2.947214274842454e-06,6.9593758505590384e-06,6.768430323583371e-06,2.8515028307420886e-06,3.587159775232424e-06,1.4507343356979127e-06,1.4321120204341071e-06,1.462054456869008e-06,1.5018008604505708e-06,1.6431037426692196e-06,1.5583151356792191e-06,1.1072429354942564e-06,1.8353634987095292e-06
231,2.8352468925033403e-06,2.847583733607465e-06,2.232138604533741e-06,2.993936162427856e-06,7.0979351607096416e-06,6.796357824114226e-06,2.8442728217296634e-06,3.6018401651758282e-06,1.409959888151074e-06,1.3941118607514257e-06,1.477301855144147e-06,1.5187937482502596e-06,1.6573865063019335e-06,1.6113442036213187e-06,1.1174560647246201e-06,1.8358357366211154e-06
232,2.8698325733402607e-06,2.8896010762423043e-06,2.3187874992154778e-06,3.0381803985804664e-06,7.222895631372248e-06,6.820355488321745e-06,2.836025101943771e-06,3.6215991597281927e-06,1.382468105664025e-06,1.3697801122284309e-06,1.4906820916709677e-06,1.5392193897975202e-06,1.6827718589068e-06,1.6678890045509383e-06,1.1286527921500402e-06,1.8372800145827084e-06
233,2.8968308872865346e-06,2.9199960838105333e-06,2.407866934031016e-06,3.077833957918338e-06,7.334116893087995e-06,6.837388065244046e-06,2.827626768725609e-06,3.6444905279414895e-06,1.3673313145790907e-06,1.3609185259527735e-06,1.5028217318143423e-06,1.5633657896351077e-06,1.7189407243330812e-06,1.727071755879079e-06,1.1408429163924558e-06,1.8396473467626724e-06
234,2.916228005746521e-06,2.9375617071483275e-06,2.4977837220967177e-06,3.11068609934297e-06,7.430197732137974e-06,6.843719380477574e-06,2.8195056237845863e-06,3.668018392749415e-06,1.3633999632306703e-06,1.3692649212751185e-06,1.5143860912543571e-06,1.5916334675950702e-06,1.7652423787974134e-06,1.788154680851298e-06,1.154001981700742e-06,1.8431859007767871e-06
235,2.9287666612201344e-06,2.94167087375608e-06,2.5867083840761987e-06,3.1346191089514737e-06,7.50850056055967e-06,6.835814036884801e-06,2.811716439217301e-06,3.689390838971789e-06,1.369307553217585e-06,1.3964058116400214e-06,1.5259024132566055e-06,1.6247331605641442e-06,1.8206600588676088e-06,1.8505040063853513e-06,1.1680478160428085e-06,1.8485196728048214e-06
236,2.9358294236220297e-06,2.932283508330865e-06,2.6729780324503263e-06,3.1480842243230956e-06,7.56563917158462e-06,6.811259071377322e-06,2.8041748388812312e-06,3.7058449906658345e-06,1.383547372658604e-06,1.4437436288360532e-06,1.5376348158497929e-06,1.6638003673601296e-06,1.8838020644327774e-06,1.9134721745216394e-06,1.1827850021991213e-06,1.8566089089976128e-06
237,2.9392375627028424e-06,2.9100054577230624e-06,2.755604088322718e-06,3.1505044740309845e-06,7.598180329785003e-06,6.769305153114565e-06,2.796881684608934e-06,3.715002480641201e-06,1.4046079647189793e-06,1.5125456216581886e-06,1.5495785332320782e-06,1.7102787070669464e-06,1.952892433991817e-06,1.976320745821301e-06,1.197889249597307e-06,1.8685801261753944e-06
238,2.9411576480934116e-06,2.876168182226517e-06,2.8345519252319616e-06,3.14225456552527e-06,7.6033768136506555e-06,6.71080789303172e-06,2.790015544863516e-06,3.7152239521662096e-06,1.4311414544811003e-06,1.6039780228631017e-06,1.5615810100064056e-06,1.7656374242876629e-06,2.0258029047948753e-06,2.0382113243716783e-06,1.2129518148526106e-06,1.8855554733694757e-06
239,2.9440775637028467e-06,2.832770024917468e-06,2.9105580668657823e-06,3.124228048637177e-06,7.5797947049300855e-06,6.63761080967023e-06,2.7838930289350382e-06,3.705867283512677e-06,1.4621779795061308e-06,1.7190482052942586e-06,1.5734741795042443e-06,1.8311346025845439e-06,2.100262735895015e-06,2.098236243679911e-06,1.2275699296611886e-06,1.90854996939838e-06
240,2.9506863177213055e-06,2.7821854330914747e-06,2.984632366464499e-06,3.097336461092946e-06,7.527616979473112e-06,6.551636333146816e-06,2.778831697455314e-06,3.6872554945506243e-06,1.4973339814362857e-06,1.8585134562619314e-06,1.5850504327765832e-06,1.907701636652848e-06,2.174305508530331e-06,2.155506103272432e-06,1.2414739123244654e-06,1.938429557595546e-06
241,2.963616942196305e-06,2.7267484839309865e-06,3.0577024020272143e-06,3.062357952542014e-06,7.448341042696757e-06,6.4541007553466856e-06,2.7749397402454965e-06,3.6602500414669865e-06,1.5368959343758903e-06,2.0228260566053016e-06,1.5959036950903763e-06,1.9958956130294788e-06,2.2466451611340295e-06,2.2092814214617892e-06,1.2545773967716648e-06,1.975922260790007e-06
242,2.9851759390372253e-06,2.668441531460859e-06,3.130572897745276e-06,3.020210011002552e-06,7.343892897603486e-06,6.34522085402786e-06,2.7719070188520177e-06,3.6257104601071803e-06,1.5817465606552255e-06,2.2121203225183827e-06,1.6053409162218037e-06,2.095884888278786e-06,2.316600519799519e-06,2.2590596062466597e-06,1.266879003861539e-06,2.0216399600456622e-06
243,3.0172119053562858e-06,2.6088512391992018e-06,3.2038982200300576e-06,2.9723269043468008e-06,7.215793500830447e-06,6.224438600291106e-06,2.7689116192411704e-06,3.584283252635683e-06,1.6331845482278844e-06,2.426292301391463e-06,1.6124704752024086e-06,2.207437472667976e-06,2.3837006815462803e-06,2.3045489869226422e-06,1.2783520872594183e-06,2.076051615948778e-06
244,3.0611273368660144e-06,2.549328979185111e-06,3.278027821732516e-06,2.9208291100329614e-06,7.06507309951074e-06,6.090937992407504e-06,2.7646871882441247e-06,3.5365566764443477e-06,1.692669456173e-06,2.6651719807832483e-06,1.6163468997204346e-06,2.3298925898828277e-06,2.4474315239427995e-06,2.3455143577639578e-06,1.2889466972950463e-06,2.1394061516718803e-06
245,3.1179107849602397e-06,2.491113331464169e-06,3.35297193177256e-06,2.8684098996747388e-06,6.892871924243992e-06,5.944350735816508e-06,2.7577396534613386e-06,3.4832519440712324e-06,1.761572940579763e-06,2.928598337649084e-06,1.6160413113185461e-06,2.4621362282050737e-06,2.5073319435836964e-06,2.3815892138626488e-06,1.2986344589139337e-06,2.211652861234104e-06
246,3.1881523495380206e-06,2.435265518494525e-06,3.4285821381107325e-06,2.818028008820942e-06,6.701106835830555e-06,5.7855623485956915e-06,2.7467148653276115e-06,3.4252677110435632e-06,1.841066554796046e-06,3.216276757152005e-06,1.61069303648907e-06,2.6025961205134843e-06,2.5633195186921906e-06,2.412261223713569e-06,1.3073903447787863e-06,2.292397258777261e-06
247,3.2720576304839385e-06,2.3825112434234986e-06,3.504708600843645e-06,2.7725539572575295e-06,6.4927423402852896e-06,5.617219005649703e-06,2.730814032791664e-06,3.3636623030118346e-06,1.9321167147121925e-06,3.527570814615576e-06,1.5995958723298647e-06,2.7492541607901075e-06,2.615975523860908e-06,2.437108867679294e-06,1.315131834753875e-06,2.380877000286575e-06
248,3.3694069567657996e-06,2.333131175705514e-06,3.581192429388453e-06,2.7344877967322295e-06,6.271618272266392e-06,5.443537845571967e-06,2.7099590683494994e-06,3.2996698516702427e-06,2.0354690308069877e-06,3.861421961559556e-06,1.582248260517001e-06,2.899718684678863e-06,2.6665567109037294e-06,2.4561334735170372e-06,1.3216662169612655e-06,2.4759458516881557e-06
249,3.479494904743567e-06,2.2869097651465674e-06,3.657821074889012e-06,2.705783735192992e-06,6.042079064679489e-06,5.269552919526195e-06,2.6845371098420436e-06,3.2347028629286074e-06,2.1516331477967123e-06,4.216406440182398e-06,1.5583426226228487e-06,3.0514300300515593e-06,2.7167109640720572e-06,2.4699581361957186e-06,1.3266505958656748e-06,2.576100480243752e-06
250,3.6011494112331805e-06,2.24311865225615e-06,3.7343282125106353e-06,2.687764283450392e-06,5.808654907205655e-06,5.1002911962950164e-06,2.655028177809789e-06,3.1702571173012516e-06,2.2808810194453207e-06,4.590776839870942e-06,1.5277280312237865e-06,3.2019461595840966e-06,2.7680533669164137e-06,2.4797573169656202e-06,1.3296091083258588e-06,2.6795311688971874e-06
251,3.732805630704124e-06,2.2005878743227433e-06,3.8103085010059813e-06,2.6811019729860658e-06,5.575853817559301e-06,4.940211174398894e-06,2.6219048196939826e-06,3.1077761252203614e-06,2.423194603612835e-06,4.982353193798999e-06,1.490361014742158e-06,3.349134807434771e-06,2.8218292024181176e-06,2.4869550331009603e-06,1.3300586288401398e-06,2.7841265150563445e-06
252,3.872642088002119e-06,2.157911810869741e-06,3.884992416164179e-06,2.685857747694605e-06,5.347996503229559e-06,4.792949299320674e-06,2.585716802177792e-06,3.048593384059442e-06,2.5781870324063553e-06,5.388376156729838e-06,1.446281467581015e-06,3.491168757925372e-06,2.878796120090954e-06,2.49286395869725e-06,1.3276827648908563e-06,2.887472632213901e-06
253,4.0188601029775015e-06,2.1137365205678756e-06,3.9571384174677906e-06,2.7015463732555188e-06,5.12899295265854e-06,4.661275685638808e-06,2.547080091290938e-06,2.9939012193964014e-06,2.745081967894626e-06,5.8054985545835805e-06,1.3956783057026238e-06,3.626319342923887e-06,2.9392428969617503e-06,2.4984588139734893e-06,1.3224018673292592e-06,2.986973008192689e-06
254,4.169974763448335e-06,2.0670393807545043e-06,4.025242566306718e-06,2.7272057727747523e-06,4.922060292915991e-06,4.547107555005897e-06,2.5065666365441386e-06,2.944620375976192e-06,2.922716960331474e-06,6.229761544651532e-06,1.3390440905679261e-06,3.7525981518007947e-06,3.003049305492211e-06,2.5043791545496766e-06,1.3143230108783678e-06,3.080072195030642e-06
255,4.32479482838917e-06,2.01736412066218e-06,4.087838366139934e-06,2.7615710454093065e-06,4.7295885130279755e-06,4.451522652632167e-06,2.4646427462459842e-06,2.9012485324158887e-06,3.109496065849675e-06,6.656408813490744e-06,1.2772793445351646e-06,3.867443865232673e-06,3.0698758572763737e-06,2.5110717740401403e-06,1.303751507274948e-06,3.1644226697914965e-06
256,4.482034804668687e-06,1.964973598136258e-06,4.143613666185212e-06,2.803436545769294e-06,4.5532866255709825e-06,4.374894708375822e-06,2.42170796997238e-06,2.8638379915146795e-06,3.303400024076916e-06,7.079829766285918e-06,1.211597514589215e-06,3.967776753990669e-06,3.139532108315763e-06,2.5188954281153062e-06,1.2912783562423472e-06,3.237944037344153e-06
257,4.6399975883365505e-06,1.9108340333946327e-06,4.191409418329037e-06,2.852011947597467e-06,4.3944412189637075e-06,4.317187587706722e-06,2.3781942522139506e-06,2.8320674376342247e-06,3.502201074572824e-06,7.493857827697853e-06,1.1432917025798236e-06,4.050536344440976e-06,3.2123014223238584e-06,2.5281298812711935e-06,1.2777339641967626e-06,3.2988869267103295e-06
258,4.796689317958545e-06,1.8563906962011846e-06,4.230286088182903e-06,2.907009698029594e-06,4.2540879657135405e-06,4.278157609013473e-06,2.33466615878388e-06,2.805334106570202e-06,3.7037743029455545e-06,7.892148903937285e-06,1.0735559949842055e-06,4.113393880392065e-06,3.288955958042449e-06,2.538966867461542e-06,1.263980145261356e-06,3.3459833145580906e-06
259,4.9501292445063225e-06,1.8032215471631882e-06,4.25968588410888e-06,2.9684446429896116e-06,4.133035254411224e-06,4.25725901505465e-06,2.291860633607895e-06,2.782888327085937e-06,3.906281758673336e-06,8.268200387362085e-06,1.0034258972312718e-06,4.155207112200566e-06,3.3704364641293073e-06,2.5515102046884745e-06,1.2507188801868015e-06,3.3786078195102537e-06
260,5.098475354951992e-06,1.7527260783048693e-06,4.279569245844129e-06,3.036300870437544e-06,4.031724159469032e-06,4.25343083555772e-06,2.2506019213097097e-06,2.7640031938650847e-06,4.10817059867066e-06,8.614955248059985e-06,9.337711824961585e-07,4.1760950791447446e-06,3.457435294421282e-06,2.5657273776224146e-06,1.2384093418113675e-06,3.3968136751849835e-06
261,5.239967220665089e-06,1.7059667015351025e-06,4.290404911012667e-06,3.1102543984803626e-06,3.9499981423815855e-06,4.2650445572898746e-06,2.2116075181274413e-06,2.748112553175583e-06,4.308075485426393e-06,8.924629579354788e-06,8.652960361649282e-07,4.177301790064409e-06,3.5502189091176073e-06,2.581428491871483e-06,1.2272660016917592e-06,3.401231680476749e-06
262,5.3729164734498505e-06,1.663681497809969e-06,4.293001618144452e-06,3.1895510124951705e-06,3.886971864768894e-06,4.28995547860043e-06,2.17535773561424e-06,2.7348662644171814e-06,4.504697574099683e-06,9.189308286883458e-06,7.985657474284024e-07,4.160945311464859e-06,3.648757436054942e-06,2.5984140673803774e-06,1.2173167202932844e-06,3.392945864868461e-06
263,5.4958558703838275e-06,1.6264080273102915e-06,4.288285909612697e-06,3.2729510693089986e-06,3.841058208256305e-06,4.325499653365317e-06,2.1421567517361258e-06,2.724078413579149e-06,4.696648577881145e-06,9.401880905300485e-06,7.340738322219486e-07,4.129568256138138e-06,3.752848387769538e-06,2.616650802673961e-06,1.208524450123209e-06,3.3734163691365537e-06
264,5.6077359359485136e-06,1.5946061420678162e-06,4.277171387470355e-06,3.358645214308307e-06,3.8100136893451807e-06,4.368609150640415e-06,2.112257803848387e-06,2.7155785588734555e-06,4.8822889031302964e-06,9.556734213374463e-06,6.722999964082434e-07,4.085533243704408e-06,3.862011258941612e-06,2.6362062004348713e-06,1.2009053130894364e-06,3.344384353013588e-06
265,5.708053406217569e-06,1.5686758217333185e-06,4.260564969506282e-06,3.4441764959225014e-06,3.791017204168517e-06,4.416218755557277e-06,2.0858774247230854e-06,2.7090546081238634e-06,5.05971572470733e-06,9.65016127001751e-06,6.13733863313002e-07,4.03059712075014e-06,3.975313366694896e-06,2.65698841078288e-06,1.1945301985326984e-06,3.3076568089992936e-06
266,5.796941619829787e-06,1.548901410625356e-06,4.239375957205289e-06,3.526420481504055e-06,3.7809186979659407e-06,4.4657037904575865e-06,2.063104362971705e-06,2.70400913956996e-06,5.226994377538966e-06,9.680453915886151e-06,5.588989800863297e-07,3.96593828685262e-06,4.091309932539088e-06,2.6785684066122e-06,1.189460904250147e-06,3.264791970591583e-06
267,5.875225864174963e-06,1.5354317379778576e-06,4.2143642190777896e-06,3.601713275057168e-06,3.776557520576019e-06,4.514984087559434e-06,2.0437905445625783e-06,2.699842143975995e-06,5.382454092669275e-06,9.647430061604155e-06,5.083800665838788e-07,3.892528556896122e-06,4.2080320542305274e-06,2.7001743892698433e-06,1.185762050901126e-06,3.2168401030863624e-06
268,5.944356148746916e-06,1.528294781814128e-06,4.185921827096447e-06,3.6662689975808436e-06,3.7749973841328386e-06,4.562309309572391e-06,2.0274997983623094e-06,2.695945587336098e-06,5.524741148569375e-06,9.551470496337271e-06,4.628937356908558e-07,3.811539735409042e-06,4.322926777021745e-06,2.720706111120317e-06,1.183553115413239e-06,3.16430845543352e-06
269,6.006214213945438e-06,1.5273977437828805e-06,4.154095492916998e-06,3.7168743159146406e-06,3.7736941622643803e-06,4.606088300142344e-06,2.013604396360434e-06,2.6917249014541532e-06,5.652571827775002e-06,9.393052894826302e-06,4.2347852008646836e-07,3.7246236695594247e-06,4.432793778961532e-06,2.7386735025685712e-06,1.1829827474358818e-06,3.107380759746497e-06
270,6.06286563283144e-06,1.5325336352249428e-06,4.11889901076929e-06,3.751621124138943e-06,3.7705671758638868e-06,4.645015513710031e-06,2.0015311495346803e-06,2.6865811956724958e-06,5.7644624362911245e-06,9.173822297460316e-06,3.916945174564673e-07,3.634096039306793e-06,4.533834766579335e-06,2.7521576911299798e-06,1.1841496699692406e-06,3.046224543523881e-06
271,6.116269824930665e-06,1.5434022569006584e-06,4.080601921195831e-06,3.7703307416692646e-06,3.7638447055311936e-06,4.678244970579614e-06,1.9909658215941408e-06,2.6798983673064147e-06,5.858613807487259e-06,8.89847052722204e-06,3.696182012290398e-07,3.5430023483581495e-06,4.621911275657615e-06,2.758968260704961e-06,1.1870910015201099e-06,2.9811779754458e-06
272,6.167949051373957e-06,1.5595953710396417e-06,4.0398022599458805e-06,3.7743777569965936e-06,3.751791677106497e-06,4.7052279988848136e-06,1.981818045600835e-06,2.6709844855394065e-06,5.932798263154649e-06,8.57539829012078e-06,3.5965100695943646e-07,3.4549544297873033e-06,4.6929624373958725e-06,2.7570072910854287e-06,1.1918293617999359e-06,2.912751397231081e-06
273,6.218665283242946e-06,1.5805271660932154e-06,3.9974257938711004e-06,3.7659498982180633e-06,3.732751652421544e-06,4.725447277030145e-06,1.9740033623872908e-06,2.658961204524835e-06,5.984300946355751e-06,8.215382213757275e-06,3.643727391490843e-07,3.373791196150282e-06,4.743422281705283e-06,2.7445697492579976e-06,1.198353646928118e-06,2.8415515884398517e-06
274,6.268146930289918e-06,1.6053812040802897e-06,3.954827130308569e-06,3.7472386294658844e-06,3.7056210637311732e-06,4.738482579561835e-06,1.9672779541040975e-06,2.6427773573558727e-06,6.010309588124316e-06,7.82956007068213e-06,3.8652396398034294e-07,3.3032825983703672e-06,4.770602527869271e-06,2.720373736432235e-06,1.2065727677243532e-06,2.7682692222706687e-06
275,6.314927412430303e-06,1.6331453902869229e-06,3.913929926515815e-06,3.72004319121844e-06,3.6702497405301398e-06,4.7441735690003816e-06,1.961234339569396e-06,2.621453127207875e-06,6.008745240209918e-06,7.42821330531512e-06,4.289885418117558e-07,3.246982710779892e-06,4.7729627136446925e-06,2.6834035445266213e-06,1.2163405177149179e-06,2.6937173438524316e-06
276,6.35644863969265e-06,1.6626987585797698e-06,3.8771612043466595e-06,3.685748278619516e-06,3.6273484644448046e-06,4.742504814365298e-06,1.9553955368799396e-06,2.5943841517764644e-06,5.978984540264321e-06,7.020444825714848e-06,4.947136682997711e-07,3.208175158569788e-06,4.7499641348467026e-06,2.632763560567343e-06,1.2274738195444166e-06,2.6188032826087063e-06
277,6.389488333045378e-06,1.6928792428282337e-06,3.847073565595792e-06,3.645372916671471e-06,3.5780198688898496e-06,4.7334011171635375e-06,1.949339242074681e-06,2.5614845873338395e-06,5.922040774680454e-06,6.614239105157634e-06,5.866257895308751e-07,3.189835429230841e-06,4.701661515461498e-06,2.5678394305938665e-06,1.239737324255191e-06,2.5444188476076547e-06
278,6.410696644104321e-06,1.722542303918811e-06,3.82590153688091e-06,3.5995972423286113e-06,3.523263485625008e-06,4.716765408106372e-06,1.9427761956710314e-06,2.5230842355528175e-06,5.840223526697044e-06,6.216592129935602e-06,7.075777940692914e-07,3.1945628092915195e-06,4.6286844890423485e-06,2.488823982952337e-06,1.2528756827591304e-06,2.4713473807757495e-06
279,6.417011177646444e-06,1.7506740191046068e-06,3.815373016252337e-06,3.548871911387234e-06,3.463729046074811e-06,4.692733352506506e-06,1.935527252123071e-06,2.4796392292017288e-06,5.736603125014731e-06,5.833479221006702e-06,8.603177362884317e-07,3.2244695469811857e-06,4.53257765827371e-06,2.3971005878669175e-06,1.2666438295080003e-06,2.400231736105941e-06
280,6.40596604606346e-06,1.7765688494459904e-06,3.816758458344447e-06,3.493653973970182e-06,3.3997357237761235e-06,4.661806273194643e-06,1.9274892108376506e-06,2.431466658037044e-06,5.6146362874856425e-06,5.46969220665298e-06,1.0474829812376426e-06,3.2810581229249186e-06,4.41584093857997e-06,2.29510108638235e-06,1.2807483670053436e-06,2.3315751265883533e-06
281,6.376008382327386e-06,1.7999765419211333e-06,3.830902051857328e-06,3.4346254552969713e-06,3.33132395048352e-06,4.624595907916064e-06,1.918700360846269e-06,2.3787132332497716e-06,5.47809233216083e-06,5.128811643044273e-06,1.271656174631424e-06,3.3651330525177906e-06,4.281554927749349e-06,2.1858459036316355e-06,1.2947560808385442e-06,2.265772613616788e-06
282,6.326798287236448e-06,1.8211167356335487e-06,3.858121959821888e-06,3.3726935462669484e-06,3.258222468141091e-06,4.581338443569606e-06,1.9093976971168117e-06,2.321573051398953e-06,5.331150175534558e-06,4.813387910125658e-06,1.5354452660566204e-06,3.4767867496746495e-06,4.133003171301433e-06,2.0724832130799117e-06,1.308085714211709e-06,2.2031733311216537e-06
283,6.259343338506659e-06,1.8405890744452803e-06,3.898069102997057e-06,3.308737631057905e-06,3.1799741488241197e-06,4.531667618882224e-06,1.899916078646022e-06,2.260592422820252e-06,5.178461430589956e-06,4.5252112428707586e-06,1.8414655803292145e-06,3.615471100787968e-06,3.973486909174016e-06,1.9579517163084275e-06,1.32011457184535e-06,2.144140958005451e-06
284,6.175896773089725e-06,1.8592808522586302e-06,3.949638091000058e-06,3.2433061896372185e-06,3.096398501756231e-06,4.474981072403732e-06,1.8905956058418967e-06,2.196841801445609e-06,5.025020056712775e-06,4.265535791372234e-06,2.192244327785441e-06,3.7801051331618446e-06,3.8062505503237583e-06,1.8448030572629422e-06,1.330313139187976e-06,2.089077989905688e-06
285,6.079713805363257e-06,1.8783051419610084e-06,4.010974475042828e-06,3.176546796173416e-06,3.0080877526386985e-06,4.411209993941803e-06,1.8818647443763536e-06,2.131806768957768e-06,4.875794313365827e-06,4.035161560270578e-06,2.590186856229468e-06,3.9691524867454e-06,3.6344792197915364e-06,1.7351800792742718e-06,1.3383183804581336e-06,2.0383824511247055e-06
286,5.9747706504093185e-06,1.8989345029124279e-06,4.0796556530583115e-06,3.108450529776544e-06,2.9165066076175974e-06,4.341407707715052e-06,1.8742778285063462e-06,2.0670803799596034e-06,4.735409093759642e-06,3.834367811206404e-06,3.0375803710556246e-06,4.1807067463054945e-06,3.461359474649202e-06,1.6308937742116979e-06,1.3439422459292525e-06,1.992334574907077e-06
287,5.865444327539129e-06,1.922488092531357e-06,4.153088003664583e-06,3.03921468077905e-06,2.8236332777384457e-06,4.267657244849811e-06,1.868353374800119e-06,2.004133940053421e-06,4.608207811723983e-06,3.662798716497706e-06,3.536500051413749e-06,4.412684734792161e-06,3.2900991865123735e-06,1.5334990002019498e-06,1.347141479100776e-06,1.95097249215633e-06
288,5.756128980104774e-06,1.950159728958445e-06,4.22900169601376e-06,2.969468635151037e-06,2.731463554637244e-06,4.192417385317657e-06,1.8643944584021934e-06,1.9443134072612887e-06,4.498481865845101e-06,3.519446577112271e-06,4.088591951397064e-06,4.66309216792381e-06,3.1238429221866053e-06,1.4442980082897023e-06,1.3479510368200963e-06,1.914048956087759e-06
289,5.650817676352631e-06,1.9828524156147337e-06,4.305806592115714e-06,2.9002076394219622e-06,2.641717666140795e-06,4.118036734467415e-06,1.8624297164613142e-06,1.8889081497446782e-06,4.410422569332495e-06,3.402735640185568e-06,4.69480086842986e-06,4.930158600118094e-06,2.9655281857030906e-06,1.3642977770189446e-06,1.3463966676519253e-06,1.881149758018359e-06
290,5.5527183276394865e-06,2.021088007687065e-06,4.382603471981421e-06,2.832487445567914e-06,2.5557617049018383e-06,4.0468412350186785e-06,1.862279409174991e-06,1.8391367749201616e-06,4.34776380281857e-06,3.310544378663508e-06,5.355124676309174e-06,5.212201533493054e-06,2.8177185141151035e-06,1.2941923763666737e-06,1.3424872741592958e-06,1.8519355827824055e-06
291,5.464018647680318e-06,2.0649708757734656e-06,4.4588325644736925e-06,2.7672224234315087e-06,2.4745919481850564e-06,3.981387240888221e-06,1.863727828565438e-06,1.7961336029239194e-06,4.31341418267482e-06,3.2401314240544593e-06,6.0684599898807025e-06,5.507372551492256e-06,2.6824511553808765e-06,1.2344016434720973e-06,1.3363675638434987e-06,1.826320873079276e-06
292,5.3859150258391455e-06,2.1141696215347156e-06,4.533751479345799e-06,2.7053031260341056e-06,2.398880096800882e-06,3.92443027274458e-06,1.8666989487553552e-06,1.7610066883653406e-06,4.3092949709538e-06,3.188117331733869e-06,6.832560517750254e-06,5.813585148516851e-06,2.5611797212290637e-06,1.1851296090538673e-06,1.3284841941443583e-06,1.8044842530642597e-06
293,5.318852638031722e-06,2.1679197758654698e-06,4.606000095174107e-06,2.647750331243687e-06,2.3291195916507533e-06,3.878640815411789e-06,1.8712914289397672e-06,1.7348529947238217e-06,4.336412729477292e-06,3.1506202056604836e-06,7.644069007324448e-06,6.128688070077767e-06,2.454867702545403e-06,1.146394330540139e-06,1.319543650514783e-06,1.7867799726142725e-06
294,5.262703449766167e-06,2.225096911176485e-06,4.673485308012562e-06,2.595606222436405e-06,2.2657713338593586e-06,3.846272836191813e-06,1.8776971132453997e-06,1.7186524005295121e-06,4.3950427795378224e-06,3.123455548845992e-06,8.498511351026335e-06,6.450654584032529e-06,2.3641988768446396e-06,1.1180269287200023e-06,1.3102982259007412e-06,1.7736077192891461e-06
295,5.216682871408379e-06,2.284441868832997e-06,4.733694618625982e-06,2.5496823411504895e-06,2.2092737262959986e-06,3.828922268205228e-06,1.8862051257817512e-06,1.7131246113146208e-06,4.484857317156273e-06,3.1022727847505795e-06,9.390152356895485e-06,6.77756145913597e-06,2.2897469350483274e-06,1.099672252916082e-06,1.3013722505217976e-06,1.7652499365601358e-06
296,5.179189030582166e-06,2.3448927182930266e-06,4.784275555587368e-06,2.5104184774458546e-06,2.1599683995773117e-06,3.8274754060431006e-06,1.897321383776095e-06,1.7186696449117579e-06,4.60509290245694e-06,3.0826992583019607e-06,1.0311770483247392e-05,7.1073748055329945e-06,2.2319866945036384e-06,1.0908480522211957e-06,1.2931957647978735e-06,1.7617550236035042e-06
297,5.147890603096208e-06,2.40580064771666e-06,4.823561923103123e-06,2.4779254510337654e-06,2.1181378258056977e-06,3.84228401826517e-06,1.911784724791588e-06,1.7354010274370988e-06,4.754872812267686e-06,3.0605222437817903e-06,1.1254488106527748e-05,7.437709912346852e-06,2.1912266114525925e-06,1.0910460036859043e-06,1.2859759764043303e-06,1.762943247090535e-06
298,5.120105849740872e-06,2.4668809182653674e-06,4.8508287395458775e-06,2.4521326154316688e-06,2.084178373763755e-06,3.873459154345818e-06,1.93041966860434e-06,1.7631808358432498e-06,4.933390008771011e-06,3.0317810174560082e-06,1.2207649256895483e-05,7.765599562893041e-06,2.1675312814554855e-06,1.0997559978291396e-06,1.2796913363852163e-06,1.7685011340480983e-06
299,5.093281637418614e-06,2.5280023972603363e-06,4.866232117745125e-06,2.432955666117533e-06,2.058705552278432e-06,3.9211188287699535e-06,1.9539820255559697e-06,1.8016117389680429e-06,5.139710969328653e-06,2.9929650612207217e-06,1.3158637972797154e-05,8.087202935874448e-06,2.1606196765471485e-06,1.1163965777461767e-06,1.2741279072975666e-06,1.7781083233760468e-06
300,5.065326418464795e-06,2.5890066912741997e-06,4.870553557443235e-06,2.4204301040668352e-06,2.0424574507155827e-06,3.985479103291334e-06,1.9830632891980154e-06,1.8500054189938215e-06,5.3723751033839046e-06,2.941567595688919e-06,1.4092594102987817e-05,8.397484039614466e-06,2.1697989553472506e-06,1.1402462505354836e-06,1.2689750284203616e-06,1.7915318636572406e-06
301,5.034588802942577e-06,2.6496362176279542e-06,4.864962254242668e-06,2.414724534133559e-06,2.0360883053712847e-06,4.066714662518332e-06,2.018014330513518e-06,1.9073400221544739e-06,5.629021298630858e-06,2.87664139573844e-06,1.4992087105072919e-05,8.68995953901209e-06,2.193964694188127e-06,1.1704248223448886e-06,1.2639784042525553e-06,1.8085958422208673e-06
302,4.9996028769837e-06,2.7095727052062558e-06,4.850903555835344e-06,2.415978075214684e-06,2.0400210695046597e-06,4.164631097638534e-06,2.0588964281510023e-06,1.9722570960416126e-06,5.906134558327615e-06,2.7988737089499342e-06,1.5837104895426683e-05,8.95675401900148e-06,2.2316329555035447e-06,1.205971593858501e-06,1.2590228982959014e-06,1.829080896831278e-06
303,4.9590544360690535e-06,2.7685575851778886e-06,4.83004241609534e-06,2.424076547092848e-06,2.054401384263817e-06,4.278378454518469e-06,2.1054886578847863e-06,2.0431631907710993e-06,6.19892104509982e-06,2.7101350217568557e-06,1.6605974128699476e-05,9.189262551009689e-06,2.281042262128487e-06,1.246039642079377e-06,1.254032397617962e-06,1.852664888655796e-06
304,4.912156007948554e-06,2.8264737184440097e-06,4.804162556395981e-06,2.438560596075205e-06,2.0791371801020115e-06,4.406346293286164e-06,2.157302133956476e-06,2.1183772005439076e-06,6.501295792244299e-06,2.6127970068738938e-06,1.7277410919059942e-05,9.379336873260305e-06,2.340347827837555e-06,1.29006217345678e-06,1.2488291698376225e-06,1.878853010083266e-06
305,4.85907758681032e-06,2.8832453017787016e-06,4.774959509038789e-06,2.4587161920393906e-06,2.11404390284211e-06,4.546114796119939e-06,2.2135540183218155e-06,2.1962210449244873e-06,6.806054150657082e-06,2.5092867317016335e-06,1.7833080758821312e-05,9.520533119672974e-06,2.4078089003919875e-06,1.3377194494637589e-06,1.2431546045209825e-06,1.9069089918717958e-06
306,4.801042411128356e-06,2.9386136033849024e-06,4.7437103951072095e-06,2.483755532724221e-06,2.158984235341922e-06,4.6943783978322495e-06,2.2731891463044015e-06,2.2751184514676644e-06,7.105330657959496e-06,2.4020413231903174e-06,1.8259625668460427e-05,9.608966049289489e-06,2.481882710180748e-06,1.3887358051213884e-06,1.2368010547525265e-06,1.9359606461528792e-06
307,4.740095083492887e-06,2.9920217156414e-06,4.7109637037839015e-06,2.512955934593454e-06,2.2138249221586585e-06,4.8469772597811585e-06,2.3350120088658676e-06,2.3538294948139947e-06,7.391244656738704e-06,2.293515888293247e-06,1.854926519196178e-05,9.643420341845638e-06,2.5612329502830594e-06,1.4426917098018192e-06,1.2296648257212524e-06,1.9652759940756896e-06
308,4.678790929884285e-06,3.042663716940342e-06,4.676458357123098e-06,2.5456338781339677e-06,2.2782801655889837e-06,4.999261121032765e-06,2.397788964514319e-06,2.431723606000108e-06,7.656470610843785e-06,2.1860477182599057e-06,1.8698496118426502e-05,9.624518519345238e-06,2.644638373346994e-06,1.498983208563832e-06,1.2216607979547201e-06,1.9944787779892635e-06
309,4.6199549414454925e-06,3.089496823966724e-06,4.639286067694422e-06,2.5809886803715925e-06,2.35188122319019e-06,5.1468496617564945e-06,2.4602041548369446e-06,2.5088122308441265e-06,7.894614937517334e-06,2.081746451676834e-06,1.8705456632963664e-05,9.553416289292056e-06,2.7308009285650004e-06,1.5568975145623284e-06,1.212596088048242e-06,2.023547915542338e-06
310,4.5664511910498215e-06,3.1311198472664144e-06,4.598151332752651e-06,2.618042576674626e-06,2.4341321034228535e-06,5.286420313237192e-06,2.520803883196797e-06,2.585436179933877e-06,8.100489286763184e-06,1.9825005356915613e-06,1.8568269307291967e-05,9.43135048515443e-06,2.8182536724586673e-06,1.6157202147788261e-06,1.202135240649104e-06,2.052634196433085e-06
311,4.520865459656626e-06,3.165704666861363e-06,4.5516122364186965e-06,2.6557940213325556e-06,2.5246699829080904e-06,5.415988896287004e-06,2.5781248659518124e-06,2.6618219957608596e-06,8.270385054159275e-06,1.890057997551233e-06,1.828644690296388e-05,9.26059305924662e-06,2.905600114214266e-06,1.674870861645441e-06,1.1899119567612338e-06,2.0818196753513586e-06
312,4.485190768461357e-06,3.191209269415503e-06,4.498285760467824e-06,2.6934537998986193e-06,2.623231028011872e-06,5.534549899911053e-06,2.6309807595313565e-06,2.737770175771085e-06,8.40228422512158e-06,1.8061606320116659e-06,1.786422870153326e-05,9.045496689762692e-06,2.9919504992174118e-06,1.734007322597905e-06,1.1757036009972953e-06,2.1109774423777796e-06
313,4.460712811491276e-06,3.205849420510493e-06,4.437105603521668e-06,2.730622780317037e-06,2.7294286094530152e-06,5.641396997811387e-06,2.6786978015812033e-06,2.812545078840471e-06,8.495713476937806e-06,1.7326753943243383e-06,1.731279941187772e-05,8.79229343811646e-06,3.077101586344882e-06,1.7929635678570607e-06,1.1595214751197128e-06,2.1398389919132446e-06
314,4.448068846542756e-06,3.2085533779951403e-06,4.3676893555545315e-06,2.767364121990502e-06,2.842550028650344e-06,5.735520832850383e-06,2.7211614869008066e-06,2.8849529387180867e-06,8.550986882146707e-06,1.6716103219497618e-06,1.6649871595624792e-05,8.507840709442736e-06,3.161262562669746e-06,1.85161860242992e-06,1.1415545037758075e-06,2.168170606741504e-06
315,4.447239889671231e-06,3.1991255583466967e-06,4.290664979982456e-06,2.80413839840958e-06,2.9614851991317637e-06,5.8152345434614105e-06,2.758702127642884e-06,2.9535814390373686e-06,8.5681629870748e-06,1.625000912032162e-06,1.5897305363363624e-05,8.198331873710605e-06,3.2447444408996132e-06,1.9099306290812573e-06,1.1220336954199455e-06,2.195808012029595e-06
316,4.457397596989646e-06,3.178014790928228e-06,4.207706892370599e-06,2.84159818151772e-06,3.084728764016231e-06,5.878049165285188e-06,2.7918736310760594e-06,3.0170474580663223e-06,8.546537994652816e-06,1.594823534080058e-06,1.5078219700511529e-05,7.868747159715455e-06,3.3280609303464004e-06,1.9681045306225633e-06,1.1011586197392652e-06,2.2224803408399773e-06
317,4.476760277549296e-06,3.1458341271925046e-06,4.121224667002474e-06,2.8803132199661147e-06,3.2104623817704894e-06,5.921028900353817e-06,2.821153425182475e-06,3.0740865623894324e-06,8.485021980793471e-06,1.5830595268254843e-06,1.421464162559224e-05,7.523063373967564e-06,3.412224996261788e-06,2.026657454741699e-06,1.0791848292657893e-06,2.2476384919828698e-06
318,4.502556592359138e-06,3.1030660677459224e-06,4.033904960985927e-06,2.9205421966221927e-06,3.3367497209962388e-06,5.94177377791357e-06,2.8466692349262845e-06,3.1235266097110347e-06,8.382946836796005e-06,1.5918296110537918e-06,1.3326061542819688e-05,7.164678920060846e-06,3.4987699767109734e-06,2.0862890864345095e-06,1.0565929337411378e-06,2.270468370490639e-06
319,4.5310891973514045e-06,3.0502503919362606e-06,3.94833646247366e-06,2.9621190052117707e-06,3.461706834044639e-06,5.939583667372991e-06,2.868052852638231e-06,3.1643144174112023e-06,8.240773769192193e-06,1.6234391321640562e-06,1.2428880223226505e-05,6.796665301753516e-06,3.589429685930431e-06,2.147763524590008e-06,1.0341344776088536e-06,2.2900699268940846e-06
320,4.557988080280653e-06,2.988388146020189e-06,3.866774743260415e-06,3.004419273131487e-06,3.583469074816901e-06,5.916098270701686e-06,2.884369846985719e-06,3.1956442688628034e-06,8.06047320930234e-06,1.6803000065303477e-06,1.153654632972907e-05,6.421913259843493e-06,3.685723038783933e-06,2.2119656489635216e-06,1.0126803975292296e-06,2.305735476619134e-06
321,4.57875077368358e-06,2.919089247482125e-06,3.7909676286347585e-06,3.0463313477824965e-06,3.700041763805904e-06,5.875080056902748e-06,2.894085482625657e-06,3.217073857946556e-06,7.845569942817644e-06,1.7648857598728178e-06,1.0660059534710974e-05,6.043373862973336e-06,3.788653444301887e-06,2.279908426764537e-06,9.93019113450141e-07,2.317227970684116e-06
322,4.589425066030251e-06,2.8443224441443405e-06,3.721989986499437e-06,3.0861959243729916e-06,3.8093636241507927e-06,5.821517758820852e-06,2.8951851779500497e-06,3.2285359199741184e-06,7.600989144986618e-06,1.8798425692815715e-06,9.808511197207904e-06,5.664347476442111e-06,3.898618875468626e-06,2.352522424433469e-06,9.757550823744512e-07,2.324863364174778e-06
323,4.587162268822615e-06,2.766031190540034e-06,3.6601346018383622e-06,3.1217436036903213e-06,3.909663208353482e-06,5.7605598589163e-06,2.885560750672968e-06,3.230250759011281e-06,7.33281381170486e-06,2.0280682450195982e-06,8.98941482191953e-06,5.288547507428978e-06,4.015517270363385e-06,2.430403819364936e-06,9.612944464214747e-07,2.329315809933451e-06
324,4.570500923495351e-06,2.685945198982558e-06,3.604910111040165e-06,3.1501280227362105e-06,3.999793705588953e-06,5.696771361433917e-06,2.8635980439640457e-06,3.2225360192464412e-06,7.047946744884816e-06,2.2125567294697186e-06,8.20872648498156e-06,4.919806235343706e-06,4.138854378940345e-06,2.513676381717602e-06,9.498477727749034e-07,2.331352480222388e-06
325,4.539354820425557e-06,2.605581538936223e-06,3.555143145319665e-06,3.1681867330844725e-06,4.079284524393002e-06,5.633843680816389e-06,2.8287440960748358e-06,3.205591266489381e-06,6.753645196640749e-06,2.436194084709164e-06,7.470691038401884e-06,4.5616533815624935e-06,4.267747521676943e-06,2.6019782665331293e-06,9.414552325870416e-07,2.3317338434515394e-06
326,4.4946366577936085e-06,2.5262694987993017e-06,3.5091889848762756e-06,3.1729994253512437e-06,4.14808627790395e-06,5.5745415222278495e-06,2.781788050499068e-06,3.1795082804959426e-06,6.456976014839986e-06,2.701808304790011e-06,6.777811408588273e-06,4.217094274194757e-06,4.401036803170351e-06,2.6945676148468615e-06,9.36068130184082e-07,2.331279599063415e-06
327,4.4375662438117796e-06,2.449214406467114e-06,3.465202726752563e-06,3.1625901390104324e-06,4.20622030405882e-06,5.520665919226728e-06,2.7247209241931337e-06,3.1445565776284255e-06,6.164345154895351e-06,3.012501092992109e-06,6.131104026413392e-06,3.8886083550896155e-06,4.537519394285901e-06,2.790511905699395e-06,9.336455582405652e-07,2.3309715275907694e-06
328,4.369091265936513e-06,2.3755609932004483e-06,3.4213061611676168e-06,3.1363842011947095e-06,4.253769075330586e-06,5.47299757990322e-06,2.6602745416232947e-06,3.1014232571783496e-06,5.88120408441209e-06,3.372030888559677e-06,5.530490375961354e-06,3.578181563920758e-06,4.6759126215512596e-06,2.8888173739627317e-06,9.341838787434465e-07,2.331970314139491e-06
