,EMG1,EMG2,EMG3,EMG4,EMG5,EMG6,EMG7,EMG8,EMG9,EMG10,EMG11,EMG12,EMG13,EMG14,EMG15,EMG16
0,1.2888727871528638e-07,1.9872572876260192e-07,3.3233149148489986e-08,1.0319971606427328e-07,5.079235901786169e-07,1.670470038568901e-07,1.81887713279727e-07,2.9756397394137573e-07,4.435896682530297e-07,4.118589662858683e-06,-1.8238233634597024e-08,5.700141028770134e-07,1.4708919057449383e-07,1.5667695124896263e-07,6.075883686972983e-08,2.440288216249707e-07
1,2.46585429287318e-07,3.0574335340899803e-07,1.7193482419418213e-07,3.208602459144582e-07,6.604219046671941e-07,3.129291696137004e-07,3.6249553102527585e-07,4.4890424435120304e-07,6.259308432810933e-07,5.842642607297081e-06,9.127970416140547e-08,9.052839333624359e-07,2.393397183431313e-07,5.72594522060066e-07,1.4158723826289052e-07,3.535663291285437e-07
2,3.6203509322602875e-07,4.130008209732036e-07,3.078632916540363e-07,5.267385310236092e-07,8.135551376725469e-07,4.5587637793784347e-07,5.414467549985438e-07,5.942187339861738e-07,8.042031997745673e-07,7.538676709835932e-06,1.983383804014167e-07,1.2294138336957018e-06,3.332767066965359e-07,9.725929266621648e-07,2.2259519052628438e-07,4.6103469966876914e-07
3,4.7259208001989336e-07,5.19137742476999e-07,4.402190962883718e-07,7.192216625514488e-07,9.651468105132478e-07,5.944170897726509e-07,7.153177382653625e-07,7.323340224595108e-07,9.76330373989783e-07,9.179040042217617e-06,3.013520510530318e-07,1.5388588189700502e-06,4.2820675813820453e-07,1.3402404538568213e-06,3.033178345175075e-07,5.638834139884807e-07
4,5.762396553198767e-07,6.228471389880703e-07,5.682769047376602e-07,8.969476583378589e-07,1.1134858364961825e-06,7.27138601091684e-07,8.813401942330125e-07,8.621992025816287e-07,1.1406060288514991e-06,1.073823680889034e-05,3.988123691774838e-07,1.830673136664716e-06,5.23474091963353e-07,1.6631104006496847e-06,3.832816619286073e-07,6.59935759488138e-07
5,6.717621080639123e-07,7.229581367547078e-07,6.914215230065785e-07,1.058733645608826e-06,1.2573948626568573e-06,8.528443455221062e-07,1.0374194638112793e-06,9.830058517302859e-07,1.2958771991137251e-06,1.2194784825159704e-05,4.893745371991433e-07,2.102686045895041e-06,6.18488669956604e-07,1.9346809938036986e-06,4.620247104782869e-07,7.476741928343379e-07
6,7.587551066340326e-07,8.185429575400728e-07,8.091489809774182e-07,1.2034309309378367e-06,1.396061245954987e-06,9.706650478915816e-07,1.182093453429118e-06,1.0942235569581545e-06,1.4414449386266412e-06,1.35323467742681e-05,5.720533464860351e-07,2.35337510732004e-06,7.12693422761849e-07,2.154533554339377e-06,5.39143382334695e-07,8.263811852191854e-07
7,8.374604326954707e-07,9.089144911127494e-07,9.210190080627311e-07,1.329871846615599e-06,1.528791373913793e-06,1.0800009829434935e-06,1.3145842821227235e-06,1.1954573925430253e-06,1.5767752105599563e-06,1.4739370246768512e-05,6.464059759438284e-07,2.581598925870523e-06,8.054941396334018e-07,2.326765459959449e-06,6.142881274012082e-07,8.960422173704333e-07
8,9.084746324380223e-07,9.934986386830205e-07,1.0265944431300728e-06,1.4370211638325035e-06,1.6548657251283535e-06,1.1803505205105773e-06,1.4348573696642899e-06,1.2863455136282366e-06,1.7012804586349337e-06,1.580730614878799e-05,7.124920714607601e-07,2.7865010315936693e-06,8.962315321550613e-07,2.4578305422976237e-06,6.870845183200443e-07,9.570970536383049e-07
9,9.724719595746365e-07,1.0717256386280799e-06,1.1254423230687005e-06,1.5242556225421933e-06,1.773465434355512e-06,1.2712137883087607e-06,1.543507938954047e-06,1.366677898960182e-06,1.8143155023385428e-06,1.672835674821684e-05,7.706454664869897e-07,2.9676493685722755e-06,9.842041024404032e-07,2.554943836916344e-06,7.570832009012005e-07,1.0102055394435183e-06
10,1.0300836241156894e-06,1.1430032767142643e-06,1.2172284663709008e-06,1.591612603536274e-06,1.8836008909471142e-06,1.352155283018353e-06,1.6414627641142625e-06,1.436597300578474e-06,1.9153204895119368e-06,1.7494493554128298e-05,8.213061243714712e-07,3.1252437766569987e-06,1.0686975542555332e-06,2.6252964687159355e-06,8.238053292631153e-07,1.0561018175066827e-06
11,1.0819424060519386e-06,1.206737605414391e-06,1.3017748504871903e-06,1.6398998871586015e-06,1.984066141590984e-06,1.4229128145713801e-06,1.72967363635241e-06,1.4966679706257929e-06,2.0039200316365816e-06,1.8099138952709806e-05,8.650117713584834e-07,3.260255505414189e-06,1.148998946892496e-06,2.6758217268401323e-06,8.868487922554196e-07,1.0955140378643634e-06
12,1.128786098658866e-06,1.2624123185538433e-06,1.3789713837806945e-06,1.6706111532868018e-06,2.073514387967104e-06,1.4834586085049183e-06,1.8089848928352151e-06,1.5477549661775736e-06,2.079851703046419e-06,1.8540382811840253e-05,9.02420405061954e-07,3.374461692361009e-06,1.2244031049357547e-06,2.7133270524636114e-06,9.459893235450468e-07,1.129132860411855e-06
13,1.1715104960568563e-06,1.3097130385273333e-06,1.4486537726124466e-06,1.6856726876501596e-06,2.1507183412112254e-06,1.5340522522223934e-06,1.8801609477378795e-06,1.590807554053194e-06,2.1427943810576058e-06,1.8822460097994494e-05,9.342491642361207e-07,3.4703237754327678e-06,1.2942718173290678e-06,2.744874725290134e-06,1.001196962831657e-06,1.1576175510572948e-06
14,1.2111182525905472e-06,1.3485948604030944e-06,1.5105498251805643e-06,1.6871402015245204e-06,2.214866663253376e-06,1.5753367581349816e-06,1.9438939586037393e-06,1.6267624772244984e-06,2.1923547061099925e-06,1.8953722406353243e-05,9.611676405634234e-07,3.5506405743475257e-06,1.3582144051662654e-06,2.7781609755143437e-06,1.0525356974346148e-06,1.1815882940229696e-06
15,1.2486038621310091e-06,1.3792429016131576e-06,1.5642655699090696e-06,1.6769640489990517e-06,2.265670672130113e-06,1.6084454017916512e-06,2.000702256038281e-06,1.6566554016469755e-06,2.2283439331171382e-06,1.8942973212680196e-05,9.837361520672092e-07,3.6180728385344736e-06,1.4162452895046569e-06,2.8215867022991924e-06,1.100041750294167e-06,1.2015663718293242e-06
16,1.2848643335786136e-06,1.401995957474636e-06,1.609344670644984e-06,1.656889123097119e-06,2.3032245975763818e-06,1.6350121473752196e-06,2.0508168133334945e-06,1.6816960691987795e-06,2.2510794393953022e-06,1.879701301347774e-05,1.0023971345039991e-06,3.674816171416817e-06,1.4687181745099967e-06,2.883945442640558e-06,1.1436764407163104e-06,1.2179260894219295e-06
17,1.3206484880932291e-06,1.4173022161141383e-06,1.6454397405015118e-06,1.6284924231998692e-06,2.327724302241081e-06,1.6570069813058733e-06,2.094189625846349e-06,1.7031130393833172e-06,2.2613816965657542e-06,1.852022620042592e-05,1.017470042155061e-06,3.722541689067674e-06,1.5162161321229854e-06,2.974085796007287e-06,1.1833339181020698e-06,1.2309630563804925e-06
18,1.3565162850584596e-06,1.425677009803349e-06,1.6724783887591868e-06,1.5932529676900805e-06,2.3392790886146378e-06,1.676459981378822e-06,2.13064112713669e-06,1.7219344859057857e-06,2.2602908838280017e-06,1.8116131180728315e-05,1.0291624594738352e-06,3.7624451609207618e-06,1.5595859560856583e-06,3.1010377135248114e-06,1.218925845720064e-06,1.2410813117734596e-06
19,1.3928151335928847e-06,1.427645478042738e-06,1.6906802146503299e-06,1.5525402984344132e-06,2.3380303815981817e-06,1.6952411403445428e-06,2.1600439444844874e-06,1.738908978909071e-06,2.248810428682971e-06,1.759065834938876e-05,1.037641222276046e-06,3.795269213455249e-06,1.5999254459696943e-06,3.274616201796108e-06,1.2505599013922216e-06,1.2489696145639538e-06
20,1.4296746788334979e-06,1.4237762946160873e-06,1.7004152844451239e-06,1.5075742720748106e-06,2.3244941650984086e-06,1.7149934089655971e-06,2.1824423845636463e-06,1.7545441807754354e-06,2.2278958169152974e-06,1.6955290603477117e-05,1.043120772857035e-06,3.821334530881084e-06,1.6384922357627828e-06,3.506022649334335e-06,1.2786143740180907e-06,1.2555980412709433e-06
21,1.4670127748392454e-06,1.4148176213878389e-06,1.702015262229226e-06,1.4594739904296965e-06,2.299833663690374e-06,1.7371489916376115e-06,2.1980617381157315e-06,1.769149984926462e-06,2.1985852655328026e-06,1.6227613246380816e-05,1.0458857185703703e-06,3.840656708609929e-06,1.676668509874651e-06,3.8080491201924464e-06,1.303582495843215e-06,1.2620191867081683e-06
22,1.504548929647707e-06,1.4017266750744808e-06,1.6957035602155122e-06,1.4093377530929126e-06,2.2659045278693533e-06,1.7629155485346611e-06,2.207200172410889e-06,1.7828419513716488e-06,2.162063751205073e-06,1.5428953240913916e-05,1.0462613926418142e-06,3.853154275161854e-06,1.7158508614511351e-06,4.194830459708851e-06,1.3258909081574506e-06,1.2691552720763406e-06
23,1.5418327955078518e-06,1.3855070567025536e-06,1.6817690005568243e-06,1.3582083589853981e-06,2.2251064650470134e-06,1.7932459113548401e-06,2.210122431921404e-06,1.795574436379083e-06,2.1196223920146735e-06,1.4581007987137156e-05,1.0446336764307543e-06,3.858846534528434e-06,1.7572351569411651e-06,4.681237658795895e-06,1.3458659478148899e-06,1.2776960241014242e-06
24,1.5782906893049014e-06,1.3670510870923703e-06,1.660866971415632e-06,1.3069606848702233e-06,2.180099928557056e-06,1.8288769351963931e-06,2.207146288676488e-06,1.807243685205192e-06,2.0726072766777687e-06,1.3703512440818224e-05,1.0415234854598083e-06,3.857914415949837e-06,1.80171212670916e-06,5.282140469980867e-06,1.363759021775296e-06,1.2880709996839693e-06
25,1.6132561002922879e-06,1.347147663918498e-06,1.6341071744816832e-06,1.2562555426103447e-06,2.133469207800774e-06,1.8704243164168628e-06,2.1988918634741594e-06,1.8177743293727035e-06,2.022409589635872e-06,1.281357804396106e-05,1.037602380016165e-06,3.850628497682664e-06,1.8499054895236709e-06,6.0120082069934575e-06,1.3797729002348825e-06,1.3004612921799162e-06
26,1.6460248871368114e-06,1.32655744659269e-06,1.6028063246466864e-06,1.2065975228095368e-06,2.087491761283931e-06,1.9184182400453538e-06,2.1864510854742445e-06,1.8271521319843312e-06,1.970423448126443e-06,1.1926015557674327e-05,1.033632375660605e-06,3.837274016489025e-06,1.9022367911497784e-06,6.885127951284305e-06,1.3941302547701365e-06,1.3148419252645407e-06
27,1.6760210812088093e-06,1.3059987648297374e-06,1.5681935150854878e-06,1.1584538206936607e-06,2.0440869342548145e-06,1.973237982540481e-06,2.1713377408647173e-06,1.8354235008795676e-06,1.9179167405863654e-06,1.1053808566698455e-05,1.0304172314035505e-06,3.81817717688283e-06,1.9590478601039447e-06,7.916090811979706e-06,1.4070991043957386e-06,1.3310046925892318e-06
28,1.7029775631465046e-06,1.2860783770204983e-06,1.5313256658414452e-06,1.1123693617911172e-06,2.0048451581838235e-06,2.0350371492527474e-06,2.155291536946581e-06,1.8426266274237721e-06,1.8659074639396669e-06,1.0208456293856592e-05,1.0287646834393616e-06,3.7938178066896297e-06,2.0207569477679323e-06,9.120082353307222e-06,1.4188941138797367e-06,1.3485480320602592e-06
29,1.7269741543998112e-06,1.2672617924940076e-06,1.4931687203496804e-06,1.069002142331777e-06,1.971088053160449e-06,2.1037503795651185e-06,2.140102410594337e-06,1.848700170463157e-06,1.815169241086943e-06,9.400213083357724e-06,1.02940579768911e-06,3.764879207995612e-06,2.0878355072410375e-06,1.0512954924190686e-05,1.4295743491778046e-06,1.3669222650696813e-06
30,1.748354753352984e-06,1.2498749309753997e-06,1.4547006782473196e-06,1.0290573016111743e-06,1.94396472516502e-06,2.1792287586973255e-06,2.1275387829153362e-06,1.853502470135432e-06,1.7663755632312738e-06,8.6382884548277e-06,1.0329108287705924e-06,3.7321037681538647e-06,2.160616019389296e-06,1.2111185227634454e-05,1.4390748816756246e-06,1.3855829507028503e-06
31,1.767599011439524e-06,1.2341002097221087e-06,1.416919965718709e-06,9.932013492178401e-07,1.92447028716048e-06,2.261461035570384e-06,2.119292347025941e-06,1.8569215652077265e-06,1.7202302949718467e-06,7.931106545579826e-06,1.0396626936625941e-06,3.696110779444854e-06,2.2391622204887857e-06,1.3931630823643961e-05,1.4473058752679194e-06,1.4041139051790985e-06
32,1.7851488091596865e-06,1.2199397909077628e-06,1.3807250417791397e-06,9.620315885923997e-07,1.913350795099507e-06,2.3506921562919394e-06,2.116850672766683e-06,1.858904950806728e-06,1.677427880292865e-06,7.286633219737261e-06,1.0498623431670046e-06,3.65747164494516e-06,2.323287450615805e-06,1.5991026732853856e-05,1.454183026254268e-06,1.422161147214065e-06
33,1.8012478492382452e-06,1.207161508518336e-06,1.3467761867020876e-06,9.36060341104159e-07,1.911052629378957e-06,2.447326624056898e-06,2.1213877687900922e-06,1.8593364979095352e-06,1.638533484966524e-06,6.712604574103564e-06,1.0635272625918773e-06,3.6169884083270743e-06,2.412668856073199e-06,1.8305339862374688e-05,1.459621168393669e-06,1.4392668150312214e-06
34,1.8159376660818203e-06,1.1952805869020864e-06,1.3154432969861406e-06,9.156824117781779e-07,1.917789339208004e-06,2.551694103078319e-06,2.1337528563372914e-06,1.8578886673256269e-06,1.603974677751277e-06,6.2165738617383085e-06,1.080507072372049e-06,3.5758223184185833e-06,2.5069159676398903e-06,2.088908746432819e-05,1.463543607870538e-06,1.45477646637069e-06
35,1.8292072419258757e-06,1.183595624511331e-06,1.2868238232165036e-06,9.01163920889025e-07,1.933618009584081e-06,2.663791760888554e-06,2.154479571692456e-06,1.8540446900282353e-06,1.5741268152813573e-06,5.805916485075608e-06,1.100539129403701e-06,3.5353012113467894e-06,2.605530033489988e-06,2.3754555203840655e-05,1.4658571867709767e-06,1.467851542610399e-06
36,1.8410901112736165e-06,1.1713190612237013e-06,1.2608129612120227e-06,8.92661421610357e-07,1.9584437972813603e-06,2.7831071621122806e-06,2.1838232829434652e-06,1.8473445182788494e-06,1.5493802596872864e-06,5.487899173484814e-06,1.12329452533278e-06,3.49653711418068e-06,2.7079456454197284e-06,2.6910777317974678e-05,1.4664097611355632e-06,1.4775895712197398e-06
37,1.8515868669880705e-06,1.1578335362470514e-06,1.2372464316232144e-06,8.902667466576258e-07,1.9920417251277645e-06,2.908620921991809e-06,2.22190596004285e-06,1.8376767552282987e-06,1.5302021149416641e-06,5.269722206108116e-06,1.1483676795523951e-06,3.4600915513614824e-06,2.813759502302835e-06,3.0362277566274176e-05,1.4649678850660364e-06,1.4832393927597748e-06
38,1.860552273385876e-06,1.142947285582291e-06,1.2160447461013735e-06,8.940635858056304e-07,2.0342324791797096e-06,3.039049678952015e-06,2.2688352218319345e-06,1.8253565647668783e-06,1.5172225003321864e-06,5.1584221966437426e-06,1.1752527123902154e-06,3.425848615715753e-06,2.9229484019753725e-06,3.410784448115276e-05,1.4612058205510238e-06,1.4844089078500737e-06
39,1.867742406606444e-06,1.1269568515033744e-06,1.1972325915814963e-06,9.041350320353935e-07,2.085162032863646e-06,3.1732976485585866e-06,2.324632651969397e-06,1.8109154375326873e-06,1.5112773767676907e-06,5.160695675137885e-06,1.2033510995446116e-06,3.39309942728423e-06,3.0358951223300573e-06,3.813962531149383e-05,1.4547226562496774e-06,1.4811894139194093e-06
40,1.8729592151469556e-06,1.1104857308532081e-06,1.1808852871758981e-06,9.205075644095315e-07,2.1454406094733733e-06,3.310908519076952e-06,2.3890793010991976e-06,1.7948027055575047e-06,1.5133498985806211e-06,5.282819259496399e-06,1.231982941293217e-06,3.360765224846359e-06,3.153217029036012e-06,4.244230718750582e-05,1.445067887862431e-06,1.4741745692407066e-06
41,1.876074640276561e-06,1.094247234287358e-06,1.1671477707168561e-06,9.431067006282578e-07,2.2159720471883958e-06,3.4522148118650898e-06,2.46164934295511e-06,1.7772544920449165e-06,1.5244358707678318e-06,5.530775812189837e-06,1.2603932775657497e-06,3.327692695821931e-06,3.275467358989969e-06,4.699201823965349e-05,1.4317772909339648e-06,1.464327045488666e-06
42,1.8769785767058164e-06,1.0788870243225763e-06,1.1562713257023871e-06,9.717781339483664e-07,2.2975963595747185e-06,3.598079965954112e-06,2.541497930070113e-06,1.7583854929226044e-06,1.545381482362433e-06,5.9105271894454485e-06,1.2877956353988472e-06,3.292924768728237e-06,3.4028715760000236e-06,5.175532925507158e-05,1.4145141467540652e-06,1.4527161697579274e-06
43,1.8755965194747785e-06,1.0649266268640945e-06,1.1485371566458262e-06,1.006345936106274e-06,2.390802096830999e-06,3.749446207846377e-06,2.627438034571823e-06,1.7383748168110917e-06,1.5767797533803756e-06,6.4282367623357536e-06,1.3134544419158578e-06,3.2558317208501806e-06,3.535226131163548e-06,5.668910922599424e-05,1.3932867226552685e-06,1.4402893132956807e-06
44,1.871863803205845e-06,1.0527371528895663e-06,1.1441152375028528e-06,1.0466447022708966e-06,2.49560032244673e-06,3.9069411136849085e-06,2.7179825762929035e-06,1.7175971200582666e-06,1.619078545095451e-06,7.090280317562071e-06,1.3367520613775979e-06,3.2160926994349585e-06,3.671894390154216e-06,6.174158243719631e-05,1.3685537888370619e-06,1.4278024083863438e-06
45,1.8656221339571977e-06,1.0425045471422743e-06,1.14299017928195e-06,1.0924861223829251e-06,2.6114942049300376e-06,4.0706064957138616e-06,2.811510250656868e-06,1.6966034248594836e-06,1.6729100442296765e-06,7.903051056991863e-06,1.3571968280168164e-06,3.173620648548185e-06,3.811869571178686e-06,6.685456650381594e-05,1.3411168767203295e-06,1.4158602127380405e-06
46,1.8566031309949404e-06,1.0342055579423956e-06,1.1449849560480413e-06,1.1435919123562977e-06,2.73747319615765e-06,4.2397744461302265e-06,2.9064758171245645e-06,1.675986953765876e-06,1.7393481889531049e-06,8.872642673215519e-06,1.3743696802573924e-06,3.128488022644979e-06,3.953979521606867e-06,7.196638616587544e-05,1.3118880866782784e-06,1.4049366304892193e-06
47,1.844493093115005e-06,1.0276264317964797e-06,1.149806736804663e-06,1.1995717696174132e-06,2.871999013671508e-06,4.413131474124162e-06,3.0015483927281097e-06,1.6563300088336921e-06,1.8198123349284303e-06,1.0004454970987642e-05,1.3878644405029813e-06,3.080899369402815e-06,4.097140217783997e-06,7.7014274094715e-05,1.2817455836753968e-06,1.395325623868562e-06
48,1.8290017244489201e-06,1.022438607384967e-06,1.1570394244044976e-06,1.259952911284971e-06,3.0130325773424716e-06,4.5888867173183576e-06,3.095632191221936e-06,1.6383091203615485e-06,1.9157466484863222e-06,1.1302770050342483e-05,1.3973124500419004e-06,3.0313006727396554e-06,4.2403891024468875e-06,8.193486804252102e-05,1.2515777445453094e-06,1.3870863116562862e-06
49,1.8099902644701817e-06,1.0183239647661828e-06,1.1661003470130352e-06,1.3241825426915346e-06,3.1581647500817488e-06,4.764915060814195e-06,3.1877956104181973e-06,1.6227658619030499e-06,2.0284387688270167e-06,1.2770361849211645e-05,1.40250090209843e-06,2.9805674239679808e-06,4.382639605545147e-06,8.666184021603302e-05,1.222349405599046e-06,1.3800283063775362e-06
50,1.787678529054841e-06,1.0151177542312305e-06,1.1762525540597236e-06,1.3915831120838716e-06,3.3047549748954867e-06,4.9388074847545705e-06,3.2771546865498166e-06,1.610614152005012e-06,2.1590757151496228e-06,1.4408076055416578e-05,1.4034835375229614e-06,2.9299956419378883e-06,4.5225065340319404e-06,9.112092088812214e-05,1.1950328268591223e-06,1.3737079622189654e-06
51,1.762808418320713e-06,1.0128927697817502e-06,1.1867038041281525e-06,1.4613442672550853e-06,3.4499111621910837e-06,5.107815739199828e-06,3.362757571884897e-06,1.6026850228522873e-06,2.3088018378251727e-06,1.6214250033625566e-05,1.4006075350461136e-06,2.880965462617413e-06,4.658400246299268e-06,9.522540429173098e-05,1.1704904322016301e-06,1.3674492050832783e-06
52,1.7366081971930081e-06,1.0119181738852343e-06,1.1966886061670843e-06,1.5325948202417413e-06,3.5903253207917803e-06,5.268820109909223e-06,3.443536047218849e-06,1.5996184488905974e-06,2.4786005514328705e-06,1.8184042058178477e-05,1.394464708771573e-06,2.834541735897269e-06,4.788550228526518e-06,9.887767063763597e-05,1.1494293687348788e-06,1.360452126416384e-06
53,1.7105337140775834e-06,1.0125463168113946e-06,1.2054643382283058e-06,1.6044538450949994e-06,3.722204741200121e-06,5.418579837373775e-06,3.518375605611095e-06,1.6018111660802391e-06,2.6690874735679286e-06,2.0308842636232924e-05,1.385799348400675e-06,2.791331585867588e-06,4.910782038398118e-06,0.0001019797676243914,1.13239164810954e-06,1.351968663817735e-06
54,1.6859488535406043e-06,1.0151573121430615e-06,1.2123417848747802e-06,1.6759837003630376e-06,3.841553847330791e-06,5.554371949533924e-06,3.5862540586997753e-06,1.6094055649451067e-06,2.880382364500481e-06,2.257581538338308e-05,1.3753945115595274e-06,2.7515715915777946e-06,5.022464803734507e-06,0.00010445020829832504,1.1197290958499207e-06,1.3414476005475537e-06
55,1.663928919839299e-06,1.0202020506487049e-06,1.2168095203138987e-06,1.7462054490512509e-06,3.944784601560004e-06,5.674716673118067e-06,3.6463123399369833e-06,1.622328333782599e-06,3.11213768744931e-06,2.496761349663007e-05,1.3639560405234818e-06,2.715196019548087e-06,5.1209581562586364e-06,0.00010624069531075498,1.1115913720663518e-06,1.328591176207845e-06
56,1.6452331375604124e-06,1.0282518024356731e-06,1.2185868625867391e-06,1.8143513106423971e-06,4.029303673527312e-06,5.779610252228321e-06,3.6977705692431695e-06,1.6403840472208713e-06,3.36369383609309e-06,2.7462305939594295e-05,1.3520391468904773e-06,2.681808103650535e-06,5.204289708784703e-06,0.00010734558399026707,1.1079362399934797e-06,1.3133325977258992e-06
57,1.6303737753333665e-06,1.0399565790974885e-06,1.2175731119063176e-06,1.8801778058474248e-06,4.0937227554988956e-06,5.8699725498930725e-06,3.7397342949852442e-06,1.6633616356500329e-06,3.634233212875061e-06,3.003353958476264e-05,1.340029166877252e-06,2.650692559230515e-06,5.271489562022848e-06,0.0001077975104923584,1.1085552828646115e-06,1.295767251151554e-06
58,1.6196632252354432e-06,1.055935928763382e-06,1.2138402670669355e-06,1.943990418046446e-06,4.137620220070601e-06,5.946778247579926e-06,3.771006965303811e-06,1.6910745631412973e-06,3.922834717464959e-06,3.2651338335153415e-05,1.3281142756724858e-06,2.620948153551579e-06,5.3223253355993495e-06,0.00010764922833937475,1.113115497776012e-06,1.2760953014882448e-06
59,1.6131839419266953e-06,1.076696552364834e-06,1.2076363845784805e-06,2.006322008444802e-06,4.161011546478756e-06,6.010598052621996e-06,3.7899539751279644e-06,1.7232964887773595e-06,4.228399844301852e-06,3.528393791850328e-05,1.3162439643243685e-06,2.5916952551493513e-06,5.356918203296178e-06,0.00010695297224297884,1.1211782434844335e-06,1.2546275117319995e-06
60,1.6107365035134193e-06,1.1025947598739489e-06,1.1993405238601652e-06,2.0675549937189802e-06,4.163856886185243e-06,6.0616011876727685e-06,3.7944230653150786e-06,1.7596396621814083e-06,4.549412424171398e-06,3.790000512404993e-05,1.3041486259159006e-06,2.562291013295445e-06,5.37566669208587e-06,0.00010574988127158586,1.1321861644645723e-06,1.2318055677937395e-06
61,1.6118160375050885e-06,1.133798879728253e-06,1.1894789254464203e-06,2.1277447852915747e-06,4.1459915384892464e-06,6.099586286632794e-06,3.7818851081144248e-06,1.7994567936431303e-06,4.883631188366076e-06,4.04700619394762e-05,1.2914767807927658e-06,2.5325024870825325e-06,5.379111416806181e-06,0.0001040701207810295,1.1454679935412862e-06,1.208145184061177e-06
62,1.6156204141914123e-06,1.170250447107777e-06,1.1787687252461175e-06,2.186614568186349e-06,4.107478606173328e-06,6.123909411121193e-06,3.749938500225889e-06,1.8418248305557525e-06,5.227973088419078e-06,4.296727554149293e-05,1.2780100013044874e-06,2.502624520657438e-06,5.367598725592461e-06,0.00010193731354158124,1.1603049971994415e-06,1.1841280434445968e-06
63,1.6210812454247418e-06,1.2116666124556726e-06,1.1680404283381076e-06,2.2435770849962262e-06,4.0489585759033995e-06,6.133487036136827e-06,3.6969508673386163e-06,1.8856314375669547e-06,5.57868874173156e-06,4.536885887678053e-05,1.2637919846761256e-06,2.473481830363198e-06,5.341157729209761e-06,9.937414148557966e-05,1.1760482256814837e-06,1.1601524730625212e-06
64,1.6269098449094664e-06,1.257615509718377e-06,1.1581173916733339e-06,2.2977580171348353e-06,3.971757526170092e-06,6.1270082233193685e-06,3.622462291153282e-06,1.9297296025684103e-06,5.931628271390681e-06,4.76575839469908e-05,1.2490599420379913e-06,2.446209957902009e-06,5.299807176783749e-06,9.640866035865814e-05,1.1921779736115322e-06,1.1365501633778773e-06
65,1.631735789893411e-06,1.3076172104389165e-06,1.1497736477950537e-06,2.3480654259537827e-06,3.877871412230121e-06,6.103385357288221e-06,3.527224253390955e-06,1.973069018157516e-06,6.282332289628715e-06,4.98204359908029e-05,1.234066847373723e-06,2.4218779533085593e-06,5.2441865355628116e-06,9.308012186133917e-05,1.208256069479697e-06,1.1135970689640848e-06
66,1.6344125049021701e-06,1.3611542713152242e-06,1.1437038255757573e-06,2.3932925901576735e-06,3.7699236181695256e-06,6.062325437511705e-06,3.413023095578699e-06,2.0147004163548477e-06,6.62596982088085e-06,5.184361250754686e-05,1.2189561464274404e-06,2.4011916264841817e-06,5.175897276869865e-06,8.944224315645149e-05,1.2238623059537104e-06,1.0915340627064428e-06
67,1.634343720932575e-06,1.4175772662058338e-06,1.1404646422004552e-06,2.432224309974801e-06,3.651050389136349e-06,6.004658134074553e-06,3.282506379875419e-06,2.0536692479707983e-06,6.957312715576229e-06,5.370867453307523e-05,1.2037538671148942e-06,2.384426745081788e-06,5.0970755987874676e-06,8.556216530612974e-05,1.2385469047992588e-06,1.0705994908896633e-06
68,1.6315815661188512e-06,1.4760236385676863e-06,1.1404442571311148e-06,2.463755609788069e-06,3.5246319663906383e-06,5.932046120307622e-06,3.1390501113226333e-06,2.0889971613632607e-06,7.270696526943547e-06,5.539376052180748e-05,1.188434289701643e-06,2.371551707983297e-06,5.00982009329801e-06,8.151524232508229e-05,1.2518141763792897e-06,1.0509998899072704e-06
69,1.6266249602934814e-06,1.5354211952369512e-06,1.143893984739454e-06,2.487026439099086e-06,3.393899293293681e-06,5.8462761561549805e-06,2.986497408415953e-06,2.1198550841564423e-06,7.559983686808414e-06,5.6876816964943736e-05,1.1730028255859027e-06,2.3624389794992464e-06,4.91604940442223e-06,7.737834176157923e-05,1.2631721776714009e-06,1.0328616355733502e-06
70,1.6201062425104967e-06,1.594551773977034e-06,1.1509968756175769e-06,2.5015526186741084e-06,3.2616659061387726e-06,5.7489131255978445e-06,2.8287342298188353e-06,2.1457576465152156e-06,7.818930981345812e-06,5.813677605440434e-05,1.157565622868922e-06,2.3570710602525457e-06,4.817424419234397e-06,7.322483791739751e-05,1.2721639034520129e-06,1.0162568671673064e-06
71,1.6126426033411113e-06,1.6521450746573207e-06,1.1618902594615948e-06,2.507314979553511e-06,3.130331747479449e-06,5.6416505344338884e-06,2.669358071609815e-06,2.1666108092330737e-06,8.041886693852999e-06,5.9153663672536084e-05,1.1423404349698362e-06,2.355630323113664e-06,4.715184618778562e-06,6.912196820576952e-05,1.2783730549505346e-06,1.0012717688959168e-06
72,1.6048902529830593e-06,1.706986248170436e-06,1.1766296290290455e-06,2.5047503732910757e-06,3.001952284496562e-06,5.526780395005303e-06,2.51157777820231e-06,2.182624347516263e-06,8.2239694108683e-06,5.9911016227677516e-05,1.127578102493418e-06,2.358398497997234e-06,4.610142561614665e-06,6.512863188726237e-05,1.2815065803273101e-06,9.88037895519866e-07
73,1.5975745320737718e-06,1.7580150635790862e-06,1.195170413257328e-06,2.4946384208299727e-06,2.8782203158685657e-06,5.40722158472123e-06,2.3581891795062817e-06,2.194190021749204e-06,8.360612240253225e-06,6.0401565168043814e-05,1.113448159489153e-06,2.365530253668519e-06,4.502726101221219e-06,6.129249402750666e-05,1.2814550457538566e-06,9.767055578994067e-07
74,1.5913905888610927e-06,1.8044224382548173e-06,1.2173864937708074e-06,2.4779478352882068e-06,2.7604535942867678e-06,5.286116912559855e-06,2.2115369920453576e-06,2.2018397523312814e-06,8.447609153033829e-06,6.063311148111032e-05,1.0999795218076379e-06,2.3768612225415185e-06,4.393084453293696e-06,5.7647882959022593e-05,1.2782014947253023e-06,9.67427654430043e-07
75,1.5869088622403e-06,1.8457718172420516e-06,1.2431243458315345e-06,2.455663722239327e-06,2.649610852925816e-06,5.166269127441261e-06,2.073505156979033e-06,2.2063140050634773e-06,8.482180048193768e-06,6.062969369457398e-05,1.0871071179608583e-06,2.3918163303969517e-06,4.281445056305324e-06,5.421567386294248e-05,1.2717210525752562e-06,9.603832554275309e-07
76,1.584551170535389e-06,1.8820722363384462e-06,1.2723047373654484e-06,2.4285833486619407e-06,2.5462834239531363e-06,5.049760873743563e-06,1.945527393783377e-06,2.208632574428944e-06,8.463924054443737e-06,6.042540238609053e-05,1.074816885096988e-06,2.409377884020655e-06,4.168398154507204e-06,5.1004342609466325e-05,1.262007728315758e-06,9.55745228792716e-07
77,1.5845509657532411e-06,1.913658198115914e-06,1.3049791526002204e-06,2.3971798832397574e-06,2.450742469645773e-06,4.937941169842402e-06,1.828601754300725e-06,2.2100323249862076e-06,8.39452737142131e-06,6.005404412593598e-05,1.0632829538830832e-06,2.42809303479937e-06,4.054765928625906e-06,4.801189404113334e-05,1.249141920635015e-06,9.535927531916802e-07
78,1.5868880260863406e-06,1.94093351494026e-06,1.3412411705181097e-06,2.3616572340340023e-06,2.3631056881404916e-06,4.831551313856556e-06,1.7233120365027813e-06,2.2117592635882554e-06,8.276821589440947e-06,5.9542606415994534e-05,1.0528566325769168e-06,2.4461090704365166e-06,3.941232300220009e-06,4.522863487686803e-05,1.233324621840334e-06,9.5389652373434e-07
79,1.591313514975982e-06,1.964222503259854e-06,1.3810838396057437e-06,2.3221503512820103e-06,2.2835037891051955e-06,4.730681796189524e-06,1.6298433507459916e-06,2.214862647070991e-06,8.114635012078164e-06,5.8912983032829035e-05,1.0439143935104537e-06,2.461271211520117e-06,3.828022104853127e-06,4.263892151118164e-05,1.2148932296912917e-06,9.565827887539192e-07
80,1.597508390574762e-06,1.9838054795089686e-06,1.4243275936223855e-06,2.2789339357744705e-06,2.212111178899216e-06,4.634572915409066e-06,1.5480096236316218e-06,2.2201399976103146e-06,7.913345509678966e-06,5.81876940369544e-05,1.0367148211376615e-06,2.471375299430034e-06,3.714782726590792e-06,4.022098429405712e-05,1.1943004256700572e-06,9.615690237438146e-07
81,1.6052208696437545e-06,2.0000236700594266e-06,1.4705798527703006e-06,2.232535055184136e-06,2.149040928115439e-06,4.541525257541343e-06,1.4773234764892626e-06,2.228178386510336e-06,7.679761726077637e-06,5.739230008680408e-05,1.0313869847785906e-06,2.4745691801234415e-06,3.6007416614559434e-06,3.794732791181707e-05,1.1720584235658574e-06,9.687372780818285e-07
82,1.6142346578493064e-06,2.013365554835122e-06,1.5191766959443878e-06,2.1836713961146548e-06,2.0942440589688775e-06,4.44918718296121e-06,1.4170760281636066e-06,2.2393238508999333e-06,7.421199935422927e-06,5.655187901643519e-05,1.028045781559346e-06,2.4697698839226727e-06,3.4849734679033167e-06,3.578778271610619e-05,1.1487101208173163e-06,9.77887485203962e-07
83,1.624287089860981e-06,2.0244547365126315e-06,1.5691511389001967e-06,2.1330192626491846e-06,2.0475537573040717e-06,4.355273007332707e-06,1.366374503739246e-06,2.253554307931437e-06,7.144838630415955e-06,5.568546491529763e-05,1.0269024007222308e-06,2.4569036095294697e-06,3.3664997686160004e-06,3.37140263890025e-05,1.1248098887750844e-06,9.886984056955987e-07
84,1.6350780840041637e-06,2.03389315817528e-06,1.6192698577819346e-06,2.080968419566703e-06,2.0087767152789873e-06,4.25838207826194e-06,1.3241794981666968e-06,2.2703678726691093e-06,6.857668022879827e-06,5.4805047703837857e-05,1.0282442479044773e-06,2.436801046736317e-06,3.244416354675682e-06,3.1703670107097766e-05,1.1008428280039269e-06,1.0007053046248649e-06
85,1.646273187900991e-06,2.0421053141716744e-06,1.6681501793858273e-06,2.027548370815001e-06,1.9776559483406356e-06,4.1582980011145895e-06,1.2894467371722517e-06,2.2887559836377723e-06,6.566462633253361e-06,5.392118557421141e-05,1.0323367705653733e-06,2.4107747671161434e-06,3.1183669553484763e-06,2.9742795412528395e-05,1.0771553357773498e-06,1.0132969989930938e-06
86,1.6574533270477633e-06,2.049300693033761e-06,1.7144488999826246e-06,1.9725272169387452e-06,1.953803828029529e-06,4.055507566370902e-06,1.2613501300955907e-06,2.3072493767697896e-06,6.277448317143149e-06,5.305004681367666e-05,1.0393817172611803e-06,2.3801206996900774e-06,2.9890110811850563e-06,2.7825994199020014e-05,1.0540263844884754e-06,1.0257254524673682e-06
87,1.6680944249482693e-06,2.0554410087583574e-06,1.7570653097530635e-06,1.9155348389762987e-06,1.9367217609695903e-06,3.9505290776080486e-06,1.2393856941976277e-06,2.3240309021484868e-06,5.995872667865229e-06,5.2215609700535875e-05,1.0495313834663254e-06,2.345797694815494e-06,2.8580161536023366e-06,2.5954102517045254e-05,1.0318077927422502e-06,1.0371380809314907e-06
88,1.6776252020057378e-06,2.0601719646056537e-06,1.7952659603286814e-06,1.8561636816434011e-06,1.925780095304617e-06,3.8437239773755755e-06,1.2232422448011296e-06,2.3371582500029987e-06,5.725799860819075e-06,5.1446081931553645e-05,1.062870962393723e-06,2.3083788600823902e-06,2.7276764696539148e-06,2.413143837842027e-05,1.0109426599585092e-06,1.0466607510837776e-06
89,1.685603579566247e-06,2.0628268824739012e-06,1.8286749085496126e-06,1.7941532119747246e-06,1.9201625943139027e-06,3.7354813151580773e-06,1.2126028421970732e-06,2.344894060314485e-06,5.470184053525821e-06,5.0767842958538574e-05,1.0793587773100395e-06,2.268217553639926e-06,2.60045172442457e-06,2.2364071607871953e-05,9.91843546759164e-07,1.053535452178982e-06
90,1.6919321796552632e-06,2.062527467927061e-06,1.857164441580175e-06,1.7296775779041965e-06,1.918922819657315e-06,3.6263550791958767e-06,1.207069793687842e-06,2.3460198681111868e-06,5.2310107939419405e-06,5.020026712858006e-05,1.0987759280823317e-06,2.22569118682428e-06,2.478580034132121e-06,2.0659063386775185e-05,9.747752911898828e-07,1.057269692305914e-06
91,1.6969007370903204e-06,2.058372285756168e-06,1.8807478269192172e-06,1.6635444514881845e-06,1.9210791939690806e-06,3.5170500125264044e-06,1.206173343896332e-06,2.3400086285217825e-06,5.009373063219119e-06,4.975363934351927e-05,1.1207021971283043e-06,2.181349223732897e-06,2.363854145769574e-06,1.902395308918069e-05,9.598206692917057e-07,1.0577303827486297e-06
92,1.700993312207217e-06,2.049708404644401e-06,1.8995421298877282e-06,1.5970976851811303e-06,1.925633016400246e-06,3.4083076444345565e-06,1.2093542908312496e-06,2.3270473395547047e-06,4.805581431671269e-06,4.9430677407515674e-05,1.1445271897577036e-06,2.135842883475772e-06,2.2575733849053425e-06,1.7466238016499693e-05,9.469124781345368e-07,1.0551391277036502e-06
93,1.7046319610604855e-06,2.036381282009679e-06,1.9137547682807427e-06,1.5318669174624688e-06,1.9315884927312114e-06,3.3007155710213976e-06,1.215953389639985e-06,2.307938922231514e-06,4.619411445350088e-06,4.9229776021190076e-05,1.1695353119289716e-06,2.089689810705468e-06,2.160585850529093e-06,1.5992909520896465e-05,9.359221361638555e-07,1.0499617905555657e-06
94,1.7080234488519825e-06,2.0188203766655734e-06,1.9235879217640443e-06,1.4692318058794458e-06,1.938067747704209e-06,3.1945238802631976e-06,1.2252957587437949e-06,2.2838658294776206e-06,4.450410811176921e-06,4.914766882074886e-05,1.1950623443145416e-06,2.0430863207774537e-06,2.073325945932178e-06,1.4609963331004405e-05,9.26788098036035e-07,1.042729716829356e-06
95,1.7111084167703464e-06,1.9979362046837546e-06,1.9290556388541964e-06,1.4102812633188348e-06,1.9444641734824773e-06,3.0896212246061947e-06,1.2368188707063255e-06,2.2560404678436296e-06,4.2980810243332644e-06,4.9180524561935454e-05,1.2206535267006311e-06,1.9959000334964344e-06,1.995830625860954e-06,1.3321769593021617e-05,9.1961624613795e-07,1.0338960666688717e-06
96,1.7135693697229553e-06,1.974918762565263e-06,1.929860917925594e-06,1.3558431170416675e-06,1.9505012491179692e-06,2.9857275903061007e-06,1.2500941794365606e-06,2.2253816122225614e-06,4.16178912919154e-06,4.9323132780988565e-05,1.2461282741875571e-06,1.947770140338304e-06,1.9278061997936213e-06,1.2130451171662668e-05,9.146767573644378e-07,1.0237941843566266e-06
97,1.7148825554397556e-06,1.951015895383601e-06,1.9254774746963948e-06,1.3066026267395687e-06,1.9561252574457475e-06,2.882682179235814e-06,1.2647425197033623e-06,2.1923448393626443e-06,4.040485025182066e-06,4.9566330444217365e-05,1.271488238519815e-06,1.8982200566022436e-06,1.8687946666092834e-06,1.1035672065838628e-05,9.12308010108901e-07,1.0126460012046022e-06
98,1.714358085670029e-06,1.927355347360401e-06,1.9154205687464363e-06,1.2632064394643746e-06,1.961294041199131e-06,2.7806428937841227e-06,1.2804034666055863e-06,2.156901191117065e-06,3.932591097913654e-06,4.989440097684179e-05,1.2967285404119579e-06,1.8467917765576654e-06,1.818334158865069e-06,1.0035065845354706e-05,9.128215790521182e-07,1.0005733866735145e-06
99,1.7111527143095275e-06,1.9048991963160473e-06,1.8995502182950589e-06,1.2262500730920018e-06,1.9658549407372546e-06,2.6800964664088696e-06,1.2968092883855536e-06,2.118597856783107e-06,3.8363042943958495e-06,5.0284816494845424e-05,1.3217096428799184e-06,1.7932109113284113e-06,1.7759743368040698e-06,9.124985041892781e-06,9.164821992154627e-07,9.876387813565592e-07
100,1.7043778924593898e-06,1.8845142365418539e-06,1.8782444812259585e-06,1.1961747598555258e-06,1.969642108587406e-06,2.5816907272064597e-06,1.313825838284994e-06,2.0766877891970898e-06,3.749983152086731e-06,5.0710324093915646e-05,1.346155604114683e-06,1.7374910719170368e-06,1.7412382799064008e-06,8.3010689249272e-06,9.235732915496195e-07,9.738944510704973e-07
101,1.6933769295041322e-06,1.8670239541702224e-06,1.8523759281726922e-06,1.173193053628329e-06,1.9726688534909904e-06,2.485984482837037e-06,1.3313651247908151e-06,2.0303456987885083e-06,3.6721535579706737e-06,5.114143517270264e-05,1.369694486434191e-06,1.6798858740103842e-06,1.7137166160666733e-06,7.558567063049628e-06,9.344642002220787e-07,9.593656234420021e-07
102,1.678013229131616e-06,1.8531931583347733e-06,1.8231090995201867e-06,1.1573023779960158e-06,1.9752137801399482e-06,2.393287417243097e-06,1.3492750031750182e-06,1.9789354743307947e-06,3.6012535345299376e-06,5.1548593056819564e-05,1.3918698255348878e-06,1.6207645582239735e-06,1.6931849939796733e-06,6.892682213864351e-06,9.495661391372844e-07,9.43991230220023e-07
103,1.658754119815248e-06,1.8436759279279382e-06,1.7916063347378417e-06,1.1483567175833953e-06,1.9777467560695807e-06,2.303723665819162e-06,1.3673578603119625e-06,1.9222423458489377e-06,3.535613595655504e-06,5.1904128142756046e-05,1.4121647858908928e-06,1.5605721944193563e-06,1.6795159823949705e-06,6.2989615011895306e-06,9.692227474753212e-07,9.276214088955679e-07
104,1.63650603796903e-06,1.8389306366115106e-06,1.7587938266547688e-06,1.1461403433003753e-06,1.9807610661756757e-06,2.2174332552684325e-06,1.385487806607364e-06,1.8606049040188516e-06,3.4738042481654567e-06,5.218285784301572e-05,1.430090772557309e-06,1.4998999577513417e-06,1.6724793180242252e-06,5.773487653844296e-06,9.936570756534556e-07,9.101169940332562e-07
105,1.6123320442369096e-06,1.8391400982813472e-06,1.725272182523643e-06,1.1503939316081287e-06,1.9846350014545834e-06,2.134701693278537e-06,1.4036455885018969e-06,1.7949264900462098e-06,3.415028350276161e-06,5.235976279962521e-05,1.4452798159915744e-06,1.439545354458299e-06,1.6716667562009e-06,5.312763097843418e-06,1.0229823402254949e-06,8.914912823862605e-07
106,1.5872293152814887e-06,1.8441922447355995e-06,1.6913346380343257e-06,1.1607828017732629e-06,1.9896083727380006e-06,2.055930414217469e-06,1.4217874254321843e-06,1.726548494597003e-06,3.359169149997585e-06,5.240569975703039e-05,1.457457581498603e-06,1.3804564140182032e-06,1.676536743168528e-06,4.913432828780682e-06,1.057218035642964e-06,8.719463604762782e-07
107,1.5620491893579649e-06,1.8537520747826192e-06,1.657059556959916e-06,1.1768706947022334e-06,1.995820504499257e-06,1.9814924390438397e-06,1.4396819609955343e-06,1.656996250768563e-06,3.3064077043134664e-06,5.2285812712513774e-05,1.4662992254977556e-06,1.3235793124798482e-06,1.6864278729362892e-06,4.572034048695588e-06,1.0962663704961684e-06,8.517692558300078e-07
108,1.537516583205182e-06,1.867422810589968e-06,1.6224579381066912e-06,1.198177331838972e-06,2.0033154633944614e-06,1.9115629293684735e-06,1.456898518843932e-06,1.5877064866216227e-06,3.256796763434143e-06,5.196407576806463e-05,1.4713402105466975e-06,1.2697183278354635e-06,1.7004868329322825e-06,4.28493314364988e-06,1.1398502625100397e-06,8.312517143797029e-07
109,1.5142555548499522e-06,1.8848529664894898e-06,1.5876269793890776e-06,1.2243071515355443e-06,2.012000160418961e-06,1.8460575775271907e-06,1.4729419499675161e-06,1.519866864976889e-06,3.2101081984129284e-06,5.1411127941581e-05,1.4720438619327176e-06,1.2194844005050174e-06,1.7175984664860116e-06,4.048587704623069e-06,1.1874585765225083e-06,8.107717389108009e-07
110,1.4927659132318988e-06,1.905656261557435e-06,1.5528753911863769e-06,1.2550475432406766e-06,2.021586693994959e-06,1.7847411959598728e-06,1.4873616889086606e-06,1.454382443792751e-06,3.1657660902963513e-06,5.0610294254966725e-05,1.4679246214534295e-06,1.1733148982112952e-06,1.736487362045504e-06,3.860046147867451e-06,1.2383241437304652e-06,7.909903865279799e-07
111,1.4733988445674579e-06,1.9292769611076156e-06,1.5187928792230552e-06,1.290347824652745e-06,2.0316069026389834e-06,1.7273829059007498e-06,1.4997796228970716e-06,1.391903353031882e-06,3.122703832369696e-06,4.9559976908663906e-05,1.458627518810021e-06,1.1315384917585708e-06,1.7560773452152837e-06,3.7173063017856348e-06,1.2914242538887288e-06,7.729726824764379e-07
112,1.4564009669394881e-06,1.9549757767969285e-06,1.4862186031777517e-06,1.3301851990851206e-06,2.041598389514066e-06,1.6737898858927744e-06,1.5099544667996782e-06,1.3328713348168487e-06,3.0793082271935443e-06,4.8272651974676234e-05,1.4439954138476492e-06,1.094493443188308e-06,1.7758845383780474e-06,3.619326680987318e-06,1.3455050123062916e-06,7.581417870858442e-07
113,1.4419577720578092e-06,1.9819238442863633e-06,1.456106077954273e-06,1.374413758028456e-06,2.051362180500776e-06,1.6237010920226253e-06,1.5178694778937737e-06,1.277564473539317e-06,3.0336085805117026e-06,4.67702760792157e-05,1.424155777332077e-06,1.0626134736834612e-06,1.796070342672986e-06,3.5659151756477347e-06,1.3991633780439824e-06,7.482144872259059e-07
114,1.430127017742044e-06,2.0093144655229855e-06,1.429358372839339e-06,1.4226727635557459e-06,2.0610362593915564e-06,1.5766903695649004e-06,1.5237153958072257e-06,1.226123478296945e-06,2.9837093484614593e-06,4.5077165200452665e-05,1.3995390946472954e-06,1.0363641644886111e-06,1.8171295916796294e-06,3.5576851789474738e-06,1.4509514430879518e-06,7.451870968548549e-07
115,1.420730802645791e-06,2.036381259206979e-06,1.4067081121621607e-06,1.4743436461574536e-06,2.070899973449411e-06,1.532219196949844e-06,1.5278145476721265e-06,1.178585601378866e-06,2.928332827099565e-06,4.3214622973802214e-05,1.3707468466097135e-06,1.0161088229134796e-06,1.8395588487469716e-06,3.5959648081703123e-06,1.4993961646511255e-06,7.512492505042378e-07
116,1.4133687396050967e-06,2.062315553444665e-06,1.3886696800230677e-06,1.5285619552039855e-06,2.08110914937238e-06,1.4897966096765455e-06,1.530586398276077e-06,1.1349344857823977e-06,2.8671623539321373e-06,4.1200699523686946e-05,1.3384163560948052e-06,1.0020611808363333e-06,1.8637549740172039e-06,3.68260704351545e-06,1.5430081421150444e-06,7.686299042820189e-07
117,1.4075493724606267e-06,2.0862519142317153e-06,1.3755817811482912e-06,1.5843389428055648e-06,2.091600996589129e-06,1.4491165724198872e-06,1.532494003477157e-06,1.0951206777329103e-06,2.800685363557418e-06,3.905338515521097e-05,1.3032749755570195e-06,9.943196501832624e-07,1.8901022994461762e-06,3.819871867442109e-06,1.5804595170290786e-06,7.994974547424313e-07
118,1.4027794371352953e-06,2.1073861893191774e-06,1.367714586892398e-06,1.640750230173666e-06,2.102184834062505e-06,1.410119424975455e-06,1.5339104999602718e-06,1.05909377320744e-06,2.7297425678751958e-06,3.679395248448746e-05,1.2662536296166915e-06,9.9291656103338e-07,1.9191286792464852e-06,4.010394445409655e-06,1.6108618561385344e-06,8.4594160225456e-07
119,1.3985673555130837e-06,2.125106188448191e-06,1.3653279790704584e-06,1.6970453610627161e-06,2.112648650471731e-06,1.372984770232248e-06,1.5350074380797232e-06,1.0268994576495613e-06,2.655295568488843e-06,3.4448950743076267e-05,1.228430845240662e-06,9.978674297902313e-07,1.951649940159317e-06,4.256998196648204e-06,1.6339269842455017e-06,9.099927190688364e-07
120,1.3944182823844968e-06,2.1390640868223863e-06,1.3686086902520148e-06,1.752611951906793e-06,2.1227311304111194e-06,1.3380634868050674e-06,1.5357964184673565e-06,9.987574979781464e-07,2.5784622787791332e-06,3.205003641488137e-05,1.1908729915638136e-06,1.009185802887845e-06,1.9887662049225503e-06,4.5623018021355734e-06,1.6499437561802954e-06,9.936232007952987e-07
121,1.389815548563895e-06,2.1492184874894533e-06,1.3775573636168689e-06,1.8068828430246734e-06,2.1319754029034555e-06,1.305760794701665e-06,1.5363015484638885e-06,9.750616323133697e-07,2.5005297289398846e-06,2.963151679716633e-05,1.1545385033568104e-06,1.0268505778329835e-06,2.031657745352174e-06,4.928335975267318e-06,1.6596397118375728e-06,1.0987147252824405e-06
122,1.3842340793378858e-06,2.1558630018557992e-06,1.3919245348853146e-06,1.8593113458352457e-06,2.139652413483898e-06,1.2764304260569723e-06,1.5367022381293247e-06,9.56325619082534e-07,2.422878664080592e-06,2.7226970728612534e-05,1.120251133152123e-06,1.050757785360387e-06,2.0813588272498137e-06,5.356285414496558e-06,1.6639805325722374e-06,1.2270378810134347e-06
123,1.3772865289924492e-06,2.1596087938541074e-06,1.4112264818727188e-06,1.9094321315151537e-06,2.144902977554128e-06,1.2503736868522102e-06,1.5373100753123702e-06,9.430853097078548e-07,2.3469315804736893e-06,2.4866652997392523e-05,1.0886874023606002e-06,1.0806736704692665e-06,2.138629424846975e-06,5.846376732426131e-06,1.6639267877729355e-06,1.380251815888581e-06
124,1.3688978477494207e-06,2.161280677696186e-06,1.4348340763490635e-06,1.956887335706074e-06,2.147024656568608e-06,1.2279250195558742e-06,1.5384033747457421e-06,9.358111909773937e-07,2.2741505779234535e-06,2.257631210548816e-05,1.0603686734536512e-06,1.116199747312483e-06,2.2038537940251883e-06,6.39801502556266e-06,1.6602186408480857e-06,1.5598752976203836e-06
125,1.3593422292561146e-06,2.161722237013872e-06,1.4620874431873758e-06,2.001328818421113e-06,2.1456917220783276e-06,1.209490931981332e-06,1.540073311951687e-06,9.348814366251354e-07,2.2059997468165286e-06,2.037700482831088e-05,1.035655117669683e-06,1.156749659304655e-06,2.2769470103166936e-06,7.010172233354013e-06,1.6532740858513535e-06,1.7672544715689898e-06
126,1.3491263889746689e-06,2.1615682322398693e-06,1.4923665908450272e-06,2.0423485708643727e-06,2.1409265407208808e-06,1.1955113212815753e-06,1.542194729181995e-06,9.40562746424564e-07,2.143828127343438e-06,1.828527370994312e-05,1.0147333363405642e-06,1.201526463586448e-06,2.357337704350754e-06,7.681808694463459e-06,1.6432123313693292e-06,2.0036300143977984e-06
127,1.3388083155440334e-06,2.1610808668840925e-06,1.5251026840571493e-06,2.0796435859905627e-06,2.1328498169332236e-06,1.1864090239961643e-06,1.5445044284056368e-06,9.529877906468807e-07,2.0887659418971144e-06,1.6313337104854503e-05,9.976312402856172e-07,1.249509786188616e-06,2.4440678854637534e-06,8.412130983694977e-06,1.6299664813657661e-06,2.2703124392527017e-06
128,1.3288763748457676e-06,2.1600980462547818e-06,1.5597735201773039e-06,2.113308190353835e-06,2.1214803165916217e-06,1.1825314297338406e-06,1.5466704764904831e-06,9.721920236871554e-07,2.041708952076779e-06,1.4469281961104862e-05,9.842813304807673e-07,1.2994705157389472e-06,2.536001484378056e-06,9.20066608597134e-06,1.6134440906594864e-06,2.5688038931338442e-06
129,1.3197258842976985e-06,2.1580991442681537e-06,1.5959226126361494e-06,2.143944577353917e-06,2.106730900042345e-06,1.1840747889331553e-06,1.548259324598703e-06,9.981896480863357e-07,2.003325766742475e-06,1.275743090066703e-05,9.745627457958385e-07,1.3500319437566697e-06,2.6320713223544487e-06,1.0047178483006656e-05,1.5937163186348097e-06,2.9007154206829615e-06
130,1.3117034128890424e-06,2.154392408026612e-06,1.6331901613930537e-06,2.172467926073589e-06,2.088458930467717e-06,1.191035999939096e-06,1.5486997313023174e-06,1.0310200404981073e-06,1.9740404389933397e-06,1.1178941608801383e-05,9.682732014773327e-07,1.3998353018041642e-06,2.7314614401591256e-06,1.0951341830950951e-05,1.5712268369969534e-06,3.267546526815791e-06
131,1.3051971109146045e-06,2.1483505365814125e-06,1.6712970315215147e-06,2.1997878954198356e-06,2.066505329307762e-06,1.203241323454077e-06,1.5474062980966195e-06,1.070758550338368e-06,1.9540243090573092e-06,9.732477590938591e-06,9.650923168706914e-07,1.4477999553389475e-06,2.8336572518599084e-06,1.191211833746246e-05,1.5469056709780804e-06,3.6705023611345637e-06
132,1.300672116941128e-06,2.1395485587028194e-06,1.7099467095699239e-06,2.226608377928334e-06,2.0408056037471145e-06,1.2204365260824472e-06,1.5440320011604705e-06,1.117491901844628e-06,1.9432002250349255e-06,8.414770212003465e-06,9.64616931447547e-07,1.493306039485541e-06,2.9383614599375094e-06,1.2927300782413687e-05,1.5220287847083127e-06,4.1103629099083764e-06
133,1.2985968765779027e-06,2.1277080935234003e-06,1.7487217633042823e-06,2.2533611685913697e-06,2.011488580719994e-06,1.2423456507860158e-06,1.5386815495948347e-06,1.171237523668993e-06,1.9412579371541716e-06,7.221062845155851e-06,9.664819162550332e-07,1.5361755812810894e-06,3.0453191512554922e-06,1.3993808889756859e-05,1.4979057833957543e-06,4.587302139399128e-06
134,1.2993598760442803e-06,2.112497615886729e-06,1.7871019948940395e-06,2.280189003705776e-06,1.9788186805713386e-06,1.2686729595912477e-06,1.5319191964462274e-06,1.2318521718877416e-06,1.947680426527372e-06,6.1456066752530365e-06,9.704669359491568e-07,1.5765209879053366e-06,3.1541096499000714e-06,1.5108441556505837e-05,1.4756642630112433e-06,5.100683182196225e-06
135,1.3032204800337679e-06,2.093414708978908e-06,1.8245813633813017e-06,2.307010114154368e-06,1.9431576071278142e-06,1.2991237734257869e-06,1.5245425343446205e-06,1.2989883339621143e-06,1.961730222718593e-06,5.18229028295192e-06,9.764529766599536e-07,1.6146059535190106e-06,3.263966699851818e-06,1.6268217857332273e-05,1.4562134910109928e-06,5.648909423122246e-06
136,1.3102532039320356e-06,2.06991292581333e-06,1.8607076641494053e-06,2.333665045170416e-06,1.9051307921849612e-06,1.33342474475023e-06,1.5173438504264335e-06,1.372087990576951e-06,1.9823826862493847e-06,4.325155792325808e-06,9.842681248403997e-07,1.650774505475119e-06,3.373729579849727e-06,1.7470042039991992e-05,1.4402629883653463e-06,6.229285231281504e-06
137,1.3202962818335889e-06,2.041598098346998e-06,1.8949701105827668e-06,2.360008791819997e-06,1.8657382968580929e-06,1.3712568125729106e-06,1.5110391210000425e-06,1.4504291617805071e-06,2.008284800141916e-06,3.568506469741456e-06,9.935822972901994e-07,1.6854000815433936e-06,3.482069573916649e-06,1.871010541023405e-05,1.4283233088439957e-06,6.837838662855968e-06
138,1.3329513278607849e-06,2.0082483230513414e-06,1.9266750723835064e-06,2.3858336427443437e-06,1.826201459008906e-06,1.4121435117223234e-06,1.5062473379955176e-06,1.5332349735171379e-06,2.037833141376038e-06,2.9066671962903287e-06,1.0039010285685875e-06,1.7188650592034585e-06,3.5879894396925597e-06,1.9983379340139648e-05,1.420720736912477e-06,7.469136149898127e-06
139,1.347637885939024e-06,1.969772176913781e-06,1.954966783530466e-06,2.4106782149028368e-06,1.7877479233880234e-06,1.4554010716640093e-06,1.5034024105834873e-06,1.6197310424493068e-06,2.069392747887799e-06,2.3337009232971966e-06,1.0146408449435578e-06,1.7515730043514314e-06,3.6913223156182183e-06,2.128312892240546e-05,1.4176482050616261e-06,8.116136316465299e-06
140,1.3636387182913459e-06,1.926351697963705e-06,1.978976464953313e-06,2.4337343196026997e-06,1.7514917711320365e-06,1.5001644641956177e-06,1.5026777260508594e-06,1.7090795788668543e-06,2.1015339521509887e-06,1.84329606360584e-06,1.0252752139000823e-06,1.7839165768569642e-06,3.7928835387889137e-06,2.2600367187122335e-05,1.4192055050950245e-06,8.770207548539128e-06
141,1.3800908219539266e-06,1.8786477726577511e-06,1.997997942249139e-06,2.454001472919698e-06,1.7183764003455254e-06,1.5454976531721428e-06,1.5039974754782608e-06,1.8003120857716884e-06,2.1330931820792793e-06,1.42888429380777e-06,1.035466603996108e-06,1.816260424859058e-06,3.894151207070889e-06,2.3923760236129913e-05,1.4253764613695588e-06,9.421392356720935e-06
142,1.3959597377980935e-06,1.8277778360887197e-06,2.011643835086833e-06,2.4705742843997652e-06,1.6891892030779395e-06,1.590680256435033e-06,1.5070948064975846e-06,1.8923873753498002e-06,2.163097242627959e-06,1.0838627056339468e-06,1.0450801705323206e-06,1.8489916312866927e-06,3.996690825887047e-06,2.5240691451665363e-05,1.435991102634069e-06,1.005865334649289e-05
143,1.4100341505627147e-06,1.7750894038017594e-06,2.0199601793486407e-06,2.482818554997411e-06,1.664676373841112e-06,1.63560408200155e-06,1.5115747025472839e-06,1.984332607294525e-06,2.1908060635674307e-06,8.016892939188029e-07,1.0540944031841455e-06,1.8825234368403364e-06,4.1016642436532285e-06,2.6539170717337793e-05,1.4507501972200194e-06,1.0669748873326473e-05
144,1.4209635149105884e-06,1.7219485504681252e-06,2.0234380411677568e-06,2.4903139224212426e-06,1.6456622456435792e-06,1.680940069541479e-06,1.5170176330071263e-06,2.0753473327738675e-06,2.21587275726835e-06,5.758647988620932e-07,1.0625310802003062e-06,1.9172913366340704e-06,4.209598225446687e-06,2.7809419027417847e-05,1.4692648261052016e-06,1.124103883004419e-05
145,1.4274213085106502e-06,1.6696162664574315e-06,2.0228564517739643e-06,2.492636113148758e-06,1.6330238797206414e-06,1.7278869011774964e-06,1.523132914218297e-06,2.164808139296733e-06,2.238390200437998e-06,3.999772026887749e-07,1.0704983720894132e-06,1.9538183861228158e-06,4.3203863623798465e-06,2.904479493432642e-05,1.4910294332091751e-06,1.1758047112552491e-05
146,1.4284074086230346e-06,1.6191707285010433e-06,2.0190152523941675e-06,2.489243762897206e-06,1.6275461284789926e-06,1.7777605579282652e-06,1.5298357161205346e-06,2.252198631556712e-06,2.2588101730213218e-06,2.678133324560009e-07,1.0783056357148532e-06,1.992682802106554e-06,4.43337125706764e-06,3.0242264817105086e-05,1.515371069865815e-06,1.2207134992595773e-05
147,1.4234997981962003e-06,1.5715030658363704e-06,2.012566043582941e-06,2.4796910558631977e-06,1.6298064082540421e-06,1.831787001701037e-06,1.5371780760020485e-06,2.3370581556460345e-06,2.277837572777632e-06,1.7349100780421056e-07,1.0865025583538097e-06,2.034369533076967e-06,4.54740571612976e-06,3.1401382578227195e-05,1.5414880632616495e-06,1.2577727729458701e-05
148,1.412842975708447e-06,1.5273974433134927e-06,2.0040277281580504e-06,2.4640011576720223e-06,1.640131716229312e-06,1.8911143411128987e-06,1.5452958687447077e-06,2.4190303543239882e-06,2.2962629570295247e-06,1.1163342248591534e-07,1.0957580071413905e-06,2.079232435137692e-06,4.660972771091678e-06,3.252129193673918e-05,1.568633879273964e-06,1.2863916981811215e-05
149,1.3969009120208426e-06,1.4875674452338998e-06,1.9938281940017778e-06,2.4428137976378396e-06,1.658615266363203e-06,1.9568040055860236e-06,1.5544682078037827e-06,2.4979462407147733e-06,2.3147268713114466e-06,7.755775305252377e-08,1.1066735374143378e-06,2.1275696557596686e-06,4.772347053510378e-06,3.359815587758477e-05,1.5963307496673609e-06,1.3064285345567498e-05
150,1.3762594819684322e-06,1.4525811752549602e-06,1.9822615901071754e-06,2.4171549663107593e-06,1.6851776796468382e-06,2.0297152102404317e-06,1.5651391360976112e-06,2.573761465704726e-06,2.3335221512927805e-06,6.73473866144485e-08,1.1196673323641925e-06,2.179608256240588e-06,4.8795945976396145e-06,3.462499276597554e-05,1.6243794193731327e-06,1.317986533641365e-05
151,1.3516305849137202e-06,1.4228011600112318e-06,1.9694326282553854e-06,2.3880439472897443e-06,1.7195936909511557e-06,2.110409170726616e-06,1.577828296055354e-06,2.6463215300548906e-06,2.3525157152504396e-06,7.771102386744913e-08,1.1349414008369388e-06,2.2353559557768624e-06,4.98055056755959e-06,3.5592926780943656e-05,1.65262360449118e-06,1.321171139723495e-05
152,1.323848879114962e-06,1.3984378437444843e-06,1.9552795440858405e-06,2.3562636894310247e-06,1.7614993934541306e-06,2.1991239003307263e-06,1.5930244078451167e-06,2.7151657791559416e-06,2.3712322819012858e-06,1.0577280797524272e-07,1.152479910409901e-06,2.294466432520214e-06,5.073210448639149e-06,3.649278533273838e-05,1.680687818358654e-06,1.3159858981680636e-05
153,1.2937240285675124e-06,1.3796261616344785e-06,1.9396971173182886e-06,2.322394531649367e-06,1.810441253357548e-06,2.2957388552361523e-06,1.611091044912502e-06,2.7795168905398097e-06,2.389059832737414e-06,1.4898063589245345e-07,1.1720549103349995e-06,2.3562515701089836e-06,5.156382795905919e-06,3.73168520707819e-05,1.7078509222935306e-06,1.3023977712960593e-05
154,1.2618928680509057e-06,1.3664096497285338e-06,1.9227034439088055e-06,2.2869550217349096e-06,1.8658879479283225e-06,2.3997072807109565e-06,1.632164871794285e-06,2.8384226636283417e-06,2.4053826579984485e-06,2.0508381803231173e-07,1.1932416082263626e-06,2.4198372122367876e-06,5.229830220380993e-06,3.806019360713014e-05,1.733048985033965e-06,1.2804777102912936e-05
155,1.2287717146600223e-06,1.3586696430282216e-06,1.9045576557051915e-06,2.250470638264726e-06,1.927232758860795e-06,2.5100057029324827e-06,1.6561042420981343e-06,2.891032001184624e-06,2.4195267685730284e-06,2.721058715550807e-07,1.2154529666761188e-06,2.484345533656607e-06,5.2936336263252024e-06,3.8721458097222506e-05,1.7549921616725983e-06,1.250533240438386e-05
156,1.1945730624456457e-06,1.3560894219086926e-06,1.8857817212711222e-06,2.213405194204068e-06,1.9938891564981597e-06,2.6251019695011342e-06,1.6825376018211911e-06,2.9369592388296075e-06,2.4307032210898575e-06,3.483216521347397e-07,1.23803245338897e-06,2.5490055082228757e-06,5.347468510769542e-06,3.9303695445343504e-05,1.7723986782440232e-06,1.213190095225396e-05
157,1.1593712125629265e-06,1.358140809158846e-06,1.8670713801670809e-06,2.176024533371296e-06,2.065324136774644e-06,2.7429196917629573e-06,1.710932893688236e-06,2.976527910824923e-06,2.4381658884822147e-06,4.3219454578349386e-07,1.2603959624260512e-06,2.613192081170185e-06,5.39038638983427e-06,3.981504688947199e-05,1.7842880133467103e-06,1.169396129347574e-05
158,1.1232514730411416e-06,1.3640642738649355e-06,1.8491053036635075e-06,2.138370431946912e-06,2.1408955252389606e-06,2.8608526673571675e-06,1.7405935654573956e-06,3.0106976372713e-06,2.4414832016856365e-06,5.222849902697095e-07,1.282086435537673e-06,2.6764575191107664e-06,5.420962015135249e-06,4.026854393998841e-05,1.7902183182696902e-06,1.1203476890068667e-05
159,1.086482008143781e-06,1.3729104294819074e-06,1.8323593740399743e-06,2.1004197311814615e-06,2.2196479826435457e-06,2.9759551041227505e-06,1.7706497336058119e-06,3.0407076509107035e-06,2.4406422080915602e-06,6.172469909821566e-07,1.3026976503270763e-06,2.7386299005021118e-06,5.437622355558396e-06,4.0680848025377036e-05,1.7903484690543257e-06,1.0673647473699643e-05
160,1.0495390415789323e-06,1.3836852873600175e-06,1.817028588795368e-06,2.062268160458358e-06,2.3002475700063066e-06,3.0853409876145525e-06,1.8001795887580327e-06,3.0676568012911957e-06,2.4358740097381828e-06,7.159101538547941e-07,1.3218446010180101e-06,2.799976118449793e-06,5.439188037869581e-06,4.107060144937967e-05,1.7852677638499973e-06,1.0117499053432454e-05
161,1.0129853565977991e-06,1.395493420856853e-06,1.8030395187703713e-06,2.024175712317468e-06,2.3811115297763893e-06,3.1865886906148396e-06,1.8284229236126631e-06,3.092233018619545e-06,2.4273634562743678e-06,8.172964694207367e-07,1.339281818154111e-06,2.8612701447952082e-06,5.425459791239495e-06,4.14569512522215e-05,1.7756889389825717e-06,9.546692661894999e-06
162,9.773815444047214e-07,1.4075527000103753e-06,1.7901067261745613e-06,1.986484314802277e-06,2.460650323651543e-06,3.2778903222626126e-06,1.8549078692179586e-06,3.11466159281174e-06,2.4151400249114073e-06,9.205710859453676e-07,1.3550144726294735e-06,2.923615385658539e-06,5.397451724973787e-06,4.185777502434213e-05,1.7622017319525128e-06,8.970888352169455e-06
163,9.432763695259971e-07,1.4191131205233192e-06,1.7777912294683622e-06,1.949479635228726e-06,2.5374219974879847e-06,3.357941187371539e-06,1.8794144366886514e-06,3.1347913759093316e-06,2.3992595378779942e-06,1.0251108284741983e-06,1.3692456628627238e-06,2.9881101361276455e-06,5.3570020577634484e-06,4.228740643765938e-05,1.7451893931395802e-06,8.397778964289622e-06
164,9.111850968522254e-07,1.4294351337092447e-06,1.7655853084597804e-06,1.913272572094721e-06,2.6101477883652515e-06,3.425813885343336e-06,1.9018436116168853e-06,3.152196666827757e-06,2.3799764323476623e-06,1.130706359639611e-06,1.3822477629744768e-06,3.0555943139686152e-06,5.306071083390199e-06,4.275565394346665e-05,1.7249052379251786e-06,7.83356493628975e-06
165,8.815326830289598e-07,1.4379137779936915e-06,1.7531256066784293e-06,1.877807093531007e-06,2.6777315645649963e-06,3.4810107646023707e-06,1.9220595759473104e-06,3.1662718595711807e-06,2.3576422533120312e-06,1.2377054076548785e-06,1.3943187645525258e-06,3.1265721796422816e-06,5.246396914920383e-06,4.326916159700407e-05,1.7016428760595266e-06,7.283461541812346e-06
166,8.546166759184182e-07,1.4442448920039913e-06,1.7404430895398008e-06,1.84298321900378e-06,2.739317714397812e-06,3.523613184215523e-06,1.9397593746313892e-06,3.176384030765413e-06,2.3325668006101235e-06,1.346956048457676e-06,1.4057872858474144e-06,3.2011868981286923e-06,5.1796788395748674e-06,4.383315391303972e-05,1.6758049459094478e-06,6.751987698242301e-06
167,8.306145916072744e-07,1.4484359744001841e-06,1.7279797854639598e-06,1.8086993773198457e-06,2.7942818455041694e-06,3.5542635295515923e-06,1.9544539446080874e-06,3.1820503080428863e-06,2.30504088041141e-06,1.4595614315491386e-06,1.4169410829036606e-06,3.2791378310571703e-06,5.107876797692451e-06,4.4451993417490635e-05,1.6477696533172658e-06,6.2430255192487745e-06
168,8.096001863238247e-07,1.4506384543935036e-06,1.7163396119210289e-06,1.7747140576339078e-06,2.8421186745936837e-06,3.573837641899975e-06,1.965587008107263e-06,3.1829436510046863e-06,2.2753251495088145e-06,1.5766193178281373e-06,1.4278950083843118e-06,3.3595874566946642e-06,5.03329302288873e-06,4.512909909328429e-05,1.617730265543598e-06,5.75974841516851e-06
169,7.915662382891253e-07,1.4510148420561945e-06,1.7060319973063953e-06,1.7404884990952186e-06,2.882293742322321e-06,3.582983263151075e-06,1.972716696218657e-06,3.178650701571061e-06,2.243619062911599e-06,1.699104508792714e-06,1.43851315768205e-06,3.441158862777688e-06,4.958374934264241e-06,4.586668858924894e-05,1.5856628329558923e-06,5.304560528911772e-06
170,7.765192125254254e-07,1.449732471849143e-06,1.697365525010289e-06,1.7052360785030247e-06,2.9141439546740296e-06,3.581862754778009e-06,1.97563228671373e-06,3.1684526299535556e-06,2.2102159172059633e-06,1.8278321118486226e-06,1.4484670943800597e-06,3.52210314599906e-06,4.8852919568573884e-06,4.6665118742386334e-05,1.551393550348974e-06,4.879123285932682e-06
171,7.646381154465465e-07,1.4469262722688191e-06,1.6904010852659617e-06,1.6682260862329895e-06,2.9368794366287557e-06,3.570227639894136e-06,1.9743086810781413e-06,3.151366140724698e-06,2.175716515533388e-06,1.963414259209032e-06,1.4574445879688512e-06,3.6006040871430783e-06,4.815492519383447e-06,4.75218113512679e-05,1.5147213039375706e-06,4.484389789289907e-06
172,7.563546225964843e-07,1.442593625420736e-06,1.6848984243122356e-06,1.6291439165338845e-06,2.949621081853073e-06,3.5476701752742365e-06,1.9687556482253994e-06,3.1263039577042044e-06,2.1410850232873497e-06,2.1062351114705914e-06,1.4653932461383781e-06,3.6750298659388545e-06,4.749546275980543e-06,4.843000298515164e-05,1.4755681448476089e-06,4.12059233511472e-06
173,7.522605552550145e-07,1.436577290389716e-06,1.68034159630765e-06,1.5882220748709656e-06,2.951360046880896e-06,3.513895234789005e-06,1.958936770602278e-06,3.0922209817994445e-06,2.1075348193743847e-06,2.2564709283687794e-06,1.4725718253622475e-06,3.7439833562792962e-06,4.6873324708704986e-06,4.937736799659223e-05,1.4340839728359093e-06,3.787289428056119e-06
174,7.529461276936113e-07,1.4287063985684378e-06,1.676090483885829e-06,1.5460569817341366e-06,2.940968967366281e-06,3.468953984266768e-06,1.944845560994965e-06,3.048363191360598e-06,2.076331430418163e-06,2.4142271674048683e-06,1.4793372738889227e-06,3.806209016909943e-06,4.628328898161553e-06,5.0344309656407996e-05,1.3906382224634463e-06,3.4835466173547143e-06
175,7.589196298383006e-07,1.4189787353494861e-06,1.671574991078713e-06,1.5033386459117759e-06,2.917467603210862e-06,3.413378878945044e-06,1.926663533979528e-06,2.994645327461432e-06,2.0486670033156932e-06,2.5798676807705807e-06,1.4858751471108734e-06,3.860539425925808e-06,4.571779979266232e-06,5.130188861059028e-05,1.345698903864649e-06,3.208153099281144e-06
176,7.706140387369685e-07,1.4076201438424717e-06,1.6664341287865855e-06,1.4607596419806302e-06,2.880380383814171e-06,3.348187710492698e-06,1.904852819151683e-06,2.9319523876395232e-06,2.025731915043668e-06,2.7544382075505948e-06,1.4920721983353107e-06,3.906012016130278e-06,4.51665477481414e-06,5.2210292271388444e-05,1.2996933977796245e-06,2.9597644524397827e-06
177,7.884096106336673e-07,1.3950440798759203e-06,1.6605471808637763e-06,1.419095713477776e-06,2.829912747919307e-06,3.27482449000535e-06,1.8800952652439475e-06,2.8621709949380737e-06,2.0088901348758727e-06,2.939950188675756e-06,1.4975103670675929e-06,3.942128140428581e-06,4.461420689130726e-06,5.301988585225243e-05,1.2529665159497157e-06,2.7369812110462877e-06
178,8.126499105960276e-07,1.3818485450193715e-06,1.6539342323607526e-06,1.3792763707987602e-06,2.7669411122724102e-06,3.1951195180145613e-06,1.8531323356332283e-06,2.78792099328277e-06,1.9997095154660803e-06,3.1393640298964207e-06,1.5015208722677965e-06,3.969105565365559e-06,4.4039005297979796e-06,5.367641249389871e-05,1.2058372389790104e-06,2.538409342145346e-06
179,8.436432915224504e-07,1.3688236619337533e-06,1.6466032184535396e-06,1.3423389211662415e-06,2.6929151670978333e-06,3.1112297411453464e-06,1.824610584932595e-06,2.7120903173927884e-06,1.9997746088299886e-06,3.3563663771665996e-06,1.5033207052800324e-06,3.9879575235158184e-06,4.341509814991875e-06,5.4129142495180785e-05,1.1586826891261522e-06,2.3627062104157116e-06
180,8.81635177886526e-07,1.3568603615600419e-06,1.638495728376786e-06,1.3092890503186078e-06,2.6097176501114116e-06,3.02546356592754e-06,1.7949786719687467e-06,2.637361891561709e-06,2.0104705617277685e-06,3.595164207466538e-06,1.502204411056523e-06,4.000277673638506e-06,4.2718439672583224e-06,5.4338207096317756e-05,1.1119770110439992e-06,2.2086166535850157e-06
181,9.267751525490848e-07,1.3467927551804672e-06,1.6295248745958375e-06,1.2809765719662413e-06,2.519506884104088e-06,2.940049034587874e-06,1.764482367196534e-06,2.5659143140766106e-06,2.032864998737814e-06,3.860304131597692e-06,1.4976828979234518e-06,4.007771045873188e-06,4.193350522977479e-06,5.427742737468173e-05,1.066228129375914e-06,2.0750359762469606e-06
182,9.791005522396105e-07,1.3392783754567194e-06,1.6195833729283368e-06,1.2580476232126653e-06,2.4245467489926917e-06,2.8570415659183152e-06,1.7332792973098493e-06,2.4993292353675816e-06,2.067651705729651e-06,4.156366277587671e-06,1.4895049498270353e-06,4.0118326064874964e-06,4.105758388117209e-06,5.393114252090995e-05,1.0218567454115685e-06,1.961090648185265e-06
183,1.0385138981323264e-06,1.3347406257886055e-06,1.6085870571868787e-06,1.240922659678607e-06,2.327023780489812e-06,2.7784176606607882e-06,1.7015778091760459e-06,2.4386081130017855e-06,2.115164903066362e-06,4.4875571416783695e-06,1.4776010908943636e-06,4.013427035795248e-06,4.009953129006858e-06,5.3288519424145184e-05,9.791342367770248e-07,1.8661243981936978e-06
184,1.1047456981911488e-06,1.3333621261777203e-06,1.5966405751940879e-06,1.2297784217134593e-06,2.228894825643003e-06,2.7061470278095986e-06,1.6696945154219882e-06,2.38421059014786e-06,2.175479161195266e-06,4.8573625189773185e-06,1.4620263794110134e-06,4.013110407066196e-06,3.907395538788431e-06,5.234349171439752e-05,9.382059003007049e-07,1.78951552294197e-06
185,1.1773302012695806e-06,1.3351287235224557e-06,1.584151087768721e-06,1.2245702313111618e-06,2.131817379566763e-06,2.6420794581370697e-06,1.6380245908767084e-06,2.3360933163733076e-06,2.2484742003329718e-06,5.2683389763774065e-06,1.4428983076846513e-06,4.010935361759822e-06,3.7997118955178623e-06,5.1102035467706794e-05,8.991492603256651e-07,1.7304473524802122e-06
186,1.2556087781337986e-06,1.3398835689377167e-06,1.5717206160961996e-06,1.2250744377081715e-06,2.0371377144772922e-06,2.5877858035378823e-06,1.6069857317658102e-06,2.293773223028762e-06,2.333774947248994e-06,5.722034418697956e-06,1.4202940317890057e-06,4.006341994078175e-06,3.6887755064093617e-06,4.958725252133049e-05,8.620911074741252e-07,1.6878192094780316e-06
187,1.3387771192096882e-06,1.3473370907518301e-06,1.5599179895781972e-06,1.230909948079138e-06,1.9458704895451227e-06,2.5445407822382347e-06,1.5769889456124539e-06,2.2564214498568965e-06,2.430655922155484e-06,6.218972786970625e-06,1.3941931206013023e-06,3.998318069192639e-06,3.5768687625615007e-06,4.7835754306132006e-05,8.273615258459145e-07,1.6603172901019028e-06
188,1.425996788928933e-06,1.3570435645321018e-06,1.5491198834467986e-06,1.2415638150341768e-06,1.858695530922436e-06,2.51336396536233e-06,1.5484132070742177e-06,2.2229772105312013e-06,2.5380178045085906e-06,6.758601096515037e-06,1.364557774134694e-06,3.985835800542766e-06,3.4665794362316486e-06,4.588961737900385e-05,7.955031549079581e-07,1.6464984282874305e-06
189,1.5164876282951033e-06,1.3684363178558654e-06,1.539452980303826e-06,1.256435442067435e-06,1.7760816150647482e-06,2.494973070811642e-06,1.5215648835601231e-06,2.192327245999156e-06,2.654415411212016e-06,7.339144479231037e-06,1.3314900122782682e-06,3.9682345055814175e-06,3.360533812303493e-06,4.379012836348275e-05,7.671033554147174e-07,1.6447686920969542e-06
190,1.6094726739191246e-06,1.380994405433296e-06,1.5307585749697895e-06,1.2748601793789294e-06,1.6985524072785578e-06,2.4897133589428074e-06,1.4967104848832907e-06,2.1635706530347915e-06,2.778056115119169e-06,7.957427971876052e-06,1.295365722958146e-06,3.94522192516243e-06,3.261151132569938e-06,4.157536307042678e-05,7.426404035040754e-07,1.6533470138979465e-06
191,1.704014987001604e-06,1.394426596783102e-06,1.5225746309360577e-06,1.296117352577124e-06,1.6269402135515528e-06,2.4976218028813455e-06,1.4741940553076431e-06,2.136237614046848e-06,2.9068159982126884e-06,8.608808789735375e-06,1.2568718974717124e-06,3.916488340140055e-06,3.1705281500380756e-06,3.92808326572389e-05,7.224324928863173e-07,1.6703855665513853e-06
192,1.7988951210852605e-06,1.408693840553081e-06,1.5142086529346548e-06,1.3194629883060455e-06,1.5624430340357222e-06,2.5186774805789218e-06,1.4544702515393681e-06,2.1103057663787964e-06,3.0384262108659557e-06,9.287264337090829e-06,1.2169007562335384e-06,3.881277470132151e-06,3.090465482912833e-06,3.6941188104236774e-05,7.066358571724685e-07,1.6941397258696113e-06
193,1.892600377893249e-06,1.4239744970033515e-06,1.5049196828790004e-06,1.3441822021566884e-06,1.5064565130322908e-06,2.553130696409797e-06,1.4380097539887483e-06,2.08601551218231e-06,3.1708090569755994e-06,9.985752056728052e-06,1.1763551626596706e-06,3.838282623028324e-06,3.0225255691403603e-06,3.459060211514085e-05,6.95257956727444e-07,1.7229302795008289e-06
194,1.983423682072157e-06,1.440758122581196e-06,1.4941209854535303e-06,1.3696554176165478e-06,1.4603507765651245e-06,2.6017321104083667e-06,1.4252443017948674e-06,2.063606527784446e-06,3.302355179156224e-06,1.0697402133056427e-05,1.135992973833282e-06,3.7859142554193755e-06,2.968019678328885e-06,3.226093432950555e-05,6.88185054825699e-07,1.7549645152275008e-06
195,2.0696543397846544e-06,1.459892543330597e-06,1.4815032086067923e-06,1.3954555267341775e-06,1.4253486594465784e-06,2.6657348260014604e-06,1.4166053951720763e-06,2.04312609118522e-06,3.431921063380696e-06,1.141755103917156e-05,1.0963824781286185e-06,3.722738873987829e-06,2.927956124262091e-06,2.997927937978019e-05,6.852111987173041e-07,1.7882735172471763e-06
196,2.149833766170726e-06,1.4823910503312724e-06,1.4670741113030266e-06,1.421418593372925e-06,1.4024773210811897e-06,2.746651476559797e-06,1.4125590119852242e-06,2.0244338641473317e-06,3.5585486854349775e-06,1.2144974071062993e-05,1.0579307318836015e-06,3.647888718788801e-06,2.903036539179916e-06,2.7766935029653152e-05,6.86049683570568e-07,1.820834857319579e-06
197,2.2230037697983664e-06,1.509212976624038e-06,1.4511703199812514e-06,1.4475791742649061e-06,1.392530828257761e-06,2.845897076332351e-06,1.4136240794216861e-06,2.007381407331042e-06,3.681330048610012e-06,1.2880806851581928e-05,1.02091944110776e-06,3.561314381472675e-06,2.8936843947680796e-06,2.5639885897518246e-05,6.903216575606518e-07,1.8508106258161963e-06
198,2.2888038811486526e-06,1.5412436036567625e-06,1.4344213951413319e-06,1.4740043652650117e-06,1.3960653000702516e-06,2.9645166309461245e-06,1.4204012083001922e-06,1.9919659786667405e-06,3.7996200862735347e-06,1.3626101005951212e-05,9.855178204813176e-07,3.46384950069676e-06,2.9000187892041524e-06,2.3609717841131762e-05,6.975455085531836e-07,1.8767508388887973e-06
199,2.3473009261136914e-06,1.5793653469835852e-06,1.4175931644039277e-06,1.500686034481948e-06,1.413458110687122e-06,3.1030573287914555e-06,1.4335438002043083e-06,1.9782818435256365e-06,3.913120236617933e-06,1.4380122669615403e-05,9.517721225242811e-07,3.3571248584535677e-06,2.9217512085230443e-06,2.1684467018403843e-05,7.07183561737329e-07,1.897571522788763e-06
200,2.39862338946571e-06,1.6244422072753492e-06,1.4013717595252136e-06,1.5275228032983733e-06,1.4449860993454181e-06,3.2615551153145742e-06,1.4536510858531228e-06,1.9663187803368193e-06,4.021622760015e-06,1.5139887652050464e-05,9.196268964659096e-07,3.2433335536440813e-06,2.9580552421008064e-06,1.9869437727760006e-05,7.187522703135579e-07,1.9123650170008912e-06
201,2.4426544309293167e-06,1.6772010107867743e-06,1.386244683189447e-06,1.5543017823800336e-06,1.4908417387760772e-06,3.4396467426123146e-06,1.4811718791591849e-06,1.9557947456753494e-06,4.124823984702482e-06,1.589996794056959e-05,8.89005077300968e-07,3.124848439084007e-06,3.0074725454369494e-06,1.8167915476692633e-05,7.318991571602645e-07,1.920332010545643e-06
202,2.47892639321796e-06,1.738094815636887e-06,1.3725063189572152e-06,1.5806897914609425e-06,1.5511595542655598e-06,3.6367489786412207e-06,1.5163691842533004e-06,1.946109738167176e-06,4.222365237343604e-06,1.6652353089225016e-05,8.598585487506872e-07,3.003824800257801e-06,3.0679354675223448e-06,1.6581618538444303e-05,7.463710769640766e-07,1.9209260244233526e-06
203,2.5066368714106165e-06,1.8072399301055357e-06,1.3602943667478105e-06,1.606322815105287e-06,1.6261534527778472e-06,3.852180907792411e-06,1.5593600623095247e-06,1.936377684122056e-06,4.313878044113296e-06,1.7387358658675284e-05,8.321524520739134e-07,2.8819840839842502e-06,3.1369572867656954e-06,1.51108733929864e-05,7.619368779215672e-07,1.914045057692991e-06
204,2.524758064104449e-06,1.8844533187099453e-06,1.3496092399637584e-06,1.6309862674240749e-06,1.7162092864271161e-06,4.085180503602704e-06,1.6102005147332396e-06,1.925525115553329e-06,4.398877619100304e-06,1.8095855041107702e-05,8.058695941179583e-07,2.7606223354944526e-06,3.211832654618641e-06,1.3754675897625784e-05,7.783628015185172e-07,1.900134784746375e-06
205,2.5322905864576793e-06,1.9693203820076813e-06,1.3403485695887669e-06,1.6547506476530292e-06,1.821813526478715e-06,4.334842525626443e-06,1.6688895927494151e-06,1.9125245285800875e-06,4.476598538804957e-06,1.877109782670148e-05,7.81040487762995e-07,2.64073556967132e-06,3.2895911919247767e-06,1.2510778194065093e-05,7.954184757377215e-07,1.8801545315286095e-06
206,2.528590533780878e-06,2.061201583062906e-06,1.3323465208110704e-06,1.6779237877784936e-06,1.9435485449581468e-06,4.59997172009324e-06,1.735265587331359e-06,1.896717701701345e-06,4.546125542318962e-06,1.940852258200048e-05,7.577197152258354e-07,2.5231796299567546e-06,3.3667615999264934e-06,1.1375768344402403e-05,8.128361514561776e-07,1.8554054349472478e-06
207,2.5136334488048445e-06,2.1591926178595023e-06,1.3253589499825852e-06,1.7008496848453733e-06,2.0823077362958335e-06,4.878860772007669e-06,1.8089192044211115e-06,1.8779970448064797e-06,4.606943022581567e-06,2.0005088297856676e-05,7.35939053841071e-07,2.408808170698329e-06,3.4392269824887836e-06,1.034510565084565e-05,8.302554821159603e-07,1.8273094908197593e-06
208,2.488120564964879e-06,2.2621553188201003e-06,1.319058546192841e-06,1.7237330395909112e-06,2.239456179558533e-06,5.169243796649551e-06,1.8892184340237243e-06,1.8566848101138128e-06,4.65940578270072e-06,2.056092880388851e-05,7.157176759696861e-07,2.2984868029579492e-06,3.502360946634446e-06,9.413292040698922e-06,8.472647538102112e-07,1.797284393887584e-06
209,2.4533686715873247e-06,2.3688655499335054e-06,1.313149247258713e-06,1.7465682835267687e-06,2.4166602845094188e-06,5.46864843744201e-06,1.975405207120827e-06,1.8332164281380987e-06,4.704619523452824e-06,2.108210196844615e-05,6.970902351821448e-07,2.192977007420753e-06,3.551571112798652e-06,8.57436646152906e-06,8.63524479012303e-07,1.7667785590616932e-06
210,2.410998130746525e-06,2.478142658024933e-06,1.3075230200011035e-06,1.769112519307887e-06,2.615500062866319e-06,5.774869480072851e-06,2.066618046993387e-06,1.807882971548682e-06,4.74395077773972e-06,2.158080539811602e-05,6.800786121005145e-07,2.092868783167795e-06,3.5830649335103634e-06,7.822444345323898e-06,8.788137281198802e-07,1.7373488677890482e-06
211,2.3625745753365413e-06,2.588799143664202e-06,1.3023031298803245e-06,1.7909004988144065e-06,2.837147406077573e-06,6.0861342486602586e-06,2.1618226820746055e-06,1.780771248408665e-06,4.778832202358362e-06,2.207274057080949e-05,6.64648974883225e-07,1.99867549258389e-06,3.5941925779561963e-06,7.151789374909702e-06,8.929502375673622e-07,1.710606432230198e-06
212,2.309454505601403e-06,2.69948627830146e-06,1.2977522524255865e-06,1.8113560207862728e-06,3.08222486979686e-06,6.400927220585936e-06,2.2597826521372593e-06,1.7518036351617001e-06,4.810999371842422e-06,2.257452138946737e-05,6.507521350056059e-07,1.9109273142093154e-06,3.583161715180296e-06,6.556597387267303e-06,9.057407066461026e-07,1.6880374700830865e-06
213,2.25289484560683e-06,2.8086897930245394e-06,1.2941331661886032e-06,1.8299876444207087e-06,3.3507596508157932e-06,6.717735928165515e-06,2.3590740739648847e-06,1.7207733343361852e-06,4.842680464370601e-06,2.3103015649845415e-05,6.38434506054424e-07,1.8300692692838855e-06,3.548953326864251e-06,6.031085169077458e-06,9.170630446335395e-07,1.6708494266932906e-06
214,2.194166193081278e-06,2.914946611309274e-06,1.2915940067909531e-06,1.8465829530102859e-06,3.6421372832499828e-06,7.034914183086019e-06,2.458085797568916e-06,1.687468224477679e-06,4.876518491524832e-06,2.3675985153851667e-05,6.278860779956529e-07,1.7562670728556295e-06,3.4918423498437553e-06,5.569780766503948e-06,9.269625187615848e-07,1.6599089544063732e-06
215,2.1344785005127633e-06,3.017089218967954e-06,1.2900965995580293e-06,1.861315226334162e-06,3.955046961200995e-06,7.3506492384773036e-06,2.55508633891333e-06,1.651931381388828e-06,4.9153665477106906e-06,2.431219969913648e-05,6.193648411552699e-07,1.6893498320195953e-06,3.41362394210826e-06,5.167901905722365e-06,9.35649171070567e-07,1.6557378560024087e-06
216,2.0748759282738646e-06,3.1143447015783798e-06,1.2894050796753584e-06,1.874776207705192e-06,4.287432852316792e-06,7.662933642538661e-06,2.6484225499928394e-06,1.6146613436865613e-06,4.9619703972412665e-06,2.5030036847683913e-05,6.131043120966992e-07,1.6288807012930814e-06,3.317201732726105e-06,4.8221807297957596e-06,9.434588305962165e-07,1.6585363724889154e-06
217,2.0163306796666044e-06,3.206300162019315e-06,1.2891239387030298e-06,1.8879994610257591e-06,4.636446790041574e-06,7.969510196855444e-06,2.736721359897392e-06,1.5765741673073214e-06,5.018547125312265e-06,2.584581702524557e-05,6.093024066310105e-07,1.5741919090281017e-06,3.206201757067309e-06,4.531639473668576e-06,9.508421082557646e-07,1.6682281602034648e-06
218,1.959997853203099e-06,3.292849057536401e-06,1.2887400862456931e-06,1.9024100648253028e-06,4.9983870738370535e-06,8.267791442186746e-06,2.8189207283589662e-06,1.538785161249514e-06,5.086464985941644e-06,2.6773629470225702e-05,6.081444225784994e-07,1.5243896493564012e-06,3.084641592036151e-06,4.297479439482707e-06,9.583439514028276e-07,1.6845176715698685e-06
219,1.9073450687701884e-06,3.3741911715825677e-06,1.287712982712681e-06,1.9195951101166187e-06,5.3686218491951595e-06,8.55466665921828e-06,2.894167821621705e-06,1.5023662559529903e-06,5.166259604852896e-06,2.782648658353655e-05,6.097917834198976e-07,1.4784777165200136e-06,2.956426431715581e-06,4.122439133721469e-06,9.665278926935948e-07,1.7069362706014552e-06
220,1.859979802429751e-06,3.450839554480799e-06,1.2856361062558087e-06,1.940997681595909e-06,5.741530524917584e-06,8.826126749885662e-06,2.961824993030452e-06,1.468184600336577e-06,5.258106875402491e-06,2.9017787600549114e-05,6.143568553826616e-07,1.4356128787812553e-06,2.8250822997245873e-06,4.010305431250708e-06,9.758743861905247e-07,1.7349009511193315e-06
221,1.8193581507466415e-06,3.5235329401614083e-06,1.2823064588630507e-06,1.967726268212212e-06,6.110546860932785e-06,9.076977751445278e-06,3.021686192090575e-06,1.436882356810168e-06,5.362582729456873e-06,3.036224537316002e-05,6.218931227551113e-07,1.3953409748218794e-06,2.6939256332164994e-06,3.96548785225469e-06,9.867408473205023e-07,1.7678350416443386e-06
222,1.786633301276785e-06,3.593020143231621e-06,1.27762928908005e-06,2.0004979917732286e-06,6.46836207067e-06,9.30110129570686e-06,3.0741494859192427e-06,1.4089799151919435e-06,5.481208850712099e-06,3.1875184529869245e-05,6.323909824384485e-07,1.3576837606679385e-06,2.5662638923914777e-06,3.992423269234592e-06,9.99401783641174e-07,1.8052889993090956e-06
223,1.7626348727512915e-06,3.6597815107216023e-06,1.2715539549521005e-06,2.039623138475244e-06,6.807231996733471e-06,9.492256386373691e-06,3.1200458950581585e-06,1.3849576693479302e-06,5.616387468581434e-06,3.356998125889308e-05,6.457741546836147e-07,1.323032794612733e-06,2.4453411017165916e-06,4.095026740815577e-06,1.0140925139303196e-06,1.8469195175263499e-06
224,1.7478572211956824e-06,3.7237808757616465e-06,1.2641507138071832e-06,2.0849912850737664e-06,7.119377879165749e-06,9.644900813589694e-06,3.1602021515570628e-06,1.3651985138589184e-06,5.770830909646664e-06,3.545498816118794e-05,6.619102026882947e-07,1.2919226008472361e-06,2.334176499344267e-06,4.276423097901844e-06,1.03100013764095e-06,1.8922978986071414e-06
225,1.7424488578936985e-06,3.784292743639989e-06,1.2556782144867204e-06,2.1360753700053723e-06,7.397551778663697e-06,9.75460892544473e-06,3.195071134697861e-06,1.34987285683234e-06,5.946917476034691e-06,3.753147018681066e-05,6.806424310583494e-07,1.2648817649762625e-06,2.235492422236983e-06,4.538872057138996e-06,1.0502190666434772e-06,1.940691677309974e-06
226,1.7462402202404605e-06,3.839818253475161e-06,1.2465293971454225e-06,2.191963729891296e-06,7.6356829359233e-06,9.818089696989948e-06,3.2245911659635246e-06,1.3389222446431945e-06,6.146250877416608e-06,3.979301527851002e-05,7.018088320248633e-07,1.2424631042672905e-06,2.1516917101464942e-06,4.883788015216287e-06,1.0717171221041648e-06,1.990981007086996e-06
227,1.75877646407755e-06,3.888150632520757e-06,1.2371074100632496e-06,2.2514410669508147e-06,7.829373834267293e-06,9.833101084593602e-06,3.2481619770121284e-06,1.3321424707585447e-06,6.369384926974568e-06,4.2225911249946495e-05,7.252070591785123e-07,1.2252980930461122e-06,2.0848047639051817e-06,5.311867866115168e-06,1.0953229653018898e-06,2.041766179872431e-06
228,1.7793217864687411e-06,3.92664492128036e-06,1.2277105892629452e-06,2.3131925924438935e-06,7.976048521910239e-06,9.798555394938512e-06,3.264625451451029e-06,1.3292430022013576e-06,6.615636698055298e-06,4.4809707604410075e-05,7.505308240029799e-07,1.2140328200069632e-06,2.036454296047567e-06,5.823259182174065e-06,1.1207218012379046e-06,2.0916326095653822e-06
229,1.8068814718344355e-06,3.952624921562252e-06,1.218508385651133e-06,2.376082386198885e-06,8.074620724743118e-06,9.714794571622549e-06,3.2723629060857825e-06,1.3298576365058737e-06,6.883026785387187e-06,4.751744767452758e-05,7.773327167050892e-07,1.2092491274321564e-06,2.0078635147104907e-06,6.4177155165716e-06,1.1474561978315209e-06,2.1394400496308296e-06
230,1.8402536996568582e-06,3.963802319283719e-06,1.209643303144537e-06,2.439240455982912e-06,8.124675627081957e-06,9.583575124083372e-06,3.2696300710073534e-06,1.3335770730075909e-06,7.168296913372828e-06,5.031544424256528e-05,8.050404727249643e-07,1.2114884723464545e-06,1.999853912219879e-06,7.094805347397593e-06,1.1749305409619251e-06,2.1844572946337868e-06
231,1.8780524094218933e-06,3.958624633126463e-06,1.2013523270622747e-06,2.5018478627664442e-06,8.125608900734215e-06,9.407370656975507e-06,3.254983850003411e-06,1.339972402164145e-06,7.466892304759912e-06,5.316274318147748e-05,8.33028624031327e-07,1.2213032647325622e-06,2.0128424800115637e-06,7.85417432053685e-06,1.2024415206120664e-06,2.226292366092894e-06
232,1.918733703784621e-06,3.9364771714280166e-06,1.1939832676463006e-06,2.562853550486438e-06,8.076549610992805e-06,9.188504825928072e-06,3.2276171508763716e-06,1.3485502265665756e-06,7.773097561432123e-06,5.601070277382321e-05,8.607115422494519e-07,1.2392410915311231e-06,2.0469148226838538e-06,8.69578828854574e-06,1.2292609089601086e-06,2.2647283310676263e-06
233,1.960727489941661e-06,3.897683336752418e-06,1.1879148873900453e-06,2.6208675924430846e-06,7.977268582250089e-06,8.929092189182317e-06,3.187581025366947e-06,1.3587324570606657e-06,8.080583924991742e-06,5.88035704287169e-05,8.876057663323433e-07,1.2657789930159426e-06,2.1019929752447044e-06,9.620176771988202e-06,1.2547271983622464e-06,2.2995825391954527e-06
234,2.0026301053793534e-06,3.843344092317993e-06,1.1834643211707591e-06,2.674263107725511e-06,7.829234772883797e-06,8.631781763970946e-06,3.1358370082461936e-06,1.3699658326839187e-06,8.383108335555812e-06,6.14811342256989e-05,9.133342044631609e-07,1.301249189166429e-06,2.1780256671610457e-06,1.0628666531060316e-05,1.2782789020326491e-06,2.330612220804611e-06
235,2.043263527024919e-06,3.7751080592901954e-06,1.1808264938127953e-06,2.7214028789044562e-06,7.636028194047487e-06,8.300423269220509e-06,3.0740431875105777e-06,1.381886508133189e-06,8.674851625999417e-06,6.398352045226408e-05,9.375764055683987e-07,1.3457744952962288e-06,2.275076453418907e-06,1.1723438547098671e-05,1.299440769331337e-06,2.357422833440539e-06
236,2.0815269550103295e-06,3.6949124832227443e-06,1.1800444633547374e-06,2.760911240730835e-06,7.403090163685759e-06,7.940200234027676e-06,3.0041815854377873e-06,1.3943873050739108e-06,8.950293211878086e-06,6.625593559203761e-05,9.600297590100847e-07,1.3992478988978807e-06,2.3932293218709826e-06,1.2907269687737303e-05,1.3177975504090383e-06,2.3793822326663265e-06
237,2.1162562206912636e-06,3.604684884315519e-06,1.181004381391651e-06,2.7919244586581195e-06,7.137148195509733e-06,7.557394495345809e-06,2.9282939465491957e-06,1.4075514832533702e-06,9.203986639315353e-06,6.824950119405192e-05,9.804486655250685e-07,1.4613918926969801e-06,2.5323697449345247e-06,1.4182947012993456e-05,1.332952220665627e-06,2.395654142614821e-06
238,2.1463038033002978e-06,3.506041016647832e-06,1.1834430782796165e-06,2.814227785116344e-06,6.8455954377046065e-06,7.159016301503602e-06,2.848432196984128e-06,1.421519214303953e-06,9.430521373977455e-06,6.991670315950149e-05,9.986785706176895e-07,1.5318470352141557e-06,2.691975998414331e-06,1.5552339990751863e-05,1.3445416319427677e-06,2.405395527331924e-06
239,2.170735738159114e-06,3.4001456209043756e-06,1.1869738238245637e-06,2.8282049246867844e-06,6.535979083894438e-06,6.752397543122769e-06,2.7666430610290957e-06,1.4363533721536825e-06,9.624395122873002e-06,7.120670474101162e-05,1.014576399903303e-06,1.6101718933265825e-06,2.870995020600492e-06,1.701528780154902e-05,1.3523657879073574e-06,2.4079790039896926e-06
240,2.1889624567168392e-06,3.287869274819648e-06,1.1911605010357843e-06,2.8346359231501814e-06,6.215613879450604e-06,6.344711580960429e-06,2.6848024963847544e-06,1.4519891316307737e-06,9.779581301914728e-06,7.20686585692945e-05,1.0279303678893455e-06,1.6957312759542137e-06,3.067805529395707e-06,1.8568860697268637e-05,1.3564940978178865e-06,2.403122806819478e-06
241,2.2007968669582298e-06,3.170128261640189e-06,1.1956064049874377e-06,2.8344623971457714e-06,5.891261290587882e-06,5.942425006177327e-06,2.6043952923621183e-06,1.4683061151348257e-06,9.889620383981145e-06,7.24641022620329e-05,1.038563816975957e-06,1.7875927365884981e-06,3.28029265461256e-06,2.020732671303129e-05,1.3572386124249105e-06,2.390902183443912e-06
242,2.2064743572337574e-06,3.048195598030165e-06,1.1999722705730846e-06,2.828591910023085e-06,5.5688748217736e-06,5.55091209241579e-06,2.526452898206276e-06,1.4852039421652566e-06,9.948992926858319e-06,7.238086712968591e-05,1.0465740885081457e-06,1.88455765601219e-06,3.5060084910285365e-06,2.192238265571147e-05,1.3550430857486105e-06,2.3716291091322273e-06
243,2.206624884103043e-06,2.923839715072407e-06,1.203905052051349e-06,2.8177283318682593e-06,5.2534871478502625e-06,5.1743771806038445e-06,2.451718430050526e-06,1.502566446291893e-06,9.954779144436103e-06,7.183955501182368e-05,1.0524677749996978e-06,1.9853291134654856e-06,3.7422419943578807e-06,2.3703005528346633e-05,1.3503756475382256e-06,2.3456883785459405e-06
244,2.2022101554024088e-06,2.799186714269756e-06,1.20695088186379e-06,2.8022164134385333e-06,4.949257224859773e-06,4.815908584864751e-06,2.38091839085032e-06,1.5201727613460943e-06,9.90706902208323e-06,7.088762963295447e-05,1.0570600237964134e-06,2.0886890546589763e-06,3.985933736253278e-06,2.553475783342361e-05,1.3436915809630702e-06,2.3135023771198742e-06
245,2.1944438392520643e-06,2.6763659509251657e-06,1.2085772612891274e-06,2.7819755254270683e-06,4.6595669104121475e-06,4.477560191211183e-06,2.3148880038077394e-06,1.5376741710558704e-06,9.807940934773957e-06,6.958390804423047e-05,1.0612503665903998e-06,2.1935748781433914e-06,4.23362861137459e-06,2.73991509161045e-05,1.33544624319717e-06,2.275675279590156e-06
246,2.1846576332707723e-06,2.557229011414897e-06,1.2083209557551288e-06,2.756627847066765e-06,4.387037525736213e-06,4.160549238015937e-06,2.2544231595444616e-06,1.5546808717714968e-06,9.659938273741692e-06,6.798388169522322e-05,1.0658585127033464e-06,2.2991194487680314e-06,4.481622007623731e-06,2.9273924358785735e-05,1.3261128735133362e-06,2.233178566333549e-06
247,2.1741039896981165e-06,2.443293507005145e-06,1.205881617282148e-06,2.725770254865387e-06,4.133461449819852e-06,3.865501151370372e-06,2.2000279007213583e-06,1.5708919660047192e-06,9.465206302622346e-06,6.613294558024903e-05,1.0715743212488229e-06,2.4047794561605363e-06,4.7262871631313325e-06,3.1134006631579614e-05,1.3162030117910869e-06,2.1873898283791463e-06
248,2.16383673299864e-06,2.335760941028214e-06,1.201091895030845e-06,2.6891769662618506e-06,3.899734809536206e-06,3.592557417629488e-06,2.151785354038024e-06,1.586130573727534e-06,9.225926108889086e-06,6.406486131920143e-05,1.0789698546229928e-06,2.5104756211499764e-06,4.964395431701055e-06,3.295175938259352e-05,1.3062605122908957e-06,2.1399197143772848e-06
249,2.154778078159659e-06,2.235513882884676e-06,1.1939123997809338e-06,2.646803511158668e-06,3.6858496832246046e-06,3.341357277897227e-06,2.1094277063315744e-06,1.600266798918473e-06,8.945499415965148e-06,6.1801777814082e-05,1.0885101597157339e-06,2.6165279705602e-06,5.193095633978621e-06,3.4695911620159e-05,1.2968103146769792e-06,2.0923429826775956e-06
250,2.147811589032516e-06,2.1431131298767184e-06,1.184453844367248e-06,2.5986701407472617e-06,3.490971019282142e-06,3.1110722803276874e-06,2.0725269424419913e-06,1.6131950462595166e-06,8.629312110831939e-06,5.935716856620367e-05,1.1005471682498977e-06,2.7233684991742925e-06,5.40958884558773e-06,3.633095409077335e-05,1.2882983393195203e-06,2.0460260763962074e-06
251,2.1437104231273744e-06,2.058764109728575e-06,1.1729075769721814e-06,2.5448059823894662e-06,3.3135843671611985e-06,2.900583827234917e-06,2.0406265240139494e-06,1.6248998942549717e-06,8.284431366990134e-06,5.6742899996342486e-05,1.1153294397068605e-06,2.8312681864857534e-06,5.611033500754386e-06,3.7819331292818955e-05,1.2810464279104618e-06,2.002124305277685e-06
252,2.142979377246573e-06,1.982286432753817e-06,1.1594881557431499e-06,2.4853870045564615e-06,3.151649161197912e-06,2.7087205063765346e-06,2.0131969589015677e-06,1.6354493369475472e-06,7.918483309740556e-06,5.397643243443764e-05,1.133018163901503e-06,2.9402708641861205e-06,5.794852675188173e-06,3.912605988255652e-05,1.275217249551869e-06,1.961622510579515e-06
253,2.1457712599339287e-06,1.9131894705004795e-06,1.14450539628904e-06,2.421026345360232e-06,3.0027520284283428e-06,2.5344073598142764e-06,1.989496677044771e-06,1.6449598266685892e-06,7.538552678148341e-06,5.108341450067798e-05,1.1536647175619353e-06,3.0503103148254922e-06,5.959032786785387e-06,4.022310763900689e-05,1.2708171875213771e-06,1.9252890919501583e-06
254,2.1518708591339857e-06,1.8508566747988498e-06,1.1284172951220035e-06,2.353000230869612e-06,2.864329797834519e-06,2.376633955930532e-06,1.9684864050859412e-06,1.6537044807588082e-06,7.150781961231874e-06,4.809640331079777e-05,1.177164914482659e-06,3.161336148497888e-06,6.102207091433426e-06,4.109153777094383e-05,1.2677542959983614e-06,1.8936123437888098e-06
255,2.160704462057e-06,1.7947231086632466e-06,1.111786598513841e-06,2.2831980741085502e-06,2.7339745793250436e-06,2.2343369931849566e-06,1.948823296196535e-06,1.6622288105716764e-06,6.760566318180362e-06,4.505300034069329e-05,1.20324539279991e-06,3.2732692996863455e-06,6.223655937754107e-06,4.172109360576182e-05,1.2658711330987876e-06,1.8668266834361108e-06
256,2.1714394273242536e-06,1.7443176191112409e-06,1.0952922261085e-06,2.2138020655572813e-06,2.609744177314138e-06,2.106436971669303e-06,1.92892948840969e-06,1.671246910620908e-06,6.37286597946087e-06,4.199424216629479e-05,1.2315222623242866e-06,3.3858304650887044e-06,6.32325210115594e-06,4.2107733145349655e-05,1.2649190163164605e-06,1.8449626806135316e-06
257,2.183175962977264e-06,1.6991525118069344e-06,1.0798008018017678e-06,2.146950332074867e-06,2.4903691167337085e-06,1.9920522287561708e-06,1.9072022313591166e-06,1.6814083985027804e-06,5.9924198631738046e-06,3.896240269157104e-05,1.2616159631528404e-06,3.4984628360260974e-06,6.401283675663023e-06,4.224967439151321e-05,1.26458377428907e-06,1.8278280221399653e-06
258,2.1950936979641664e-06,1.658574705071161e-06,1.0663213035132314e-06,2.0846155655333092e-06,2.3752848786093753e-06,1.89061972525156e-06,1.8823253669024626e-06,1.6931432412591982e-06,5.62383457336562e-06,3.599806302227349e-05,1.2932329988825588e-06,3.610362424926694e-06,6.458152376343792e-06,4.2143625218120866e-05,1.2646146992642533e-06,1.8149480760308734e-06
259,2.206497470521366e-06,1.6216823775798203e-06,1.0558289362745031e-06,2.028631787482671e-06,2.264524407633416e-06,1.8017556782713822e-06,1.8534856861142322e-06,1.7065952033612604e-06,5.271461592624109e-06,3.313723372276633e-05,1.3261499060523857e-06,3.7204520215326437e-06,6.49395780242292e-06,4.1785007357365524e-05,1.2649528755843712e-06,1.8055171887646245e-06
260,2.2168454265492614e-06,1.5873363856559616e-06,1.0491152671965632e-06,1.9806719854471142e-06,2.158557137276403e-06,1.7249781869546655e-06,1.820390167372093e-06,1.7215843414031985e-06,4.939064803416762e-06,3.0409672543323112e-05,1.3601310695425873e-06,3.827340586389103e-06,6.5080845531264575e-06,4.117357648688852e-05,1.2657436856931546e-06,1.7984013947463713e-06
261,2.225783736170629e-06,1.5543045474608469e-06,1.0467388325633844e-06,1.942163408945546e-06,2.0580978731192284e-06,1.659500525987145e-06,1.7831804091824074e-06,1.7376546365284049e-06,4.629552567150204e-06,2.7839020058163672e-05,1.3948376633944142e-06,3.929422296502539e-06,6.499156193320654e-06,4.031961204872759e-05,1.2672134373156452e-06,1.7922505438665128e-06
262,2.233137090071235e-06,1.5215065116439504e-06,1.0490345686798929e-06,1.914247510723164e-06,1.9638943252861896e-06,1.6041870316271984e-06,1.7423701861465004e-06,1.754261236301063e-06,4.344979490587256e-06,2.5444044594395907e-05,1.4297581653589874e-06,4.025065479004909e-06,6.465523965710097e-06,3.924522729504763e-05,1.2694880846361519e-06,1.7857087288842713e-06
263,2.238858811228044e-06,1.488139955674374e-06,1.0561331922812148e-06,1.8977996147197124e-06,1.876569435095563e-06,1.557634012319565e-06,1.698793736877199e-06,1.7710032136080165e-06,4.0866984606472646e-06,2.3239790014370483e-05,1.4641972434003568e-06,4.112754617020325e-06,6.405893762919107e-06,3.79807066354367e-05,1.2724660317048968e-06,1.7776417336838377e-06
264,2.2429485458525535e-06,1.4535570331579541e-06,1.0679606993832223e-06,1.8934372751574443e-06,1.7965580751039785e-06,1.5183223367549538e-06,1.6534706242257075e-06,1.7877368833150553e-06,3.855537035851634e-06,2.1238056002516147e-05,1.4973564684673152e-06,4.191226421241559e-06,6.3197103598237715e-06,3.655953213700307e-05,1.275783023312065e-06,1.7673257902572898e-06
265,2.2453152109794435e-06,1.417112116403526e-06,1.0842311251906068e-06,1.9014756935063476e-06,1.7240804292038006e-06,1.4848381535667772e-06,1.6073938937588636e-06,1.8044986389645613e-06,3.6519282172448737e-06,1.944723526440563e-05,1.528459197335509e-06,4.2597204539509415e-06,6.207368813929735e-06,3.501521440401589e-05,1.2788445598486255e-06,1.7545456864854846e-06
266,2.2456806634235006e-06,1.3782298275226527e-06,1.1044932338216377e-06,1.9218568090546333e-06,1.6591439073920033e-06,1.4561409522574366e-06,1.5613830352749939e-06,1.8213032943566366e-06,3.475906514219422e-06,1.7871952128326538e-05,1.5568093634860297e-06,4.318276616773256e-06,6.070357141507795e-06,3.3380261363046286e-05,1.2809512286307444e-06,1.739541040990356e-06
267,2.2436498908122008e-06,1.336612693897264e-06,1.1282230153406582e-06,1.9541106715740066e-06,1.6016079493152224e-06,1.4317403597285948e-06,1.5161047969332702e-06,1.837952573295534e-06,3.3271058385411622e-06,1.6513033739583033e-05,1.5817650051384804e-06,4.367851465717722e-06,5.911189706441707e-06,3.168582266424639e-05,1.2815154572263981e-06,1.7228235624325752e-06
268,2.2388887217514435e-06,1.2923568696466023e-06,1.1548675793652516e-06,1.9973850730976156e-06,1.5512301647730137e-06,1.4116222359885442e-06,1.4721851033035822e-06,1.8539953004165321e-06,3.204890710754518e-06,1.5367753615286942e-05,1.602734886653978e-06,4.410124814343193e-06,5.733029502719873e-06,2.9960937388998876e-05,1.2802165706132224e-06,1.7049794593210804e-06
269,2.2312979732133078e-06,1.2458616998187038e-06,1.1838521948527242e-06,2.0505324135606886e-06,1.5076249482406834e-06,1.3959792597568486e-06,1.4302416996026032e-06,1.8688968432516163e-06,3.108402423478704e-06,1.4429991155015047e-05,1.6192410396973014e-06,4.447092537657515e-06,5.539168471660485e-06,2.8231259783466323e-05,1.2769534835872043e-06,1.6865357875433587e-06
270,2.2211379590912203e-06,1.1976075539108115e-06,1.2146691780685597e-06,2.112216898770046e-06,1.4702359456530283e-06,1.384984629645364e-06,1.3907876728110167e-06,1.8823110007891828e-06,3.0363953251744906e-06,1.369039541621012e-05,1.6309344115760446e-06,4.480655112822899e-06,5.332599249461648e-06,2.6517782968155372e-05,1.271669144898429e-06,1.6678681323400166e-06
271,2.2090363273484555e-06,1.1480106955535384e-06,1.2469931952568632e-06,2.181016459109569e-06,1.4384029144698795e-06,1.3787356575710595e-06,1.3541356305647581e-06,1.8942815970219905e-06,2.987118604164222e-06,1.3136723967512285e-05,1.6375323252510373e-06,4.512335387034578e-06,5.115770147384025e-06,2.4836496759210858e-05,1.2642619649447511e-06,1.6491278618358292e-06
272,2.1958575722488624e-06,1.0974728941381956e-06,1.280661035968407e-06,2.255519397762956e-06,1.4114264259225163e-06,1.3772622215718955e-06,1.320429264039375e-06,1.9052968167149677e-06,2.9584131962716468e-06,1.2754141178501187e-05,1.6388399831922385e-06,4.54309957955252e-06,4.890682689154825e-06,2.319923913641303e-05,1.254677611372372e-06,1.630243978279413e-06
273,2.1825298965150785e-06,1.0465206472178163e-06,1.3156099404547188e-06,2.3343982398148827e-06,1.3885541498335638e-06,1.3804755005685489e-06,1.2897910218981902e-06,1.9162234304109554e-06,2.947841222757107e-06,1.2525304299163385e-05,1.634887269465833e-06,4.573186908392778e-06,4.659439332117176e-06,2.1614920267022786e-05,1.2430234978267052e-06,1.6110340238926666e-06
274,2.169921286784773e-06,9.958585397812908e-07,1.3519094828907227e-06,2.416406582266571e-06,1.369030946239574e-06,1.3881124287831113e-06,1.2624864259600813e-06,1.9281446075513515e-06,2.952673635473034e-06,1.2430406361380182e-05,1.6259859042749256e-06,4.601981225340685e-06,4.424762001321782e-06,2.0090502786041455e-05,1.2295385226889754e-06,1.5913554520130256e-06
275,2.1587495775062254e-06,9.462823203985034e-07,1.3897399528841828e-06,2.500307453262879e-06,1.3523128519362544e-06,1.3997632772932341e-06,1.2389787595716073e-06,1.942135690835463e-06,2.969836533138489e-06,1.2447320762925272e-05,1.6126473985491008e-06,4.628114805222907e-06,4.189857832332785e-06,1.8631727338198176e-05,1.2145077896563033e-06,1.5711768579970898e-06
276,2.1494767294237986e-06,8.985509562056588e-07,1.429242376144147e-06,2.584846567197333e-06,1.3382200507156707e-06,1.414908132577525e-06,1.2198188587441288e-06,1.9591311053566086e-06,2.9959438730944414e-06,1.2551797311007914e-05,1.5954835097241668e-06,4.649841067653305e-06,3.95778853163109e-06,1.7243536041761794e-05,1.1982975444657322e-06,1.5505157369231845e-06
277,2.142237465607291e-06,8.533272986142517e-07,1.4704078955968758e-06,2.668817773526109e-06,1.3268131908617643e-06,1.4328842190249224e-06,1.205484685442874e-06,1.9799608858504054e-06,3.0273992674419738e-06,1.271787496178636e-05,1.5751360476561009e-06,4.665425761747608e-06,3.731004489402391e-06,1.5930178336259912e-05,1.181445911897365e-06,1.5293496773759448e-06
278,2.1369016538013916e-06,8.111728066684852e-07,1.5131021927391475e-06,2.751069698883838e-06,1.3181299902672644e-06,1.4528743819608973e-06,1.1963163063682488e-06,2.0053716688831585e-06,3.0605498228004134e-06,1.2919019246297252e-05,1.5522240703108956e-06,4.6734001165760095e-06,3.511376561275035e-06,1.469525577609393e-05,1.164619529884363e-06,1.5076212834004363e-06
279,2.133247595274598e-06,7.72531546666296e-07,1.5571751359378971e-06,2.830335160633583e-06,1.3120332180206802e-06,1.4740124781427332e-06,1.1925245693659903e-06,2.03589944386746e-06,3.0918750282555664e-06,1.3130223109089185e-05,1.527328231757748e-06,4.672784064476598e-06,3.3005234566830503e-06,1.3541912671744942e-05,1.1484561579678696e-06,1.4852669369141147e-06
280,2.1311143217849933e-06,7.377050674276999e-07,1.6025638166357524e-06,2.905074490136689e-06,1.308242465407794e-06,1.4955574463691138e-06,1.1941739952829005e-06,2.0717173448394273e-06,3.1181259817240827e-06,1.3330466633903782e-05,1.5009864397514454e-06,4.663315291046817e-06,3.100016624686559e-06,1.2472982205085885e-05,1.1334609062891373e-06,1.462185876512759e-06
281,2.130446125257248e-06,7.068550988977584e-07,1.649283493140846e-06,2.9735435900292382e-06,1.3064666049543248e-06,1.5170568362433923e-06,1.2011391787226689e-06,2.1125852965330856e-06,3.1363408687204074e-06,1.3504294282593147e-05,1.4736428263155292e-06,4.6455430128287705e-06,2.9113017913566163e-06,1.1490721452090116e-05,1.119991149017394e-06,1.4382504650993577e-06
282,2.1312550241834556e-06,6.800304909304919e-07,1.6972789788186927e-06,3.0339579534275318e-06,1.3065123237203893e-06,1.5384561684005742e-06,1.2130905011201675e-06,2.157893210592372e-06,3.143754466604699e-06,1.3641543319985203e-05,1.4455757711594384e-06,4.620729150387539e-06,2.7355580378367197e-06,1.059613609921864e-05,1.108254134138175e-06,1.4134420970451185e-06
283,2.1335782191638277e-06,6.571909191645149e-07,1.7462630131801377e-06,3.0845796519222995e-06,1.3082789584752608e-06,1.5600905478955586e-06,1.2295346545521962e-06,2.2067375667158065e-06,3.1378632544074126e-06,1.3735293097879019e-05,1.416886391378879e-06,4.59064103741146e-06,2.5737066785537464e-06,9.788390297313649e-06,1.0983152206062997e-06,1.3879908325314616e-06
284,2.137443731441033e-06,6.382298202572027e-07,1.7956950536206998e-06,3.1238181552817705e-06,1.311640571608501e-06,1.5825371270018819e-06,1.2498977729409694e-06,2.2579931327445457e-06,3.1169446093798436e-06,1.377940676370754e-05,1.3875806757894006e-06,4.557309534001956e-06,2.4264796380311213e-06,9.064786473771704e-06,1.0901363720639361e-06,1.3623416863790245e-06
285,2.1427945788584443e-06,6.229955501575433e-07,1.8449118126688902e-06,3.1504916030527815e-06,1.316299298529825e-06,1.6064228172182258e-06,1.2735980319715634e-06,2.3104082517015905e-06,3.080633004569672e-06,1.376787756738507e-05,1.35770383150493e-06,4.5228185525900835e-06,2.2943758785875266e-06,8.42123995976816e-06,1.0835909944494063e-06,1.336966933812742e-06
286,2.1494116626982765e-06,6.112901865504711e-07,1.893273553762964e-06,3.1641858523402206e-06,1.3217031986346174e-06,1.6322922702996791e-06,1.3000599917446867e-06,2.3627600544823863e-06,3.029818460483559e-06,1.3696711872537103e-05,1.3274541409595512e-06,4.489211975425201e-06,2.1775719952990804e-06,7.852761106485417e-06,1.078440933625709e-06,1.312219132323794e-06
287,2.1569273990975918e-06,6.028572312452032e-07,1.9401746038171394e-06,3.165468850490482e-06,1.3270943326736128e-06,1.6605471270749031e-06,1.3286742607431747e-06,2.4140261680753713e-06,2.966099343222439e-06,1.356609094154404e-05,1.2972290115487064e-06,4.458471760508754e-06,2.075922465960322e-06,7.353620142632184e-06,1.0743455236959306e-06,1.2883221398664173e-06
288,2.1648607591331124e-06,5.97385966993324e-07,1.9849404995880152e-06,3.155771146461688e-06,1.3317224314314257e-06,1.691426891782309e-06,1.358770539568152e-06,2.463501775989166e-06,2.891522040604442e-06,1.3380236315039815e-05,1.2675735180338212e-06,4.4323973172759e-06,1.9889914290906745e-06,6.9172393648537276e-06,1.070964756869695e-06,1.265421817892718e-06
289,2.1725956657922473e-06,5.945374642905229e-07,2.0268250469084964e-06,3.1369564501339498e-06,1.3351186322455345e-06,1.7250160815399805e-06,1.3896985481230335e-06,2.5108288839040175e-06,2.808496639062317e-06,1.3145091483462567e-05,1.2390477479885777e-06,4.412376142625942e-06,1.9160676744023313e-06,6.536183513092067e-06,1.0680904782507139e-06,1.2436167986300724e-06
290,2.1794583344308343e-06,5.939773258969722e-07,2.0652222695155677e-06,3.1107822596509898e-06,1.3371927228224831e-06,1.7612377879147928e-06,1.420989944039501e-06,2.5559272939222336e-06,2.7194820920109964e-06,1.2865987140144706e-05,1.2121385428120033e-06,4.399220874088358e-06,1.8562304895522761e-06,6.20276437581737e-06,1.0656543956193857e-06,1.2229544114234287e-06
291,2.1849886958477872e-06,5.954184239432772e-07,2.0999050312784944e-06,3.078506307589024e-06,1.3380976665072403e-06,1.7998170119460323e-06,1.45243815640415e-06,2.5988370896233406e-06,2.626641348291228e-06,1.2546926395658854e-05,1.187278974357987e-06,4.393109700857588e-06,1.8084412597459976e-06,5.910327799142687e-06,1.063660081269263e-06,1.203416863657167e-06
292,2.189150709944098e-06,5.986723580722868e-07,2.1310217603090173e-06,3.040810640151895e-06,1.3380474739721555e-06,1.840346025102928e-06,1.4840013354496048e-06,2.63952165082846e-06,2.5317450166556823e-06,1.2191194057258136e-05,1.1648505137560104e-06,4.393512383873229e-06,1.7716303376408106e-06,5.654619673229065e-06,1.062167760268235e-06,1.184937895921808e-06
293,2.1922172887834157e-06,6.036477917386476e-07,2.158834935678475e-06,2.997983861115604e-06,1.3372090714220838e-06,1.8825638312051816e-06,1.5156215043091334e-06,2.6777155309053923e-06,2.4362057030331835e-06,1.1802080065464541e-05,1.145097161396045e-06,4.399125407551427e-06,1.7448207253789137e-06,5.43459003894301e-06,1.0612482890899365e-06,1.167427372996676e-06
294,2.1944672666310264e-06,6.102897803060901e-07,2.183414449536766e-06,2.950084732475946e-06,1.3356729702993651e-06,1.926657813841807e-06,1.5471259809371846e-06,2.712896585530066e-06,2.3410999437313827e-06,1.1383018426232619e-05,1.1280548332445418e-06,4.407923132235378e-06,1.727174564293569e-06,5.252395642912933e-06,1.0608602809046456e-06,1.150775774147552e-06
295,2.1959964558580933e-06,6.185333210515617e-07,2.204477245619215e-06,2.8969298011992587e-06,1.3335206968327538e-06,1.9732870326541396e-06,1.5782387350765275e-06,2.7443637301944418e-06,2.247260044659409e-06,1.0937159027938472e-05,1.1135944446165504e-06,4.417347291280083e-06,1.7178539891390955e-06,5.112653456612272e-06,1.0607869380063624e-06,1.1348617314677681e-06
296,2.1966678129793677e-06,6.282795046496843e-07,2.2214643937452257e-06,2.8381096462597935e-06,1.3309262520853597e-06,2.023314199338929e-06,1.6085842308248097e-06,2.771278712331791e-06,2.1555240708449673e-06,1.0467079496865679e-05,1.1015497186661233e-06,4.424658826177424e-06,1.7159003299170163e-06,5.021279770912519e-06,1.0607055908885607e-06,1.1195358618160032e-06
297,2.196058627170817e-06,6.393928909896356e-07,2.2338302743848075e-06,2.77322898847464e-06,1.328145465570517e-06,2.0775017201054504e-06,1.637619960688122e-06,2.7926274659510958e-06,2.066995811169915e-06,9.975478865512444e-06,1.0918157001246363e-06,4.427382585127786e-06,1.7203077129254956e-06,4.984475085115145e-06,1.060314954408914e-06,1.1045909649594423e-06
298,2.1934018580482565e-06,6.517506462926069e-07,2.2413030446255576e-06,2.702199129648489e-06,1.325397363685086e-06,2.136355728214929e-06,1.6645694310501514e-06,2.807287924137876e-06,1.983040523763467e-06,9.466439154107743e-06,1.084368752954162e-06,4.4235944665407055e-06,1.7301227401108026e-06,5.0081593784186575e-06,1.0593872180779156e-06,1.0898403150837334e-06
299,2.187619822628018e-06,6.652905538622589e-07,2.243859071258441e-06,2.6253565442036765e-06,1.3228054081743723e-06,2.200069498184583e-06,1.6884918041175406e-06,2.814284657666811e-06,1.9050032585844283e-06,8.9459206869432e-06,1.0792441037125402e-06,4.411901194203495e-06,1.7444437460364616e-06,5.097694136614477e-06,1.0577142381474835e-06,1.0752888739993268e-06
300,2.177481667017566e-06,6.799871988430883e-07,2.241503660460496e-06,2.5434497837978325e-06,1.3204371612333422e-06,2.268472070511375e-06,1.7085163442406853e-06,2.8130061768495736e-06,1.8339494681672795e-06,8.421142783579296e-06,1.0764729581924424e-06,4.391250201039845e-06,1.7624061703954778e-06,5.2577589301007e-06,1.055100644615477e-06,1.061194334109074e-06
301,2.161827580904344e-06,6.958174101583165e-07,2.23412802109184e-06,2.4576316439550852e-06,1.3183041762564516e-06,2.340978450735057e-06,1.724050917519392e-06,2.8032288229824026e-06,1.7706340837479313e-06,7.899582627000261e-06,1.0759991395308517e-06,4.360831636948643e-06,1.7831688322090091e-06,5.4924027752970245e-06,1.0514816297965942e-06,1.047961141782991e-06
302,2.139802336017848e-06,7.12791636883388e-07,2.221484306478391e-06,2.3694295252526407e-06,1.3163031409257883e-06,2.4165497100377643e-06,1.7347935601518082e-06,2.785082714122397e-06,1.7155985302581971e-06,7.388133336473191e-06,1.0776698536344328e-06,4.320195192700963e-06,1.8059337836966215e-06,5.805109168747296e-06,1.047007248053668e-06,1.0360101926719657e-06
303,2.111058231574242e-06,7.309910626639481e-07,2.2032167803481935e-06,2.2805762350929967e-06,1.3141855563035209e-06,2.4936669981375817e-06,1.740622624514005e-06,2.7591287374017587e-06,1.6692044049630626e-06,6.8925814977444284e-06,1.0813104655442607e-06,4.269476504842601e-06,1.8301086277829965e-06,6.198736213133205e-06,1.042002333036659e-06,1.0256898139000906e-06
304,2.0758420904069766e-06,7.505320307989127e-07,2.1789880255157942e-06,2.192746604239947e-06,1.3115474400264215e-06,2.5703513833683525e-06,1.7415146124850043e-06,2.7264909704248642e-06,1.6315817237583855e-06,6.4175123818959e-06,1.0867683931161737e-06,4.209513465618847e-06,1.8554838610814059e-06,6.675412493324487e-06,1.0369106600789506e-06,1.01722958957397e-06
305,2.0348816320386354e-06,7.71484124301268e-07,2.1486616681180787e-06,2.107378501186881e-06,1.3078494605600205e-06,2.6442779582532994e-06,1.7375133461212087e-06,2.688835160433717e-06,1.6026129418689814e-06,5.966472509443535e-06,1.093886781204117e-06,4.141669710805999e-06,1.882171647928621e-06,7.236542743877567e-06,1.0322796488475066e-06,1.0107569977989023e-06
306,1.9891063830303468e-06,7.938211138959388e-07,2.112398568002075e-06,2.0256440514591985e-06,1.302482542998099e-06,2.7130288417015013e-06,1.7286845080875646e-06,2.6481112850232293e-06,1.5819827208369906e-06,5.5420309431147795e-06,1.1024910851449195e-06,4.067403032323638e-06,1.9103870738961032e-06,7.883039010135104e-06,1.0287162629708875e-06,1.0063085201383158e-06
307,1.9393750544616363e-06,8.174421883386009e-07,2.070631624578892e-06,1.9484918579121415e-06,1.294788892050131e-06,2.774455950121893e-06,1.7150440905760122e-06,2.6062152761501883e-06,1.5691873367629069e-06,5.145732941703027e-06,1.112408424591494e-06,3.9878943615714285e-06,1.940354822577595e-06,8.615624194694028e-06,1.0267842621638297e-06,1.003777521097099e-06
308,1.8863986059492291e-06,8.422253488002811e-07,2.023993220351489e-06,1.8766734103899361e-06,1.2840735475699852e-06,2.8270307246633575e-06,1.696573379705863e-06,2.5647641374756224e-06,1.5634757189592237e-06,4.778124556304551e-06,1.1234785291026054e-06,3.903999860262703e-06,1.972327570576447e-06,9.434808480579657e-06,1.026909927726475e-06,1.0028765090303231e-06
309,1.8308844490489491e-06,8.680680476277701e-07,1.973236958903622e-06,1.8107201245551007e-06,1.2697464871308412e-06,2.8700615704726694e-06,1.673363053897293e-06,2.5250045544798045e-06,1.5638150386786317e-06,4.438830730633847e-06,1.1355928227181715e-06,3.816355213846275e-06,2.006518174640631e-06,1.0340356721136338e-05,1.0293552822264585e-06,1.0032067778472285e-06
310,1.7737383995276756e-06,8.949153484517361e-07,1.9191569902931766e-06,1.750907663339404e-06,1.2515140766986506e-06,2.9037340456832587e-06,1.6457404866055746e-06,2.4877676992736894e-06,1.5689139680820635e-06,4.126694363974784e-06,1.1487586864393344e-06,3.7253134737739135e-06,2.04294304317286e-06,1.1330480889131731e-05,1.0342534197952567e-06,1.0044408433834642e-06
311,1.7161367121192262e-06,9.227749613311235e-07,1.8625250551474736e-06,1.6972886830471335e-06,1.22941711814509e-06,2.9289833741948204e-06,1.614287466110153e-06,2.45346540319115e-06,1.577266706018365e-06,3.840027454566553e-06,1.1630859337057377e-06,3.6308527378528485e-06,2.0813018905239735e-06,1.2401137962041455e-05,1.0416632730981419e-06,1.0065149947706888e-06
312,1.6593959107995198e-06,9.516864300999698e-07,1.8040548612104221e-06,1.6497974871682472e-06,1.2037262688547316e-06,2.947202909418942e-06,1.5797957714958568e-06,2.422152097934834e-06,1.5872503726036804e-06,3.576820137603177e-06,1.1787012943877838e-06,3.5327638536604984e-06,2.1209756488548526e-06,1.3545664595468553e-05,1.0515902900054288e-06,1.0096805670769912e-06
313,1.604733726948593e-06,9.81643652150709e-07,1.7443542090576942e-06,1.6083319423706544e-06,1.1748839639044274e-06,2.9598429688898585e-06,1.543170776260575e-06,2.393606907759584e-06,1.5972622308977615e-06,3.334813037517859e-06,1.1957078907588666e-06,3.430987287888437e-06,2.1611635725521335e-06,1.4754744602331737e-05,1.0639803004561817e-06,1.0143747857856225e-06
314,1.5530956532462515e-06,1.012560763989649e-06,1.6838561494704516e-06,1.572755342310494e-06,1.1435360667397466e-06,2.968124552118851e-06,1.50528243092395e-06,2.367436122550418e-06,1.6057689781034499e-06,3.111685736910123e-06,1.214207551868367e-06,3.3258112365363363e-06,2.2010861579707854e-06,1.60165947997058e-05,1.0787255756597377e-06,1.0210276816705625e-06
315,1.5051428340727156e-06,1.0443518304249377e-06,1.6228262300759336e-06,1.542850307607908e-06,1.110515209730539e-06,2.973016445273504e-06,1.46686589279055e-06,2.3432459452371993e-06,1.6113756579054486e-06,2.9055377299476252e-06,1.2342943222648703e-06,3.2178894342617193e-06,2.2401538585349266e-06,1.731735488218029e-05,1.0956533058536888e-06,1.0299443401991476e-06
316,1.4613711089060922e-06,1.0770311558698322e-06,1.5615006699716658e-06,1.5182915715846882e-06,1.076719133844065e-06,2.9752863597749224e-06,1.4285244521714246e-06,2.32081945971324e-06,1.613114197416854e-06,2.7154314353765994e-06,1.2559763154880787e-06,3.1081067717320063e-06,2.2780990560101257e-06,1.8641739783037627e-05,1.1144972995402678e-06,1.0412937067663807e-06
317,1.4222472341764488e-06,1.1106988507411376e-06,1.5002534204579086e-06,1.4986844978959331e-06,1.0429647582067758e-06,2.9754240348051638e-06,1.390752737798132e-06,2.300135228256339e-06,1.610721698888518e-06,2.5417121007941616e-06,1.2790938850888645e-06,2.9973049777925525e-06,2.3150607921777487e-06,1.9973797565530682e-05,1.1349000892600473e-06,1.055128641040712e-06
318,1.38824604602941e-06,1.1454520742369044e-06,1.4396834712648585e-06,1.4836418643332944e-06,1.0099132605350223e-06,2.9735058270943396e-06,1.3539640172135142e-06,2.281233942426153e-06,1.6045919636338191e-06,2.3859773740325887e-06,1.3033271928762914e-06,2.886023530194974e-06,2.3515065462436262e-06,2.1297380459324133e-05,1.1564141358918035e-06,1.0714041264667793e-06
319,1.3597663710823979e-06,1.1813425545335198e-06,1.3805830041413788e-06,1.4728022152663565e-06,9.780778125827407e-07,2.969153610704449e-06,1.3185622653468742e-06,2.26419121017926e-06,1.595510668037853e-06,2.2506800100197808e-06,1.3282849918421516e-06,2.774476050421141e-06,2.387964079742008e-06,2.25961242574153e-05,1.1784712656153037e-06,1.0900487218315098e-06
320,1.3370052271772144e-06,1.2183621254024395e-06,1.3237951383140647e-06,1.465769380197164e-06,9.478412871069809e-07,2.9616302766393475e-06,1.2849792143400962e-06,2.249303428802714e-06,1.5844352064275018e-06,2.138594200409677e-06,1.353546004668038e-06,2.6627673089933987e-06,2.4247362325995007e-06,2.385316735974343e-05,1.2003590669250594e-06,1.111060035427586e-06
321,1.3198874482745012e-06,1.2563948965893287e-06,1.2700817285593174e-06,1.4621168670575966e-06,9.194725385200331e-07,2.950000371040154e-06,1.2536034725122852e-06,2.237234330699681e-06,1.572396306853165e-06,2.052500122389199e-06,1.3785781190109917e-06,2.5511299603324607e-06,2.4617997030727404e-06,2.5050914103727668e-05,1.2212276903569396e-06,1.1345052915855138e-06
322,1.308091564695041e-06,1.2951803930672962e-06,1.2200923814153078e-06,1.461519722518765e-06,8.932020741550888e-07,2.9332824806688425e-06,1.2247107522865554e-06,2.228898869050138e-06,1.5604924850042463e-06,1.9951355993470754e-06,1.4026514853992636e-06,2.4400196963099855e-06,2.498993304450522e-06,2.6170560801479695e-05,1.2401290284715645e-06,1.160420214213361e-06
323,1.301144093551433e-06,1.334311390027921e-06,1.1743556908355695e-06,1.4638320726163068e-06,8.693099193303289e-07,2.910603679956747e-06,1.1985172325860357e-06,2.2251551649088315e-06,1.5498874416157877e-06,1.96918978740821e-06,1.4249294640838406e-06,2.3300907411274985e-06,2.5364224144617792e-06,2.7191059146267668e-05,1.2561516436621023e-06,1.1887084461294765e-06
324,1.2985143352988734e-06,1.373220680471535e-06,1.133259572816146e-06,1.4689881113650422e-06,8.481132475892624e-07,2.8813731378363285e-06,1.1752750848321485e-06,2.2265369035306157e-06,1.5417180505237226e-06,1.9772748394667516e-06,1.4447605828222376e-06,2.2221332616059684e-06,2.5747642129176925e-06,2.8088954151577456e-05,1.2686697684725326e-06,1.219092234274516e-06
325,1.2996485750870557e-06,1.411163098219402e-06,1.0970707857650269e-06,1.4768496152088145e-06,8.298841185086279e-07,2.8454215289550327e-06,1.1552549241123235e-06,2.2332069513449923e-06,1.5369714091211096e-06,2.021982457961952e-06,1.461944004953687e-06,2.11702087592182e-06,2.6151871943750957e-06,2.8841173906296916e-05,1.2775092554777188e-06,1.2510931569499817e-06
326,1.3039257322886164e-06,1.4472385592999101e-06,1.065972718433648e-06,1.48717808281089e-06,8.148017201685615e-07,2.8030507297191634e-06,1.1386273455154864e-06,2.2451257870996136e-06,1.536401204696258e-06,2.1059486300519664e-06,1.476718058302469e-06,2.015652227923945e-06,2.6589628480646864e-06,2.942988593800906e-05,1.2828515462204696e-06,1.284051595199706e-06
327,1.3105646887419854e-06,1.4805335037339739e-06,1.0401341878201734e-06,1.4997777441915533e-06,8.029430815057494e-07,2.7549862982053826e-06,1.1253919926290954e-06,2.2622247856157075e-06,1.540461614387757e-06,2.231762666479738e-06,1.4895240117590945e-06,1.918835330343128e-06,2.7070929280252205e-06,2.984619189080661e-05,1.2850093662447335e-06,1.3172366439976906e-06
328,1.3185494626805173e-06,1.5104354250043322e-06,1.0198209251771787e-06,1.5146333653945535e-06,7.942801757386982e-07,2.7022300839859905e-06,1.1154282090704444e-06,2.2843724951359183e-06,1.549295528362447e-06,2.401777368658179e-06,1.5008182694247154e-06,1.827153589233898e-06,2.7601499464244852e-06,3.009084862636589e-05,1.2843408218792171e-06,1.3500120996758244e-06
