,EMG1,EMG2,EMG3,EMG4,EMG5,EMG6,EMG7,EMG8,EMG9,EMG10,EMG11,EMG12,EMG13,EMG14,EMG15,EMG16
0,4.902082680823058e-08,2.167559982151362e-07,2.893176599690833e-07,6.05391600320662e-07,1.0524028938984715e-07,4.144711944408419e-08,4.7393305454248794e-07,-1.6499210833051244e-07,7.88908676800608e-07,1.4364617563970297e-06,-1.0749558313992338e-08,6.301959355557479e-07,1.2239178786172979e-07,1.7364008455455498e-05,1.770107741511493e-07,1.0568060023917312e-07
1,2.0487142115212542e-07,3.0572340880002414e-07,4.3249658707325146e-07,6.977968729849341e-07,2.6188638779877356e-07,3.080222656756864e-07,6.020593594859376e-07,2.0610976839049287e-07,9.171264190135421e-07,2.350019177438492e-06,8.392173331256785e-08,7.160125859689414e-07,3.891776080065493e-07,2.1368002951597872e-05,2.9358530445124053e-07,1.7484259673361327e-07
2,3.5313700935903233e-07,3.944853674603759e-07,5.746188923239524e-07,7.902642682342354e-07,4.1647203285324417e-07,5.652295461804525e-07,7.334874715620836e-07,5.594073351039774e-07,1.0500048332905746e-06,3.23188878391898e-06,1.7624539518113384e-07,7.999343400369885e-07,6.526132890458039e-07,2.5397617612686485e-05,4.1194748452836413e-07,2.448943236002749e-07
3,4.923810667706969e-07,4.821200638493699e-07,7.138477721068896e-07,8.816675715011991e-07,5.67651592169923e-07,8.115120283990022e-07,8.663283219879516e-07,8.906682901349877e-07,1.1850949934188974e-06,4.065671967734307e-06,2.650006803505013e-07,8.814866561975146e-07,9.066224600183731e-07,2.936058692264784e-05,5.309670383527198e-07,3.1484863013185883e-07
4,6.213227322827053e-07,5.681489470058907e-07,8.486079748915801e-07,9.710266033428151e-07,7.141361624087667e-07,1.0452651173168684e-06,9.989339800010998e-07,1.196098787734609e-06,1.3200214053664706e-06,4.83788326598474e-06,3.493341367496563e-07,9.603216432726444e-07,1.1460628532931263e-06,3.3182800437806865e-05,6.496575371258216e-07,3.840619984309523e-07
5,7.389587933852634e-07,6.524098887623325e-07,9.77547947831922e-07,1.057604436013799e-06,8.547289700895942e-07,1.264858721876295e-06,1.1297827115764868e-06,1.4724612721667242e-06,1.4525779699906447e-06,5.539768610816529e-06,4.2869368806634787e-07,1.0361605975768574e-06,1.3672792893525044e-06,3.6813930707182175e-05,7.671056326847483e-07,4.521501907461028e-07
6,8.445916914443681e-07,7.348257152406603e-07,1.0994276389715067e-06,1.1409176655838918e-06,9.883507834625937e-07,1.4687852961821922e-06,1.257404738364545e-06,1.7172108586183087e-06,1.580979904535981e-06,6.1677228395869945e-06,5.027150795440564e-07,1.1086992957426213e-06,1.5687716856207123e-06,4.0225810731274813e-05,8.823678679552947e-07,5.188649067355874e-07
7,9.3782042575617e-07,8.152682872251944e-07,1.213093947664789e-06,1.2207328345135244e-06,1.1140873860293207e-06,1.6558415845482143e-06,1.3805224508493679e-06,1.9286186014629265e-06,1.7042631609586119e-06,6.72172659481012e-06,5.711533570031087e-07,1.1775979978344822e-06,1.75126776927478e-06,4.3405082386468465e-05,9.944932332220292e-07,5.840350262328218e-07
8,1.0185697219431496e-06,8.935338987774762e-07,1.3175838560812402e-06,1.2970585875427894e-06,1.2313459794231326e-06,1.8252415979841292e-06,1.498290463689875e-06,2.105838777628367e-06,1.8224398549859701e-06,7.203240925602367e-06,6.338922293810145e-07,1.2425676128502278e-06,1.9170022060625667e-06,4.634466736594392e-05,1.1026833132559687e-06,6.475382920763103e-07
9,1.0870707178058416e-06,9.693858643234088e-07,1.4121794052081191e-06,1.3700426044582992e-06,1.3400065498732243e-06,1.9766939317029024e-06,1.6103481655333927e-06,2.2489665788957323e-06,1.9361554195711026e-06,7.614302629419415e-06,6.909992505004456e-07,1.3034642335582966e-06,2.068803491986415e-06,4.903722236985688e-05,1.2064017285297727e-06,7.092514252894703e-07
10,1.1438554397579266e-06,1.0426043020901645e-06,1.4963422501866743e-06,1.4398197670952059e-06,1.4403944784037544e-06,2.1105357611793054e-06,1.7166151802772815e-06,2.3591059190230655e-06,2.046134608101339e-06,7.957768419192351e-06,7.427425410565148e-07,1.3603353499386166e-06,2.20954177768348e-06,5.1470924625187965e-05,1.3052865511620845e-06,7.690017384222648e-07
11,1.1898493829323184e-06,1.1129554316535871e-06,1.5697004122204793e-06,1.5064332451811976e-06,1.533127044328201e-06,2.2278790458051323e-06,1.8171174590205114e-06,2.438331168283991e-06,2.152801410112961e-06,8.237613676492719e-06,7.895243572376213e-07,1.4133934882392696e-06,2.341935251370259e-06,5.362816432801109e-05,1.3989368592313658e-06,8.26546400795794e-07
12,1.2263781590097886e-06,1.1801086198219074e-06,1.6321812687160838e-06,1.5698246856296621e-06,1.6189438426368897e-06,2.3305949962078956e-06,1.9120207170236663e-06,2.4894613693741946e-06,2.2561314496127647e-06,8.45867957855094e-06,8.317959881485129e-07,1.4629049042760637e-06,2.4684564120582526e-06,5.5489051134197886e-05,1.4867615217176118e-06,8.815625702694167e-07
13,1.2549781920712326e-06,1.2436106402036558e-06,1.6841236662881453e-06,1.6298322978169523e-06,1.698550880334792e-06,2.421062419579021e-06,2.0016417200695314e-06,2.5157444436742673e-06,2.355607190263449e-06,8.625945640471718e-06,8.70025723017784e-07,1.5090428052690778e-06,2.5912513422736115e-06,5.7038748005255424e-05,1.5680291256442985e-06,9.336437611689652e-07
14,1.2771580961058082e-06,1.302938532791924e-06,1.7261725527870993e-06,1.6861348433224192e-06,1.7725722532369067e-06,2.501813361114953e-06,2.0862586400531896e-06,2.520597650176612e-06,2.450219236570933e-06,8.743997345305063e-06,9.046874461496995e-07,1.551820082955527e-06,2.7120848075679495e-06,5.8273466283642614e-05,1.6421129011833774e-06,9.823376955464321e-07
15,1.2942451178343896e-06,1.3575917385818911e-06,1.7590016388115067e-06,1.738172259715761e-06,1.8416621030476062e-06,2.5752450979679113e-06,2.1658698344776405e-06,2.5074391303870303e-06,2.5385664707509445e-06,8.81726387878085e-06,9.362167531539109e-07,1.5911701480957374e-06,2.8322611393303875e-06,5.9200929309111234e-05,1.7087613982084076e-06,1.0272289419455439e-06
16,1.307334242766241e-06,1.407201752371397e-06,1.7831169763039983e-06,1.7852475178552303e-06,1.9065909189393358e-06,2.643429258196634e-06,2.240082362273487e-06,2.4795420899740623e-06,2.619142673243718e-06,8.850522934373197e-06,9.649647881659291e-07,1.6271076358498535e-06,2.9525646208181003e-06,5.9835153512282176e-05,1.7681609787090146e-06,1.0679940200362207e-06
17,1.3173008000821887e-06,1.451613853501029e-06,1.7988945822749965e-06,1.8269145530926645e-06,1.9681409051573477e-06,2.707979461234418e-06,2.308156227823428e-06,2.439881136288812e-06,2.690800270163792e-06,8.848813386770924e-06,9.912123584175905e-07,1.6598199626536561e-06,3.0733290634388604e-06,6.018904520848918e-05,1.8207146481087154e-06,1.104379342016216e-06
18,1.3248126711065929e-06,1.490849951520745e-06,1.8067449682606977e-06,1.863404440416311e-06,2.0269545996913805e-06,2.7699956564939194e-06,2.369153070966867e-06,2.3910755331263137e-06,2.7531401408789677e-06,8.816832987115096e-06,1.015234365962255e-06,1.6895886712920078e-06,3.194573792225121e-06,6.0271597622876424e-05,1.8667479867394806e-06,1.136146407474507e-06
19,1.330314130557854e-06,1.5249382097566336e-06,1.8072387790158884e-06,1.8956981890881537e-06,2.083521884592931e-06,2.8300964719705653e-06,2.422111030362647e-06,2.335495549584362e-06,2.8065277644912394e-06,8.75848602435455e-06,1.0373155665242415e-06,1.7165945654914014e-06,3.316049469918461e-06,6.009310067375882e-05,1.9063851993562386e-06,1.1630367136931965e-06
20,1.3340240432161858e-06,1.5537616582453174e-06,1.8011588113745332e-06,1.925178220990796e-06,2.1382336029907772e-06,2.888451013004875e-06,2.466120255183504e-06,2.2753963905035434e-06,2.851792745351609e-06,8.676784399763977e-06,1.0576773817522172e-06,1.7407601105231602e-06,3.437196763187325e-06,5.967109714362438e-05,1.9395706493160637e-06,1.1847776233540794e-06
21,1.3360292694678508e-06,1.5770541630402143e-06,1.78950442990518e-06,1.9532086635833914e-06,2.191393166126368e-06,2.944733684790794e-06,2.500231451873067e-06,2.2129441546962402e-06,2.8899476888193217e-06,8.573818490101566e-06,1.076430782286794e-06,1.7616900999703366e-06,3.5571543893158963e-06,5.902862092879884e-05,1.966079219264587e-06,1.2011484349435144e-06
22,1.3364926325310964e-06,1.594505892055749e-06,1.7734157955457025e-06,1.9809131487595203e-06,2.2432424799731125e-06,2.998068129620512e-06,2.5233787733676147e-06,2.15016310218259e-06,2.922083562567156e-06,8.450703531634536e-06,1.0936356236863277e-06,1.778667504701238e-06,3.6748625786639855e-06,5.818850114393616e-05,1.9854960885127278e-06,1.2120507891792073e-06
23,1.33584560718136e-06,1.6059375713574076e-06,1.7540096916980449e-06,2.0090902791893033e-06,2.2940443829169604e-06,3.047112752554621e-06,2.534588597412776e-06,2.0888589032995965e-06,2.9493383153125446e-06,8.307679795433842e-06,1.1093634762838846e-06,1.7906904293367892e-06,3.7891702670967493e-06,5.7172080960504015e-05,1.9972757208615866e-06,1.2175387505680639e-06
24,1.3348182480395459e-06,1.6115117708432318e-06,1.7322778906582788e-06,2.038193068245207e-06,2.3441310850765706e-06,3.0904124299613898e-06,2.5333983598187004e-06,2.0305237229742875e-06,2.972842013054059e-06,8.144297532627737e-06,1.1236544240042265e-06,1.79657121190155e-06,3.898850332930792e-06,5.6000855432867654e-05,2.000938756362796e-06,1.217909652171828e-06
25,1.3343095963872098e-06,1.6118157339622552e-06,1.7091472294968551e-06,2.0683584009406147e-06,2.393829139877559e-06,3.126931991063785e-06,2.5200893890393106e-06,1.9762611579649603e-06,2.993623064780625e-06,7.959421584223074e-06,1.136434505122522e-06,1.7951321347526566e-06,4.002532607154723e-06,5.469542095693328e-05,1.9963090813623993e-06,1.2138274722871618e-06
26,1.3351977913734993e-06,1.607684326543071e-06,1.68553725277574e-06,2.099414302733716e-06,2.4432934828403734e-06,3.156371127973298e-06,2.4955016310556744e-06,1.9267773967254626e-06,3.012458653003221e-06,7.751348157882026e-06,1.1475078538170997e-06,1.7855192433805115e-06,4.098663737108741e-06,5.327440918753076e-05,1.9836225317908273e-06,1.2062664773008924e-06
27,1.3381750488461055e-06,1.599901782716963e-06,1.6622683601654081e-06,2.1308732765504522e-06,2.492397071976043e-06,3.178977304414591e-06,2.4606139472580224e-06,1.882448541712854e-06,3.029718665133876e-06,7.518632523014535e-06,1.1566097006234524e-06,1.7675229412545754e-06,4.18548759126103e-06,5.175802563022096e-05,1.963456916531474e-06,1.1963301122769201e-06
28,1.3436504108069952e-06,1.5890446572643506e-06,1.6399202778825604e-06,2.161991903677162e-06,2.540834508591209e-06,3.195176364025483e-06,2.416309261212938e-06,1.8434484462273148e-06,3.045356078533334e-06,7.2612669464418806e-06,1.1634782496987932e-06,1.7417177088836585e-06,4.260946017357302e-06,5.01717926064808e-05,1.9365895106888577e-06,1.1851751868447907e-06
29,1.3517326903928722e-06,1.5755409428093663e-06,1.6187810660427877e-06,2.191831861147107e-06,2.5884146817405027e-06,3.2054914830247725e-06,2.363493750866321e-06,1.8098394221984006e-06,3.0590736057413083e-06,6.981156345359766e-06,1.167956425406984e-06,1.7093609511905418e-06,4.322765120848283e-06,4.85442232864736e-05,1.9038772935730114e-06,1.1739944348625246e-06
30,1.362296519443185e-06,1.5597771866669253e-06,1.5988929391010959e-06,2.2192279999861195e-06,2.6352946351183925e-06,3.2106421672979e-06,2.3032968314033733e-06,1.78154192745132e-06,3.070481559032644e-06,6.6816528049185405e-06,1.1700644656165705e-06,1.6721231707950285e-06,4.369072286038432e-06,4.6900820734489466e-05,1.8661691526174317e-06,1.1639357685756717e-06
31,1.3751122618915302e-06,1.5420825246658547e-06,1.5801497251484326e-06,2.2428095471329265e-06,2.6819529173892164e-06,3.2114364555991755e-06,2.237118358553597e-06,1.758263546607152e-06,3.0791196922979135e-06,6.366824939506495e-06,1.1699466982257815e-06,1.631757438230584e-06,4.3992010626535545e-06,4.526086654479716e-05,1.824252665841613e-06,1.1560216063766565e-06
32,1.3899621063673294e-06,1.5226347059789124e-06,1.5624296424270505e-06,2.261257751965428e-06,2.7289332160186454e-06,3.208503892152937e-06,2.1665714165673298e-06,1.7394729428525712e-06,3.0844130600348893e-06,6.040974399586951e-06,1.1677598364062961e-06,1.5898272303278307e-06,4.414032071701365e-06,4.363827838496544e-05,1.7788138783368972e-06,1.1511138109045547e-06
33,1.406651101410887e-06,1.5014231457800616e-06,1.5457253012915736e-06,2.2736716591858917e-06,2.7765241553221843e-06,3.2022355609015487e-06,2.093364652948638e-06,1.7244128127595332e-06,3.0856559180417794e-06,5.7083333240540375e-06,1.1636644285214418e-06,1.5475776436632748e-06,4.415645875356914e-06,4.20428396063312e-05,1.7303699532521983e-06,1.149890364814712e-06
34,1.4249260249557514e-06,1.4782741028381643e-06,1.5301756089015198e-06,2.2797595442344472e-06,2.8245289008788687e-06,3.193031517586408e-06,2.019162950649217e-06,1.7121710737054483e-06,3.0820309183925037e-06,5.372741191576978e-06,1.1579178526421125e-06,1.505962288243898e-06,4.406623166725009e-06,4.0480173208740135e-05,1.679248806377229e-06,1.1528266055833199e-06
35,1.444428020274987e-06,1.4528782055282465e-06,1.5159875240737614e-06,2.279755655280788e-06,2.8721800423518067e-06,3.181614077354326e-06,1.945567317558851e-06,1.701822559432019e-06,3.0726816191190257e-06,5.037404683648227e-06,1.1509339237046382e-06,1.4657978757184695e-06,4.389734492294983e-06,3.895270144439095e-05,1.6257012948209109e-06,1.160184020812485e-06
36,1.4647469535034521e-06,1.42482066034685e-06,1.5033993290499094e-06,2.274187185151593e-06,2.9182064419331138e-06,3.169196956514477e-06,1.8742080638282344e-06,1.6926018408887485e-06,3.0569122955581178e-06,4.705028664781205e-06,1.143235859452609e-06,1.4279536511660627e-06,4.368247534211301e-06,3.7462057616530004e-05,1.5700674899866218e-06,1.171999629887277e-06
37,1.4854762785031163e-06,1.3936711717246054e-06,1.4927159916334602e-06,2.263683770543682e-06,2.961125517923024e-06,3.157461426837903e-06,1.8067461410319894e-06,1.6840548912606348e-06,3.0344516229303547e-06,4.378276337856683e-06,1.135335951681974e-06,1.3934194091841825e-06,4.346074262120244e-06,3.601034976456207e-05,1.5129004213006405e-06,1.1880748235016605e-06
38,1.5061708593769804e-06,1.3591862605435753e-06,1.4842484482209514e-06,2.248903957180408e-06,2.999726829162804e-06,3.1483382986731182e-06,1.7447221788996722e-06,1.6760987627082694e-06,3.0055269612324827e-06,4.0601312383833895e-06,1.1276439343854412e-06,1.3632133904872538e-06,4.327305568191774e-06,3.459927748293201e-05,1.4550244801088763e-06,1.20798181830684e-06
39,1.5262712886228533e-06,1.3215600584661592e-06,1.4781723470792506e-06,2.2304783181697873e-06,3.0333873901604245e-06,3.143657149754872e-06,1.689419779798621e-06,1.6689634098367112e-06,2.970663074883733e-06,3.753888986761808e-06,1.1204688762933945e-06,1.3382533435753823e-06,4.315690132351207e-06,3.322835666434896e-05,1.3974831853868364e-06,1.2311458794241944e-06
40,1.5451044573677394e-06,1.2815421366414806e-06,1.474481302304325e-06,2.2088761299104442e-06,3.0618962310344563e-06,3.144818556998431e-06,1.6418345332981631e-06,1.6630867930558926e-06,2.9304296496305498e-06,3.46287052750049e-06,1.114055209319514e-06,1.3192715251490458e-06,4.314508406134624e-06,3.1893891178683706e-05,1.3413649712860164e-06,1.2570350746668823e-06
41,1.5620127423612287e-06,1.2403180884417285e-06,1.4730504020454567e-06,2.1842967277919475e-06,3.0849740866182366e-06,3.152623982888215e-06,1.602664657758831e-06,1.6590109518523419e-06,2.8852762095664996e-06,3.1900597828451015e-06,1.1085881246454052e-06,1.3067708242090185e-06,4.3266391011787185e-06,3.0590390809407e-05,1.2876093829487952e-06,1.2853465515479359e-06
42,1.57651575591293e-06,1.1992446449273965e-06,1.473734281303563e-06,2.1567116215632644e-06,3.101909518117718e-06,3.1672780033381128e-06,1.5722825674483796e-06,1.6572528946212527e-06,2.8353732905925214e-06,2.9378352993328123e-06,1.104196668808932e-06,1.3010371878391973e-06,4.354546180107252e-06,2.9314241048489367e-05,1.2369132763833085e-06,1.3160175855302125e-06
43,1.5883178558360003e-06,1.159610422554229e-06,1.4764462071284212e-06,2.1259866747206063e-06,3.1114935935201876e-06,3.188507853427366e-06,1.5507330727097045e-06,1.6581866937536704e-06,2.7805273376589064e-06,2.7078742041763916e-06,1.1009651743540515e-06,1.3021913934699273e-06,4.400258562954452e-06,2.8067051579939898e-05,1.1897645038418365e-06,1.3490501188340655e-06
44,1.5972607000594728e-06,1.1225140154649162e-06,1.48116083768114e-06,2.091971198045051e-06,3.1122791591950227e-06,3.2157332868997428e-06,1.5377524727871957e-06,1.6619945685429391e-06,2.7203865370944632e-06,2.5011752503105414e-06,1.0989227112240278e-06,1.3102305306855166e-06,4.465515031257572e-06,2.6856885488149983e-05,1.146528030890989e-06,1.3843139312451951e-06
45,1.6034170229844891e-06,1.0888371264167134e-06,1.487821920065635e-06,2.0545529388468482e-06,3.1031267709855943e-06,3.2481785283305225e-06,1.5327755736195038e-06,1.6686292053122936e-06,2.654907811777254e-06,2.31812832181724e-06,1.0980534272066642e-06,1.3250898558368488e-06,4.5519211224044165e-06,2.569733200813427e-05,1.1074901926440044e-06,1.4214805243234098e-06
46,1.6071440375379398e-06,1.0592418487660464e-06,1.4962096320457946e-06,2.0137117529161137e-06,3.0837796426236768e-06,3.284814201947612e-06,1.534932614266089e-06,1.6777454410338015e-06,2.584703543784576e-06,2.1586213496651273e-06,1.098354678046997e-06,1.3467482941439096e-06,4.660830319585675e-06,2.4604918202056797e-05,1.0728490664325353e-06,1.4601190762067124e-06
47,1.6089275770298608e-06,1.034169136212037e-06,1.5058704127238139e-06,1.9695943248068344e-06,3.055129419394659e-06,3.324175049131344e-06,1.5430536806551946e-06,1.6886513784545603e-06,2.5109095152288267e-06,2.022155993985831e-06,1.09986851627705e-06,1.3752923504808784e-06,4.7930085847889344e-06,2.3595889819444656e-05,1.0426986310963318e-06,1.4998438749498993e-06
48,1.6092145977305656e-06,1.0138801081205717e-06,1.5161815487203841e-06,1.9226082101778633e-06,3.0190396062575337e-06,3.364288921254956e-06,1.5556953994660864e-06,1.7003035759016808e-06,2.434733412932414e-06,1.9079024302763616e-06,1.1026681081013922e-06,1.4108942510933196e-06,4.9483797011652365e-06,2.26836918583971e-05,1.0170567139962615e-06,1.540357246275714e-06
49,1.6084502106533162e-06,9.985319814057132e-07,1.5265015556542645e-06,1.8734573206355008e-06,2.977842711412162e-06,3.4028542311542656e-06,1.5712111590503652e-06,1.7113360998797625e-06,2.3571425211216397e-06,1.8147010523548634e-06,1.1068437054088437e-06,1.4537398974908678e-06,5.126021351183147e-06,2.1877721619761607e-05,9.95932046083251e-07,1.5814440991020749e-06
50,1.6072815159359568e-06,9.88201105729742e-07,1.5362568469078448e-06,1.8230316549801493e-06,2.9338061887352925e-06,3.437523837906061e-06,1.5879316116072626e-06,1.720138560630817e-06,2.278884168123534e-06,1.7410725338189245e-06,1.112497339050031e-06,1.503915365635599e-06,5.324295005301233e-06,2.1183001598411233e-05,9.79337829162531e-07,1.623026458720562e-06
51,1.60666903284759e-06,9.828446338355986e-07,1.5448859317300004e-06,1.7722322465542541e-06,2.888859945788033e-06,3.4661569925098077e-06,1.6044970327737552e-06,1.725052879604186e-06,2.200758643228427e-06,1.6852480678884122e-06,1.119742342726283e-06,1.5612956019321403e-06,5.540832830073184e-06,2.0600252237475067e-05,9.67224081622633e-07,1.665158598115488e-06
52,1.6077213513327553e-06,9.822968698754114e-07,1.5517731555646837e-06,1.721915833752371e-06,2.844601210251557e-06,3.487092007671314e-06,1.6201996698950387e-06,1.724742479725691e-06,2.123849517578096e-06,1.6452636468092555e-06,1.1286869842166622e-06,1.625513734412379e-06,5.772370658625987e-06,2.0126370803733113e-05,9.594085617227066e-07,1.7079866869958357e-06
53,1.6114043998943623e-06,9.863449768139395e-07,1.5563197800642479e-06,1.672939778023954e-06,2.8023554223470285e-06,3.499451219233143e-06,1.6350700360146185e-06,1.7186035901363042e-06,2.049420409339617e-06,1.61913159320725e-06,1.1393897503003064e-06,1.6959877934282165e-06,6.014745760013017e-06,1.9755534138841213e-05,9.55547402186897e-07,1.7518614667457827e-06
54,1.6183699361490077e-06,9.948222684064315e-07,1.5580368581298688e-06,1.6261587403606283e-06,2.7631488559739326e-06,3.5033290119684914e-06,1.6496107266797147e-06,1.7069196584321224e-06,1.978643141884376e-06,1.6049352435148373e-06,1.1518255041663466e-06,1.7719257179641805e-06,6.263203844880179e-06,1.9480308072094883e-05,9.55142617238958e-07,1.7974490086844886e-06
55,1.628931908058688e-06,1.007619780032918e-06,1.556510991681147e-06,1.5824074863141613e-06,2.727632804969989e-06,3.4997546972874146e-06,1.6643914145883344e-06,1.690609215839766e-06,1.9124835897078523e-06,1.6007894135229912e-06,1.1658992979676208e-06,1.8522924797486782e-06,6.5126793354965845e-06,1.9291664275774427e-05,9.575756061385773e-07,1.8455962974768183e-06
56,1.6430906702386325e-06,1.0246058491034022e-06,1.5513875739211384e-06,1.5425192527312175e-06,2.6960761321446657e-06,3.4905008544091514e-06,1.6797795306472423e-06,1.6707986967471316e-06,1.8517258572018404e-06,1.6047877702801887e-06,1.181485441122014e-06,1.9357731040134323e-06,6.7577703340977375e-06,1.9177919365093315e-05,9.621563410118015e-07,1.8970972019859266e-06
57,1.660568619157304e-06,1.0455752433685661e-06,1.5425207377873826e-06,1.507292706685266e-06,2.6684752272617272e-06,3.4778724227313197e-06,1.6958633028814265e-06,1.6485461536546228e-06,1.7969667558242225e-06,1.6149617602386534e-06,1.1984641386085406e-06,2.0207767410935573e-06,6.992809354907576e-06,1.912375850971823e-05,9.681989199864788e-07,1.952612426635425e-06
58,1.6808867700069833e-06,1.0702856028718243e-06,1.530138507416778e-06,1.477412794291066e-06,2.6446913605192933e-06,3.46451044290458e-06,1.7124893723001767e-06,1.624744376371095e-06,1.7485383542342934e-06,1.6292626930556002e-06,1.2167709003596466e-06,2.105519016802362e-06,7.212361387598037e-06,1.911011115624532e-05,9.750940387550074e-07,2.0127301345345693e-06
59,1.7034423082187727e-06,1.0984805189261564e-06,1.5148302901479693e-06,1.4534139977624336e-06,2.624548306145857e-06,3.453128829451494e-06,1.729375614560314e-06,1.600082711850115e-06,1.70642240211832e-06,1.6456841352488874e-06,1.2364307958068545e-06,2.1881727755454482e-06,7.411674179120898e-06,1.9114681270938298e-05,9.823060304363606e-07,2.0780185569568607e-06
60,1.7275021625587036e-06,1.1298637430540507e-06,1.497369776714389e-06,1.4357144990258437e-06,2.607948829131249e-06,3.4461784717783226e-06,1.7462658420242237e-06,1.575065644377771e-06,1.670238741659753e-06,1.6625078117689147e-06,1.2575051310506338e-06,2.267038956551495e-06,7.5866719861778265e-06,1.9113211714715513e-05,9.89312714525828e-07,2.149019127398944e-06
61,1.7521495335849058e-06,1.1640844223536983e-06,1.4785241243497058e-06,1.42467597986869e-06,2.5949499669501657e-06,3.445642279898e-06,1.7630453122184692e-06,1.5500947424749756e-06,1.6393013471063755e-06,1.678439030294212e-06,1.2799757894451346e-06,2.3407113956998735e-06,7.733777222878959e-06,1.908237970029895e-05,9.95608430160216e-07,2.2261932893422797e-06
62,1.7762448491980812e-06,1.200724941397311e-06,1.4589737225557164e-06,1.4205931863050742e-06,2.5856521188407016e-06,3.4530933368150973e-06,1.7797322937755087e-06,1.525525762643593e-06,1.6126962807479776e-06,1.6924614350734203e-06,1.3036850210310811e-06,2.4082009636276653e-06,7.84997456469435e-06,1.900370707915311e-05,1.000789973478672e-06,2.3098159584716296e-06
63,1.7983929798851518e-06,1.2392977781789308e-06,1.4393116165204233e-06,1.4236173200032837e-06,2.5800822248790194e-06,3.4698447654417496e-06,1.7963290503002046e-06,1.5016408195345935e-06,1.5894172961470932e-06,1.7035304904897997e-06,1.3283647672654439e-06,2.468935194985346e-06,7.933103925345763e-06,1.886513115987639e-05,1.0045926217448601e-06,2.399845353169346e-06
64,1.81703282923505e-06,1.279271039243959e-06,1.420045189710039e-06,1.4337390534901795e-06,2.578271507230889e-06,3.497000752234215e-06,1.8126317914554198e-06,1.4785781300102876e-06,1.5685546406273229e-06,1.710366361209924e-06,1.3536559420155275e-06,2.5226395396692024e-06,7.981884212593798e-06,1.865876884814506e-05,1.0068524889461573e-06,2.4958591028408295e-06
65,1.8307725292134878e-06,1.320055397457332e-06,1.4016443432379833e-06,1.450875920174403e-06,2.580294502972849e-06,3.5354144983460743e-06,1.8281489738707922e-06,1.4563078296571634e-06,1.5493994078160273e-06,1.7114827707978769e-06,1.3790553337337132e-06,2.569276364342544e-06,7.995329038896819e-06,1.837903504508383e-05,1.007527325823202e-06,2.597092828361662e-06
66,1.8387596914805094e-06,1.36096821408049e-06,1.3846532785753139e-06,1.474984891845942e-06,2.5861622560877685e-06,3.5856312935281e-06,1.8421743593501083e-06,1.4347112637689396e-06,1.5313933291117142e-06,1.7054244343629449e-06,1.4038595278568416e-06,2.609171054435114e-06,7.97214916594314e-06,1.80246152827718e-05,1.0067626805733091e-06,2.7024965946249143e-06
67,1.840730420802408e-06,1.401284238033906e-06,1.3697502725663633e-06,1.5061144718281748e-06,2.5958475838976416e-06,3.647876111777605e-06,1.8539358624443228e-06,1.413734785660976e-06,1.5140034711378629e-06,1.6910843164143984e-06,1.4271807104948392e-06,2.6432031180441076e-06,7.910947426300833e-06,1.7601319225436083e-05,1.004850940940275e-06,2.8107192821746716e-06
68,1.8367269886488636e-06,1.4403505252683485e-06,1.3577222270528087e-06,1.5443517917711167e-06,2.609500459639693e-06,3.7220837895280283e-06,1.862753978324953e-06,1.3935281588424682e-06,1.4966144569528144e-06,1.667891211348694e-06,1.448031539677336e-06,2.672794220583094e-06,7.8109925920109e-06,1.712214898023228e-05,1.0021045506589108e-06,2.9200716608340944e-06
69,1.8268593913349062e-06,1.4776571950178126e-06,1.3494444638901605e-06,1.5896778975734792e-06,2.627578674118315e-06,3.8078708837730132e-06,1.8682162149025019e-06,1.3745087505368619e-06,1.4785383506446153e-06,1.6357324525004737e-06,1.4654564142183554e-06,2.6995788264079057e-06,7.672903151083506e-06,1.6605196872223637e-05,9.988114382862125e-07,3.028594884162074e-06
70,1.8113274249286034e-06,1.5128310367890305e-06,1.3458758205875985e-06,1.6418235104709482e-06,2.6507175242018995e-06,3.904365669222422e-06,1.8703423237326378e-06,1.357323235099314e-06,1.4592148839406754e-06,1.5947181515527017e-06,1.4786833851182605e-06,2.7249555819239633e-06,7.499066302566231e-06,1.6071149734693885e-05,9.95276692416359e-07,3.1342433994677015e-06
71,1.790474570891082e-06,1.545587526926235e-06,1.3479902877289897e-06,1.7002226283584927e-06,2.6794687531464164e-06,4.009974501059171e-06,1.8696299621144874e-06,1.3427001917406147e-06,1.4384736884605663e-06,1.5449983986773038e-06,1.487244956829804e-06,2.749809519253973e-06,7.29377504426753e-06,1.5540954112070594e-05,9.918157861415236e-07,3.235037276991018e-06
72,1.7646930140878232e-06,1.5757000962862346e-06,1.3566394925993251e-06,1.7640614878746368e-06,2.7141201942418747e-06,4.1222376823195984e-06,1.866918497751881e-06,1.331296531531821e-06,1.4166102936264466e-06,1.4867670794659012e-06,1.4909943401831294e-06,2.774490324742961e-06,7.0628887232919185e-06,1.5033869966033045e-05,9.887163010528717e-07,3.3290168200427915e-06
73,1.7343125446823755e-06,1.603032115562625e-06,1.3724340285185364e-06,1.8323392583221289e-06,2.754595818236678e-06,4.237852727534438e-06,1.863180548436203e-06,1.3236569075287645e-06,1.3942135440461067e-06,1.4204322352716944e-06,1.4899845904214702e-06,2.7989335117104914e-06,6.81296394848307e-06,1.4566339656985478e-05,9.862446380096745e-07,3.413998390082642e-06
74,1.6995877986516025e-06,1.627599198361655e-06,1.39569680170473e-06,1.9039141852680444e-06,2.8003581009109716e-06,4.352873189425638e-06,1.859410912948351e-06,1.320256646032052e-06,1.3719499653387903e-06,1.3467624064585235e-06,1.48433560615761e-06,2.8227889384456564e-06,6.550215355449139e-06,1.415168167453182e-05,9.846412033323765e-07,3.4873846454463185e-06
75,1.660805560175219e-06,1.6495476071864636e-06,1.4264631392909923e-06,1.977586916276784e-06,2.85034950385879e-06,4.463044907702737e-06,1.8566196925671453e-06,1.3215527741564084e-06,1.3504999237926615e-06,1.2668835757125257e-06,1.4742341923807394e-06,2.845519659383813e-06,6.279846197629538e-06,1.3800238425424513e-05,9.840966778115899e-07,3.5462638833517052e-06
76,1.6184461245208137e-06,1.6690004231013343e-06,1.464507616444072e-06,2.052155369268053e-06,2.903033106819481e-06,4.5642027182260055e-06,1.855780220703996e-06,1.328007920125879e-06,1.3305640207489304e-06,1.1821769154634199e-06,1.4599884459220438e-06,2.866472783493849e-06,6.005859732761582e-06,1.351981011254422e-05,9.84764442211074e-07,3.5877516545059022e-06
77,1.573186749372019e-06,1.685894476776754e-06,1.5094120382102015e-06,2.1263172392842565e-06,2.956497262985139e-06,4.652673845237258e-06,1.85767508295488e-06,1.3400461272011284e-06,1.312778639913394e-06,1.0941502251029181e-06,1.4419910064026478e-06,2.8848750949910834e-06,5.731019294767253e-06,1.3316218762250035e-05,9.867802505448234e-07,3.6094485934022137e-06
78,1.5257168971994424e-06,1.6999203072693998e-06,1.5606481759412115e-06,2.1985470607396912e-06,3.0085069043365335e-06,4.725663978449385e-06,1.8627538969149703e-06,1.3579479627482986e-06,1.2976034270844912e-06,1.0043935166164905e-06,1.4206082690426522e-06,2.899785165638163e-06,5.45683861050129e-06,1.3193800703358643e-05,9.90262523833429e-07,3.609955612595969e-06
79,1.47662800176366e-06,1.7105349733857395e-06,1.617600673841654e-06,2.2671886390154203e-06,3.056523669480789e-06,4.781555393589609e-06,1.871083412542745e-06,1.3817819544723878e-06,1.285312105894268e-06,9.146723350980625e-07,1.3961318860770083e-06,2.910168628717242e-06,5.183799476423905e-06,1.3155850698468515e-05,9.95292280638394e-07,3.58929436524684e-06
80,1.4264946339503484e-06,1.7170295834884065e-06,1.6795253561755326e-06,2.3307375025286734e-06,3.097893330559684e-06,4.81998069805298e-06,1.882341169755868e-06,1.4114687382420497e-06,1.2760522614136635e-06,8.270064308658225e-07,1.3688940849360877e-06,2.9151811880316087e-06,4.9118725326485615e-06,1.320508449849449e-05,1.0018859269216452e-06,3.5489732856638504e-06
81,1.3759563609204425e-06,1.718680239424032e-06,1.7455352400861303e-06,2.388069321407084e-06,3.1302118237347963e-06,4.841517700319762e-06,1.8957986883384244e-06,1.4469287111390031e-06,1.2698668983181721e-06,7.436097265682675e-07,1.3394412646198443e-06,2.9144984994711646e-06,4.64117106193842e-06,1.3343967130817296e-05,1.0099887462004689e-06,3.4915474039188495e-06
82,1.3256753192141733e-06,1.7149408632881525e-06,1.814667342136265e-06,2.4384599299076274e-06,3.1516126945314066e-06,4.84704945655816e-06,1.910328099031874e-06,1.4881253936352979e-06,1.2666565111119204e-06,6.667874907632801e-07,1.3085399845825251e-06,2.9084274766364704e-06,4.372506581518721e-06,1.3574540518647782e-05,1.019450363620245e-06,3.4199148205722153e-06
83,1.2762802340898264e-06,1.7055877749398465e-06,1.885956470738724e-06,2.4814565969501753e-06,3.160823832816323e-06,4.8372488580148875e-06,1.924518159960998e-06,1.5349398560483938e-06,1.2661553974386268e-06,5.989369730818791e-07,1.277012589713642e-06,2.8977163683751834e-06,4.107668609538216e-06,1.38976014557274e-05,1.0299758978980218e-06,3.3369124930937234e-06
84,1.22836768930746e-06,1.6907670575303947e-06,1.9584078284323648e-06,2.5167557557955095e-06,3.1570837338054877e-06,4.812514092363818e-06,1.9369207881831506e-06,1.5870334296659477e-06,1.267977541305484e-06,5.426144945106624e-07,1.2456191525773646e-06,2.8832335783120086e-06,3.849321038866087e-06,1.4311719664403593e-05,1.0411494597974345e-06,3.2453979797490696e-06
85,1.1825303920557596e-06,1.6709556344744305e-06,2.0308803711835736e-06,2.544161050070776e-06,3.1399586251361133e-06,4.772993641174285e-06,1.946314893532957e-06,1.6438175402042003e-06,1.2716781531452336e-06,5.005128010026003e-07,1.2150578264219807e-06,2.8657094131802534e-06,3.600542094351192e-06,1.4812657977330256e-05,1.0525349979423655e-06,3.1483930944646792e-06
86,1.1394227372942153e-06,1.6468520714125016e-06,2.102016575441537e-06,2.563550117946434e-06,3.1090517839731525e-06,4.718372867209921e-06,1.951848774337643e-06,1.7044667923797918e-06,1.2767454191352965e-06,4.7535267973606486e-07,1.185966801682235e-06,2.8455787462767067e-06,3.3642437611944298e-06,1.539315901388299e-05,1.0637322509497795e-06,3.0489656490292283e-06
87,1.0998032143719788e-06,1.619201030635452e-06,2.1703141520343246e-06,2.5747457071242042e-06,3.063884713156549e-06,4.6477610926731325e-06,1.953039792998827e-06,1.7678954081560778e-06,1.2825277087284184e-06,4.698239441529154e-07,1.158878482696922e-06,2.8229254638029125e-06,3.1427997565864646e-06,1.6042947433075102e-05,1.074372694580251e-06,2.9499610654543123e-06
88,1.0644570436581125e-06,1.5886049123570015e-06,2.2342799236773194e-06,2.577357489542781e-06,3.0041953674361963e-06,4.560078294725181e-06,1.949704804387521e-06,1.8327124904031784e-06,1.288186018017432e-06,4.866223349249227e-07,1.1341667330609205e-06,2.7975737487310404e-06,2.9379659073041392e-06,1.674916326384643e-05,1.084174022014923e-06,2.8537761854357133e-06
89,1.0340696685891718e-06,1.5554152617690038e-06,2.2925111552342224e-06,2.5708179987794383e-06,2.930388074145006e-06,4.454781710066646e-06,1.9418948835848663e-06,1.8971902800493775e-06,1.2927729197814913e-06,5.285572622904819e-07,1.1120036927502562e-06,2.7692567511958372e-06,2.7508969038096713e-06,1.749739674662651e-05,1.093068698066317e-06,2.7622538876523605e-06
90,1.0091560177421864e-06,1.519750340125498e-06,2.3436175641904304e-06,2.5546753254320936e-06,2.8437799605709522e-06,4.332405290492989e-06,1.9298711421175886e-06,1.9592803965392594e-06,1.2954597172270838e-06,5.98651018053221e-07,1.0923383074370307e-06,2.7377295298096935e-06,2.5821578417195984e-06,1.827300483974601e-05,1.1012832576826009e-06,2.6766731204642287e-06
91,9.900373755255043e-07,1.4815837109486734e-06,2.386112285643799e-06,2.5289073318185473e-06,2.746534622352109e-06,4.194547394157577e-06,1.9141081394615923e-06,2.016734069391398e-06,1.295787357477328e-06,7.001260508880746e-07,1.0749329981185786e-06,2.702841439075456e-06,2.431779514750787e-06,1.906204227337406e-05,1.1092753007857716e-06,2.597760391256209e-06
92,9.76846968601532e-07,1.440826265093486e-06,2.4185280297146245e-06,2.4940211543844835e-06,2.64130364842173e-06,4.043420777643445e-06,1.8952797784242077e-06,2.067339023041201e-06,1.2937589905174184e-06,8.363403685719657e-07,1.0594662887300224e-06,2.6646362110606556e-06,2.2993663370416e-06,1.9851361388656607e-05,1.1175576958534533e-06,2.525698438293658e-06
93,9.69572326944964e-07,1.397447340197935e-06,2.43977825661051e-06,2.4509682050922373e-06,2.5308435976453087e-06,3.881420586571784e-06,1.8742165415927716e-06,2.1092107240318573e-06,1.2897101277628054e-06,1.0107702469979338e-06,1.0456346675373675e-06,2.6234399006111936e-06,2.184230340123177e-06,2.0628021355352097e-05,1.1265330471885572e-06,2.4601497411095077e-06
94,9.681103691044655e-07,1.351657433779103e-06,2.44945236960103e-06,2.4010414096602585e-06,2.4178803059177714e-06,3.711020974221472e-06,1.8518527803668544e-06,2.141002764730271e-06,1.2840606008411032e-06,1.22696046414194e-06,1.033164317739609e-06,2.579874676116252e-06,2.0854734957625675e-06,2.1378541532115744e-05,1.1364120587344669e-06,2.4003446475286536e-06
95,9.722899822647262e-07,1.3040014543556536e-06,2.447827700953837e-06,2.345794478761754e-06,2.305063182039914e-06,3.5348844338169366e-06,1.8291413775190472e-06,2.161861324341673e-06,1.2771143520576207e-06,1.4883981031733773e-06,1.0217463160119141e-06,2.534786089622467e-06,2.0019563249523475e-06,2.2088633517800227e-05,1.1471938853244775e-06,2.345266693575106e-06
96,9.81863631132649e-07,1.2552850084789515e-06,2.4357329171495798e-06,2.28689798718151e-06,2.1948044640160447e-06,3.355897616243211e-06,1.8069302522860812e-06,2.171152386192895e-06,1.2690281945390732e-06,1.7984066033738769e-06,1.0110290405915884e-06,2.4890657431688555e-06,1.9322787677937117e-06,2.2743897486869035e-05,1.1587093750459035e-06,2.2938351883200164e-06
97,9.96496575933919e-07,1.2064327284390372e-06,2.4144424389371747e-06,2.225913383029404e-06,2.0891340277614453e-06,3.177000376125267e-06,1.7859001367671535e-06,2.1683449405866644e-06,1.2599728009539073e-06,2.1600856806212466e-06,1.0007485994142053e-06,2.44340580536753e-06,1.8748960196383197e-06,2.3331301440932532e-05,1.1707258780654633e-06,2.2449481108574863e-06
98,1.0157445140663269e-06,1.158351124788872e-06,2.385542959687596e-06,2.1640835667713112e-06,1.9896918868197197e-06,3.0008898008076122e-06,1.7666088321597928e-06,2.1532923383405065e-06,1.2503576973478043e-06,2.576272945729398e-06,9.908917524004709e-07,2.3981642170712184e-06,1.828265555412008e-06,2.38404782403672e-05,1.1830258380115218e-06,2.197382851201258e-06
99,1.0390280764682003e-06,1.1118087734502834e-06,2.3506786995781747e-06,2.102255013363102e-06,1.897765642624036e-06,2.829831728571173e-06,1.7495227160025347e-06,2.1265888271873916e-06,1.2409097380762357e-06,3.0495730292600945e-06,9.817285042271951e-07,2.353484081822846e-06,1.7909306971391437e-06,2.426401341116174e-05,1.19542397199224e-06,2.149710563103347e-06
100,1.0656673169241655e-06,1.0673799958826584e-06,2.3112696062853623e-06,2.040977292872195e-06,1.8143079411357993e-06,2.6656891100648656e-06,1.7349634760890136e-06,2.0896076472032305e-06,1.2325569701228935e-06,3.5824199896317995e-06,9.736887962978798e-07,2.309600141401229e-06,1.7616312108835252e-06,2.4596792903444792e-05,1.207804444289338e-06,2.1003977230676417e-06
101,1.094979844216038e-06,1.0254926311375887e-06,2.268349673406121e-06,1.9807230468543135e-06,1.7399941043400175e-06,2.5099855832985846e-06,1.7230531488995134e-06,2.0442486233902833e-06,1.2262786451729747e-06,4.177016666725476e-06,9.671955650393652e-07,2.2671603296241706e-06,1.7394838537006127e-06,2.4834887177721583e-05,1.2201648195290425e-06,2.048087806831241e-06
102,1.1263380812684344e-06,9.865339132278352e-07,2.2225967152693075e-06,1.9220933922140752e-06,1.6753098522001857e-06,2.3638578086079335e-06,1.7137263382256591e-06,1.992608211033249e-06,1.223039118472437e-06,4.835140228803313e-06,9.625808559611709e-07,2.2273857518200856e-06,1.72404546545507e-06,2.4974030540046635e-05,1.2325696333692392e-06,1.991898585786644e-06
103,1.159138616132886e-06,9.509124023207212e-07,2.1745208973852454e-06,1.8658713271777044e-06,1.6205750903159865e-06,2.2279936906682195e-06,1.7068027376218532e-06,1.9366918363262276e-06,1.2237923478649963e-06,5.5579785388892955e-06,9.600980710389144e-07,2.1919440076306404e-06,1.7150924025245564e-06,2.5008062502106974e-05,1.2450599621166216e-06,1.9315612648023684e-06
104,1.1927940696058401e-06,9.190240136474354e-07,2.124645597725796e-06,1.8128920374177567e-06,1.5759473072728765e-06,2.1026818183937375e-06,1.70210556159079e-06,1.8782438721953753e-06,1.229487327050203e-06,6.346043780506331e-06,9.59931251095454e-07,2.1626021288657146e-06,1.7123272671758282e-06,2.4929259178520413e-05,1.2576147148178838e-06,1.8673154161956114e-06
105,1.2268276394301261e-06,8.911666538247831e-07,2.0735397263797817e-06,1.7638823897011482e-06,1.5414834543860697e-06,1.987965613607205e-06,1.6995786117024391e-06,1.8187100752147066e-06,1.2410023996336268e-06,7.199045890350702e-06,9.62151952693778e-07,2.140887518511509e-06,1.7153765211788258e-06,2.4731835034658696e-05,1.2701679697437564e-06,1.7996743176168386e-06
106,1.261000424046945e-06,8.674791834296301e-07,2.0217543657649294e-06,1.7194510829237902e-06,1.5171685489979404e-06,1.883772862660846e-06,1.6993569566518235e-06,1.7592319320066213e-06,1.259046854439051e-06,8.115667602148931e-06,9.66671918018612e-07,2.127907746050939e-06,1.724028974018106e-06,2.441639516861672e-05,1.2826809430356072e-06,1.7293062251402855e-06
107,1.2953848664763238e-06,8.47936881724956e-07,1.9697934239866453e-06,1.6801968410815965e-06,1.5028551362119195e-06,1.7898964993923714e-06,1.7017966367798728e-06,1.7006229492645413e-06,1.2841131957458284e-06,9.09329101862907e-06,9.732247997326286e-07,2.1243142344704674e-06,1.7383189780790146e-06,2.399195702199212e-05,1.2952169856932685e-06,1.6570929929786163e-06
108,1.330337610894005e-06,8.323984202896755e-07,1.918120528601706e-06,1.6467681262288713e-06,1.4982188160916356e-06,1.7058856902641676e-06,1.7074268113168372e-06,1.6433996354035892e-06,1.3164722799324015e-06,1.0127734676327249e-05,9.81379598157714e-07,2.130366238393734e-06,1.7583178105064761e-06,2.3474574946674497e-05,1.307935178508862e-06,1.5841642674978854e-06
109,1.3663517535060604e-06,8.206947326213088e-07,1.867112174984862e-06,1.6198095619059437e-06,1.502774050147266e-06,1.6310191065641667e-06,1.7167862794006069e-06,1.5879241981148466e-06,1.3562002397870924e-06,1.1213028555485417e-05,9.906222778130382e-07,2.14604469993365e-06,1.7838994705937207e-06,2.288382666319623e-05,1.3210563181072787e-06,1.5117717693707083e-06
110,1.403862239715702e-06,8.127271176883851e-07,1.8169844252720092e-06,1.5998440521110346e-06,1.5158789762652631e-06,1.564425527283111e-06,1.7302317494318958e-06,1.5345784534705986e-06,1.4032306140747668e-06,1.2341200312704872e-05,1.0005041731958147e-06,2.1711014186761476e-06,1.8147194730966405e-06,2.2239059195635113e-05,1.3348483831609271e-06,1.4411243740730949e-06
111,1.4431186266386912e-06,8.085108111786368e-07,1.7677764562774236e-06,1.5871590913805678e-06,1.5367258513140424e-06,1.505280832015085e-06,1.747852635677694e-06,1.4837981035468145e-06,1.4573718507915559e-06,1.3502002027031467e-05,1.0107285434225549e-06,2.205001971527335e-06,1.85036431302962e-06,2.15572500941099e-05,1.349557456125618e-06,1.3733168451389903e-06
112,1.4841335116944415e-06,8.081391160867904e-07,1.7193677294945e-06,1.581743287267515e-06,1.5643675919743093e-06,1.452981925895699e-06,1.7695082905976846e-06,1.4359624801388992e-06,1.5183000835145762e-06,1.4682589466698976e-05,1.0210786368281035e-06,2.246843513811999e-06,1.8904651655343612e-06,2.085323639000512e-05,1.3652970577324392e-06,1.3092988517657627e-06
113,1.5266468059306948e-06,8.117178545724191e-07,1.6715600305830846e-06,1.5832653538381812e-06,1.5977433993722038e-06,1.407239816772146e-06,1.7948854780528587e-06,1.3912977763698335e-06,1.5855964473514158e-06,1.586745945047267e-05,1.0312839927553015e-06,2.2953146943947724e-06,1.934634669364566e-06,2.0140841729546127e-05,1.3819906959812126e-06,1.2498087915392818e-06
114,1.5701137112941084e-06,8.193238620038896e-07,1.6242659321687916e-06,1.5910639749998215e-06,1.635685136487312e-06,1.3680651827219836e-06,1.823507621045802e-06,1.3498559231974352e-06,1.6587926995037872e-06,1.7039098502789913e-05,1.0409769124499921e-06,2.3487629430841157e-06,1.9823588643897856e-06,1.943289720210271e-05,1.3994083946857522e-06,1.1953188329683574e-06
115,1.6137877132693727e-06,8.309834966770456e-07,1.577622213103679e-06,1.6041661336135997e-06,1.676988078364868e-06,1.3356305709600762e-06,1.8547009362226655e-06,1.311560957515515e-06,1.7373474095351366e-06,1.8179343203691852e-05,1.0497676048971706e-06,2.4054199346997542e-06,2.033098083559952e-06,1.8740293839017083e-05,1.417306336742476e-06,1.1460600315340988e-06
116,1.6568952939307337e-06,8.466451530819496e-07,1.5318990974627967e-06,1.6213763785394515e-06,1.7205530510747114e-06,1.3100591050531057e-06,1.8875358583518776e-06,1.2763216929967802e-06,1.8205622856255525e-06,1.927085556814254e-05,1.0573431432320565e-06,2.463688276041773e-06,2.0865657737194163e-06,1.80713523960796e-05,1.4355862070249798e-06,1.1021114441576254e-06
117,1.698775815545125e-06,8.661660743757279e-07,1.4873705961920048e-06,1.6414267502865857e-06,1.7654804992743482e-06,1.2912582601467894e-06,1.920808269439711e-06,1.2441569345941406e-06,1.9074959743027024e-06,2.0298093162844434e-05,1.063481008963631e-06,2.5223220686623073e-06,2.142856499390892e-06,1.743170033502541e-05,1.4543204911853711e-06,1.0634614667750437e-06
118,1.738908736386962e-06,8.893424662126439e-07,1.4442884845672978e-06,1.663121210317431e-06,1.8110624843322395e-06,1.278858549464574e-06,1.9531490911008523e-06,1.2152675869500582e-06,1.996913827825512e-06,2.1247589143582035e-05,1.0680017715594394e-06,2.580436393420648e-06,2.202231775816344e-06,1.682441840678257e-05,1.4736770481305008e-06,1.0299909139935187e-06
119,1.7768720177738354e-06,9.159350607313221e-07,1.402877346888038e-06,1.6854158418801479e-06,1.8567384780242274e-06,1.2722109988741799e-06,1.9832519154109227e-06,1.1900322019233632e-06,2.087278274801456e-06,2.2107678594504377e-05,1.0707897096552048e-06,2.6374063854118555e-06,2.2647710551867687e-06,1.6250372964352567e-05,1.4939142866091481e-06,1.0014623190222038e-06
120,1.8122539732068533e-06,9.456369364591071e-07,1.3632885495207963e-06,1.7074190331605617e-06,1.9020277370860313e-06,1.2703966148147044e-06,2.01010328930543e-06,1.1689414817865859e-06,2.1768278860787434e-06,2.2867614841684194e-05,1.0718804027402989e-06,2.6927759069475816e-06,2.330167981126728e-06,1.57084541178959e-05,1.51540800434735e-06,9.775991563418037e-07
121,1.8445419748408177e-06,9.780224283067102e-07,1.3255978273799488e-06,1.7283039830276317e-06,1.9463964878359743e-06,1.2722767940259166e-06,2.0330544093017955e-06,1.1525201795499565e-06,2.263864056614885e-06,2.3516192058043626e-05,1.0714692131449998e-06,2.7462534508986035e-06,2.39770121691415e-06,1.5195970955892872e-05,1.5385477685980813e-06,9.581675584415594e-07
122,1.8730910572052174e-06,1.012517517469216e-06,1.2898768408462469e-06,1.7471589191773942e-06,1.989164367361269e-06,1.2766429271342727e-06,2.0516713283835322e-06,1.1412751893782475e-06,2.3471772443043163e-06,2.404162584522991e-05,1.0697929720656692e-06,2.797760952569176e-06,2.4663010080586823e-06,1.470961611225503e-05,1.5635532189007224e-06,9.429433495253245e-07
123,1.8971765387248686e-06,1.0483735290201465e-06,1.2562635642463306e-06,1.7629030203327531e-06,2.0295801069236764e-06,1.2824389209718508e-06,2.0656037432207778e-06,1.1356553636029343e-06,2.426231123822613e-06,2.443468241778063e-05,1.067005255021867e-06,2.8474341728475614e-06,2.5346448633429476e-06,1.4246860824257149e-05,1.5903574023825517e-06,9.316365408088496e-07
124,1.916042510470535e-06,1.0846604110688443e-06,1.2249929832497267e-06,1.7743652252547435e-06,2.066968208868259e-06,1.2889185804169368e-06,2.074728735734142e-06,1.1359934154542398e-06,2.500912451079768e-06,2.4693512175009485e-05,1.0631511682845653e-06,2.895493719357004e-06,2.60123366335308e-06,1.3807549058160333e-05,1.6185863623852678e-06,9.239123389932761e-07
125,1.9290233482748678e-06,1.1203319322715879e-06,1.1963972276332362e-06,1.7804642773591607e-06,2.1007953957309126e-06,1.2956212755124544e-06,2.07938567663785e-06,1.1424491573839507e-06,2.571193533793707e-06,2.4826189853110432e-05,1.058205350132789e-06,2.9420010294415504e-06,2.664432888422477e-06,1.3395104129951453e-05,1.6476293952106595e-06,9.194806293525014e-07
126,1.935767069470797e-06,1.1543531786412856e-06,1.170884876041965e-06,1.7804094525305545e-06,2.130672374647687e-06,1.302198954935146e-06,2.080374495710226e-06,1.1549801951160484e-06,2.636993285452795e-06,2.4849048296158748e-05,1.0520970865908665e-06,2.9866730226413796e-06,2.7224224107933787e-06,1.3016248129537711e-05,1.6767727529082224e-06,9.181319242390528e-07
127,1.936292460688881e-06,1.1858084360972964e-06,1.1489068969080824e-06,1.7738756403602302e-06,2.1563604608292084e-06,1.3082644357122464e-06,2.0787447590452277e-06,1.1733395073926084e-06,2.6981025337228298e-06,2.4782334337603766e-05,1.0447444778641263e-06,3.0289252820766878e-06,2.7730888219288857e-06,1.2679123451659955e-05,1.7052946695708784e-06,9.196887331000115e-07
128,1.9307842057978584e-06,1.2139150630042716e-06,1.1309005274733973e-06,1.7610480014623312e-06,2.17775883124526e-06,1.3134208360845722e-06,2.075634058710916e-06,1.1971439456071176e-06,2.7541936366904987e-06,2.464672822196641e-05,1.036116893164837e-06,3.068039886219684e-06,2.8141739323009165e-06,1.2391594031320926e-05,1.7324826493862352e-06,9.23929349094923e-07
129,1.9194359556924806e-06,1.2379693929316884e-06,1.1172103630615773e-06,1.742466852741395e-06,2.1948111433895843e-06,1.31743108451657e-06,2.0722560927392455e-06,1.226043648800343e-06,2.8050803439794534e-06,2.446276471397507e-05,1.0262284828343575e-06,3.1032071737528533e-06,2.8438575875471617e-06,1.2160968067514254e-05,1.757661391742402e-06,9.305684211275459e-07
130,1.902495341467257e-06,1.2573479110809622e-06,1.1080187868044316e-06,1.7187587529963882e-06,2.2074268825129506e-06,1.3203002626418155e-06,2.069896101512018e-06,1.2598604423337855e-06,2.850947851036943e-06,2.4251030327862385e-05,1.0150322543476892e-06,3.133389399123101e-06,2.861314323775067e-06,1.1994030891273735e-05,1.7802680577909913e-06,9.393580264416917e-07
131,1.8802885599213371e-06,1.271625192117279e-06,1.1033142775249073e-06,1.6904042286183652e-06,2.2155970355343553e-06,1.322143642633224e-06,2.069794713624694e-06,1.2985398093967193e-06,2.8922274314214604e-06,2.403068358333109e-05,1.0023577579032786e-06,3.157220734745743e-06,2.8666939176157115e-06,1.1896488314664196e-05,1.7999047734581127e-06,9.502535963621191e-07
132,1.8530976202761894e-06,1.2806911720885893e-06,1.1029097620531732e-06,1.6576466056694684e-06,2.2196456403411818e-06,1.322967919360287e-06,2.0730084155990137e-06,1.3419949422544234e-06,2.9293569870583104e-06,2.3817354361865327e-05,9.88015868048133e-07,3.173168130247869e-06,2.8607707596583226e-06,1.1872534659262477e-05,1.8163250853292651e-06,9.634790746321581e-07
133,1.8210762993473544e-06,1.284705336421956e-06,1.106488522982607e-06,1.620567238307829e-06,2.2203665454976726e-06,1.3225498197298542e-06,2.080362223393387e-06,1.3900090221339502e-06,2.9627406626995356e-06,2.3622062441466967e-05,9.72010715196464e-07,3.1799043452422686e-06,2.844803143071267e-06,1.1924813582333552e-05,1.8293376458390038e-06,9.794403749161458e-07
134,1.7844037245088548e-06,1.283926107531754e-06,1.1136316698909141e-06,1.5792640687765824e-06,2.2189143877813822e-06,1.320486350695645e-06,2.0924399783618563e-06,1.442191659699012e-06,2.9928175331563173e-06,2.345107342067394e-05,9.546526749048078e-07,3.1766384725189966e-06,2.8204881019532084e-06,1.2054212773574762e-05,1.8386458514369954e-06,9.986186207026901e-07
135,1.743584742160307e-06,1.278652153047174e-06,1.123850150079181e-06,1.5340376348316385e-06,2.2165210525126815e-06,1.3164125885087023e-06,2.109507888052983e-06,1.4979384623580193e-06,3.020100429950486e-06,2.330622871319045e-05,9.364725414466029e-07,3.163243873368381e-06,2.7897586664942032e-06,1.2259558757644099e-05,1.843776160112865e-06,1.0215111638587788e-06
136,1.6995955772152511e-06,1.2693702109991e-06,1.1366544822983459e-06,1.485504172281778e-06,2.2142123750169466e-06,1.3102981591906933e-06,2.1314045493087854e-06,1.556398672612792e-06,3.04521044465926e-06,2.3185446129886982e-05,9.180770075111167e-07,3.1402401387399427e-06,2.7546337664522514e-06,1.253765108064926e-05,1.8442037776183848e-06,1.048575180118231e-06
137,1.6537428260012206e-06,1.2568766476293284e-06,1.1515991357470653e-06,1.4345837027155092e-06,2.212657324433436e-06,1.3026603964980466e-06,2.15749196840301e-06,1.6164388331795155e-06,3.0689086635621704e-06,2.308344976319347e-05,9.000649703931818e-07,3.1087607153756914e-06,2.7171867971928028e-06,1.2883508138649925e-05,1.8395621229546493e-06,1.080163879116628e-06
138,1.6074008628248214e-06,1.2421663059568357e-06,1.1682488317244407e-06,1.3823638806522342e-06,2.212187057112064e-06,1.2945667514028712e-06,2.1866988220068295e-06,1.6766218993461397e-06,3.092070793628446e-06,2.2993144730190162e-05,8.829667763065007e-07,3.0705031585857016e-06,2.6793947873875844e-06,1.3290633617248706e-05,1.8298223191608198e-06,1.1164729179148506e-06
139,1.561815184885875e-06,1.2262228087772683e-06,1.1861301231416714e-06,1.3299029561627274e-06,2.2129845221930682e-06,1.2874245511812906e-06,2.2177036425725124e-06,1.7352657463882528e-06,3.1156078201690875e-06,2.2907386248893942e-05,8.671831234583983e-07,3.0275607478022677e-06,2.642883135637978e-06,1.3751515536118469e-05,1.8154271646334725e-06,1.1575174680263294e-06
140,1.5180131564459078e-06,1.2099132171619106e-06,1.2047591114175427e-06,1.2780760039221093e-06,2.215353138936088e-06,1.2827078930744571e-06,2.249295799935613e-06,1.7906372210736922e-06,3.1404120718782536e-06,2.282023048687546e-05,8.529615920853271e-07,2.982165065047076e-06,2.6087828787671864e-06,1.4258454496389998e-05,1.7972838233490307e-06,1.2031555164344497e-06
141,1.4767963969101715e-06,1.19399941870864e-06,1.2236956574246346e-06,1.2275165180245884e-06,2.21986896308214e-06,1.2817811237750512e-06,2.2807561377223326e-06,1.8412908622184084e-06,3.1673785577415244e-06,2.2727192918391437e-05,8.404448319389247e-07,2.936500571429107e-06,2.577759254220603e-06,1.4804429887052075e-05,1.7765350550755298e-06,1.2531189371940871e-06
142,1.4387653722732395e-06,1.17920445577065e-06,1.24250367891316e-06,1.1786175122305169e-06,2.2273188330988956e-06,1.2858180630058905e-06,2.311993598893736e-06,1.8863889993885629e-06,3.197394762869871e-06,2.262479493596588e-05,8.297574087350895e-07,2.89266403478919e-06,2.5501454273459216e-06,1.5383605703948032e-05,1.754260693286614e-06,1.3070202414975154e-06
143,1.404336934497756e-06,1.166252620428985e-06,1.2606708412821613e-06,1.131564477721258e-06,2.2385227503155206e-06,1.2957546740559608e-06,2.3433502363482476e-06,1.9257127643955434e-06,3.23119296267483e-06,2.2509672131617867e-05,8.210376121459913e-07,2.8526732419293434e-06,2.5261239680406143e-06,1.5991194594390836e-05,1.7313431377883894e-06,1.3643951996686695e-06
144,1.3737580687087398e-06,1.1558189162756171e-06,1.2775966207194203e-06,1.086404711145641e-06,2.2541957786317202e-06,1.312277087124842e-06,2.3752518092686614e-06,1.9593300329407073e-06,3.26926709291126e-06,2.237733699206726e-05,8.144229581265007e-07,2.8184022586332278e-06,2.5058980507259178e-06,1.662258350759629e-05,1.7085207195920897e-06,1.4247971203904411e-06
145,1.347118053540361e-06,1.1484407636586325e-06,1.2926203255199927e-06,1.04314350483791e-06,2.2749143903024004e-06,1.3358395682147683e-06,2.40799424364048e-06,1.987289158983508e-06,3.3120487747866453e-06,2.2221705317448733e-05,8.100594953259347e-07,2.7914425637788553e-06,2.4897825304284566e-06,1.7271957249662252e-05,1.6864458225556424e-06,1.4878121096311579e-06
146,1.3243737846918675e-06,1.1444816379195205e-06,1.305089190661652e-06,1.001829385950909e-06,2.301134315499789e-06,1.3666841173729258e-06,2.441781632851812e-06,2.009610077545614e-06,3.3600525440337026e-06,2.2037000271990278e-05,8.080949373328209e-07,2.772996076231429e-06,2.4781595341767917e-06,1.793098287973622e-05,1.665628821969614e-06,1.552947246751581e-06
147,1.3053959450723271e-06,1.1441470404465885e-06,1.3144846792847529e-06,9.625678638448202e-07,2.333169190433617e-06,1.4048612054126305e-06,2.4768215665175475e-06,2.0264042576224386e-06,3.413722981017432e-06,2.1821342868208146e-05,8.08623788129613e-07,2.763893523332413e-06,2.4712980680121335e-06,1.8588099832873775e-05,1.6463543082263743e-06,1.6195201335459663e-06
148,1.2900115905995802e-06,1.1475059310206948e-06,1.3205030740610434e-06,9.254467957423079e-07,2.3711160026295397e-06,1.4502347500293725e-06,2.5132391075271726e-06,2.037902478969832e-06,3.473290178746321e-06,2.1579160378765506e-05,8.116496294028296e-07,2.7647024406473643e-06,2.4691374529444258e-06,1.922866046361094e-05,1.6286659466949237e-06,1.6866236211249368e-06
149,1.2780776844279027e-06,1.1545043199934236e-06,1.3230317546083093e-06,8.904524023781991e-07,2.4148077967380673e-06,1.5024493778873365e-06,2.550843519228867e-06,2.044431489380634e-06,3.538881345273914e-06,2.1320710022426188e-05,8.17110850663167e-07,2.7757791949105057e-06,2.4711676864391587e-06,1.9835839776298504e-05,1.6123732010500638e-06,1.7531475176906532e-06
150,1.269612693516657e-06,1.1649648329428514e-06,1.3220820473945098e-06,8.574623211090116e-07,2.4638518394019677e-06,1.5609219622813903e-06,2.588970903293783e-06,2.0464569175717368e-06,3.610568490359715e-06,2.105933826928328e-05,8.249359556688396e-07,2.7972334144042778e-06,2.4764299888068883e-06,2.0392028315800558e-05,1.5970446023429398e-06,1.8178606879411851e-06
151,1.264863547370821e-06,1.178568377361033e-06,1.3177323533816932e-06,8.263218453581216e-07,2.5176909155649394e-06,1.6249161093224614e-06,2.6265433103424105e-06,2.0446758141649404e-06,3.6881151412855052e-06,2.0808263127051887e-05,8.350497121676358e-07,2.8288852518702168e-06,2.483576406057227e-06,2.0880412823938835e-05,1.5820808664883197e-06,1.879517505305187e-06
152,1.264201950305141e-06,1.1948519088385207e-06,1.3101125611875482e-06,7.969673904326312e-07,2.575567489297585e-06,1.693610259851974e-06,2.6623176330589533e-06,2.040011691693149e-06,3.77072481159812e-06,2.0579150559628865e-05,8.473120415858562e-07,2.8701923270546208e-06,2.4909708009528747e-06,2.1286513477942717e-05,1.5669213883106123e-06,1.936925808229192e-06
153,1.2679695564055362e-06,1.213236281977426e-06,1.2994318586943084e-06,7.695415706427556e-07,2.6363778846843904e-06,1.7660549341505175e-06,2.695181396765392e-06,2.0334341339069727e-06,3.857222791449686e-06,2.0383639084244127e-05,8.61466396145818e-07,2.9201307361638576e-06,2.496883426794451e-06,2.1599357931799903e-05,1.551239591972661e-06,1.9889937874307166e-06
154,1.2764193896512793e-06,1.233064332872147e-06,1.2859759981440335e-06,7.444280825584563e-07,2.69856397108478e-06,1.8410881515635534e-06,2.724292149455383e-06,2.025752257837471e-06,3.946705210290797e-06,2.0235922452075037e-05,8.771531548134956e-07,2.9771235055165943e-06,2.4997492905004053e-06,2.181177106579477e-05,1.5349515950816288e-06,2.034753209926073e-06
155,1.28973146643384e-06,1.253669762609501e-06,1.2700212548055257e-06,7.221835930715869e-07,2.760185926159174e-06,1.9173055998932068e-06,2.748954329105391e-06,2.0175281767705902e-06,4.039156801142424e-06,2.0153237446870866e-05,8.939606458448399e-07,3.039083131331271e-06,2.498283548429303e-06,2.191929230607139e-05,1.5180727670977086e-06,2.0732895709560874e-06
156,1.3080516889538772e-06,1.2744875027463548e-06,1.2517368060105827e-06,7.034138375382642e-07,2.819172034853762e-06,1.9930740474158623e-06,2.7684239827214938e-06,2.0090524516219746e-06,4.1355056302290275e-06,2.0153530611807322e-05,9.11470246298617e-07,3.1035459868534367e-06,2.491448189056565e-06,2.19179661611174e-05,1.5006007817154807e-06,2.1036736017004913e-06
157,1.3315081618498923e-06,1.2951054878025489e-06,1.2311372188353258e-06,6.886720450139749e-07,2.873630560650226e-06,2.066639671334951e-06,2.7819370591597918e-06,2.000335981949936e-06,4.237146276746406e-06,2.0252390522176065e-05,9.292721738870018e-07,3.1677781182611885e-06,2.47853197591984e-06,2.180266427403208e-05,1.4825382581331198e-06,2.1251066809188036e-06
158,1.36015178090549e-06,1.3151824909855e-06,1.2080771491982001e-06,6.784481013012078e-07,2.9220710494162856e-06,2.136403885783583e-06,2.7889695135711185e-06,1.991132013655429e-06,4.345370125617874e-06,2.0461278648462254e-05,9.469395531003768e-07,3.2287440043465954e-06,2.45932981351493e-06,2.1567934676654754e-05,1.4640308230914003e-06,2.137225923708713e-06
159,1.3938742855650602e-06,1.3343565980748697e-06,1.1823379933827945e-06,6.732363149209379e-07,2.9634441319416986e-06,2.201225036111053e-06,2.789523405924473e-06,1.9809562862039454e-06,4.460966096862853e-06,2.0787261883661505e-05,9.640143283485738e-07,3.283017416155941e-06,2.4342105112940094e-06,2.121121897669035e-05,1.4454788350376063e-06,2.1403019880182443e-06
160,1.4323865874957065e-06,1.3522442515179082e-06,1.1538178397249675e-06,6.735782334115532e-07,2.9970726406393027e-06,2.2605205078683093e-06,2.7842695134276877e-06,1.96917725162716e-06,4.58396806846352e-06,2.12334990228152e-05,9.800883902877356e-07,3.3268876486730007e-06,2.404023416611614e-06,2.0736053914555277e-05,1.4274819183788128e-06,2.135231236899235e-06
161,1.475253455202456e-06,1.3684220441570452e-06,1.1226874010572203e-06,6.800161315918809e-07,3.022606103941503e-06,2.314106334763969e-06,2.7744310995110894e-06,1.955261237271043e-06,4.7135647143843435e-06,2.1799848267782973e-05,9.949350571535048e-07,3.3568244538980305e-06,2.3698611291916923e-06,2.015331657146088e-05,1.4106412873789992e-06,2.12339373141097e-06
162,1.52192123247403e-06,1.382367187539128e-06,1.0893964240089962e-06,6.930096723249693e-07,3.0399458741225602e-06,2.361888997605174e-06,2.7614125010382074e-06,1.9389935971836833e-06,4.848249768318012e-06,2.248321151975016e-05,1.0085510259783153e-06,3.3700954961398184e-06,2.3328048026267385e-06,1.9480429358336787e-05,1.3953687948796978e-06,2.1064094297108217e-06
163,1.5716981249221575e-06,1.3935030765833808e-06,1.054551972174649e-06,7.12885054188634e-07,3.0490170442000437e-06,2.4036395652045246e-06,2.746362801804481e-06,1.920455011172657e-06,4.986088947314851e-06,2.3277354650864958e-05,1.0210540114906515e-06,3.365158979717335e-06,2.2939231140212656e-06,1.8739463266477932e-05,1.3818040949386242e-06,2.0858246558105806e-06
164,1.6237577032065496e-06,1.4014011909590633e-06,1.0187771238619594e-06,7.398171862026195e-07,3.049582366729e-06,2.4390424919988995e-06,2.7298895779089588e-06,1.899885050873583e-06,5.124825017257842e-06,2.417212655288276e-05,1.032526741058964e-06,3.3417462497511684e-06,2.2545633901868186e-06,1.7954992702059418e-05,1.369850366235476e-06,2.0628780692577434e-06
165,1.6772210893170224e-06,1.4060228139378082e-06,9.826617042716495e-07,7.738292322752905e-07,3.0413777484315273e-06,2.467947932059261e-06,2.712008611263766e-06,1.8776855765881657e-06,5.2617144787630845e-06,2.5152460710100077e-05,1.0429649097042017e-06,3.3008096454188993e-06,2.2165827795231813e-06,1.7152102674456483e-05,1.3592883286272856e-06,2.0384546454729685e-06
166,1.7312137290550211e-06,1.4077952642581857e-06,9.468078231591772e-07,8.148197152666051e-07,3.0244534285000214e-06,2.4905390967964677e-06,2.69233151727574e-06,1.8544603789008768e-06,5.3933247191059326e-06,2.6197815804088078e-05,1.0524131091395314e-06,3.244397301227931e-06,2.182220883015903e-06,1.635468683048012e-05,1.3498777824132338e-06,2.0131379731556608e-06
167,1.7848208347114139e-06,1.407419946674154e-06,9.118537100454759e-07,8.625966789551037e-07,2.9994404562735872e-06,2.507216390599385e-06,2.6703710974703044e-06,1.8308747767287487e-06,5.51563245031874e-06,2.7282268893371637e-05,1.0611801917619363e-06,3.17535564575258e-06,2.153737791898409e-06,1.5584151667925298e-05,1.3413559553398902e-06,1.987278304740787e-06
168,1.8370118789160376e-06,1.4055991653405305e-06,8.784052308875961e-07,9.168670391692822e-07,2.967593997557845e-06,2.5182781030476176e-06,2.6457008450168106e-06,1.8074444237687294e-06,5.6244899910492015e-06,2.8374749793945752e-05,1.069898791688808e-06,3.0968511767543987e-06,2.133142650905366e-06,1.4858635184946596e-05,1.3333781335463788e-06,1.9611065170521374e-06
169,1.8866035005391662e-06,1.4029098256060441e-06,8.469468898747474e-07,9.771969566966697e-07,2.9305534000910818e-06,2.5236702711029606e-06,2.617936983166211e-06,1.7844460635742455e-06,5.716217889976474e-06,2.9439209914411554e-05,1.0793487287788404e-06,3.0119201799082463e-06,2.1221151182422654e-06,1.4192768084993386e-05,1.3255621614129524e-06,1.93485511891338e-06
170,1.9323360922303813e-06,1.3998059191129096e-06,8.178240199900018e-07,1.043013538716104e-06,2.889930529199391e-06,2.5230115736193795e-06,2.5868173964463973e-06,1.7619434970919792e-06,5.788086407994366e-06,3.043614910838159e-05,1.0902310877844835e-06,2.9232778808124607e-06,2.121994902196995e-06,1.3597887003866394e-05,1.3176664623838353e-06,1.9088217532552905e-06
171,1.9731694503118093e-06,1.3966553788037545e-06,7.912890191944164e-07,1.113648155800735e-06,2.847035185150786e-06,2.5158709335233476e-06,2.552402699774322e-06,1.7399006136123087e-06,5.838611811129243e-06,3.13271507381741e-05,1.1030885524028716e-06,2.833329779925145e-06,2.1337667535257523e-06,1.3082488854769356e-05,1.3097047700216913e-06,1.883411984472593e-06
172,2.0086566584875768e-06,1.393782347842537e-06,7.675479369823063e-07,1.1883699991557825e-06,2.8029193841278815e-06,2.502112448140538e-06,2.5151343958965333e-06,1.7183838182861719e-06,5.867659651933621e-06,3.208140988355417e-05,1.118348122958886e-06,2.744135665353131e-06,2.1580462985597435e-06,1.2652657492835042e-05,1.3018454824329808e-06,1.8591784596201054e-06
173,2.0390123210157976e-06,1.3914685991425212e-06,7.46789248682771e-07,1.266404438367462e-06,2.7585707560687354e-06,2.4821048198914845e-06,2.4757089773944185e-06,1.6976931018104402e-06,5.876300094759796e-06,3.268087742916922e-05,1.1363441254459939e-06,2.6572991846777813e-06,2.1950619105713157e-06,1.2312288100012718e-05,1.2942116698545558e-06,1.836780268814096e-06
174,2.0647816615094187e-06,1.3898806389199965e-06,7.292177085788941e-07,1.346932190710989e-06,2.7149969603496262e-06,2.456716423212892e-06,2.4349598642125075e-06,1.6782479163989492e-06,5.866326041868985e-06,3.3121111749769015e-05,1.1572720783786013e-06,2.573977101091246e-06,2.2446399366244463e-06,1.2063193272124436e-05,1.2867779181231618e-06,1.8168343478710496e-06
175,2.086479096724849e-06,1.3889746549031016e-06,7.150618354128789e-07,1.4290506938389037e-06,2.6731538212820804e-06,2.4271529832546863e-06,2.3938228248172357e-06,1.660349014234921e-06,5.83959164802002e-06,3.3407351076517095e-05,1.181142370743004e-06,2.495063784334875e-06,2.3062057245713416e-06,1.1905313338617328e-05,1.2793937078977538e-06,1.7997687668083277e-06
176,2.1045228098012834e-06,1.3884584952848898e-06,7.0452128405151e-07,1.5117333633791676e-06,2.6338298712892526e-06,2.394706817521273e-06,2.3532846526896227e-06,1.6440494109979038e-06,5.797680798198676e-06,3.354796844154522e-05,1.207808014492975e-06,2.421353829136812e-06,2.3788198395918283e-06,1.1837031472161715e-05,1.2718522238107038e-06,1.7857691115585733e-06
177,2.11938030457139e-06,1.3878282214084525e-06,6.977069358409179e-07,1.5938164474703525e-06,2.597563087182408e-06,2.360489225199474e-06,2.314227396144095e-06,1.629167229986912e-06,5.7421115053202e-06,3.354877697135601e-05,1.2370308208976478e-06,2.35351731840155e-06,2.4613238515431767e-06,1.185540247351891e-05,1.2639224725774974e-06,1.7747977948189565e-06
178,2.131655785930458e-06,1.3864411563527358e-06,6.946274439950433e-07,1.6740302986308312e-06,2.5645752464329086e-06,2.325290037660848e-06,2.277233344311886e-06,1.6153467190384663e-06,5.674657347372474e-06,3.341075389087759e-05,1.268479712019343e-06,2.292042324004511e-06,2.552584318210831e-06,1.1956279331586553e-05,1.255299817355119e-06,1.766676092719392e-06
179,2.142036347345847e-06,1.3836110470003415e-06,6.952309543801988e-07,1.7511304187827494e-06,2.534770319325512e-06,2.2896809941850913e-06,2.2424923619731484e-06,1.6020918817886967e-06,5.5973948871871474e-06,3.313160502384542e-05,1.3016673702342145e-06,2.23730085786967e-06,2.6515998279837166e-06,1.2134476307318325e-05,1.2455427200483871e-06,1.7611830264568832e-06
180,2.151214610279536e-06,1.3787600541311279e-06,6.994676698620189e-07,1.824104196533941e-06,2.50791002194174e-06,2.2542798968940794e-06,2.2098562306649535e-06,1.5887287826387591e-06,5.512495151518993e-06,3.2709894838507954e-05,1.335913970336675e-06,2.1895885024674006e-06,2.757322843487762e-06,1.2383895987721401e-05,1.2341265826820513e-06,1.7580417210780803e-06
181,2.1598537655887562e-06,1.3716128978472487e-06,7.072985778575158e-07,1.892315130897566e-06,2.4839223494970776e-06,2.2199480909612654e-06,2.17894864891821e-06,1.5743412228930992e-06,5.421981944651741e-06,3.214922826097563e-05,1.3703768505456359e-06,2.1491040130221947e-06,2.8683766910400424e-06,1.2697281822199255e-05,1.2206121242232478e-06,1.756794966640627e-06
182,2.1685291651084214e-06,1.3623058504091827e-06,7.186613281287329e-07,1.955446027131354e-06,2.463142514207269e-06,2.1877690477259247e-06,2.1491945293985333e-06,1.5578308484685829e-06,5.327575582145032e-06,3.145954391345372e-05,1.4041313403506587e-06,2.115991834260788e-06,2.982877063997451e-06,1.306554356987639e-05,1.2047545466684278e-06,1.7567337780953136e-06
183,2.1776468268951253e-06,1.351318702957607e-06,7.334579060651267e-07,2.0132358846985203e-06,2.446339280889189e-06,2.1588376925011415e-06,2.1197350313018507e-06,1.5381718832761083e-06,5.230509889205835e-06,3.06548219421807e-05,1.4362239738687601e-06,2.090342506539562e-06,3.0983695108715423e-06,1.3477222629577686e-05,1.1864686751907e-06,1.7569915874244225e-06
184,2.1874105591302503e-06,1.3393205264873133e-06,7.515356800654463e-07,2.065204198394547e-06,2.4345141233626536e-06,2.1340167437576647e-06,2.0893793931724127e-06,1.5146911573148073e-06,5.131269003141835e-06,2.9749872667295647e-05,1.465650115720368e-06,2.0720660104647316e-06,3.2118474174039007e-06,1.3918550853157205e-05,1.1658187647556434e-06,1.7567783259168516e-06
185,2.1978317168179164e-06,1.3270723175923168e-06,7.726414979982798e-07,2.110536182314166e-06,2.428580258219561e-06,2.1137951952995007e-06,2.05677904764639e-06,1.4871179536010109e-06,5.029468782747744e-06,2.8759293000652366e-05,1.4913345764874457e-06,2.0607882211841905e-06,3.3198934711346536e-06,1.437395274159574e-05,1.1431316199113678e-06,1.7556200839995447e-06
186,2.2087995634108196e-06,1.3153894503094158e-06,7.963997616734169e-07,2.1481329458066996e-06,2.4290864086727873e-06,2.09827507653338e-06,2.020803036871352e-06,1.4553971369338422e-06,4.9241188438006425e-06,2.769902116560017e-05,1.5121936556810391e-06,2.055889171036187e-06,3.4189976516651346e-06,1.4826976787043206e-05,1.1190572338838818e-06,1.7534518204451302e-06
187,2.2202113559364798e-06,1.3050800964153083e-06,8.223357565016746e-07,2.176824259569103e-06,2.4360821560974604e-06,2.0872258528922487e-06,1.980887516733277e-06,1.4195932352485485e-06,4.814077424061071e-06,2.6588340059882228e-05,1.5272824606825223e-06,2.0566399310133357e-06,3.5059911206167357e-06,1.5262001002403968e-05,1.0944691567400326e-06,1.7505170476219466e-06
188,2.231992111602483e-06,1.2968609032443988e-06,8.499215867116606e-07,2.19572997721865e-06,2.4491023038374818e-06,2.080112442332233e-06,1.937166970279473e-06,1.3800810254023724e-06,4.6982373993302505e-06,2.5449864341913e-05,1.5360094577496984e-06,2.0623131370051663e-06,3.578431685738262e-06,1.5666341602160047e-05,1.0703007035501405e-06,1.7471455713886935e-06
189,2.2439404882535167e-06,1.2913326907254674e-06,8.785981530680897e-07,2.2046180713736394e-06,2.4672068996972695e-06,2.076083450312917e-06,1.8903651881679072e-06,1.337744463138194e-06,4.575501125654036e-06,2.430700385919734e-05,1.538332517438214e-06,2.072205004160312e-06,3.634831828571093e-06,1.6031153937942145e-05,1.0474097915531184e-06,1.7435338414417295e-06
190,2.255603841262011e-06,1.2890070190043735e-06,9.077519923081455e-07,2.204065340148832e-06,2.489082843604544e-06,2.0740044650220732e-06,1.8415221006195508e-06,1.2938879625175896e-06,4.445009629179861e-06,2.318062114992033e-05,1.53478448787732e-06,2.0856567396851845e-06,3.674685086133848e-06,1.63500883465718e-05,1.026523130681267e-06,1.7396502933364839e-06
191,2.2663022346530845e-06,1.2902917153963372e-06,9.366984410247578e-07,2.1953233615011253e-06,2.513298428716797e-06,2.0725704747356703e-06,1.7916667321410703e-06,1.2499549410192427e-06,4.306534763043931e-06,2.208684779705251e-05,1.5262780900100533e-06,2.10215907978854e-06,3.6982072224966063e-06,1.661744333573369e-05,1.0082668955476742e-06,1.7352992835904391e-06
192,2.2752142944121275e-06,1.295441068990031e-06,9.646971897067538e-07,2.1799600508922133e-06,2.538699594349809e-06,2.0704196160711623e-06,1.7415600724407917e-06,1.2073049080454519e-06,4.160600375532769e-06,2.1036543844610825e-05,1.5138030812177038e-06,2.1214698617724066e-06,3.7058221041579575e-06,1.6828357863087046e-05,9.932029558528164e-07,1.7302667699676138e-06
193,2.2815344645716763e-06,1.3045311737636712e-06,9.909823550375964e-07,2.159537470594083e-06,2.5646986769513036e-06,2.066156176501651e-06,1.6915871869559609e-06,1.1671632284971798e-06,4.008288584934568e-06,2.003586870514557e-05,1.4981766481682967e-06,2.143645330792939e-06,3.697698729286383e-06,1.698080488313671e-05,9.81798319791855e-07,1.7244417353266973e-06
194,2.2848012883512054e-06,1.317474147625481e-06,1.0148542711670218e-06,2.135546456768891e-06,2.5912155327255602e-06,2.0583486650193124e-06,1.6418284686401505e-06,1.1306788640864056e-06,3.850912182713168e-06,1.9087306964231966e-05,1.4799365478420186e-06,2.16898081469902e-06,3.673673975979065e-06,1.7077424879537954e-05,9.743586807806607e-07,1.71784859292478e-06
195,2.285243881633657e-06,1.3340626567332298e-06,1.035842795959181e-06,2.109514486984038e-06,2.6183412619293583e-06,2.045717974894732e-06,1.5922999284478404e-06,1.098956635129752e-06,3.6897895538279797e-06,1.8190408151518788e-05,1.4593605059331505e-06,2.1978836393514994e-06,3.633606287831128e-06,1.71262032313222e-05,9.709955033073463e-07,1.7106121271314077e-06
196,2.2837891808960353e-06,1.3539906236381877e-06,1.0538012427233291e-06,2.0830777361627118e-06,2.646031368360408e-06,2.0274932240529722e-06,1.543226710731146e-06,1.073012798992083e-06,3.5262723760831017e-06,1.734219648537703e-05,1.436561070674635e-06,2.2306894546806487e-06,3.5779202319074415e-06,1.713988465191195e-05,9.716330257638147e-07,1.70290790404573e-06
197,2.2816691256986546e-06,1.3768016709243126e-06,1.0688194221812161e-06,2.0579597822519513e-06,2.6740013653189383e-06,2.0035467392906625e-06,1.4951548238976838e-06,1.0537065398610764e-06,3.3617680945566796e-06,1.6538100711393055e-05,1.4116337520195269e-06,2.267476300047966e-06,3.5079580937459294e-06,1.7134097427859548e-05,9.760181770799921e-07,1.6948899167079767e-06
198,2.2800213430324844e-06,1.401810352143454e-06,1.0810386759173199e-06,2.0358822127906804e-06,2.701720329157606e-06,1.974123446620443e-06,1.4488778828865998e-06,1.0416977420243964e-06,3.1975596255060286e-06,1.5773448707730127e-05,1.3848234337890345e-06,2.3079511998252886e-06,3.4258380123220484e-06,1.7124774470814114e-05,9.83726132210165e-07,1.6866269498807958e-06
199,2.2797817322537495e-06,1.4280829560264166e-06,1.0905656792291172e-06,2.0184191224766933e-06,2.728463137285725e-06,1.9395123865126943e-06,1.405296496976671e-06,1.03743812355321e-06,3.034655378101802e-06,1.5044545828753249e-05,1.356632722691126e-06,2.3514303904925865e-06,3.3338991049990166e-06,1.7126625865411626e-05,9.941719700749265e-07,1.6781497171533578e-06
200,2.2817176519919093e-06,1.454550058865733e-06,1.0975744170506553e-06,2.0068592839078054e-06,2.7535152395014735e-06,1.9000007112678131e-06,1.3652743580082658e-06,1.0411980626390625e-06,2.873762374488517e-06,1.4348975450269788e-05,1.3278092337888108e-06,2.3968807081205114e-06,3.234142144696701e-06,1.7153518441502033e-05,1.0066484902502556e-06,1.6695629127300605e-06
201,2.286386923348744e-06,1.4802614174840774e-06,1.1024657751451938e-06,2.0021490069057264e-06,2.776358924086847e-06,1.8560031419916458e-06,1.329523044996367e-06,1.0531137653581706e-06,2.7152708636054993e-06,1.3685587671781227e-05,1.2992114409245574e-06,2.442969948795209e-06,3.1280232066067484e-06,1.7219090121884228e-05,1.020419002333118e-06,1.6610690504787113e-06
202,2.2940796287833873e-06,1.504649082108743e-06,1.1058992490820917e-06,2.0048835985258076e-06,2.7965712121439234e-06,1.8081362703221215e-06,1.2985736395908103e-06,1.0732091691503624e-06,2.5593704032671626e-06,1.3054460109021701e-05,1.2716205343570767e-06,2.488127017144957e-06,3.01666058283619e-06,1.733607568646006e-05,1.034838176992057e-06,1.6529315329881462e-06
203,2.3048580290805637e-06,1.5275921481490472e-06,1.1086663530247233e-06,2.015299568318466e-06,2.8135766912150594e-06,1.7571997930859682e-06,1.2728266276312924e-06,1.101390500453569e-06,2.406364501898682e-06,1.2456689023488937e-05,1.2456064433926783e-06,2.53069494265584e-06,2.901205187044972e-06,1.751499960766572e-05,1.0494279227943017e-06,1.6454975300550469e-06
204,2.318624420074408e-06,1.549251859279164e-06,1.1115243615122271e-06,2.033321340001394e-06,2.826545975337715e-06,1.7041046483160564e-06,1.2525897137905978e-06,1.137462812308369e-06,2.256900848120881e-06,1.1893880191914318e-05,1.2215217001045076e-06,2.5691852875850588e-06,2.7830455516143276e-06,1.77634064464089e-05,1.0638541308948869e-06,1.6392186944917204e-06
205,2.3351163379065114e-06,1.5698772530501077e-06,1.1150940794502077e-06,2.05868358634896e-06,2.834430918075096e-06,1.6497798988996995e-06,1.2380540096032888e-06,1.181154479030881e-06,2.111932013497739e-06,1.1367505201559843e-05,1.199583785218509e-06,2.6024925106354126e-06,2.6637504644905347e-06,1.808579776180976e-05,1.0778186712145138e-06,1.6345484463576941e-06
206,2.3538729550993047e-06,1.589743510592187e-06,1.1198199815398533e-06,2.0910023813272546e-06,2.836080921913273e-06,1.595120134365953e-06,1.2292450569486993e-06,1.2320896099782207e-06,1.9725523796090757e-06,1.0878475092920992e-05,1.179929444819317e-06,2.6299464124237975e-06,2.5448672357045495e-06,1.8483795630269075e-05,1.0909741294188928e-06,1.6317884239321966e-06
207,2.3742393969400645e-06,1.6091465846671684e-06,1.1259555398679973e-06,2.1297105583662576e-06,2.8305124639019883e-06,1.5410143083601696e-06,1.225987618604205e-06,1.2897439212232045e-06,1.8398293988411984e-06,1.0427111260000904e-05,1.162602889896444e-06,2.6512066061634127e-06,2.4277347702277466e-06,1.8956298498599058e-05,1.1029274273392601e-06,1.6310141784203269e-06
208,2.3954010681142804e-06,1.6283279181069133e-06,1.1335659060457292e-06,2.1739566173517083e-06,2.817252127667846e-06,1.4884052095827309e-06,1.227886888057134e-06,1.353452796913542e-06,1.714630337073516e-06,1.0013299041618396e-05,1.1475873459692242e-06,2.6660449005801496e-06,2.313460844238312e-06,1.9499754481141338e-05,1.1132617632404355e-06,1.632061143206032e-06
209,2.416423202338476e-06,1.647402795222953e-06,1.142552792821281e-06,2.22258453151564e-06,2.796492111952976e-06,1.4382816885028093e-06,1.23434995483325e-06,1.4224363883351625e-06,1.597523731162822e-06,9.636447798000966e-06,1.1349425787111244e-06,2.6740794946386975e-06,2.2030503227974385e-06,2.0108474018980075e-05,1.121535623629295e-06,1.6345368215477743e-06
210,2.436248956040387e-06,1.666376343240216e-06,1.1526883574550286e-06,2.2742083616172913e-06,2.768899608372663e-06,1.3915713882099652e-06,1.2446692997912328e-06,1.4958201271645592e-06,1.4888134407332435e-06,9.295108791851978e-06,1.124894387402271e-06,2.674612182553395e-06,2.097478422329681e-06,2.077464188508268e-05,1.12732447227831e-06,1.6379035285507075e-06
211,2.4536158143444155e-06,1.6851455796939133e-06,1.1636372400796587e-06,2.3273016104106414e-06,2.7351961152772996e-06,1.3490103847556488e-06,1.2581343096761764e-06,1.5727203477428939e-06,1.3886228516331153e-06,8.986447383465262e-06,1.1177466939579665e-06,2.6666731443968153e-06,1.997639114333346e-06,2.1487887627527844e-05,1.1303124475297176e-06,1.6416411217794641e-06
212,2.4670103582209226e-06,1.7034423557039634e-06,1.174971831300292e-06,2.3802044141503744e-06,2.695821783907018e-06,1.3110779595356778e-06,1.2741554411436232e-06,1.652362638994424e-06,1.2969441851665425e-06,8.706018425472681e-06,1.1137484671526717e-06,2.649213825138047e-06,1.9043431336080466e-06,2.2234959103990836e-05,1.1303469509317886e-06,1.645463088600641e-06
213,2.47481998341587e-06,1.7208181908062098e-06,1.1861810570644115e-06,2.431123106381325e-06,2.6509394321897585e-06,1.278021542810464e-06,1.2923822047111984e-06,1.7340809846497055e-06,1.2136299892605411e-06,8.448216759267386e-06,1.1130587457091713e-06,2.6213896118999066e-06,1.818490062367549e-06,2.3000806906133267e-05,1.127429764487205e-06,1.6495058571827325e-06
214,2.475614170852691e-06,1.7367193929308867e-06,1.1966746112954307e-06,2.4782801775792435e-06,2.6007476625593097e-06,1.2499670736494043e-06,1.3127067966094114e-06,1.817165686587429e-06,1.138347863510777e-06,8.207261671533772e-06,1.1157454335657497e-06,2.582863718609036e-06,1.7412654011623196e-06,2.3771611905816463e-05,1.121678991870976e-06,1.6543294082035348e-06
215,2.4684054408610393e-06,1.750601606781728e-06,1.2058606133181413e-06,2.5201554216245076e-06,2.54581147958792e-06,1.2270527689354118e-06,1.335130929226849e-06,1.9006851818851344e-06,1.070570319201176e-06,7.978154052698072e-06,1.1217468041463325e-06,2.5339456207252075e-06,1.6740972531460368e-06,2.4538192033719314e-05,1.1132780731238745e-06,1.660723249206583e-06
216,2.4528580496587587e-06,1.762020598370008e-06,1.2133186855801176e-06,2.5555831224034673e-06,2.4871140595992904e-06,1.2094760236177813e-06,1.3596313638733806e-06,1.983426994601655e-06,1.0096223827331982e-06,7.75716374929534e-06,1.1308275904368824e-06,2.475495079332003e-06,1.6183859180768786e-06,2.5297806567917858e-05,1.102493321546102e-06,1.6695386889296523e-06
217,2.4294321412943075e-06,1.770680895781988e-06,1.2188973473485656e-06,2.583590011928177e-06,2.425816295646815e-06,1.197443675233547e-06,1.3860833019626795e-06,2.0640497857236157e-06,9.547408843186045e-07,7.541782618401597e-06,1.1425502940715433e-06,2.4087877724583404e-06,1.575289821426082e-06,2.605381068897057e-05,1.0898128803223492e-06,1.6816677086300846e-06
218,2.3994047151943133e-06,1.7764356740318616e-06,1.222607836072575e-06,2.6031604381769665e-06,2.3630121284777393e-06,1.1911237423438196e-06,1.4142285155112485e-06,2.14139484369575e-06,9.051505885174095e-07,7.330284880785708e-06,1.1562584325426775e-06,2.335520644979444e-06,1.545682864512314e-06,2.6813464109616792e-05,1.076030187477271e-06,1.6980574777382313e-06
219,2.3647308330828474e-06,1.77922885357965e-06,1.2244412408477025e-06,2.6132613358248945e-06,2.299726150399749e-06,1.1906508010798733e-06,1.443721756738349e-06,2.214740654178072e-06,8.601794118841242e-07,7.121067695843021e-06,1.1710772539126889e-06,2.2578413164793048e-06,1.530165829958738e-06,2.7584692597747802e-05,1.0621095018791383e-06,1.719633819865674e-06
220,2.327764573262699e-06,1.7790076360529478e-06,1.2243198348460667e-06,2.61319402501588e-06,2.2370740178559503e-06,1.196156918110224e-06,1.4742025832876077e-06,2.2838201315400397e-06,8.193901581296827e-07,6.912187242971025e-06,1.1859667704233891e-06,2.1781842883493383e-06,1.529061388992353e-06,2.837390372396017e-05,1.04896257393177e-06,1.747146210139271e-06
221,2.29090883312955e-06,1.7756361023666089e-06,1.2222235592213184e-06,2.6029738072505586e-06,2.176346373334255e-06,1.2077874233160529e-06,1.5052919989896826e-06,2.3486332119965657e-06,7.827096008619688e-07,6.701706846896501e-06,1.1998652977398822e-06,2.0989729346108607e-06,1.542403738611721e-06,2.918647025324625e-05,1.037336174268122e-06,1.7810285401008365e-06
222,2.256305899761688e-06,1.7688503228086792e-06,1.2183524146192243e-06,2.583438297315389e-06,2.1189316962594444e-06,1.2256699274752253e-06,1.5366006766368753e-06,2.4092228509485404e-06,7.504859362433931e-07,6.488813472822088e-06,1.2118697542983968e-06,2.0224026511239504e-06,1.5699227614542903e-06,3.002820955897214e-05,1.0278198142360027e-06,1.8213342651101674e-06
223,2.225673475445014e-06,1.7583378684680826e-06,1.213193330434395e-06,2.5560656897215826e-06,2.066150480089243e-06,1.2498472936962173e-06,1.5678760674194835e-06,2.4655229214432904e-06,7.233771236441971e-07,6.274737962010574e-06,1.2213495693437833e-06,1.9503356356793386e-06,1.6110367752333974e-06,3.090518523476782e-05,1.020861678263346e-06,1.8677359727139115e-06
224,2.2003136934281535e-06,1.7439406793740722e-06,1.2074645080305994e-06,2.522684962073675e-06,2.0190790589928466e-06,1.2802486150235696e-06,1.5991638774890823e-06,2.517255193547893e-06,7.021417576496549e-07,6.062673156317284e-06,1.227961336325262e-06,1.884254979745287e-06,1.6649140739505762e-06,3.182200747937568e-05,1.0167413395060756e-06,1.9195542571296975e-06
225,2.1812096388749583e-06,1.725846888035931e-06,1.20196527979509e-06,2.485231647271776e-06,1.9784329728705107e-06,1.3167180207599897e-06,1.6307770653298698e-06,2.563858789275288e-06,6.875056824044622e-07,5.8568115859507915e-06,1.2316086773420935e-06,1.8253274928670095e-06,1.7306124252342909e-06,3.278076489821933e-05,1.0155427220052705e-06,1.9758204222245005e-06
226,2.1690679913251185e-06,1.7046474066906279e-06,1.1973954052473469e-06,2.4455543610919885e-06,1.944569639593587e-06,1.3590126932297353e-06,1.6630812916981612e-06,2.6045384227816493e-06,6.801363418199045e-07,5.661186461972311e-06,1.2324189146033901e-06,1.774574272554959e-06,1.807172922251713e-06,3.3781747699558234e-05,1.0171604946112637e-06,2.035356307832186e-06
227,2.1642698844899884e-06,1.681216464632721e-06,1.1942321011367048e-06,2.4052228376944336e-06,1.91759263201535e-06,1.406744319320263e-06,1.6962677856432037e-06,2.638469360554725e-06,6.80640079279903e-07,5.478899912583002e-06,1.2307615005468479e-06,1.7329825339037334e-06,1.8936049494816528e-06,3.482528205723648e-05,1.0213239743786009e-06,2.096788744427837e-06
228,2.166807901170243e-06,1.6564647735350656e-06,1.1926966205519312e-06,2.365383270085194e-06,1.897469875468009e-06,1.459376893983293e-06,1.7302395075619064e-06,2.665061893143737e-06,6.89539704137542e-07,5.3118939742301036e-06,1.2272343774343186e-06,1.7014457512790044e-06,1.9888570024000886e-06,3.5913102518873145e-05,1.0276205435892635e-06,2.158558942639266e-06
229,2.176258976684524e-06,1.6311066584220845e-06,1.1927696385545163e-06,2.3267733094599914e-06,1.8840828344628174e-06,1.516343883808652e-06,1.7646280728952482e-06,2.6841644451098116e-06,7.072634992853133e-07,5.161097095387865e-06,1.2225462109513993e-06,1.6806613647947677e-06,2.091796496936093e-06,3.7048167646817024e-05,1.0355271316726298e-06,2.219071369211629e-06
230,2.1918058922448058e-06,1.6055681333658378e-06,1.1942491611647946e-06,2.289900175122843e-06,1.8771799715316187e-06,1.5771718354868692e-06,1.7988981742397016e-06,2.6961195377860753e-06,7.341618996057579e-07,5.026707249114046e-06,1.2173659432105993e-06,1.6711606127642099e-06,2.2011906017224593e-06,3.823305176504412e-05,1.044460192402174e-06,2.27690397547788e-06
231,2.2122858205330995e-06,1.5800170776827502e-06,1.196886538350186e-06,2.2552153702754344e-06,1.8763068514732624e-06,1.6414682971205698e-06,1.8324496981526134e-06,2.701654430221851e-06,7.705261208403165e-07,4.908395895046282e-06,1.2122675781230878e-06,1.6734405296399434e-06,2.315787531033792e-06,3.946788558639847e-05,1.0538269292186102e-06,2.330924183015413e-06
232,2.236182200467111e-06,1.5543973100995025e-06,1.2005415112610607e-06,2.223110773635621e-06,1.8808404814947128e-06,1.7088114930833092e-06,1.8646387727675884e-06,2.701683637274846e-06,8.166021916345156e-07,4.8052998337512235e-06,1.2077462850813452e-06,1.6880299882253636e-06,2.434454035604957e-06,4.074872841084106e-05,1.0631018572701858e-06,2.380321373171697e-06
233,2.2615602161399516e-06,1.528425582073878e-06,1.2052162369477836e-06,2.1937489517240756e-06,1.8901169836043165e-06,1.7787316750459537e-06,1.894792151951934e-06,2.6971126291256492e-06,8.725943153189919e-07,4.7158479076997086e-06,1.204186728347041e-06,1.7154019555153964e-06,2.5561603384585223e-06,4.206659760403354e-05,1.0719444044284005e-06,2.42462300844709e-06
234,2.2860792536595744e-06,1.5016138043584568e-06,1.2109418280713526e-06,2.166917285479926e-06,1.903485115293527e-06,1.8508494441779497e-06,1.922392221416463e-06,2.688676334898839e-06,9.386624943056418e-07,4.637634403990792e-06,1.2017937957904119e-06,1.7558256789508931e-06,2.6798345392573585e-06,4.340681812949445e-05,1.0802270245194174e-06,2.463666176913544e-06
235,2.307199945344545e-06,1.4733460581538457e-06,1.2176675045085544e-06,2.142058728744364e-06,1.920281483867279e-06,1.9250069504013003e-06,1.947407991825846e-06,2.676814482896868e-06,1.0149627924359384e-06,4.567491815838826e-06,1.2005705366701018e-06,1.8092976167769317e-06,2.8043516064360528e-06,4.4748263910915297e-05,1.0878898700509074e-06,2.497465789245875e-06
236,2.3225955062336142e-06,1.4429904539645037e-06,1.2253004016980638e-06,2.1184813601867706e-06,1.9399581026340197e-06,2.0012566575921108e-06,1.970490104221491e-06,2.6615992267707873e-06,1.1016932988660345e-06,4.501750761397271e-06,1.2003376307666922e-06,1.8755505838072252e-06,2.9287121986212534e-06,4.606227696142385e-05,1.0947768359100738e-06,2.5260318990601713e-06
237,2.3306124983211784e-06,1.4100402338424734e-06,1.2338401086541258e-06,2.095650751816319e-06,1.962372516897455e-06,2.079771875280085e-06,1.9928255320418117e-06,2.642778074829043e-06,1.1990426532924812e-06,4.4367233958093125e-06,1.2007750788541144e-06,1.9540786600483827e-06,3.0521721985237627e-06,4.7311310508909697e-05,1.1006392440693535e-06,2.5492285423353756e-06
238,2.330516410627316e-06,1.3742612841484098e-06,1.243409885013357e-06,2.073408936127506e-06,1.9878801902030685e-06,2.160802647008212e-06,2.015761614189031e-06,2.6199592975479418e-06,1.3070827997786866e-06,4.369378739408382e-06,1.2015061606071796e-06,2.0441527436656638e-06,3.1741390504317016e-06,4.844786235124141e-05,1.1052631681771635e-06,2.5667301548013125e-06
239,2.3223977590128783e-06,1.335798565020151e-06,1.2541250071694125e-06,2.052009647274913e-06,2.0170741567384526e-06,2.2446625811789196e-06,2.0404853968486014e-06,2.5927675302823103e-06,1.4257253680714308e-06,4.2978095437501495e-06,1.2021792619558874e-06,2.144783525687579e-06,3.2938525159410254e-06,4.941521179804895e-05,1.1085295871387962e-06,2.5781503402632934e-06
240,2.3068849932360384e-06,1.295216489451096e-06,1.2659437872941112e-06,2.03200911475303e-06,2.0505086867766386e-06,2.331631142874237e-06,2.067890483813373e-06,2.5607777946186668e-06,1.5547789020155742e-06,4.221180677222217e-06,1.202462810845741e-06,2.2546270239862554e-06,3.410080107420818e-06,5.015178641332656e-05,1.1103947913702928e-06,2.5832954671880295e-06
241,2.284894750326426e-06,1.2534517545799324e-06,1.2786452706657927e-06,2.0140919841206764e-06,2.088674235171485e-06,2.4217888328061547e-06,2.098561229582819e-06,2.5233941426598437e-06,1.6940756959030195e-06,4.139413185482992e-06,1.2019799144936538e-06,2.371904809456272e-06,3.5211698213098548e-06,5.0599370928627096e-05,1.1109223641833365e-06,2.582319684579651e-06
242,2.257516216649159e-06,1.211654655084874e-06,1.2919562628966227e-06,1.998867175794318e-06,2.1320603637743103e-06,2.5148958002531988e-06,2.1327869138090295e-06,2.4799561979514736e-06,1.843558115334933e-06,4.052957679714761e-06,1.200306836441715e-06,2.494405671163589e-06,3.62551537746189e-06,5.071264494859519e-05,1.1103365115387627e-06,2.575669935404806e-06
243,2.2259686759432427e-06,1.1709718729865862e-06,1.3057145247569777e-06,1.9866973598661444e-06,2.181113803274026e-06,2.6103048105226787e-06,2.1705461387432376e-06,2.4300239199171678e-06,2.0032517271758486e-06,3.962696932978486e-06,1.197069368288901e-06,2.6196192527696373e-06,3.722052038069481e-06,5.046591862026567e-05,1.1089865468737528e-06,2.56394536713541e-06
244,2.191510877649707e-06,1.1323958750142025e-06,1.3198913968474507e-06,1.977650823872521e-06,2.2361698331495267e-06,2.7069058019778704e-06,2.21146142018146e-06,2.3736400403869916e-06,2.1732259463371603e-06,3.869906220982804e-06,1.1920451301413567e-06,2.744983255945701e-06,3.810338903813782e-06,4.98533701857605e-05,1.1072455984340637e-06,2.5478318835109113e-06
245,2.1552954260315834e-06,1.0967330340259167e-06,1.334450357731272e-06,1.9715938973738084e-06,2.297467247562417e-06,2.8032090059469236e-06,2.2547754461209924e-06,2.311447608761576e-06,2.353582055917105e-06,3.7761830798401018e-06,1.1852141074394806e-06,2.8681166772158396e-06,3.890193122129646e-06,4.8882469715330525e-05,1.105430766515987e-06,2.5281304577961773e-06
246,2.1182969091514485e-06,1.0646254324630713e-06,1.3491948362413742e-06,1.968326643237181e-06,2.365155185865876e-06,2.897568000670374e-06,2.299388703261382e-06,2.244566374346944e-06,2.544362236607943e-06,3.683206080284767e-06,1.1767953116791594e-06,2.986958502237138e-06,3.961373670714864e-06,4.756681184908998e-05,1.1037656069876344e-06,2.5057836713716945e-06
247,2.081342449345179e-06,1.0365603931768066e-06,1.3637175029128456e-06,1.9676165891484048e-06,2.4391647052839306e-06,2.988396020915197e-06,2.344019953324573e-06,2.1742599066366877e-06,2.7454458451855546e-06,3.5923535473412694e-06,1.167274442933681e-06,3.0998509656049336e-06,4.023713925687985e-06,4.5926053597082014e-05,1.1023551083852973e-06,2.4818212434313454e-06
248,2.0451634165510243e-06,1.0128682137839555e-06,1.3774501131028517e-06,1.9691229876306596e-06,2.5190239614823462e-06,3.0742951648983112e-06,2.3875211312449942e-06,2.101624537670264e-06,2.956544165154215e-06,3.504462460076415e-06,1.1573386188432408e-06,3.2056043280101965e-06,4.077382516892956e-06,4.399145310752143e-05,1.1011833306278693e-06,2.4572310689506297e-06
249,2.0104636157377643e-06,9.937418523834163e-07,1.3897702109140967e-06,1.9723690344858887e-06,2.6037833672736483e-06,3.1541371022392547e-06,2.4292174747708356e-06,2.0275149415533314e-06,3.1771496794425484e-06,3.4199002219671455e-06,1.1477036847416704e-06,3.3035090137808434e-06,4.122797349299504e-06,4.1808732320706494e-05,1.1001356145379395e-06,2.4328207898068774e-06
250,1.9779706727405184e-06,9.792855800611948e-07,1.4001093845355672e-06,1.9768332356895206e-06,2.69208758543523e-06,3.2271007625163072e-06,2.4690198979355395e-06,1.952684814219523e-06,3.4063667822294016e-06,3.33885830538225e-06,1.1389559802577227e-06,3.3932200552827608e-06,4.160311396079493e-06,3.94347446806944e-05,1.098985652235875e-06,2.4091266933962794e-06
251,1.948365833300445e-06,9.69548723395418e-07,1.4079884633158523e-06,1.9820794158644763e-06,2.782320288317961e-06,3.2926023328747547e-06,2.507181984209553e-06,1.8779450206404565e-06,3.642783483416851e-06,3.261743390247425e-06,1.1314943887773002e-06,3.4744782134470373e-06,4.19006171526207e-06,3.693062550692135e-05,1.0973703330614695e-06,2.3863874233963347e-06
252,1.92216119555248e-06,9.645020152690003e-07,1.412944392248051e-06,1.987871565567815e-06,2.8727329284970085e-06,3.350131465465246e-06,2.5438902236521664e-06,1.8041814353302365e-06,3.884522136565627e-06,3.189552834576327e-06,1.1255286172684798e-06,3.5467943869270312e-06,4.212053465184614e-06,3.435515964962186e-05,1.094858569182053e-06,2.364546142182591e-06
253,1.8996715989484184e-06,9.639744550287512e-07,1.4144657658571332e-06,1.9942405003390824e-06,2.9615032829094794e-06,3.3991419917907253e-06,2.579002023877326e-06,1.7322343998800135e-06,4.129473588852721e-06,3.1240428977841943e-06,1.1210771537725072e-06,3.609328890933845e-06,4.226289601746795e-06,3.176096476725761e-05,1.0910937358079249e-06,2.3432430229221994e-06
254,1.8810180735291215e-06,9.676076439517262e-07,1.4120750488060744e-06,2.0014313774249867e-06,3.0467035070479083e-06,3.4391189422307992e-06,2.6120039128789266e-06,1.6627895200220674e-06,4.375525090512261e-06,3.067553783233596e-06,1.1179821889380222e-06,3.6609648905265213e-06,4.232866256784241e-06,2.9193669737928026e-05,1.0858681428149578e-06,2.3218514402609884e-06
255,1.8660522721703954e-06,9.748557240174102e-07,1.4054900138962051e-06,2.0097326822971275e-06,3.1261913257690437e-06,3.469738362494976e-06,2.64203013264824e-06,1.5964173745540868e-06,4.6205844932744825e-06,3.022606728132747e-06,1.1159631270408233e-06,3.7003366318900296e-06,4.2321095048326015e-06,2.6692162431909612e-05,1.079109528492201e-06,2.2995773282167433e-06
256,1.854260231840957e-06,9.850334505375192e-07,1.3947215971748425e-06,2.019277171790465e-06,3.1975357648293977e-06,3.4908613513669935e-06,2.6679055216012853e-06,1.5336968927703127e-06,4.86248985931906e-06,2.991544239111538e-06,1.1146735477678927e-06,3.7258037188039123e-06,4.2247367848412934e-06,2.428877541752367e-05,1.0709063071047342e-06,2.2755267816038685e-06
257,1.84475921726081e-06,9.974217039730965e-07,1.380091412579386e-06,2.0298875069549077e-06,3.2581640834079627e-06,3.5022447553582695e-06,2.6883236221451523e-06,1.4752406957671558e-06,5.099029993289007e-06,2.976332101462049e-06,1.113720621231995e-06,3.735611828645785e-06,4.211857037383401e-06,2.2009616348591175e-05,1.0615541905246882e-06,2.248759966731039e-06
258,1.836443333491906e-06,1.0113793561130444e-06,1.3622031016433512e-06,2.041014935796113e-06,3.305775069715517e-06,3.5032280919164127e-06,2.7021107512831763e-06,1.4215985051069037e-06,5.328143665049633e-06,2.9784655554804206e-06,1.112650300997108e-06,3.72828677637595e-06,4.194704151572635e-06,1.9875073552925e-05,1.0514779177685476e-06,2.2184777327741743e-06
259,1.828197894841511e-06,1.0263575197405687e-06,1.3418590165178298e-06,2.0518020753906e-06,3.3387497027152566e-06,3.4927153870038956e-06,2.708417938765554e-06,1.3732010952747096e-06,5.548188102588524e-06,2.9989880597859005e-06,1.1109374478681743e-06,3.7030652239984108e-06,4.174233671734813e-06,1.7900393329097094e-05,1.0410875900891491e-06,2.184338834036972e-06
260,1.8189915760599818e-06,1.041830739868421e-06,1.3199385421539363e-06,2.061227302380917e-06,3.35615204622226e-06,3.469457943833729e-06,2.706820128678264e-06,1.3304184913883575e-06,5.758129961365492e-06,3.038640327996864e-06,1.1080243377406383e-06,3.660159276949753e-06,4.150775357431436e-06,1.6096560718991647e-05,1.0307229894958887e-06,2.146674734666504e-06
261,1.807853956192857e-06,1.0572814335663693e-06,1.2973304889390261e-06,2.06824496548376e-06,3.3572947206524457e-06,3.432468806842167e-06,2.6973620459056007e-06,1.293604482660733e-06,5.957568537351806e-06,3.097997475420394e-06,1.1034098561565688e-06,3.6007525814979336e-06,4.123832448569018e-06,1.4471614161522548e-05,1.0206437788565345e-06,2.1063795889341426e-06
262,1.7939214013879143e-06,1.0722549858682507e-06,1.2749610236301138e-06,2.0718772809816673e-06,3.341456048181518e-06,3.381422930717848e-06,2.6805275605953405e-06,1.2630394246259413e-06,6.146542925059274e-06,3.177556395026111e-06,1.096751460592963e-06,3.5267905218356955e-06,4.091997692616997e-06,1.3031869981553733e-05,1.0109781566724062e-06,2.0645562512167328e-06
263,1.7764955629779902e-06,1.086372411275849e-06,1.2538036393445314e-06,2.0712712574418698e-06,3.3082311201972636e-06,3.3169375576971646e-06,2.6571206241028245e-06,1.238866030194524e-06,6.3250911699372515e-06,3.2779028153962824e-06,1.0879645592556982e-06,3.4407497548055455e-06,4.052992883051151e-06,1.1782349084398795e-05,1.001674735238706e-06,2.0222004112550355e-06
264,1.7549906691767369e-06,1.0993387004326735e-06,1.2347775857080174e-06,2.0657405535351215e-06,3.2581671175160413e-06,3.2406569771512223e-06,2.628070886785613e-06,1.2211200727403972e-06,6.492669682138622e-06,3.399833370543346e-06,1.077307193945689e-06,3.3454745063152784e-06,4.0040581255850405e-06,1.0726637251685452e-05,9.925321187151625e-07,1.980048777198514e-06
265,1.7289410016999603e-06,1.1110412792922503e-06,1.2186274533088736e-06,2.0547872012965025e-06,3.192993844804215e-06,3.1550972360420075e-06,2.594181729336957e-06,1.209805346759201e-06,6.6477207147513244e-06,3.5441867069896823e-06,1.0653622323910768e-06,3.244018239556137e-06,3.942777719580382e-06,9.86708327858664e-06,9.832865118195798e-07,1.938556389382567e-06
266,1.6981848327666361e-06,1.1216008043783367e-06,1.2058967835409127e-06,2.038112269046682e-06,3.115299317171275e-06,3.0633298926899663e-06,2.555933907552935e-06,1.204893869567713e-06,6.7875552664162195e-06,3.7114812862506104e-06,1.0528645735279337e-06,3.139476693465924e-06,3.867897789957423e-06,9.205426115203194e-06,9.736658148002246e-07,1.8979886656283739e-06
267,1.6630102539975454e-06,1.131277855024748e-06,1.196955324742055e-06,2.015633953321376e-06,3.0280549003948945e-06,2.9686890946631697e-06,2.5134853312361447e-06,1.2062347465795758e-06,6.908536340694589e-06,3.901617721389404e-06,1.040501366415776e-06,3.0348745014030976e-06,3.7796572621850735e-06,8.743065892103791e-06,9.633950313246561e-07,1.8585407283785678e-06
268,1.6240924450089102e-06,1.1404142988142008e-06,1.1920006585628744e-06,1.987460936375504e-06,2.934326205110096e-06,2.8745689458176607e-06,2.4668375868096805e-06,1.2134698033823343e-06,7.006602252382182e-06,4.113715273479323e-06,1.0288166477227602e-06,2.9330912858275075e-06,3.6796645964282446e-06,8.480679100968346e-06,9.522444365130767e-07,1.8203402010952076e-06
269,1.5823270537637119e-06,1.1494765838790394e-06,1.1910409030370676e-06,1.9537603670133003e-06,2.8371414183943066e-06,2.784226201044806e-06,2.416026910897321e-06,1.2260287155809304e-06,7.078067911332655e-06,4.34604522738511e-06,1.018186616166185e-06,2.8367617450897365e-06,3.5705369908904287e-06,8.417679205085306e-06,9.401319617459956e-07,1.783402731728004e-06
270,1.5387291748118082e-06,1.1590221851686603e-06,1.193893947652112e-06,1.914635584928286e-06,2.739368349746365e-06,2.7005534882051724e-06,2.3612621757180915e-06,1.2431611311487129e-06,7.120408955002701e-06,4.596050695939105e-06,1.0088132194210395e-06,2.748155498688566e-06,3.4553705966883905e-06,8.551983589589344e-06,9.271513126822622e-07,1.7477004226078769e-06
271,1.4944228916241692e-06,1.1695602162325596e-06,1.200198155713128e-06,1.870198756834124e-06,2.6435713231988285e-06,2.6259023346184572e-06,2.3030170870953726e-06,1.2639360500330982e-06,7.132766920760088e-06,4.860399044923883e-06,1.0007360267718599e-06,2.669078467460858e-06,3.3372235208461764e-06,8.880056091464736e-06,9.134741696239396e-07,1.7132836553131795e-06
272,1.4506064423286352e-06,1.1814501279088264e-06,1.209415501027458e-06,1.8207795267282608e-06,2.5519649048576196e-06,2.5620324664252216e-06,2.242091291704342e-06,1.2872405929814071e-06,7.116056263997015e-06,5.134988104024023e-06,9.938547011333135e-07,2.6008132779505263e-06,3.2188981715553483e-06,9.396927562977925e-06,8.992568736128071e-07,1.6803172945260078e-06
273,1.4084261259288681e-06,1.1948740377597362e-06,1.2208533995495805e-06,1.7670360383639462e-06,2.466526146600246e-06,2.510164775441091e-06,2.179611027336105e-06,1.3118449701271644e-06,7.0726740436678305e-06,5.414915401057484e-06,9.87993304881371e-07,2.544143805787084e-06,3.1029918736978703e-06,1.0095991162964795e-05,8.846319924488454e-07,1.6490127710491193e-06
274,1.3688457098642631e-06,1.2098568356230748e-06,1.2337225777797036e-06,1.7098886739597896e-06,2.3891071400980997e-06,2.471041298186472e-06,2.1169310345218237e-06,1.3365276899460551e-06,7.00597879855526e-06,5.694442037181186e-06,9.830192974870234e-07,2.499475560452349e-06,2.9919492641336064e-06,1.0968695044706147e-05,8.697154652572066e-07,1.619507930011951e-06
275,1.3325975381779658e-06,1.2263156735776799e-06,1.247179000507124e-06,1.650383458186484e-06,2.3214039844110396e-06,2.4449538506065374e-06,2.0554586934159982e-06,1.3602527193941903e-06,6.919764979056204e-06,5.966927247620117e-06,9.789159596288987e-07,2.4669236269879746e-06,2.888007472101641e-06,1.2004643102104682e-05,8.545950414839698e-07,1.5918023681919117e-06
276,1.3002124076127759e-06,1.2440747946291554e-06,1.2603690918746653e-06,1.5896021484449584e-06,2.2648780923468683e-06,2.4317809802458333e-06,1.996469647822043e-06,1.3823897415491576e-06,6.817837780429394e-06,6.224736102231872e-06,9.757614109065148e-07,2.4462766980896273e-06,2.7930763419851565e-06,1.3192661674732976e-05,8.393148889005175e-07,1.5658238849366943e-06
277,1.2720923179333723e-06,1.2628377965430717e-06,1.272534724975597e-06,1.5286558051470163e-06,2.2207779672137668e-06,2.4310197557302316e-06,1.94096854759663e-06,1.4028575869041535e-06,6.703635509982427e-06,6.459321044333706e-06,9.73688801532347e-07,2.4369259795467295e-06,2.708609056730975e-06,1.4522746007482628e-05,8.238649240221635e-07,1.5415260767745328e-06
278,1.2485513296732162e-06,1.2822045072355867e-06,1.2830632697076176e-06,1.4686912200025192e-06,2.1901935738733173e-06,2.4417845589937693e-06,1.8896153013666052e-06,1.4220594410518099e-06,6.579814514092392e-06,6.661882134048644e-06,9.728547371418182e-07,2.437849364421913e-06,2.6355327600518527e-06,1.5987887613584525e-05,8.081977930525559e-07,1.5188794381457662e-06
279,1.2297964377621219e-06,1.3017496631906851e-06,1.2914047697216042e-06,1.4108265234541959e-06,2.173993026011157e-06,2.462857271297951e-06,1.842705816551203e-06,1.4406682795836055e-06,6.447860354005312e-06,6.824673354518571e-06,9.734137409775403e-07,2.4476434791125643e-06,2.5742683278593467e-06,1.758444848451132e-05,7.922495470678981e-07,1.4977690200841965e-06
280,1.2159227812642919e-06,1.3210593241498858e-06,1.2970285078270644e-06,1.3560771578543306e-06,2.1727011008702486e-06,2.492868036478094e-06,1.8001756629793784e-06,1.4594382376369074e-06,6.30792048841124e-06,6.9422323032695794e-06,9.755135587226945e-07,2.4646075211050877e-06,2.5248298272112003e-06,1.9310535723772963e-05,7.759448321347736e-07,1.477916143943791e-06
281,1.2069335900030634e-06,1.3396873094025447e-06,1.299554219570469e-06,1.3053428936821955e-06,2.186444018611967e-06,2.5305350438152242e-06,1.7616320956535628e-06,1.4790992460030336e-06,6.158994239637293e-06,7.011658356908056e-06,9.793018529326532e-07,2.4869050607250217e-06,2.4870010081262917e-06,2.116340209374821e-05,7.592624352676305e-07,1.4589266748144913e-06
282,1.2027243604488002e-06,1.357173056447801e-06,1.2989527870745428e-06,1.259392028750731e-06,2.2149290942537906e-06,2.574843959423155e-06,1.7264278805932894e-06,1.50026353134281e-06,5.999470057526401e-06,7.0319225411128255e-06,9.849549671897217e-07,2.512752299880915e-06,2.4604583691891086e-06,2.3137398718494618e-05,7.423719628816872e-07,1.440453240802056e-06
283,1.203052990192409e-06,1.3732042700221424e-06,1.2956269668581307e-06,1.2188216401338941e-06,2.2574449510201982e-06,2.6251354971925255e-06,1.6937549175375123e-06,1.5233199572023737e-06,5.827842202557319e-06,7.002980052644665e-06,9.927032773506047e-07,2.5405036151841697e-06,2.4446973339579634e-06,2.52229189935682e-05,7.256909628331921e-07,1.4223208082666568e-06
284,1.207540680269573e-06,1.3877360610771934e-06,1.2902752531979358e-06,1.1840398633955937e-06,2.3129963072869764e-06,2.681124768686632e-06,1.6627929166833143e-06,1.5483697319386286e-06,5.643354337081867e-06,6.9251785950975695e-06,1.0027797250333905e-06,2.568583241444954e-06,2.4389749912098883e-06,2.740647791406552e-05,7.097889157154182e-07,1.404481114695686e-06
285,1.2157165514726764e-06,1.4009161432898113e-06,1.2836248463722665e-06,1.155262116494958e-06,2.3805864276805555e-06,2.742854462164302e-06,1.632962924574751e-06,1.5752530169916312e-06,5.4464287550243025e-06,6.79885792028296e-06,1.0153258494193475e-06,2.595409869096845e-06,2.4425854747628266e-06,2.9672563312641297e-05,6.95269081499193e-07,1.386837868616823e-06
286,1.2271463744965707e-06,1.4130025356564855e-06,1.2762397966131313e-06,1.132513638467479e-06,2.4594047191172776e-06,2.810566008475939e-06,1.6041867469461873e-06,1.603719965769502e-06,5.238837051283926e-06,6.624389462771652e-06,1.0303545351648564e-06,2.6194916772613675e-06,2.455269015779763e-06,3.200671821849237e-05,6.827215356523429e-07,1.369099120049874e-06
287,1.2416072372592819e-06,1.4244209574614186e-06,1.2685245615612939e-06,1.1156699214006225e-06,2.548700073387903e-06,2.884496635082811e-06,1.5769762299857926e-06,1.6337195954189778e-06,5.023493120116297e-06,6.403141822713909e-06,1.0477595784356287e-06,2.6396103299570127e-06,2.4772677925694874e-06,3.43973641636678e-05,6.726897838965421e-07,1.350749517901053e-06
288,1.2591516154858965e-06,1.4357811719666044e-06,1.2608610784614412e-06,1.1045409353559655e-06,2.6474814963179925e-06,2.9646485736214586e-06,1.552297907240667e-06,1.6655734682896212e-06,4.8038451272702835e-06,6.138763470972174e-06,1.067297805820442e-06,2.6548431122485704e-06,2.509029161923571e-06,3.6834382711082924e-05,6.65619000086081e-07,1.331119561215623e-06
289,1.2799997091798113e-06,1.4477442691024572e-06,1.2537065837865853e-06,1.0989240366266093e-06,2.7543948085944537e-06,3.050602118771194e-06,1.531315051568239e-06,1.6998431134670917e-06,4.583192607497507e-06,5.837504605153427e-06,1.0885531541993921e-06,2.6644273684594976e-06,2.550965291670866e-06,3.930594815751586e-05,6.618203464859187e-07,1.3094967024664717e-06
290,1.304386035370378e-06,1.4609021082717797e-06,1.247548658185129e-06,1.0985652292751454e-06,2.8679313761412787e-06,3.1414401830148755e-06,1.515144970268863e-06,1.7370308870513264e-06,4.364300977046477e-06,5.507277063294949e-06,1.1109562610106363e-06,2.667752977190904e-06,2.603355878251756e-06,4.1797318340001244e-05,6.61466490294457e-07,1.2852751647251382e-06
291,1.3325015521599165e-06,1.475769179653882e-06,1.2428237703552787e-06,1.1031215602765e-06,2.9867622374450087e-06,3.2358079876396347e-06,1.504702217038568e-06,1.7773634578716852e-06,4.149315630703865e-06,5.156308859022611e-06,1.1338744591809663e-06,2.6645772132650897e-06,2.666187431581394e-06,4.4292732777361605e-05,6.646096769809167e-07,1.2581678365962446e-06
292,1.364523848984266e-06,1.492787039209024e-06,1.2399175857738139e-06,1.1122270219180675e-06,3.1098231063126687e-06,3.332080132203574e-06,1.5006324455485848e-06,1.8207192552727822e-06,3.939828816845865e-06,4.7922920134660515e-06,1.1566881766030559e-06,2.655217794380993e-06,2.7389471776886264e-06,4.677801080507988e-05,6.711976950180969e-07,1.2283916707100013e-06
293,1.4006218797856722e-06,1.5122566940192007e-06,1.2391850099087449e-06,1.1255894511487778e-06,3.236049731329913e-06,3.428563104948376e-06,1.5033067744953903e-06,1.8666568752950923e-06,3.737120146567812e-06,4.422158226022895e-06,1.1788003168854263e-06,2.640508579665469e-06,2.8205170020251713e-06,4.924151566898833e-05,6.810685105142801e-07,1.1966405449281135e-06
294,1.4408760249571755e-06,1.5342721759546864e-06,1.2409427801541475e-06,1.1429964415051292e-06,3.3640314555393463e-06,3.523576955625218e-06,1.512823995533344e-06,1.91453067768623e-06,3.5424854336598547e-06,4.052085084360026e-06,1.199670707084905e-06,2.6215595455226923e-06,2.909188213373544e-06,5.167318497387685e-05,6.939365904961571e-07,1.1638220313383909e-06
295,1.485184338735154e-06,1.5587281964773965e-06,1.245476260327819e-06,1.164246053119415e-06,3.4918189359976404e-06,3.615296661451137e-06,1.5289885925984396e-06,1.9636357330795746e-06,3.3573196683094895e-06,3.687464868418807e-06,1.2189183668776238e-06,2.5994696766582598e-06,3.0028016820091156e-06,5.406219480505207e-05,7.09388435951951e-07,1.1307658282694405e-06
296,1.5332708301074329e-06,1.5853471032378119e-06,1.253047592660233e-06,1.1891360990759604e-06,3.6169459896603697e-06,3.701524861887348e-06,1.5513004023160325e-06,2.0132695969969333e-06,3.1828727195954484e-06,3.3328526020738817e-06,1.2363522294019275e-06,2.5750843855526108e-06,3.0990330761993835e-06,5.6393780282355466e-05,7.268896443411998e-07,1.0980947277536532e-06
297,1.5847856910288556e-06,1.6137091161334339e-06,1.2638710907000918e-06,1.2175658724042205e-06,3.7366644562344456e-06,3.779650272861838e-06,1.579019053050779e-06,2.062709778669169e-06,3.0200584697303767e-06,2.991974915767209e-06,1.2518759676992632e-06,2.5488729715476713e-06,3.1957539838101023e-06,5.864700704538121e-05,7.458111640180592e-07,1.066293199905465e-06
298,1.6393469356437044e-06,1.643354503526699e-06,1.2780602286398572e-06,1.2496239122779695e-06,3.848261294500649e-06,3.8467651553363975e-06,1.61127230895519e-06,2.11119602530152e-06,2.869597063158308e-06,2.6678444913966615e-06,1.2654082414308847e-06,2.52098861580147e-06,3.2913039852830256e-06,6.079652555473498e-05,7.654761278717067e-07,1.0358777260711933e-06
299,1.6964642809840784e-06,1.6738899311559131e-06,1.2955647822697119e-06,1.285537267821296e-06,3.9492817994636415e-06,3.899857670985724e-06,1.6470981658458567e-06,2.157895339188041e-06,2.732302631830157e-06,2.3629391717252688e-06,1.2769172266295653e-06,2.491461955888337e-06,3.3845127693987657e-06,6.281860291061562e-05,7.852153112718503e-07,1.0074990371336356e-06
300,1.7554478724479057e-06,1.70497192944236e-06,1.3161526102440489e-06,1.3255324439661928e-06,4.037667671908968e-06,3.9361542317870395e-06,1.685425964845481e-06,2.201791385665075e-06,2.609200427594213e-06,2.0793689942048006e-06,1.2865097447544648e-06,2.460409081042656e-06,3.4744627448474585e-06,6.469774065902744e-05,8.044596017955277e-07,9.818891252939883e-07
301,1.8153505009114483e-06,1.7362353356761982e-06,1.339487277588867e-06,1.369729041871776e-06,4.1119234015927715e-06,3.953601034682318e-06,1.7250679893664928e-06,2.241604811736865e-06,2.501378522791928e-06,1.8190837092195892e-06,1.2944561611617947e-06,2.428172428215545e-06,3.560246368500886e-06,6.643023543232485e-05,8.228646250675252e-07,9.597223258229646e-07
302,1.8749061452726167e-06,1.7672672102993703e-06,1.3652495995216513e-06,1.4180790527633455e-06,4.171302638040072e-06,3.951262037170674e-06,1.7646946468206772e-06,2.275877871734617e-06,2.409725599497468e-06,1.5841472262963364e-06,1.3010962639483112e-06,2.395359845889409e-06,3.641065420239791e-06,6.802342118925899e-05,8.403364947135841e-07,9.415025891480433e-07
303,1.932513025755452e-06,1.7976260395055566e-06,1.3931994959685303e-06,1.47030343319951e-06,4.215846516061261e-06,3.929403958617916e-06,1.8028143793503528e-06,2.303188616704291e-06,2.334762889695048e-06,1.3768859110983574e-06,1.3066841603462995e-06,2.362759703698668e-06,3.7166078752448226e-06,6.949089535990487e-05,8.568925626200073e-07,9.275239609679544e-07
304,1.986388183691618e-06,1.8269554043204864e-06,1.4231489894016854e-06,1.525855677331747e-06,4.246093899898598e-06,3.889224787442988e-06,1.8378404797246301e-06,2.322396850857606e-06,2.276595612344398e-06,1.1997977775550277e-06,1.3112847425681774e-06,2.331136032190222e-06,3.7872017105542852e-06,7.084511635935031e-05,8.724962785686516e-07,9.178739067694017e-07
305,2.0349131889396282e-06,1.8551744612528762e-06,1.4548935361683182e-06,1.584004004878449e-06,4.262525009423988e-06,3.832338796022248e-06,1.8682052761202156e-06,2.3328618480341293e-06,2.2348900607360707e-06,1.0553892122338352e-06,1.3147914900363548e-06,2.3010043064189245e-06,3.853518477637566e-06,7.209026081103973e-05,8.870169051042659e-07,9.124450089017926e-07
306,2.076974212982372e-06,1.8825455900763738e-06,1.4881595217524827e-06,1.644049179802904e-06,4.26511550282826e-06,3.760248135391824e-06,1.8924678522437424e-06,2.3345730896863514e-06,2.2088436287209917e-06,9.460955486331382e-07,1.3170372675904894e-06,2.272542637561105e-06,3.916153653752615e-06,7.321910704337913e-05,9.003009872664672e-07,9.109859174004392e-07
307,2.112027189650023e-06,1.909519276356628e-06,1.5226058186367324e-06,1.7055061201080204e-06,4.253286062825896e-06,3.6741408227033374e-06,1.9094562149473046e-06,2.3281362113734174e-06,2.197169538799636e-06,8.74272552512411e-07,1.3178813870520608e-06,2.2456330288307493e-06,3.975453761627395e-06,7.421513847871963e-05,9.122336260831779e-07,9.132246695371201e-07
308,2.1398343778474966e-06,1.936489732099638e-06,1.5578657068035925e-06,1.7680656393619196e-06,4.226143405592745e-06,3.5751373160919007e-06,1.9184386945637827e-06,2.314596907643628e-06,2.198125946670214e-06,8.42251293663375e-07,1.3171866669753303e-06,2.219892129203849e-06,4.031590375173069e-06,7.505688959310973e-05,9.227182728851261e-07,9.189868598667632e-07
309,2.160137707030012e-06,1.9636179035431022e-06,1.5935593749352293e-06,1.8314599984768435e-06,4.182825251323807e-06,3.464668965909023e-06,1.91921849199226e-06,2.2951591138025373e-06,2.20957421271141e-06,8.524321280146878e-07,1.3147587605608707e-06,2.194731026021475e-06,4.08463203443173e-06,7.572124430440897e-05,9.316380385034289e-07,9.281946601782759e-07
310,2.172594374413481e-06,1.990802746451339e-06,1.6292889690143808e-06,1.895477293144039e-06,4.12288422761118e-06,3.3446382669407654e-06,1.912071319696667e-06,2.2709001826316386e-06,2.2290169627611947e-06,9.072847313069737e-07,1.3103495502114067e-06,2.1695740200627594e-06,4.13443278027605e-06,7.618497372991108e-05,9.388515709025457e-07,9.407630028153212e-07
311,2.1770110155904835e-06,2.0177642639539404e-06,1.6647581416968576e-06,1.960090761875945e-06,4.046609523748154e-06,3.2173322251997414e-06,1.8975727729671231e-06,2.242563275591487e-06,2.2537060296747806e-06,1.0092488951885305e-06,1.3036829854725249e-06,2.144131545356625e-06,4.180425835660872e-06,7.642526711908873e-05,9.441665788495953e-07,9.564977720770479e-07
312,2.1736162088497614e-06,2.044094030293064e-06,1.7000177642689284e-06,2.025524835677579e-06,3.955144663277565e-06,3.0852605515840145e-06,1.8764241635626436e-06,2.2104834679860625e-06,2.2809977112982696e-06,1.1606927706958615e-06,1.2944912912080723e-06,2.11853020103824e-06,4.221649561378799e-06,7.642020290518066e-05,9.47315863110048e-07,9.750475596488294e-07
313,2.163100552149067e-06,2.0693089514551356e-06,1.7355999383167335e-06,2.0922074080960635e-06,3.850375823850362e-06,2.9510648408453397e-06,1.8493220279311749e-06,2.1746993337314783e-06,2.30882732140572e-06,1.363958050603248e-06,1.2826393963425312e-06,2.0932410675957853e-06,4.257186123946054e-06,7.614997176212105e-05,9.480671883187966e-07,9.959121806567546e-07
314,2.1463859279944618e-06,2.0930567055755677e-06,1.772384202494054e-06,2.160647726993243e-06,3.7346732790493314e-06,2.817499670556887e-06,1.8169012330062802e-06,2.1352423795039694e-06,2.335907481766069e-06,1.6213918655220098e-06,1.268253111461844e-06,2.068875581011005e-06,4.286767021910359e-06,7.55991295713141e-05,9.464367293677925e-07,1.018548905856034e-06
315,2.124350553884087e-06,2.1153225872120303e-06,1.8112951049075858e-06,2.2313159517277433e-06,3.6105345356057806e-06,2.687385603314535e-06,1.7798064681381795e-06,2.0924868777811114e-06,2.361547391356602e-06,1.9353774448164348e-06,1.2516840606493857e-06,2.0459807850773215e-06,4.311157091705343e-06,7.475889837173505e-05,9.427989244244779e-07,1.0425821690771986e-06
316,2.0977437470387312e-06,2.1363773310270403e-06,1.853035441085602e-06,2.3045847809145218e-06,3.4802014191975576e-06,2.563463461869482e-06,1.7388390016653811e-06,2.0473632177076007e-06,2.385396892486397e-06,2.3084536413905244e-06,1.2333456208471302e-06,2.0249165729566965e-06,4.3321598820123054e-06,7.36271463520512e-05,9.377779173946336e-07,1.0679546113282907e-06
317,2.0672283982548872e-06,2.156534366338022e-06,1.8979963233138735e-06,2.380680595975699e-06,3.3454867223647666e-06,2.448199236143207e-06,1.6950660386165323e-06,2.001275354795192e-06,2.407316029877814e-06,2.743417055183867e-06,1.2135756355145149e-06,2.005841069450814e-06,4.352349975559482e-06,7.220411625367096e-05,9.320343896085301e-07,1.0948643393536994e-06
318,2.0333465238412413e-06,2.17597547597849e-06,1.946307929478144e-06,2.459595703891744e-06,3.2079663011329156e-06,2.3437079298213826e-06,1.6498498786782305e-06,1.955769164417223e-06,2.4272525581771897e-06,3.2432118091541732e-06,1.1925995011467135e-06,1.988817044454766e-06,4.374671661743422e-06,7.048658580248505e-05,9.261345804123365e-07,1.1235662979693322e-06
319,1.9964448502227865e-06,2.1946913394414676e-06,1.99786340867602e-06,2.5410543557655376e-06,3.069346159927748e-06,2.2518664299884587e-06,1.604751024758023e-06,1.912200900425985e-06,2.445114922425351e-06,3.810647088550429e-06,1.1705981165890585e-06,1.9739249727352363e-06,4.401963170366376e-06,6.84683972801297e-05,9.205205074918066e-07,1.1542114593263788e-06
320,1.9567545111165207e-06,2.2124128456114245e-06,2.052250420948641e-06,2.624594868705597e-06,2.9316928335718887e-06,2.1744328108353063e-06,1.5613036834407484e-06,1.87159316551271e-06,2.4607917020089065e-06,4.448130383106839e-06,1.1478215526904152e-06,1.961230269859885e-06,4.4365541081273285e-06,6.615056341102123e-05,9.154893656811258e-07,1.1867755861036033e-06
321,1.9146173574255523e-06,2.2285276789135735e-06,2.108680363249826e-06,2.7096764371244593e-06,2.7974008088208267e-06,2.1129971054029767e-06,1.520812512676751e-06,1.8346747061444025e-06,2.4742864399498363e-06,5.157513522895635e-06,1.1246225423122547e-06,1.9507028173573905e-06,4.4800737196063635e-06,6.355234684980227e-05,9.111765595335599e-07,1.2210586095988565e-06
322,1.8706534887131818e-06,2.2420811419975585e-06,2.166012111543526e-06,2.795710704321298e-06,2.668976853639422e-06,2.068825753708655e-06,1.4842954738149134e-06,1.8020297673361933e-06,2.4859090524124182e-06,5.939976106343638e-06,1.1014011963792396e-06,1.9422223609866947e-06,4.533353471302627e-06,6.0713513067794054e-05,9.075784056099458e-07,1.2567779059952465e-06
323,1.8257172392160225e-06,2.251931206557289e-06,2.2229345654049638e-06,2.882001267133275e-06,2.548796800662314e-06,2.042764123081441e-06,1.4525398592016435e-06,1.7742327098115154e-06,2.4965034718152495e-06,6.79579530580874e-06,1.0785560462085128e-06,1.9355666584836504e-06,4.596331534044409e-06,5.76881492262628e-05,9.046139051566852e-07,1.2937175088563012e-06
324,1.7806840079216365e-06,2.2570270225243356e-06,2.2782958323831647e-06,2.967640779888745e-06,2.438923253452851e-06,2.0352740143981815e-06,1.4261916994865936e-06,1.7518307445568933e-06,2.507540995061197e-06,7.724006463622171e-06,1.0564669638748767e-06,1.9303629378059276e-06,4.668118030907968e-06,5.453652414730563e-05,9.02218594933479e-07,1.3317904987026388e-06
325,1.73627597679165e-06,2.2566628252350187e-06,2.3314026799117347e-06,3.0514689976142175e-06,2.3409854943158783e-06,2.0465345295308436e-06,1.4058216878168493e-06,1.735220633045361e-06,2.5209479425668915e-06,8.722111102176396e-06,1.0355119878765932e-06,1.9261166014149687e-06,4.7473173794542255e-06,5.1318781850360095e-05,9.004555743676676e-07,1.370957572260698e-06
326,1.6930525837922032e-06,2.250590254781579e-06,2.382068689192112e-06,3.1321834174109848e-06,2.2561213524270633e-06,2.0764799019562635e-06,1.3919242666084844e-06,1.7245909472370882e-06,2.538767157027478e-06,9.785967390635221e-06,1.0160798530809242e-06,1.9222564908043503e-06,4.832416337577061e-06,4.809032467835564e-05,8.996003385056913e-07,1.4111113287297692e-06
327,1.6514569441951027e-06,2.239031182581673e-06,2.4303737703717814e-06,3.2085875641975343e-06,2.1849804020176883e-06,2.124774661135049e-06,1.3848465408717639e-06,1.719940562965883e-06,2.5629128226807635e-06,1.090986956896175e-05,9.98503047656332e-07,1.9181298705014893e-06,4.921936449508599e-06,4.4898632018251776e-05,9.001330461695866e-07,1.452039774559735e-06
328,1.6118402731411138e-06,2.222679603152349e-06,2.476308017371533e-06,3.2798389042573134e-06,2.1277542460757125e-06,2.1908140151112256e-06,1.3847038740560182e-06,1.7210460191848212e-06,2.5951862881160854e-06,1.2086634754801156e-05,9.829719788536044e-07,1.9130618247182598e-06,5.014275711679902e-06,4.178241619277254e-05,9.0261684434027e-07,1.4934359691591345e-06
