,EMG1,EMG2,EMG3,EMG4,EMG5,EMG6,EMG7,EMG8,EMG9,EMG10,EMG11,EMG12,EMG13,EMG14,EMG15,EMG16
0,5.772367800175654e-07,4.1197128390432324e-07,-3.0282370215786687e-07,1.3782821033349985e-07,5.343390407674893e-07,7.700109766284474e-07,4.404492458842901e-08,7.77000737461418e-07,-1.2464314978695263e-07,7.396878524147934e-07,3.5704562578079576e-07,1.649378204866741e-06,3.804705325251659e-07,6.9061495274749115e-06,-1.1999895718628329e-08,3.724021063824408e-07
1,6.750636488731931e-07,5.078246590888715e-07,-2.251459610467519e-08,2.2036492467594928e-07,7.028447192995722e-07,9.851702742662486e-07,2.08351349035927e-07,8.863038772057039e-07,2.68342712653756e-07,8.267696701763031e-07,3.8831425520648677e-07,1.654428538658794e-06,4.810366324826323e-07,7.346787917504251e-06,1.6517343033115319e-07,4.640629127808406e-07
2,7.716801340276326e-07,6.03262221512872e-07,2.47152690538435e-07,3.03623051044402e-07,8.723093297496045e-07,1.2022566007261692e-06,3.6839446221527524e-07,9.994850169223496e-07,6.498653469729249e-07,9.170606523733441e-07,4.2138528748363887e-07,1.6655499053432839e-06,5.825110208084244e-07,7.785191909005618e-06,3.3645372216889676e-07,5.556873277963127e-07
3,8.651006873135852e-07,6.970718918197802e-07,5.034608415723649e-07,3.870011206950415e-07,1.0418792602276114e-06,1.4169487435615257e-06,5.217253126591481e-07,1.115942815811255e-06,1.0168514851425648e-06,1.0093400564933044e-06,4.5572843328364873e-07,1.6821489108734226e-06,6.835699625279152e-07,8.206989895689465e-06,5.001475939072708e-07,6.460673209055664e-07
4,9.539532028975576e-07,7.880079081947027e-07,7.443060002288277e-07,4.700748444702775e-07,1.2106719072344813e-06,1.6250955361066283e-06,6.665986958343019e-07,1.235151363420347e-06,1.3663461230023834e-06,1.1025551132720862e-06,4.908207638902406e-07,1.7038133907492627e-06,7.831663281287761e-07,8.600507874802947e-06,6.546096487056935e-07,7.344787493680013e-07
5,1.0374637972013925e-06,8.749304256535102e-07,9.681088796292506e-07,5.526165693808292e-07,1.3777117406568105e-06,1.8230302119836907e-06,8.019437216729326e-07,1.3565292392955134e-06,1.6954152754862998e-06,1.1959078805010757e-06,5.262043107279208e-07,1.7304286018903863e-06,8.80529800678499e-07,8.955720766455853e-06,7.982859226256586e-07,8.206701839959669e-07
6,1.115176469224994e-06,9.569919545737417e-07,1.1735679409281768e-06,6.345238353090027e-07,1.54186266558278e-06,2.0079007866865765e-06,9.272136638883976e-07,1.4793415103581126e-06,2.001080637356602e-06,1.2888030375807804e-06,5.616028243747424e-07,1.7621394595318936e-06,9.751930071384462e-07,9.264249944616275e-06,9.298697963961629e-07,9.046359099513679e-07
7,1.1867013047080559e-06,1.0337168743000313e-06,1.3595341017363027e-06,7.157364014828518e-07,1.701813393635139e-06,2.1779014700440372e-06,1.0423363210545988e-06,1.6027540859148573e-06,2.2805426802926743e-06,1.3807753971726884e-06,5.969889928415203e-07,1.7991596281625545e-06,1.0670239977531517e-06,9.519388677365575e-06,1.048504035203492e-06,9.863816414299452e-07
8,1.2516701447093462e-06,1.104891534970655e-06,1.525202613744707e-06,7.962088204395655e-07,1.8561607801853886e-06,2.332270329500888e-06,1.1476788346650578e-06,1.7259992474575092e-06,2.5316547943180316e-06,1.47142418065104e-06,6.325187086017854e-07,1.8415807255291113e-06,1.1561223487751042e-06,9.715725380437123e-06,1.1538899113074463e-06,1.065829250876221e-06
9,1.3097838838708511e-06,1.1703729335307305e-06,1.6704635215650064e-06,8.759061105510218e-07,2.0035614388324426e-06,2.4709711077875713e-06,1.2438954286924746e-06,1.848454672718635e-06,2.753319312276558e-06,1.5603072296965114e-06,6.683887013457104e-07,1.889264681697237e-06,1.242630121582455e-06,9.849172265811296e-06,1.2462703623614206e-06,1.1428233028134404e-06
10,1.360785374922984e-06,1.229969577794704e-06,1.7960572862637569e-06,9.548055241325777e-07,2.1428326677876382e-06,2.594185346847723e-06,1.3317877361563772e-06,1.969581095417197e-06,2.9455689478700256e-06,1.646837790654131e-06,7.047273718514153e-07,1.94178759822618e-06,1.3266220323753057e-06,9.916791069050477e-06,1.3263665684389608e-06,1.2171726324940786e-06
11,1.404367825187539e-06,1.2834066552289646e-06,1.903359376274604e-06,1.0329117490553168e-06,2.2729931065944243e-06,2.7019418975213913e-06,1.4122679534427171e-06,2.0889085273026454e-06,3.109421590186032e-06,1.7302455454500006e-06,7.415660559293952e-07,1.9984734281074027e-06,1.4080795517439003e-06,9.916520623268825e-06,1.3953041015481482e-06,1.2887211846107876e-06
12,1.440170795961838e-06,1.3303739421460684e-06,1.993944976291211e-06,1.1102842371441852e-06,2.3933622120839824e-06,2.794116072141514e-06,1.486300317251118e-06,2.2061254367886943e-06,3.246771633259138e-06,1.8096621014459682e-06,7.788551647749301e-07,2.058542897517245e-06,1.486903623107086e-06,9.847946521394843e-06,1.45447529668811e-06,1.3573802282451453e-06
13,1.4679386504656235e-06,1.3707106527687224e-06,2.0692327063508142e-06,1.187098732725955e-06,2.503689208157913e-06,2.8707152561699616e-06,1.5547748592240642e-06,2.3210837140701755e-06,3.3603919898740835e-06,1.8843118878985268e-06,8.164775241878781e-07,2.121206948578756e-06,1.5629660112421843e-06,9.713231523895336e-06,1.5053185088454867e-06,1.4230764891891987e-06
14,1.4877393937261557e-06,1.4046353979491263e-06,2.130337857378112e-06,1.2637193336695033e-06,2.6041129444782934e-06,2.932209268292718e-06,1.618401002799723e-06,2.433628993868026e-06,3.453792472899714e-06,1.9536135030538787e-06,8.542555765769988e-07,2.185552989485804e-06,1.63612354132175e-06,9.516906491756302e-06,1.5491093691658888e-06,1.4857628876880683e-06
15,1.5001249674863283e-06,1.432814243769499e-06,2.1780906114780145e-06,1.3406840827275886e-06,2.6948944926444703e-06,2.979701186209889e-06,1.677675643092464e-06,2.5433872116961628e-06,3.530736509334752e-06,2.0170965948785255e-06,8.919804947707193e-07,2.2503464319633524e-06,1.7061645419304666e-06,9.265094434502407e-06,1.5868570708194056e-06,1.5455805658868176e-06
16,1.506160176033644e-06,1.4562013801811584e-06,2.2131598901679648e-06,1.418560974891327e-06,2.776147959681591e-06,3.014785580995968e-06,1.7329456755090504e-06,2.649720463425275e-06,3.5946366960044033e-06,2.0743464929597327e-06,9.294485179490759e-07,2.3140030231108074e-06,1.772786835446774e-06,8.96506253008341e-06,1.6192929849099985e-06,1.6030107435012532e-06
17,1.5072671596745668e-06,1.4758084122003186e-06,2.2362073813745235e-06,1.4977578795106925e-06,2.847817322885768e-06,3.0391331314135946e-06,1.7845143362971361e-06,2.7519221204819593e-06,3.648173780909033e-06,2.1251677399006243e-06,9.664364124367678e-07,2.374844456823819e-06,1.835645747175706e-06,8.625060644616415e-06,1.646922023084712e-06,1.658861623225685e-06
18,1.5049742930977872e-06,1.4925896012428687e-06,2.2480397774484354e-06,1.5783924338581212e-06,2.909839586285084e-06,3.0541539474014613e-06,1.8326594396243314e-06,2.849453103145485e-06,3.693207646183135e-06,2.1697940949862254e-06,1.0026302681972238e-06,2.4315042112771886e-06,1.8943984860909938e-06,8.253996499048878e-06,1.6701246995770097e-06,1.7141040553857556e-06
19,1.5007418690170061e-06,1.5074380788727332e-06,2.2497612603151413e-06,1.660250177612428e-06,2.962226371232774e-06,3.061000857199393e-06,1.8775647765946599e-06,2.942004565293296e-06,3.7308873123922964e-06,2.2088317735001135e-06,1.0376108663999885e-06,2.483236013389608e-06,1.948668380964903e-06,7.860841831776491e-06,1.6892287716603623e-06,1.7696739695024867e-06
20,1.4959004055167102e-06,1.5211890286299142e-06,2.2428295883961638e-06,1.7428303781704744e-06,3.004958938281367e-06,3.06074149668738e-06,1.91934708705194e-06,3.029418790740334e-06,3.7618531142182053e-06,2.242957812292025e-06,1.0709340954562366e-06,2.5300064521208276e-06,1.997981200851566e-06,7.45410442292683e-06,1.7044601611596201e-06,1.826412943042354e-06
21,1.491634422087086e-06,1.5346116147720592e-06,2.2289196493797668e-06,1.8254562017127735e-06,3.037836284010368e-06,3.0544395991927467e-06,1.958227370655711e-06,3.1116332644640067e-06,3.7863409937337165e-06,2.2727296940169515e-06,1.1022610235126048e-06,2.5724483088913874e-06,2.0418284511400976e-06,7.041644756975403e-06,1.7158305817513701e-06,1.8851815636590548e-06
22,1.4889524741082824e-06,1.5483899309348959e-06,2.209650798554295e-06,1.9073424660185052e-06,3.0604412193934155e-06,3.0430893981362033e-06,1.99463755509335e-06,3.1887204809751008e-06,3.8040946723023546e-06,2.298637346912876e-06,1.1314771281677455e-06,2.611771374247293e-06,2.0798412656823867e-06,6.630778230760933e-06,1.7231221186375844e-06,1.9469368418550163e-06
23,1.4886265454059309e-06,1.5630774676771628e-06,2.1863331683793346e-06,1.987563980851168e-06,3.072252664816049e-06,3.02745020857927e-06,2.02911725894164e-06,3.2609660619055805e-06,3.8143030217886846e-06,2.3211601258988163e-06,1.158739471542838e-06,2.6496271343271864e-06,2.111850991534392e-06,6.2284455827985275e-06,1.7260247685621547e-06,2.01261545639563e-06
24,1.4911553163572117e-06,1.5790664898976876e-06,2.159855902316962e-06,2.06506708803408e-06,3.0728252203655613e-06,3.007865728591828e-06,2.062144629576215e-06,3.328907114805213e-06,3.815812946774529e-06,2.3407896736632694e-06,1.1844141191195108e-06,2.6879364364850095e-06,2.1377702615133982e-06,5.841260336624885e-06,1.7243022804068172e-06,2.082918685351948e-06
25,1.4968086615432503e-06,1.5965867777375475e-06,2.1307070542395445e-06,2.1388731830307572e-06,3.0619647393257203e-06,2.984161809998267e-06,2.094109466204895e-06,3.393287702424244e-06,3.8075792878689958e-06,2.3581320856300436e-06,1.208940549306607e-06,2.7287782578076843e-06,2.1574950948672367e-06,5.475328849304905e-06,1.717840307090746e-06,2.1581673376096837e-06
26,1.5057335062122394e-06,1.6156838790934937e-06,2.099044088790151e-06,2.2083670224877473e-06,3.0398836171191615e-06,2.955671207385562e-06,2.1253965154315868e-06,3.454893348728754e-06,3.7891305993302543e-06,2.3739168223124138e-06,1.2327154565904586e-06,2.7743346185764104e-06,2.1709210461283976e-06,5.135939714317832e-06,1.7066352216905147e-06,2.2382886956815485e-06
27,1.518030541823288e-06,1.6362107630001263e-06,2.0648330446519385e-06,2.27343178744298e-06,3.0073257741149526e-06,2.9213947453154977e-06,2.156376564338932e-06,3.5142686457634334e-06,3.7608268106147156e-06,2.388835652445489e-06,1.2560462958946657e-06,2.826748079576686e-06,2.178015540331712e-06,4.827371561419526e-06,1.690870984318625e-06,2.32286074783235e-06
28,1.5337198607851683e-06,1.6579353334164893e-06,2.0280834963454492e-06,2.3343585625266375e-06,2.9655991085769745e-06,2.8802762063951473e-06,2.187238045037391e-06,3.5714487376386466e-06,3.723773510447647e-06,2.403414357833735e-06,1.279145304289472e-06,2.8878982899817188e-06,2.178989766111288e-06,4.552894769982791e-06,1.6709995184489752e-06,2.411092136115898e-06
29,1.5526290686511432e-06,1.6807247841759029e-06,1.989046403713621e-06,2.3916489627882705e-06,2.91640617801709e-06,2.831468461343201e-06,2.217804243122955e-06,3.6258951756399595e-06,3.6794496699903085e-06,2.417984845936931e-06,1.3021105015249227e-06,2.9592303530659024e-06,2.1744717087563292e-06,4.3148696763077445e-06,1.647678271347263e-06,2.501753023874919e-06
30,1.5743097082404167e-06,1.7046143587315834e-06,1.948236602426486e-06,2.4458599049533483e-06,2.8614824562496667e-06,2.774398264123694e-06,2.247471880904355e-06,3.676699340934405e-06,3.6292392450750245e-06,2.4326857753103844e-06,1.3248928320492654e-06,3.0416591096077193e-06,2.1654101697417124e-06,4.114956625955905e-06,1.621634599237179e-06,2.5932061744053774e-06
31,1.5980082036565583e-06,1.7296646402254232e-06,1.9063180399518973e-06,2.4975589853345206e-06,2.8023098217046516e-06,2.7086702058693127e-06,2.2752469968274704e-06,3.722913243505597e-06,3.5740539908788593e-06,2.44750811857609e-06,1.3473348115884833e-06,3.135543801333295e-06,2.1527997616449485e-06,3.954374855657034e-06,1.5935484374468782e-06,2.683631751022784e-06
32,1.6226645252441175e-06,1.7557514629902593e-06,1.8640005446606124e-06,2.5473257118443287e-06,2.740119601402381e-06,2.634122486503635e-06,2.2998459976098433e-06,3.7637343169863623e-06,3.5142151206869517e-06,2.4624617213803382e-06,1.3693041306389886e-06,3.2407158456581687e-06,2.137567679344546e-06,3.8339441664813055e-06,1.5639887715557449e-06,2.7713655707542563e-06
33,1.6470205121780124e-06,1.7824995271814844e-06,1.8220355700415094e-06,2.5956677117935562e-06,2.676048083427019e-06,2.5510773187072315e-06,2.3199357585749604e-06,3.7983849896335607e-06,3.4496357083934272e-06,2.477746025677749e-06,1.3907837306508067e-06,3.356459803668446e-06,2.1206106018626216e-06,3.75389627689303e-06,1.533448097873565e-06,2.8551576009924665e-06
34,1.6699359366045158e-06,1.8093892767497676e-06,1.7812278380399554e-06,2.6428277898450113e-06,2.6112450289553807e-06,2.4604846049288373e-06,2.3344818318969157e-06,3.825937177926275e-06,3.380100997520287e-06,2.4936892023127516e-06,1.4118336192684858e-06,3.481456294168465e-06,2.102729553448872e-06,3.7137798490543045e-06,1.502386879770437e-06,2.9342533795521075e-06
35,1.6907217969763118e-06,1.8358967424394457e-06,1.7423507198862062e-06,2.6885968942207105e-06,2.546916293113332e-06,2.363887416410952e-06,2.3429943727229504e-06,3.845452301143821e-06,3.3053614043324853e-06,2.5105398333122743e-06,1.4325059562661264e-06,3.613851905482255e-06,2.084469941437377e-06,3.7126902909781017e-06,1.4711875698796978e-06,3.0083565048956967e-06
36,1.7091565265650338e-06,1.861561171010182e-06,1.706050213815407e-06,2.732240066074658e-06,2.484328481891842e-06,2.263357082637668e-06,2.3455656615196686e-06,3.856336505254555e-06,3.2249794468325074e-06,2.5283539835590378e-06,1.4527813680097975e-06,3.7515058348522754e-06,2.066083383351338e-06,3.74976828154105e-06,1.4401321107159942e-06,3.0775278049767504e-06
37,1.7252446618342602e-06,1.8859887620970004e-06,1.6728619541324382e-06,2.7725513352112997e-06,2.4247592654013763e-06,2.1613500998570886e-06,2.3427902994396612e-06,3.858509313432503e-06,3.1382386932163385e-06,2.5469378041132585e-06,1.4724958711151794e-06,3.892260548582517e-06,2.0476860158340828e-06,3.824698248405645e-06,1.4094840247038245e-06,3.1420154918732445e-06
38,1.7390807584175403e-06,1.9088281040084184e-06,1.6432441693526796e-06,2.8080365382875095e-06,2.3693674248543184e-06,2.060410892147156e-06,2.3356307325663112e-06,3.852202853456538e-06,3.0444243560511962e-06,2.5657606487183323e-06,1.4912583593769257e-06,4.034088999680521e-06,2.02946155802628e-06,3.937937749476505e-06,1.3795342216064676e-06,3.2020108013127272e-06
39,1.7509099129071433e-06,1.929708494273125e-06,1.6174987810369341e-06,2.837229432778383e-06,2.3190300590093902e-06,1.962923360214905e-06,2.3251884936350446e-06,3.837536606376254e-06,2.9433017108530553e-06,2.583975207386462e-06,1.5084524819692818e-06,4.1751058373278695e-06,2.0117213912217794e-06,4.090672291490756e-06,1.350559136015627e-06,3.2574128386604144e-06
40,1.761205133366753e-06,1.9481220325960375e-06,1.5956720561058409e-06,2.8590379566662466e-06,2.274297551485545e-06,1.871077264934651e-06,2.3124109249422224e-06,3.814241527766149e-06,2.835333396171137e-06,2.6005532820524477e-06,1.523347500422085e-06,4.313542272642566e-06,1.994820453468931e-06,4.284693854236789e-06,1.3228123067117356e-06,3.307782814069279e-06
41,1.770633940649577e-06,1.9633036890913902e-06,1.577620790501604e-06,2.872934987150014e-06,2.235556985667389e-06,1.7868854246202387e-06,2.2978994830389406e-06,3.7817610802154024e-06,2.721465991233441e-06,2.6143291969460906e-06,1.5351851022767984e-06,4.447826384755561e-06,1.979072316860326e-06,4.522291308567249e-06,1.2965425777398443e-06,3.3525077604516548e-06
42,1.7798904899446412e-06,1.974198979055149e-06,1.563254628686526e-06,2.8789294170789362e-06,2.2032646245672814e-06,1.7121039316768512e-06,2.281954084820444e-06,3.739515627667474e-06,2.6028185970167093e-06,2.6240144669363843e-06,1.5431769707781037e-06,4.576798357052576e-06,1.9647442078274914e-06,4.806077137479484e-06,1.2719580810514436e-06,3.390946867506057e-06
43,1.7894836257571869e-06,1.9795420707889445e-06,1.5527047024640664e-06,2.8774173536266552e-06,2.178004947127917e-06,1.6481484133673382e-06,2.2648085941574596e-06,3.687070015140944e-06,2.4806852183103717e-06,2.628387974104384e-06,1.5465616190413627e-06,4.6998735360455376e-06,1.9521183024345614e-06,5.138717820790358e-06,1.249171887620936e-06,3.4224564820779712e-06
44,1.799658059763723e-06,1.9780517772043645e-06,1.546226368838784e-06,2.869038095863443e-06,2.1603272416960865e-06,1.596101739548093e-06,2.246871037093538e-06,3.6242365589613936e-06,2.356755530135063e-06,2.6264664561222324e-06,1.5447993940304755e-06,4.8168908903475285e-06,1.9415446969645832e-06,5.522641453047482e-06,1.2281657664510625e-06,3.4464432836988324e-06
45,1.8104873446064363e-06,1.9687714528064727e-06,1.5440009754952506e-06,2.854588462312895e-06,2.150568301828109e-06,1.5567707653457362e-06,2.2287717282640495e-06,3.551209372624191e-06,2.233144125516374e-06,2.6173997666410793e-06,1.537722572890443e-06,4.92760903602459e-06,1.933386055138316e-06,5.959774342034472e-06,1.208787810573166e-06,3.4625118644921157e-06
46,1.8219628334676046e-06,1.951448565030047e-06,1.5460443992741593e-06,2.8349375729058535e-06,2.1488811237861407e-06,1.5307141663267654e-06,2.2112235947533133e-06,3.4686909824208306e-06,2.1121361599803187e-06,2.6003013619648104e-06,1.5254859507899596e-06,5.031149084416544e-06,1.927894385645238e-06,6.451291265918225e-06,1.1908147345629912e-06,3.470560565434007e-06
47,1.8339668974348574e-06,1.9266977831258642e-06,1.5521653121663656e-06,2.8108712497871476e-06,2.155463133856557e-06,1.518227358446823e-06,2.1949670953368713e-06,3.3779165524750057e-06,1.9959208471065916e-06,2.5743737879191546e-06,1.5083918894828907e-06,5.125729563805608e-06,1.9251669672702924e-06,6.997394334250655e-06,1.1740184336339772e-06,3.4707317414674833e-06
48,1.8462267328503537e-06,1.8957976714212198e-06,1.5619234392651262e-06,2.782998543667591e-06,2.170775171192385e-06,1.5193211789894316e-06,2.180907575160954e-06,3.280537624216312e-06,1.8865050558742116e-06,2.539274681551191e-06,1.486712243079858e-06,5.2087797360643256e-06,1.9251936284395745e-06,7.597216500361478e-06,1.158157043638409e-06,3.463320044387081e-06
49,1.8583310443991054e-06,1.860267327154254e-06,1.5747108186861323e-06,2.7518723143085487e-06,2.195550144395032e-06,1.5337378289152454e-06,2.170159533874603e-06,3.1783768522250006e-06,1.7857053275598236e-06,2.495334465417317e-06,1.4605638781368838e-06,5.277323938687524e-06,1.927905009868948e-06,8.248958731185722e-06,1.142932904949891e-06,3.448770319629402e-06
50,1.8698074171192144e-06,1.8215120851808322e-06,1.5899864357526718e-06,2.7181295211105426e-06,2.230579145327749e-06,1.561011833408654e-06,2.163851286516068e-06,3.0731062014909024e-06,1.6950919496556768e-06,2.443460953582666e-06,1.4299212229017574e-06,5.328486066043884e-06,1.933166684515004e-06,8.950236898060341e-06,1.1279904152603946e-06,3.427769398785599e-06
51,1.8802972185946462e-06,1.7806713465500308e-06,1.6074474049104722e-06,2.682397519970427e-06,2.276447878388308e-06,1.6005351255778626e-06,2.162928521700484e-06,2.9660068504399114e-06,1.6159461524180059e-06,2.384940642274963e-06,1.3948310296417166e-06,5.359969897093996e-06,1.9407138191912335e-06,9.698366386868359e-06,1.1129270366531537e-06,3.401312922472112e-06
52,1.8898013389634376e-06,1.7385945723542114e-06,1.6269526870528087e-06,2.6451033164159284e-06,2.333386043881794e-06,1.651608196705069e-06,2.1681192377378896e-06,2.8579661234521217e-06,1.5492862056446797e-06,2.3212963376943424e-06,1.3556877625466313e-06,5.3704157224688085e-06,1.9500910973157544e-06,1.0490237990966032e-05,1.0972953458537933e-06,3.3705973606762852e-06
53,1.8988200800548586e-06,1.6958921628695177e-06,1.64833825738733e-06,2.6064655188412193e-06,2.401228519964699e-06,1.7134980489757833e-06,2.1799330160588874e-06,2.749648838690853e-06,1.495898279455345e-06,2.254109305643191e-06,1.3133036674718559e-06,5.359532257640983e-06,1.9606482364332984e-06,1.1321733234107134e-05,1.080685021803784e-06,3.3367349169208754e-06
54,1.9082629925692837e-06,1.6531005999475426e-06,1.6713364976306617e-06,2.566635583254005e-06,2.4793940929861874e-06,1.7854884434290078e-06,2.198588064586073e-06,2.6416422622244028e-06,1.456326729222598e-06,2.1847892119989705e-06,1.2687196260478574e-06,5.3279480896456954e-06,1.971582081823967e-06,1.2186970061278829e-05,1.0629000943064978e-06,3.3004678301301995e-06
55,1.9191934509081993e-06,1.610879412029579e-06,1.6955642426394885e-06,2.525762412734393e-06,2.56687123708191e-06,1.8668747368303827e-06,2.2239517325086903e-06,2.5344962785589285e-06,1.4308498363402634e-06,2.114449792295466e-06,1.2229746502522387e-06,5.276931047092078e-06,1.9820398746969165e-06,1.3077705598248643e-05,1.0440626061157491e-06,3.2620021893055892e-06
56,1.9325600502725194e-06,1.5700419685095754e-06,1.720479838645011e-06,2.4839610250681445e-06,2.6623362995358716e-06,1.9568790961378527e-06,2.255571249097951e-06,2.428750275433297e-06,1.4194643287477443e-06,2.043916285442095e-06,1.177000839807886e-06,5.208202694168549e-06,1.99124462527889e-06,1.3982980935554096e-05,1.024532932371893e-06,3.220965477291812e-06
57,1.9490284542902574e-06,1.5314200214075973e-06,1.7453310777380626e-06,2.441336386091291e-06,2.7644215102114165e-06,2.0545214556119063e-06,2.2927370104390907e-06,2.325008049805441e-06,1.4218822392630782e-06,1.9737704329134708e-06,1.1316139266110672e-06,5.1239299307872165e-06,1.9985828338953643e-06,1.4888942903804472e-05,1.0047455495766768e-06,3.176520543902857e-06
58,1.9689205247618073e-06,1.4957529851712107e-06,1.769119153450656e-06,2.398072206666714e-06,2.871886365373418e-06,2.1585570646693073e-06,2.3345164637539194e-06,2.2239659825931296e-06,1.4375620674133463e-06,1.9044458388822744e-06,1.0875311109853244e-06,5.026827360429482e-06,2.003708930670428e-06,1.577901969046871e-05,9.850891351555203e-07,3.127612300066876e-06
59,1.9922047807705536e-06,1.4636616085803793e-06,1.7905946365971498e-06,2.354424632147566e-06,2.9835554355355242e-06,2.2675258681605205e-06,2.3798092609357742e-06,2.12631509213424e-06,1.4657798292243716e-06,1.8363552343191605e-06,1.0453835921853522e-06,4.920194904638279e-06,2.006641226654817e-06,1.6634683977825668e-05,9.65885703142703e-07,3.0732112117264995e-06
60,2.018540198337343e-06,1.4356309174112553e-06,1.8083649970488834e-06,2.3105778884561067e-06,3.098197110891703e-06,2.3797790984860663e-06,2.427495135907799e-06,2.0326036087604774e-06,1.505668957971915e-06,1.7699275558056843e-06,1.005715990049707e-06,4.807708890998328e-06,2.0076950518065077e-06,1.7436655239189896e-05,9.474569672969514e-07,3.0124996596852383e-06
61,2.047395781833775e-06,1.4120158769305434e-06,1.8211488856504188e-06,2.266593550836706e-06,3.2144449006849904e-06,2.493388027520491e-06,2.476597685226113e-06,1.9431513225312477e-06,1.5561792788441937e-06,1.7055931599991508e-06,9.68981088770196e-07,4.693008658106589e-06,2.0072632439547133e-06,1.8166482236639603e-05,9.301671994704889e-07,2.9450317532542933e-06
62,2.0781781234106642e-06,1.3931191288600758e-06,1.8280722582329695e-06,2.2225964448287903e-06,3.3306756366645806e-06,2.6060366775756593e-06,2.5263121730415735e-06,1.8580055424211332e-06,1.6160400120767394e-06,1.6438232581387803e-06,9.355321298659388e-07,4.579329013741964e-06,2.005626202832568e-06,1.8808708894311464e-05,9.143718969098568e-07,2.8708278144877995e-06
63,2.110272540990293e-06,1.3792476394056604e-06,1.8288570140233433e-06,2.178933490936852e-06,3.444859519563309e-06,2.7150502948678127e-06,2.5759111182061615e-06,1.7769898342851914e-06,1.6837978767816109e-06,1.5851949157894544e-06,9.056205702914036e-07,4.46929351072389e-06,2.002894403568711e-06,1.9353164267061026e-05,9.003650368255251e-07,2.7903501359095614e-06
64,2.1429807553588665e-06,1.3706339482933395e-06,1.8238283439493617e-06,2.1360466743043966e-06,3.5544918035562127e-06,2.81759892036308e-06,2.624691337085664e-06,1.699918217034678e-06,1.75784762997344e-06,1.530421079855134e-06,8.794182719110763e-07,4.364807429165759e-06,1.999061897359066e-06,1.9796044268480986e-05,8.884067665240008e-07,2.7044064796341e-06
65,2.1753928418830955e-06,1.3673048336679866e-06,1.8137691372809041e-06,2.094203008694607e-06,3.656636980260157e-06,2.9109698121910834e-06,2.672014994827726e-06,1.6268226658274387e-06,1.8363771095491363e-06,1.4802703166371195e-06,8.570716778392234e-07,4.267076947744249e-06,1.9940864036697286e-06,2.0138644781593033e-05,8.787589643830269e-07,2.614078134892842e-06
66,2.206283837880437e-06,1.3690599839501058e-06,1.7996901517227752e-06,2.0533320145705586e-06,3.748095258751004e-06,2.9928150633885985e-06,2.7173188580913303e-06,1.557969321696917e-06,1.9172937980658373e-06,1.435403170105496e-06,8.3874348997809e-07,4.1767848845542105e-06,1.987911026532082e-06,2.0384122825218058e-05,8.716549109581306e-07,2.520706161470348e-06
67,2.2341843349674004e-06,1.3755623798216213e-06,1.7825912946444719e-06,2.013037967259762e-06,3.825739986156863e-06,3.061408200153686e-06,2.7600160944113077e-06,1.4937324927297633e-06,1.9982616454673908e-06,1.3962798829272088e-06,8.245891788442737e-07,4.094322309630281e-06,1.9804892072751822e-06,2.053443699935406e-05,8.672477781395259e-07,2.425876047697725e-06
68,2.257659683852419e-06,1.3864048568540756e-06,1.7633544346794553e-06,1.9727523654340767e-06,3.886996609916129e-06,3.1159043030426288e-06,2.7994048005354026e-06,1.4345459338882763e-06,2.07693225137656e-06,1.3631543496195921e-06,8.147316609548622e-07,4.020001029308294e-06,1.9719223149293556e-06,2.0589308054266512e-05,8.655747223971295e-07,2.3313178782735195e-06
69,2.2756203414737378e-06,1.4010880456289647e-06,1.7428447842623904e-06,1.93193737115894e-06,3.930284120912874e-06,3.1564510586586633e-06,2.8347174767694536e-06,1.38090568684321e-06,2.1513287658307556e-06,1.3360641687322725e-06,8.093091532866069e-07,3.954219991673496e-06,1.9625990820838134e-06,2.0547044977855653e-05,8.665176763886098e-07,2.2387131381420477e-06
70,2.2874987445611756e-06,1.4190040155161376e-06,1.7220600422657577e-06,1.890228147433508e-06,3.955181563555454e-06,3.1840102777458873e-06,2.865253679793304e-06,1.3332906394993418e-06,2.2201531682560774e-06,1.3148113447474792e-06,8.08511739701359e-07,3.897516087541898e-06,1.953148052456595e-06,2.040648857396548e-05,8.697736190110106e-07,2.1494884484486326e-06
71,2.29329277988348e-06,1.4395134072713775e-06,1.7021508783850327e-06,1.8474796777185717e-06,3.96215801683567e-06,3.19992656738563e-06,2.8903912780828964e-06,1.2920608634426722e-06,2.2827644241074848e-06,1.2989723662457595e-06,8.125266106709825e-07,3.850465446842586e-06,1.9442572774171083e-06,2.0169586268956436e-05,8.748643175585247e-07,2.0647037886742324e-06
72,2.293507814753229e-06,1.4620222114842224e-06,1.6843417940981088e-06,1.8037623881193816e-06,3.951968149092031e-06,3.2054863347016125e-06,2.9094000090557e-06,1.2574227657396397e-06,2.3388453114881227e-06,1.2879484532638263e-06,8.21453561305345e-07,3.8134832919206897e-06,1.936548660709984e-06,1.984331831939194e-05,8.811768380961072e-07,1.985070150390674e-06
73,2.2890008615863764e-06,1.4859309713444773e-06,1.669828545426615e-06,1.7593589477004822e-06,3.925165646756293e-06,3.2017378105915106e-06,2.921277413043296e-06,1.229444481350093e-06,2.388026039883135e-06,1.2810361948994112e-06,8.352583802984509e-07,3.7865914332001374e-06,1.9305239321443276e-06,1.9439506528566786e-05,8.880148693201816e-07,1.9110162607074547e-06
74,2.2807613698699687e-06,1.5105331928671615e-06,1.659652821102674e-06,1.7147427985318712e-06,3.8820629698269145e-06,3.1895325773863745e-06,2.9248484793685277e-06,1.2081152339163e-06,2.429736203234369e-06,1.2774647117151265e-06,8.537823424172728e-07,3.769284016732331e-06,1.9265000242706374e-06,1.8972620808593318e-05,8.946785086500068e-07,1.8427478619517256e-06
75,2.26967369290269e-06,1.5349851490762249e-06,1.6545810550977586e-06,1.6704718920037772e-06,3.822912950713797e-06,3.169496765177217e-06,2.9190541806218848e-06,1.1934312642038444e-06,2.4634339805174618e-06,1.276386584543416e-06,8.76797435307223e-07,3.7606220334145432e-06,1.924549817214055e-06,1.845704698993603e-05,9.005796839714288e-07,1.780315389973849e-06
76,2.2563163442362704e-06,1.55832752399605e-06,1.6550598337938235e-06,1.6270501605794579e-06,3.7479950236330654e-06,3.1418626942504883e-06,2.9032004466440632e-06,1.1854755351554214e-06,2.4890690231318504e-06,1.2768917314832765e-06,9.040482210325133e-07,3.7594762124416322e-06,1.9244936427689306e-06,1.790501571933575e-05,9.053142662637751e-07,1.723644468609737e-06
77,2.2408776600581067e-06,1.579568335327789e-06,1.6612407603937519e-06,1.5848908814299515e-06,3.6576734553783676e-06,3.106399621721958e-06,2.877070774812623e-06,1.18449950411085e-06,2.5072984390720584e-06,1.2780432951030281e-06,9.352477924070914e-07,3.7647411836392025e-06,1.9259266826387366e-06,1.7325638821379226e-05,9.086213334998504e-07,1.672512513303442e-06
78,2.2232188070294444e-06,1.5978188406074437e-06,1.6729954948181325e-06,1.5443612365741367e-06,3.552626321668305e-06,3.0626110182087653e-06,2.8409175516151674e-06,1.1909526442961372e-06,2.519206809900772e-06,1.2788684500723718e-06,9.700636651136924e-07,3.7754927340949878e-06,1.9282457413448773e-06,1.67251632679272e-05,9.10312836326399e-07,1.626619834109387e-06
79,2.203033444727024e-06,1.6123304257320827e-06,1.6899126950968492e-06,1.5057688318298195e-06,3.434212501117352e-06,3.010088655135325e-06,2.795381545074143e-06,1.2053772833615547e-06,2.525884585905915e-06,1.2783799642900555e-06,1.0081018489173463e-06,3.791096607957017e-06,1.9307352049178125e-06,1.610810185776657e-05,9.10275611948981e-07,1.5858108911178438e-06
80,2.180011730758995e-06,1.6224575175205194e-06,1.7113107508150404e-06,1.4692705069200948e-06,3.304732484305771e-06,2.948809672812927e-06,2.74142548344455e-06,1.2282612706972765e-06,2.528194330237918e-06,1.2757592101158127e-06,1.0488742435699307e-06,3.8111319438642834e-06,1.9328450478390213e-06,1.5478368505992143e-05,9.084925939097244e-07,1.5502254943262423e-06
81,2.1539275998931468e-06,1.627757110818629e-06,1.7362391231365425e-06,1.4348398053401755e-06,3.1673989579524677e-06,2.879307023342167e-06,2.680349817666213e-06,1.2599857667889522e-06,2.52664177897641e-06,1.2706233934223037e-06,1.0917669751887132e-06,3.835058384512556e-06,1.9345768461205105e-06,1.483974953026555e-05,9.050437876850561e-07,1.520229932819126e-06
82,2.1246591815437158e-06,1.6281712046018045e-06,1.763471143169814e-06,1.402390920085384e-06,3.026045354318694e-06,2.8027721674742004e-06,2.6138315897955986e-06,1.300818384398486e-06,2.5213068703997496e-06,1.263175371127612e-06,1.1360240655881195e-06,3.86189554965619e-06,1.936634928769112e-06,1.4195727988332807e-05,9.001361453556724e-07,1.4962888459758076e-06
83,2.0922373008673315e-06,1.6240296904525216e-06,1.791552106648201e-06,1.3719838146806199e-06,2.8847034033427932e-06,2.7210805510693334e-06,2.543820303958492e-06,1.35086182572674e-06,2.511934542194404e-06,1.254132890714947e-06,1.180774289704153e-06,3.890181081798243e-06,1.9401595519029282e-06,1.3548890502507803e-05,8.941076699760473e-07,1.4789214830038365e-06
84,2.0569388444625707e-06,1.6158270712043955e-06,1.8189391243618526e-06,1.3439669670068429e-06,2.747179369387189e-06,2.6366516484838685e-06,2.4722682175945356e-06,1.410004059204201e-06,2.4981660329883114e-06,1.2444622927512417e-06,1.2251037851668845e-06,3.9181015302254514e-06,1.9463007697292903e-06,1.2900188843210426e-05,8.873369102030071e-07,1.4686539247968206e-06
85,2.0192920490100845e-06,1.6040001645690573e-06,1.8442519056469203e-06,1.318974847826322e-06,2.6167580227768957e-06,2.5521540164734384e-06,2.400923001047578e-06,1.4779783829705301e-06,2.4797774242389546e-06,1.2350893822538152e-06,1.2680873618762985e-06,3.9436534476616634e-06,1.9559725512498206e-06,1.224883138059026e-05,8.801370090394649e-07,1.4659225715890433e-06
86,1.979918230227251e-06,1.5888982721063478e-06,1.8665659646295317e-06,1.297781382699678e-06,2.4960940382121876e-06,2.4701983735235434e-06,2.331305018353784e-06,1.55454619106091e-06,2.4567471954685938e-06,1.226786134572312e-06,1.3087775465177065e-06,3.964890028247054e-06,1.9697770864936227e-06,1.1593364989604152e-05,8.727109483401075e-07,1.4710162377151676e-06
87,1.9393560933966646e-06,1.5708891381963065e-06,1.8855433668480131e-06,1.2811070849315378e-06,2.3872229390898063e-06,2.39313498277291e-06,2.2646996466009164e-06,1.6396408543867185e-06,2.4290987132402296e-06,1.220190387396282e-06,1.3462841740298396e-06,3.980266355096937e-06,1.9879496655267098e-06,1.0933198605549763e-05,8.651715254044457e-07,1.4840556626810653e-06
88,1.8980485907815318e-06,1.5504410504601835e-06,1.9012711699972064e-06,1.269506431080456e-06,2.2916056001919607e-06,2.322951273545455e-06,2.2020497576416603e-06,1.7333081237442128e-06,2.3968075424998097e-06,1.215830313691762e-06,1.3799494436063939e-06,3.988954061104117e-06,2.010325751589889e-06,1.026941236426865e-05,8.576094483157985e-07,1.5049580584242537e-06
89,1.8564737135783195e-06,1.5281100196037842e-06,1.9139290141248726e-06,1.2633479337712641e-06,2.2102168171087022e-06,2.2612184816845463e-06,2.1438466296814712e-06,1.8354985370950211e-06,2.3600182278522583e-06,1.214159100595e-06,1.4094776466987503e-06,3.991003711761093e-06,2.036396701386546e-06,9.604612011976589e-06,8.501374258460764e-07,1.5334121568532566e-06
90,1.815274867857926e-06,1.5044465237006456e-06,1.923565243802407e-06,1.2628119518669065e-06,2.143689140823877e-06,2.2090730758795353e-06,2.0901144178124785e-06,1.945889417960432e-06,2.3192999086137724e-06,1.2155587515980809e-06,1.4349386346388312e-06,3.987343100971492e-06,2.0654516654672973e-06,8.942317084141126e-06,8.428567422497426e-07,1.5689000806856228e-06
91,1.7753081086668904e-06,1.4799005134309984e-06,1.930133272047651e-06,1.26788327929662e-06,2.092420526905609e-06,2.167228162120537e-06,2.040473509086282e-06,2.0638021265890978e-06,2.275597777167239e-06,1.2202547722350627e-06,1.456638468851398e-06,3.9796424852224036e-06,2.0966896376482574e-06,8.286399311230142e-06,8.358013341683166e-07,1.6107360396874518e-06
92,1.7376051004503756e-06,1.4548221854755535e-06,1.9336567493190844e-06,1.27835328973143e-06,2.0566244774635177e-06,2.1359974484125737e-06,1.9942545563420078e-06,2.1881569145714e-06,2.2299772158619592e-06,1.228235255684852e-06,1.4749151664223057e-06,3.970057326937211e-06,2.1291888280690374e-06,7.64078375891256e-06,8.289193392462381e-07,1.6580671744395065e-06
93,1.7032535205135442e-06,1.4295411473567028e-06,1.9343106071240034e-06,1.2938472811747305e-06,2.036403017433524e-06,2.115389496291535e-06,1.9506963056381528e-06,2.3174176867170515e-06,2.1834488624563637e-06,1.239258183314753e-06,1.4900038740305377e-06,3.9608780131923885e-06,2.1618173501831957e-06,7.009351237764135e-06,8.220878089979188e-07,1.7098917818460043e-06
94,1.6732143612389112e-06,1.4044041504091045e-06,1.932356122480028e-06,1.3138928275472832e-06,2.03177951198985e-06,2.105358457245848e-06,1.9092160851653926e-06,2.4495355553597234e-06,2.136976363033244e-06,1.2528971307939573e-06,1.5020432566012799e-06,3.954160638713926e-06,2.193277834182531e-06,6.395935368860338e-06,8.151391014894685e-07,1.7651817776371076e-06
95,1.6481641534655272e-06,1.3797140324213237e-06,1.928023796051273e-06,1.3379835007852876e-06,2.0425853359165023e-06,2.106097472227281e-06,1.869610457180353e-06,2.5819152321184114e-06,2.09156216116316e-06,1.2685961245782998e-06,1.5111344687618006e-06,3.951433799450476e-06,2.222323218913133e-06,5.804352510795594e-06,8.078988930872529e-07,1.8230088393869502e-06
96,1.62843717397988e-06,1.355617443212108e-06,1.9214532689438133e-06,1.3655847129231758e-06,2.068295702706299e-06,2.118112307601847e-06,1.8320681240766728e-06,2.711446524298621e-06,2.048271041954189e-06,1.2858070428748526e-06,1.517371968882395e-06,3.953534714639371e-06,2.2479877004463336e-06,5.238362155219656e-06,8.002771476950363e-07,1.8825171011427908e-06
97,1.614066453903999e-06,1.3320296713165215e-06,1.912667767672783e-06,1.3961215304017158e-06,2.107960626735607e-06,2.142015209311804e-06,1.7970402091015586e-06,2.834696537148636e-06,2.0081371845051913e-06,1.304218274147925e-06,1.5208528180805548e-06,3.960532557781175e-06,2.269683303903013e-06,4.701457609275686e-06,7.923902776825943e-07,1.9427944900466346e-06
98,1.604900509429071e-06,1.308663166982225e-06,1.9015163007734478e-06,1.4290206715171315e-06,2.1602233558243907e-06,2.1782771586872486e-06,1.7650672612719177e-06,2.948328771811987e-06,1.972003237667541e-06,1.3239177374228202e-06,1.5216593042042871e-06,3.971677839192749e-06,2.2871553003084423e-06,4.1965790335151665e-06,7.845719111746515e-07,2.0027972720277517e-06
99,1.6007121949949841e-06,1.2851380071457304e-06,1.8876700343892846e-06,1.463801193222263e-06,2.2233532201033523e-06,2.227188014964418e-06,1.7366347967096449e-06,3.049635180376034e-06,1.940396129950201e-06,1.3453301136738917e-06,1.5197972639690861e-06,3.98544217793202e-06,2.300338425039172e-06,3.725995787114124e-06,7.772366299457023e-07,2.061340694140019e-06
100,1.6011832725694407e-06,1.261086113615045e-06,1.8707826417957072e-06,1.500120943146395e-06,2.2953155379827964e-06,2.2890171374958495e-06,1.7121302797867735e-06,3.1368966355751465e-06,1.9134893812977087e-06,1.3689630420093431e-06,1.515123351842732e-06,3.99976231681523e-06,2.3091531086993384e-06,3.2914389666886057e-06,7.707401335519538e-07,2.117147939770249e-06
101,1.6058124104977984e-06,1.2362113275485907e-06,1.8507207584519141e-06,1.537728380597952e-06,2.37394921585758e-06,2.3641332784641492e-06,1.6918688046799989e-06,3.2093125480654686e-06,1.8911030588441622e-06,1.3951657675972542e-06,1.5073307042196589e-06,4.0124340532730755e-06,2.313383248063237e-06,2.8944193900607585e-06,7.653256775199641e-07,2.169030764910003e-06
102,1.6138701365462054e-06,1.2103235510161443e-06,1.8276792457614459e-06,1.5764040079563579e-06,2.4571933793143612e-06,2.452907970852894e-06,1.6760729673977965e-06,3.2665306853563635e-06,1.8727338009272426e-06,1.4240525738565837e-06,1.4960447581644723e-06,4.02147401344203e-06,2.3127057640999076e-06,2.5367474575088604e-06,7.611288295171859e-07,2.2161233958554564e-06
103,1.6243940375705293e-06,1.1833347398302474e-06,1.8021148687491227e-06,1.6159440092685803e-06,2.54317226559492e-06,2.555542933332428e-06,1.6648173061566331e-06,3.3081896013843736e-06,1.8576945322348152e-06,1.4555674132759688e-06,1.4809812280714277e-06,4.025341002947215e-06,2.306695950278336e-06,2.221069824405609e-06,7.581959376131337e-07,2.2579774838464506e-06
104,1.6362227019425401e-06,1.1552416552052064e-06,1.774566004512959e-06,1.6561147796871183e-06,2.630041714524874e-06,2.6720298438440746e-06,1.6579921627743507e-06,3.333841125657307e-06,1.8453405029321412e-06,1.4895867301449206e-06,1.4620608114958588e-06,4.023029479831825e-06,2.294764351238871e-06,1.950979796212965e-06,7.564935464247371e-07,2.2944768097990835e-06
105,1.6481199041448777e-06,1.1261822557597795e-06,1.7454592257650212e-06,1.6966052673976478e-06,2.715764795134428e-06,2.8021665316300352e-06,1.6552881573391772e-06,3.34313827148409e-06,1.8351824446030676e-06,1.5259892119006497e-06,1.4394767231539301e-06,4.014118887992703e-06,2.2763114222953657e-06,1.7306231500863996e-06,7.559079613074078e-07,2.325636855532181e-06
106,1.65893975481797e-06,1.0965308638935622e-06,1.7149665828680326e-06,1.737060888511187e-06,2.7980928568217463e-06,2.945460900319929e-06,1.6562258421189207e-06,3.336026462977012e-06,1.826752334854679e-06,1.564649788292144e-06,1.4137625107539166e-06,3.998866076248355e-06,2.251211716356199e-06,1.5642063025840057e-06,7.562359778631902e-07,2.351355663349581e-06
107,1.6677566923568327e-06,1.066904071348419e-06,1.682942894299196e-06,1.7771050283962593e-06,2.874810296380703e-06,3.1009489742099797e-06,1.6602116272477685e-06,3.312960179399596e-06,1.819356365501737e-06,1.6053593706146373e-06,1.3858226686203896e-06,3.9783358899788446e-06,2.2202405882268627e-06,1.455755327683564e-06,7.571746123395175e-07,2.3712417053687078e-06
108,1.673940640432434e-06,1.03806110766076e-06,1.6489741248281729e-06,1.8163063394000326e-06,2.944044444589779e-06,3.267069279382434e-06,1.6665557685028097e-06,3.2752081767493726e-06,1.8119349255009295e-06,1.6477456569256945e-06,1.3568571221025316e-06,3.954439740101218e-06,2.1850356617450594e-06,1.409258559463063e-06,7.583396505495357e-07,2.3846165146360933e-06
109,1.6771693149290178e-06,1.010771267978138e-06,1.6125701410348925e-06,1.8542489884215708e-06,3.0044742486388453e-06,3.441657166623775e-06,1.6744709103590968e-06,3.2250624387620304e-06,1.8030973834809346e-06,1.691262354532798e-06,1.3281795734280296e-06,3.929693465369531e-06,2.147667025438332e-06,1.429218935363507e-06,7.593520675224516e-07,2.39065964163228e-06
110,1.67741700403524e-06,9.857018843429361e-07,1.5734458621258932e-06,1.8907258026908879e-06,3.0554510553963524e-06,3.621969177810442e-06,1.6831337940159465e-06,3.165716679480374e-06,1.7912904255812412e-06,1.7352279748722603e-06,1.3010150033526666e-06,3.906682118007314e-06,2.110187944133432e-06,1.5212976362398946e-06,7.599966843801762e-07,2.388606802354424e-06
111,1.6749517855532489e-06,9.633554682309054e-07,1.5317273001463864e-06,1.9258595194792918e-06,3.0970268042027488e-06,3.804657311991203e-06,1.6918380247132262e-06,3.100835391623181e-06,1.775015424614135e-06,1.7788548741991722e-06,1.2763846496291791e-06,3.8875924008168475e-06,2.0744078358152274e-06,1.6925027718574981e-06,7.603371506438274e-07,2.377874939348311e-06
112,1.6702687821696416e-06,9.440735567259522e-07,1.4879790374051383e-06,1.9600438708175596e-06,3.1297448593208748e-06,3.985837101146556e-06,1.7001344979013436e-06,3.034074665094459e-06,1.753025398934526e-06,1.821277810564614e-06,1.2551033810232493e-06,3.8741798500195754e-06,2.0418573981755507e-06,1.950868701155201e-06,7.606714028465328e-07,2.358084708971441e-06
113,1.6639516504207425e-06,9.280793126422841e-07,1.4431083139284906e-06,1.9938008850932037e-06,3.15421054885168e-06,4.161411014669421e-06,1.707797596552409e-06,2.9687670205923527e-06,1.7245313478604811e-06,1.8616237585647417e-06,1.2378220034963445e-06,3.868060470849022e-06,2.0138138277018447e-06,2.30504271538429e-06,7.614330240867294e-07,2.3291420930513386e-06
114,1.6565875398393581e-06,9.154893556847641e-07,1.3982511738581592e-06,2.027670714654769e-06,3.1707905847124177e-06,4.3274732245334325e-06,1.714619434615739e-06,2.907757338618238e-06,1.6894277901699757e-06,1.8991017689232037e-06,1.2250557156914445e-06,3.870967710063404e-06,1.991334651164146e-06,2.7639328989142607e-06,7.631772557647744e-07,2.2914063965153498e-06
115,1.6487375358959488e-06,9.062858058302393e-07,1.3546683909247787e-06,2.062113671863688e-06,3.179655758749808e-06,4.480420282940649e-06,1.7202546911504222e-06,2.8532961699517887e-06,1.6483957519655933e-06,1.9331195452664086e-06,1.2171853673933089e-06,3.884823209092816e-06,1.9753033938881173e-06,3.33632929919143e-06,7.665795562499983e-07,2.24571254058914e-06
116,1.6408612756319487e-06,9.002932139483883e-07,1.3136242882709663e-06,2.097395860859722e-06,3.1809192451507216e-06,4.616667635897524e-06,1.7242654985893966e-06,2.8069856110523343e-06,1.6027227934547967e-06,1.9633759954960157e-06,1.2144679004679482e-06,3.911691768672764e-06,1.9664794836511616e-06,4.03062100565567e-06,7.723532844848284e-07,2.193130475575024e-06
117,1.6332366015588789e-06,8.971634006452501e-07,1.276270175288388e-06,2.1335519133827477e-06,3.1746044409676916e-06,4.732399034000004e-06,1.726252749790999e-06,2.769808434205956e-06,1.5539053272161433e-06,1.9898112989965445e-06,1.2171116107096297e-06,3.953734053247693e-06,1.9655693556944787e-06,4.854757913744073e-06,7.811486738462219e-07,2.134665021342745e-06
118,1.6259948254464517e-06,8.963713072535541e-07,1.2435906094870013e-06,2.170476083982077e-06,3.160628884297088e-06,4.823814821480286e-06,1.7259239551253779e-06,2.7422089149040596e-06,1.5033180693086674e-06,2.012553394659154e-06,1.2253615594446147e-06,4.013192387397664e-06,1.973340714847925e-06,5.816356456464621e-06,7.935149675197516e-07,2.0711855267641325e-06
119,1.6192631696879301e-06,8.972793449380279e-07,1.2164045998713434e-06,2.20803655764512e-06,3.139120978529825e-06,4.887791093501408e-06,1.7231318119570508e-06,2.7241465349437242e-06,1.4521285201610779e-06,2.031962185428772e-06,1.2394745650438904e-06,4.092296897670442e-06,1.990673711397793e-06,6.922804738190664e-06,8.099041170818245e-07,2.003608783806061e-06
120,1.6132350863638892e-06,8.992936151637472e-07,1.1953612967362752e-06,2.246104157902551e-06,3.110902566965807e-06,4.922593171873319e-06,1.7179798100020495e-06,2.7150944960149993e-06,1.4013806384253949e-06,2.0485359141739535e-06,1.2595978496816632e-06,4.1930002173450725e-06,2.0184333033822213e-06,8.181332378391203e-06,8.306684080564978e-07,1.933078322649552e-06
121,1.608048309152238e-06,9.020029141903499e-07,1.1809248775530855e-06,2.2845040657933193e-06,3.0776368324305165e-06,4.928355665378259e-06,1.7109241642621023e-06,2.7140817380648535e-06,1.3520886395094697e-06,2.0626659547214376e-06,1.285686034202639e-06,4.316726202438261e-06,2.0573115857000136e-06,9.598976219439947e-06,8.560497738484577e-07,1.8609601303524827e-06
122,1.6036220546681253e-06,9.051703081184038e-07,1.1733727465629672e-06,2.322977805583479e-06,3.041462709939028e-06,4.906980234491881e-06,1.7027021990336406e-06,2.7198465096458773e-06,1.305253165313719e-06,2.074482954575891e-06,1.3175051080312038e-06,4.464333141585287e-06,2.1078324998871508e-06,1.118230410272793e-05,8.861582960323001e-07,1.7886994775879347e-06
123,1.5996705671402299e-06,9.086175105842135e-07,1.172780653157804e-06,2.3612168076334168e-06,3.0044211655589016e-06,4.861364487684269e-06,1.6941270242416926e-06,2.7309519655621363e-06,1.2618241692478686e-06,2.0838255069816276e-06,1.3546493697031157e-06,4.636146733274402e-06,2.1704130749949022e-06,1.2936894786973204e-05,9.209368647374106e-07,1.717643125241312e-06
124,1.5958816749657428e-06,9.121307681399723e-07,1.1789905883273372e-06,2.3989062022730075e-06,2.9680763823700273e-06,4.794598554287329e-06,1.6859621795002112e-06,2.7457679727990645e-06,1.222649788671976e-06,2.090300682407001e-06,1.3965661521498445e-06,4.831888063725848e-06,2.245301202062447e-06,1.4866780549712941e-05,9.601413443132463e-07,1.6489114776846335e-06
125,1.5920917963755442e-06,9.154184665484296e-07,1.1916074917027615e-06,2.4356670802648306e-06,2.933477682867916e-06,4.7098193008796805e-06,1.6789046995503985e-06,2.7625622135645433e-06,1.1884146594671544e-06,2.0934881677952093e-06,1.442657431011158e-06,5.050589578471066e-06,2.332429561717018e-06,1.6974035394446746e-05,1.003346663485348e-06,1.5833582135139547e-06
126,1.5883390862360944e-06,9.180850396255377e-07,1.210015954029235e-06,2.4709458493069378e-06,2.901294057176908e-06,4.610533377838121e-06,1.6735638061741258e-06,2.779888041682669e-06,1.1596046874629883e-06,2.093248530382085e-06,1.4924314830873304e-06,5.2906056390289664e-06,2.43130619527804e-06,1.9258480971859312e-05,1.0499558393055027e-06,1.521590666419084e-06
127,1.584776758017997e-06,9.19641174287774e-07,1.2333781955527207e-06,2.5039672461448702e-06,2.871861762576691e-06,4.5007802728177355e-06,1.6704484712140496e-06,2.7970034660027873e-06,1.1365113378874044e-06,2.089994452402422e-06,1.5456114135277213e-06,5.549641667794676e-06,2.5409546136900844e-06,2.171737945333552e-05,1.099217849233258e-06,1.4640303780581674e-06
128,1.5815305177842365e-06,9.1963890253258e-07,1.2606540252042434e-06,2.533728425885581e-06,2.845120691463215e-06,4.384930917908106e-06,1.6699833659860596e-06,2.813960649492381e-06,1.119225572422802e-06,2.0847644175304035e-06,1.6021239220482784e-06,5.824654374944961e-06,2.659874086249524e-06,2.4345075309301084e-05,1.1502591826577452e-06,1.4109780319548875e-06
129,1.5786009601274767e-06,9.179255225513432e-07,1.2907051979125273e-06,2.5590970891751746e-06,2.820613532503917e-06,4.26732169582855e-06,1.6724906546864783e-06,2.831352293860171e-06,1.1076111599450613e-06,2.07901000213015e-06,1.6619520925683682e-06,6.111625602126692e-06,2.7860248317698014e-06,2.713263317341816e-05,1.2020969256880915e-06,1.36262964145518e-06
130,1.5758048808017435e-06,9.14787762898891e-07,1.3224093480445476e-06,2.5791273800094027e-06,2.797627000456635e-06,4.151915328365605e-06,1.6781597789398937e-06,2.8499356416819357e-06,1.1013062745798132e-06,2.0742030819978074e-06,1.7249758596762559e-06,6.405448044687359e-06,2.9168661840902066e-06,3.0067444680952073e-05,1.253670746183281e-06,1.3190674660608675e-06
131,1.5727671521604116e-06,9.108078627618427e-07,1.3546585432878309e-06,2.593328184515056e-06,2.7754573510314892e-06,4.042030427575641e-06,1.6870461939701742e-06,2.8703020238870685e-06,1.0997835642778403e-06,2.0715149061328186e-06,1.7909131717012174e-06,6.7001112980690905e-06,3.0494531262375675e-06,3.3132702088705716e-05,1.303984448817082e-06,1.2802624266519044e-06
132,1.5690597174143489e-06,9.065987214611755e-07,1.3863300891725872e-06,2.6015631919759376e-06,2.7537322588291452e-06,3.940150543559805e-06,1.6990509588844565e-06,2.892658550057179e-06,1.1024197739874298e-06,2.0717005338087997e-06,1.8593188362419936e-06,6.989091409943475e-06,3.1805068043974685e-06,3.630668188820056e-05,1.352315231415116e-06,1.246090572394955e-06
133,1.564447582416152e-06,9.026599741864056e-07,1.416355980528307e-06,2.603817187936358e-06,2.7325729607620362e-06,3.847846058646858e-06,1.7139083474789454e-06,2.916769876835339e-06,1.1085114647038254e-06,2.075107720700801e-06,1.929614255453044e-06,7.265779282814546e-06,3.3064459639598664e-06,3.95617833219433e-05,1.3983252258893259e-06,1.216391729206427e-06
134,1.5590152271987543e-06,8.993463926737013e-07,1.4437630743646137e-06,2.600248540656131e-06,2.712401828988924e-06,3.7658082274140575e-06,1.7312785401878528e-06,2.9420802658379426e-06,1.11727782526405e-06,2.081738485093077e-06,2.001157411056878e-06,7.523911989282612e-06,3.423589409509253e-06,4.2863636563793775e-05,1.4419747998390726e-06,1.1910729964311078e-06
135,1.5530532311396102e-06,8.968546088152812e-07,1.4676009347062372e-06,2.591450501293665e-06,2.6935282258516937e-06,3.6939528625261837e-06,1.7509103756765632e-06,2.9679417756741353e-06,1.127932977174775e-06,2.0913867619723266e-06,2.0732766473605512e-06,7.757997491790554e-06,3.52860609866268e-06,4.617155334773341e-05,1.4833100946733743e-06,1.1701800259902238e-06
136,1.5468977056510024e-06,8.952225716899426e-07,1.4869381387914392e-06,2.5785370150485685e-06,2.675856232535852e-06,3.6315225489575952e-06,1.7727421334828658e-06,2.9937691049221476e-06,1.1398246103998065e-06,2.1038005627624857e-06,2.1452174576235077e-06,7.963622886303254e-06,3.6189002942373033e-06,4.944145828582869e-05,1.522298860155173e-06,1.1538585361165727e-06
137,1.5409451124679595e-06,8.943624571635707e-07,1.5010344592092206e-06,2.5629194169453266e-06,2.658863382349459e-06,3.577152376065501e-06,1.7968418924555214e-06,3.01897451672474e-06,1.1525864190091244e-06,2.1187632498249838e-06,2.216059179971517e-06,8.137515036645705e-06,3.692680622807446e-06,5.26307725051609e-05,1.558807609960687e-06,1.1422422029560398e-06
138,1.5357338086884804e-06,8.941360216135655e-07,1.50954559225604e-06,2.545938658364816e-06,2.6417226864920677e-06,3.528984050175682e-06,1.823200518184821e-06,3.042788617932302e-06,1.1662637678758578e-06,2.136093929057839e-06,2.284668744499282e-06,8.27743973271424e-06,3.748832357479626e-06,5.5703487165787574e-05,1.592644371829589e-06,1.1353747819047337e-06
139,1.5318733922132741e-06,8.944558316831713e-07,1.5125750470327464e-06,2.5285786127403667e-06,2.623437999886644e-06,3.4849720905608017e-06,1.8515525125582213e-06,3.064192322103745e-06,1.1813626475829365e-06,2.1556138731373125e-06,2.349710831357463e-06,8.38216529978421e-06,3.786702071642717e-06,5.8632937247155446e-05,1.6235554862317513e-06,1.1331881576563298e-06
140,1.529869129081567e-06,8.953619108823948e-07,1.510524212651952e-06,2.5113727145844457e-06,2.603026627336944e-06,3.443401774014117e-06,1.8814033068614317e-06,3.0819821789516684e-06,1.1987791322390005e-06,2.177059795812652e-06,2.409696270224045e-06,8.451441521195045e-06,3.8058701381274854e-06,6.139937654329475e-05,1.6512373964097116e-06,1.1354828123471572e-06
141,1.530014704629399e-06,8.970221365067498e-07,1.5038394646697993e-06,2.4944382690568935e-06,2.5798210842578323e-06,3.4034113324582333e-06,1.912239303319521e-06,3.0949313583501328e-06,1.2196140994861642e-06,2.199935873797223e-06,2.4629906117124092e-06,8.485679031961023e-06,3.8063493654771723e-06,6.398296486912539e-05,1.67547954707275e-06,1.141898650033421e-06
142,1.5323815502450436e-06,8.996473557600178e-07,1.4928186143411678e-06,2.4775042941869907e-06,2.553796876397937e-06,3.3652035610417525e-06,1.943745358065895e-06,3.102129404254729e-06,1.2449433373655507e-06,2.2233819782059783e-06,2.507731853654913e-06,8.485255848359601e-06,3.7893261626658176e-06,6.63589101970523e-05,1.696344101190959e-06,1.1518921349364455e-06
143,1.536887630883306e-06,9.033838850143285e-07,1.4775811753691487e-06,2.4599037763772148e-06,2.5256788402240408e-06,3.3297680468645163e-06,1.975861707679409e-06,3.103432294471064e-06,1.2756665866343265e-06,2.2461318914425003e-06,2.541824936092569e-06,8.449909958515834e-06,3.757577944332715e-06,6.849957982714385e-05,1.7142090115785864e-06,1.1647375766476863e-06
144,1.543436109354913e-06,9.082658959970236e-07,1.4581856359106957e-06,2.440673900664477e-06,2.4966798453525743e-06,3.2982732233776803e-06,2.0086245934244676e-06,3.099714411339515e-06,1.3124991323151144e-06,2.2666194389360748e-06,2.5632238233295183e-06,8.378826849348908e-06,3.7149409793816547e-06,7.037986135123118e-05,1.7296311518177145e-06,1.1795990259329958e-06
145,1.5519955330646165e-06,9.142378715148103e-07,1.4347955054638038e-06,2.4189195390961756e-06,2.4680313359008663e-06,3.271559342405126e-06,2.0419027714015253e-06,3.0927199972258724e-06,1.356019510707395e-06,2.2832961912670683e-06,2.5704072123392476e-06,8.271400188594405e-06,3.66539654885086e-06,7.198060988568353e-05,1.74309948316388e-06,1.195662424330032e-06
146,1.5625510723283947e-06,9.211936161286864e-07,1.4077869196263307e-06,2.3943036129407886e-06,2.4406381566457105e-06,3.249962440026658e-06,2.0751982917943508e-06,3.0846247859089274e-06,1.4066568475803612e-06,2.2950576839129353e-06,2.56278005474811e-06,8.12800173703579e-06,3.61253821472771e-06,7.328867123026426e-05,1.7548169077888536e-06,1.2121992663782215e-06
147,1.5750712007633142e-06,9.290011131159138e-07,1.3777419645891609e-06,2.3672953831307388e-06,2.4150087249483424e-06,3.2332778088985266e-06,2.1075677188734146e-06,3.0775592085717144e-06,1.4646278552843848e-06,2.30147713682186e-06,2.540845630400868e-06,7.950322467996104e-06,3.5594704984768595e-06,7.42930219630171e-05,1.7646116720003649e-06,1.2284937710519538e-06
148,1.5895877851298176e-06,9.375310987654058e-07,1.34536287972085e-06,2.339025720375314e-06,2.391344632595803e-06,3.220670529481133e-06,2.137652726845613e-06,3.0732600249761383e-06,1.529920894945647e-06,2.302655874394094e-06,2.5061040642850867e-06,7.741359702827124e-06,3.5088607140812677e-06,7.497960137164193e-05,1.771955477154518e-06,1.2437667943764597e-06
149,1.6062644937069426e-06,9.466984497550272e-07,1.3113740440774228e-06,2.3109424749630336e-06,2.369640757818879e-06,3.210602187806688e-06,2.16382204106072e-06,3.0729116992475196e-06,1.6023750186341987e-06,2.2988833060595726e-06,2.460726972936686e-06,7.505216817291799e-06,3.463007258592963e-06,7.533131940245296e-05,1.7760607568085408e-06,1.2572490394070363e-06
150,1.6253194216683174e-06,9.56483007133002e-07,1.2764225768471256e-06,2.284483995637651e-06,2.349721290710728e-06,3.200951365872234e-06,2.1843882389483996e-06,3.077146142213966e-06,1.6817873726234286e-06,2.290502406805717e-06,2.4071861629696617e-06,7.246794423284897e-06,3.423885462314961e-06,7.533476451310866e-05,1.776111066910275e-06,1.268339751212522e-06
151,1.6468604380265508e-06,9.669043482072587e-07,1.240986109104914e-06,2.2608405134412206e-06,2.331192176371983e-06,3.189471869470362e-06,2.1978320996801527e-06,3.0860819349630857e-06,1.7679488312223093e-06,2.2780612659918708e-06,2.3479774774380437e-06,6.9714413975659315e-06,3.3931821095500935e-06,7.498652765681716e-05,1.7715632116639713e-06,1.2766392879826464e-06
152,1.6707734184594615e-06,9.779743933257828e-07,1.205366068890404e-06,2.2408328125733962e-06,2.313371950294276e-06,3.174531147500306e-06,2.2029937102226805e-06,3.0993771206107878e-06,1.8606015192903565e-06,2.262445834417629e-06,2.2854141902097853e-06,6.684636382805732e-06,3.3723511114262896e-06,7.429227519167954e-05,1.7622560221078196e-06,1.2818007639883027e-06
153,1.6967334272357924e-06,9.896662157683283e-07,1.1698208831741337e-06,2.2249255167374687e-06,2.295309014314444e-06,3.155750274128772e-06,2.1991863803260156e-06,3.116389292587572e-06,1.95937858431138e-06,2.244786227060637e-06,2.2214589378401866e-06,6.391736156309614e-06,3.3626174760432775e-06,7.325987555860698e-05,1.7482439217848688e-06,1.2834182076609683e-06
154,1.7243148848480675e-06,1.0019097073328692e-06,1.134752228128314e-06,2.213283667460318e-06,2.2759487078560613e-06,3.134095848825874e-06,2.186146436181276e-06,3.1363772134506787e-06,2.0637489421261267e-06,2.2262288041072507e-06,2.1576388299996493e-06,6.097797921215349e-06,3.364872258035107e-06,7.189656117913923e-05,1.7296663228752406e-06,1.2811392128154503e-06
155,1.753065297061649e-06,1.0145845020826396e-06,1.1007866388149375e-06,2.205748607878488e-06,2.2544080503813035e-06,3.1113528854358273e-06,2.163815518455239e-06,3.158518011887072e-06,2.1729668987564065e-06,2.2077466981578952e-06,2.0950662781476153e-06,5.80747611369674e-06,3.3796791542360156e-06,7.0217189368898e-05,1.7068515509497318e-06,1.2748953242859143e-06
156,1.7824226268061693e-06,1.0274846958609126e-06,1.0687013004523765e-06,2.201778184126941e-06,2.230220497824326e-06,3.0893944289071144e-06,2.1322031503767703e-06,3.1817093435439274e-06,2.2860411107276213e-06,2.1900653133486467e-06,2.034516805412791e-06,5.5249793731285695e-06,3.407590688674076e-06,6.825504102261428e-05,1.6804380312606823e-06,1.2650244131844547e-06
157,1.8115860852894008e-06,1.0403079685930377e-06,1.039280361955259e-06,2.200528057452286e-06,2.203427278087684e-06,3.0697349301774376e-06,2.0915365713583026e-06,3.204432127331261e-06,2.4017011322499197e-06,2.173650094490446e-06,1.9764769067430905e-06,5.254069136776799e-06,3.449451880633071e-06,6.60616090514377e-05,1.651320702072519e-06,1.2522028167393025e-06
158,1.83959088942461e-06,1.0527127996353294e-06,1.0131941554295895e-06,2.2011250146695087e-06,2.174494145438857e-06,3.0534615783539355e-06,2.0424795520751156e-06,3.2249101203122766e-06,2.518320964246315e-06,2.1586666306567246e-06,1.9211755676969657e-06,4.998084465661513e-06,3.5062502173925836e-06,6.369521873786058e-05,1.6204881811431185e-06,1.2372796382742727e-06
159,1.8656305506509796e-06,1.0643631287871367e-06,9.909263036231299e-07,2.202969135100201e-06,2.1440998941180253e-06,3.041280232404946e-06,1.9861233045086494e-06,3.2414502950727877e-06,2.633854641929551e-06,2.144939207857951e-06,1.8686743857256702e-06,4.759949675703079e-06,3.578647288054159e-06,6.120880991050451e-05,1.5888504396273762e-06,1.2211636675762599e-06
160,1.8893408680130937e-06,1.0749148377262014e-06,9.72745776829968e-07,2.20588466989623e-06,2.1128735517964045e-06,3.033456663840025e-06,1.9238050431262866e-06,3.252654214506251e-06,2.7459201327227775e-06,2.1320082732853357e-06,1.8189596316003419e-06,4.542152384532952e-06,3.6666366729717003e-06,5.864368240017065e-05,1.5571168422458056e-06,1.2047908631677315e-06
161,1.9107538426702953e-06,1.0840524411512732e-06,9.587178292466698e-07,2.2100922793896642e-06,2.081181324194399e-06,3.0296956037168747e-06,1.8569458990220001e-06,3.2573684672868303e-06,2.852059630001574e-06,2.1193244475499925e-06,1.7719770225869807e-06,4.3467703145371495e-06,3.7694515800945363e-06,5.6028960019760254e-05,1.5257798163219792e-06,1.1890644010073246e-06
162,1.9299743782131137e-06,1.0916119693055938e-06,9.487280196730247e-07,2.2160673008977387e-06,2.049018985693375e-06,3.0291332257234556e-06,1.786956834583885e-06,3.254556133111311e-06,2.9500560813353274e-06,2.106491684741921e-06,1.7276730525103713e-06,4.17556820057452e-06,3.885591329088807e-06,5.338476699747182e-05,1.4952202358372454e-06,1.1747351390058185e-06
163,1.9468851270925747e-06,1.0976322733101682e-06,9.424928209816919e-07,2.2243574503543197e-06,2.016009028649547e-06,3.0305303749062087e-06,1.7151706242831107e-06,3.243343006154813e-06,3.0382116068580176e-06,2.0933700088353843e-06,1.6860391521242214e-06,4.030017332523029e-06,4.012864445217988e-06,5.0727211886151444e-05,1.4658536308586925e-06,1.1623145020405864e-06
164,1.9610692987351077e-06,1.1022521861079046e-06,9.39557758787439e-07,2.2354604984675348e-06,1.981532332380064e-06,3.032595868307114e-06,1.6427761166948607e-06,3.2232343489829068e-06,3.1155260322325796e-06,2.0800348800015864e-06,1.6470614810954024e-06,3.911133605472736e-06,4.148397506847122e-06,4.80724966734845e-05,1.438160968149393e-06,1.1520652094087727e-06
165,1.971920955255709e-06,1.105589143514e-06,9.393012977116653e-07,2.249818387447424e-06,1.944994689107236e-06,3.034294789675561e-06,1.5707519086829424e-06,3.194290872713597e-06,3.1817086216482015e-06,2.0667724648536516e-06,1.6105855406023346e-06,3.819300991737302e-06,4.288622989769554e-06,4.54383533092668e-05,1.4125552771504137e-06,1.1440199088410997e-06
166,1.9788795857604105e-06,1.1077114874321895e-06,9.409854581291191e-07,2.2678222180447937e-06,1.906085124502766e-06,3.0349704903373707e-06,1.4998138308482571e-06,3.157134712740469e-06,3.2370936545125006e-06,2.0540455968163945e-06,1.576240401920518e-06,3.7542978279209946e-06,4.4292700362181595e-06,4.2843112747203876e-05,1.3892261874259936e-06,1.1380141271950052e-06
167,1.9816975970597295e-06,1.108697187211233e-06,9.438769032108955e-07,2.289702376971471e-06,1.8648682127660524e-06,3.0341773267701836e-06,1.4304336755066292e-06,3.1128048748478298e-06,3.2825606305276895e-06,2.0423207900404854e-06,1.5435383858749102e-06,3.715475062835424e-06,4.565411826288619e-06,4.030348025844456e-05,1.3681007456223936e-06,1.1337787948482486e-06
168,1.980535463168922e-06,1.1087685898457547e-06,9.473479315586301e-07,2.315381781319447e-06,1.8216950628041531e-06,3.0314130093786987e-06,1.3629452545374282e-06,3.062519963492018e-06,3.3193736227573827e-06,2.031937920386395e-06,1.5120909927162433e-06,3.7019207148447316e-06,4.6917360030021715e-06,3.7831979170250074e-05,1.3489093062836288e-06,1.131048634001559e-06
169,1.975837379327402e-06,1.1084066797650019e-06,9.508426581219373e-07,2.3444202165377753e-06,1.7770205129657808e-06,3.026078111670599e-06,1.2976395535027883e-06,3.0074009451540932e-06,3.3489383900310827e-06,2.023116101616369e-06,1.4817438774832899e-06,3.7125717295869816e-06,4.803120604015796e-06,3.543565101417586e-05,1.3312845583522776e-06,1.1295913708635746e-06
170,1.968263650043849e-06,1.108290237109928e-06,9.537740299287433e-07,2.376008760539863e-06,1.7312805156230603e-06,3.0176573923122133e-06,1.2347816524338483e-06,2.948214373138131e-06,3.37269063196808e-06,2.0159581194505106e-06,1.452522469241402e-06,3.7462831210511787e-06,4.895279041168701e-06,3.311755772608458e-05,1.3148167076421582e-06,1.1291704961305539e-06
171,1.9587884385369236e-06,1.1091115948611426e-06,9.555183712117684e-07,2.4089630014055895e-06,1.6849615986914595e-06,3.0058500063108234e-06,1.1745880359728479e-06,2.8851975449067597e-06,3.392084223717375e-06,2.010445020525297e-06,1.4244975054885316e-06,3.8017978392046017e-06,4.964964704416075e-06,3.0880032233458066e-05,1.2990188098182162e-06,1.1295111584815293e-06
172,1.9486748137501532e-06,1.1114415137195843e-06,9.555476414427593e-07,2.4417951818866413e-06,1.6387655975804316e-06,2.990547233713231e-06,1.1171851144936632e-06,2.8180318907088978e-06,3.4084417213783026e-06,2.006522239052697e-06,1.3977439116378079e-06,3.8775770367778745e-06,5.009516401359076e-06,2.8726435672433252e-05,1.2833107702995091e-06,1.1303084497413614e-06
173,1.9392074586871654e-06,1.1156654026872368e-06,9.535895291429599e-07,2.4729435241763205e-06,1.5936316333480204e-06,2.971766038331541e-06,1.0625530780110314e-06,2.746037172010283e-06,3.422744446070984e-06,2.004215831864009e-06,1.3724209449649022e-06,3.971626694757338e-06,5.026383542436174e-06,2.66599034333246e-05,1.2671624846680292e-06,1.1312916518901556e-06
174,1.9314527086456276e-06,1.1219514961902648e-06,9.496699022901017e-07,2.5010882848021147e-06,1.5505634373852285e-06,2.949599557382225e-06,1.010533323766479e-06,2.6685764361925452e-06,3.4355972006575675e-06,2.0036386410600352e-06,1.3488247889456083e-06,4.081526731310639e-06,5.013332054383522e-06,2.4681028412311115e-05,1.2502936502614015e-06,1.1323304652637434e-06
175,1.92624787745764e-06,1.1302951773995139e-06,9.440175819527673e-07,2.525362310266599e-06,1.5104265627884187e-06,2.9241251807456524e-06,9.60977024098555e-07,2.5854941922777046e-06,3.447347388219186e-06,2.0048741732913275e-06,1.3272997649878807e-06,4.204669836331287e-06,4.969050412666445e-06,2.278729538724407e-05,1.232699984419368e-06,1.1335362640391233e-06
176,1.924314442443215e-06,1.1406368143166566e-06,9.369713496589847e-07,2.545358777253856e-06,1.4738487292416077e-06,2.8952601239717347e-06,9.139576327944362e-07,2.497342371505533e-06,3.458190358959843e-06,2.0078216401295615e-06,1.3081391542668712e-06,4.338573597806603e-06,4.893532618559775e-06,2.0974771280272877e-05,1.2145175043683149e-06,1.135281869118669e-06
177,1.926289748513824e-06,1.1529240724127836e-06,9.289595770689238e-07,2.561040593518305e-06,1.4412267128006037e-06,2.8626764889111093e-06,8.69849572044239e-07,2.4052893824338015e-06,3.468177735196094e-06,2.0120935430378117e-06,1.2916344393001594e-06,4.48114283746115e-06,4.78811912762626e-06,1.92403954676384e-05,1.1959219746806815e-06,1.1380986740414115e-06
178,1.9326199237516235e-06,1.1670377322736171e-06,9.204887630620175e-07,2.5726416043482282e-06,1.412828871857528e-06,2.8258046878812275e-06,8.292015113425362e-07,2.3108366640820995e-06,3.4771470427153226e-06,2.0170105963942704e-06,1.2781759918628315e-06,4.630753351077874e-06,4.655343858363274e-06,1.7583179605368217e-05,1.1770828294888778e-06,1.1425233370477124e-06
179,1.943434888391806e-06,1.1826808455793161e-06,9.121504844625149e-07,2.5804895453760756e-06,1.3889505043119072e-06,2.78382150628356e-06,7.925542664803173e-07,2.2155614149235827e-06,3.4846480844851635e-06,2.0216528367177644e-06,1.2682371441988624e-06,4.786125273472674e-06,4.498627020334229e-06,1.600370055672242e-05,1.1580955805457008e-06,1.1489946535777376e-06
180,1.9585059017510896e-06,1.1993862966052041e-06,9.046565940592545e-07,2.5847394368502385e-06,1.3699676047541526e-06,2.7356928057499176e-06,7.60351898845435e-07,2.120983435477422e-06,3.489994192841841e-06,2.0249358803642534e-06,1.2622474994712504e-06,4.94611143767216e-06,4.321817107770064e-06,1.4502884020744619e-05,1.1389814527884834e-06,1.15780667081977e-06
181,1.977271461195576e-06,1.2166540678073576e-06,8.987992312918163e-07,2.5852229521492613e-06,1.3562274157258457e-06,2.680497125617917e-06,7.329262558722445e-07,2.0284880221973283e-06,3.4925225985845133e-06,2.0257394500354633e-06,1.2604780830872993e-06,5.109445776764393e-06,4.1288584525410855e-06,1.3081837163599508e-05,1.119807639208722e-06,1.1691006836224286e-06
182,1.9989339215203588e-06,1.2340748259061836e-06,8.953401663500256e-07,2.5815448732911055e-06,1.3479430287718262e-06,2.6179750381694536e-06,7.104859579010882e-07,1.9392224848833828e-06,3.4919109148939454e-06,2.0230827638498447e-06,1.2629961204483169e-06,5.2744464548486466e-06,3.9238368780978854e-06,1.1742563329920846e-05,1.1007724500995388e-06,1.1828938342650726e-06
183,2.0226098371557273e-06,1.2513228272810376e-06,8.949325498692777e-07,2.573247999122357e-06,1.3452259837065203e-06,2.5489377087257127e-06,6.931224505653638e-07,1.854004521626158e-06,3.4882411522863493e-06,2.01631521528862e-06,1.2696434713355092e-06,5.438911946880991e-06,3.7110538427904617e-06,1.0487766312327543e-05,1.082176554814985e-06,1.1990844530288363e-06
184,2.0473979148503147e-06,1.268057643200604e-06,8.98083369015993e-07,2.5598488058434525e-06,1.3481692049881429e-06,2.4752540835041407e-06,6.808603486827144e-07,1.7733616633901857e-06,3.4817248708407978e-06,2.0053028078161474e-06,1.2800245696217405e-06,5.600377844371807e-06,3.494743798592186e-06,9.319559862618693e-06,1.0643733736594721e-06,1.217398167180171e-06
185,2.072319092964551e-06,1.2838362851740802e-06,9.051335267533862e-07,2.5408046600865022e-06,1.3568573457260348e-06,2.399465075172508e-06,6.737056142083582e-07,1.6977194511513623e-06,3.4723271007781813e-06,1.990538434638373e-06,1.293534806482713e-06,5.75645948323453e-06,3.2787028237781427e-06,8.238520765639182e-06,1.0477105445059295e-06,1.237333071538446e-06
186,2.0963030262650357e-06,1.2980762647669504e-06,9.162730239311159e-07,2.515574043694986e-06,1.3713170300391097e-06,2.3243367665438338e-06,6.716359099126281e-07,1.6275604433531624e-06,3.4595734188977184e-06,1.973050644236436e-06,1.3094172345641866e-06,5.90498278242201e-06,3.066159998438118e-06,7.243682068886122e-06,1.03244527602968e-06,1.2581716429311034e-06
187,2.118314117936529e-06,1.3101112989138303e-06,9.315952830810809e-07,2.4837924462920804e-06,1.3914726049664551e-06,2.2526094408440575e-06,6.745632126379975e-07,1.5634190502354108e-06,3.442604475836848e-06,1.9541102882226148e-06,1.326819358580949e-06,6.043913162794679e-06,2.8597879738448303e-06,6.332964357358823e-06,1.0187023392771625e-06,1.2790891305847667e-06
188,2.137474917876552e-06,1.3193617419027714e-06,9.511367004010818e-07,2.445439130284607e-06,1.417147265859473e-06,2.1869015953059823e-06,6.823379456712464e-07,1.5058257203801689e-06,3.4202817477838206e-06,1.9349481936364505e-06,1.3448429751216784e-06,6.171230195538982e-06,2.6617555328569307e-06,5.503611595984948e-06,1.0064896828174184e-06,1.29935424220433e-06
189,2.153097473508765e-06,1.325467257319829e-06,9.74850681935955e-07,2.4008716277233774e-06,1.4480971637250146e-06,2.129605937175847e-06,6.947921752041252e-07,1.4552993250786394e-06,3.3912076952344315e-06,1.9166336069290687e-06,1.3625577823705143e-06,6.284904145540964e-06,2.473901006504443e-06,4.752534637994448e-06,9.95768846113354e-07,1.318563135605605e-06
190,2.164714276645443e-06,1.3282351417795722e-06,1.0025533484666043e-06,2.3506921928131434e-06,1.4840281025901388e-06,2.0827559496376273e-06,7.117533717056722e-07,1.4123289710485034e-06,3.3538143735157684e-06,1.9000244739258864e-06,1.3789641838043633e-06,6.383045463259931e-06,2.2979324023889504e-06,4.07660265484966e-06,9.865774394213468e-07,1.3367873350491438e-06
191,2.1721727942854153e-06,1.3275484238693266e-06,1.033897558515663e-06,2.2955095032051024e-06,1.5246616400191855e-06,2.047939381486823e-06,7.330143393512577e-07,1.3773310740783188e-06,3.306643126707822e-06,1.885714382135187e-06,1.3930101302172307e-06,6.464133230703206e-06,2.1354468761314393e-06,3.472917598906384e-06,9.790771374241027e-07,1.3545416513391259e-06
192,2.1756870511647296e-06,1.3234358068316934e-06,1.0683758010411798e-06,2.235784388757129e-06,1.5698950880780164e-06,2.026299338951951e-06,7.583536887601991e-07,1.350594183249592e-06,3.2487026394495253e-06,1.8740105167030024e-06,1.4037382361100385e-06,6.5271572066323575e-06,1.9878086272684797e-06,2.938959719873122e-06,9.734511090769236e-07,1.3726259813674447e-06
193,2.1756995100129824e-06,1.3162247802735428e-06,1.1053350312443524e-06,2.1719131537077753e-06,1.6198430287888657e-06,2.0186093663769347e-06,7.876582994248821e-07,1.3322009688144968e-06,3.1797279482670944e-06,1.8649422312351104e-06,1.4104413991004679e-06,6.5716185029175e-06,1.856094115528759e-06,2.4724763830097566e-06,9.69764350821341e-07,1.3919929753196846e-06
194,2.1726273034563693e-06,1.3065908635253126e-06,1.1440103599825175e-06,2.1044483264521113e-06,1.6746546702621145e-06,2.0253512855099087e-06,8.210103465026904e-07,1.3219675485104344e-06,3.100193272733652e-06,1.8582735325437219e-06,1.4127186342243787e-06,6.597488941995214e-06,1.741137404738784e-06,2.0712072230067917e-06,9.678950148369276e-07,1.4136775016750342e-06
195,2.1667295135484167e-06,1.2954726406832428e-06,1.1835995991173923e-06,2.0342463151332865e-06,1.7343098022562766e-06,2.046711379425025e-06,8.586029104166065e-07,1.3194333443186272e-06,3.011114340007212e-06,1.8535110626691014e-06,1.410472666788697e-06,6.605206982887765e-06,1.64356511328291e-06,1.732692967008816e-06,9.675463635683055e-07,1.4386936330414559e-06
196,2.158148158939084e-06,1.2839147802645412e-06,1.2233446948206918e-06,1.9624407979760955e-06,1.798527935696998e-06,2.0825081394389515e-06,9.005782921996962e-07,1.3238767450112716e-06,2.9138860391926517e-06,1.8499114206813283e-06,1.4038610838309706e-06,6.595649188226393e-06,1.5637912689186935e-06,1.454290930654478e-06,9.683196827574238e-07,1.4678840396769337e-06
197,2.146974174668239e-06,1.2729107506385487e-06,1.2625378048677367e-06,1.8902563022078032e-06,1.8667357693576439e-06,2.1321480208247666e-06,9.469422645288607e-07,1.334323406488163e-06,2.8102598803263776e-06,1.8464889700154662e-06,1.3931565884350922e-06,6.570014544835787e-06,1.5019802198900712e-06,1.2333301986313938e-06,9.697887576701166e-07,1.5018038014319968e-06
198,2.1332580747837165e-06,1.2633092970848354e-06,1.3004472094646877e-06,1.818788358708442e-06,1.938027314786141e-06,2.194639957910844e-06,9.975516970654138e-07,1.3495595884973692e-06,2.7023169720449517e-06,1.842030356702269e-06,1.3785810883576616e-06,6.529657446758537e-06,1.4580015155899154e-06,1.067255762800681e-06,9.71504396024287e-07,1.5406716034497719e-06
199,2.116993879265641e-06,1.2557796626435312e-06,1.3362289659970661e-06,1.748887740582449e-06,2.0111266660641645e-06,2.268619708422175e-06,1.0521061879038923e-06,1.3681736808506243e-06,2.592333797190509e-06,1.8352318867164182e-06,1.3602492916765283e-06,6.4759004407957815e-06,1.4314677493104977e-06,9.536320696639036e-07,9.729698176641682e-07,1.5843677171767208e-06
200,2.098078266747028e-06,1.2507953439481146e-06,1.3688797358683348e-06,1.6811431286861742e-06,2.0844203669951573e-06,2.3523581834363865e-06,1.1101262784569415e-06,1.3886365077467956e-06,2.4825723874049542e-06,1.825068166141571e-06,1.3382239800835578e-06,6.409817677082782e-06,1.4218464296240628e-06,8.90054343730797e-07,9.736721717724922e-07,1.6324622382678196e-06
201,2.0762411858935176e-06,1.2486247757290586e-06,1.3973058936709154e-06,1.6159268812727976e-06,2.156113454285602e-06,2.4437649310512757e-06,1.1709437130781578e-06,1.4094829270133122e-06,2.3750614180468667e-06,1.8111834354896844e-06,1.3125695726245401e-06,6.332053865893682e-06,1.4285067073050376e-06,8.741009414164241e-07,9.731620349203515e-07,1.68424541157804e-06
202,2.0510518164340805e-06,1.2493313655452823e-06,1.420538215931552e-06,1.5535229453598771e-06,2.224500427932963e-06,2.540440069782457e-06,1.2337257534003364e-06,1.4295786963961555e-06,2.2714725540275726e-06,1.7939418302498785e-06,1.2833833550840853e-06,6.242732491288843e-06,1.4506874992670062e-06,9.033532301314794e-07,9.711623224801548e-07,1.7387298567721987e-06
203,2.0221042965348755e-06,1.2527779949966369e-06,1.4379490892889605e-06,1.4942719651313419e-06,2.288243917659319e-06,2.6397804763992016e-06,1.297533391253914e-06,1.4482456991329465e-06,2.1731425489139534e-06,1.7741184583896935e-06,1.250886137735851e-06,6.141355082981955e-06,1.4874760943739583e-06,9.75440642246194e-07,9.676900625702501e-07,1.7946365812832027e-06
204,1.989270676736275e-06,1.2586479158733026e-06,1.4493029465006703e-06,1.4386105360665412e-06,2.3464708368431455e-06,2.739014562666754e-06,1.3614057940829062e-06,1.4651171184357527e-06,2.0811340333706374e-06,1.7525839894765185e-06,1.2155608124068223e-06,6.026734546262748e-06,1.5377982106373537e-06,1.0880742540088805e-06,9.630799721544136e-07,1.8504270430840768e-06
205,1.9527828822727265e-06,1.2665437827970123e-06,1.4546605915349025e-06,1.3869820236236555e-06,2.398588507413241e-06,2.8351630798809286e-06,1.4244460037961328e-06,1.4799602057929247e-06,1.996233671074092e-06,1.7301864683652427e-06,1.1782077170077175e-06,5.897215797634012e-06,1.6004477154407775e-06,1.2391339752702785e-06,9.57841664129149e-07,1.9044566605694808e-06
206,1.913082611545875e-06,1.2761823482790235e-06,1.4542779137401838e-06,1.3397254880502149e-06,2.4440031678186103e-06,2.925137296156863e-06,1.4858745030666566e-06,1.492718491026214e-06,1.9189183347325532e-06,1.7077321871510873e-06,1.1398470571755948e-06,5.751126120401495e-06,1.674184817482548e-06,1.4268348873317947e-06,9.52479309810298e-07,1.9552156120182347e-06
207,1.8706114183168812e-06,1.2875473527233452e-06,1.448535785778134e-06,1.2970321096681639e-06,2.4820501815882444e-06,3.0060635120860692e-06,1.5450633621855766e-06,1.5036435945003494e-06,1.8493725560202841e-06,1.6859818714357549e-06,1.1015371337194042e-06,5.587128617588438e-06,1.7577880377398717e-06,1.6498910797618443e-06,9.474092787836918e-07,2.0014824549701177e-06
208,1.8257146572424713e-06,1.3008451412740963e-06,1.4378522509641992e-06,1.2589361145210437e-06,2.5122098807520248e-06,3.0756816524707182e-06,1.6015925982087924e-06,1.5132615350543781e-06,1.7876038605034388e-06,1.6656291079724792e-06,1.0642279271940573e-06,5.404437197009353e-06,1.8500862743234802e-06,1.907880065809093e-06,9.429493250485064e-07,2.0423172104224457e-06
209,1.7786565199084735e-06,1.3163079518051672e-06,1.4226568093726897e-06,1.2253190983460773e-06,2.534429599780995e-06,3.1326219755114877e-06,1.6553127549321574e-06,1.5221904643791185e-06,1.7336056061570126e-06,1.6472545521518874e-06,1.0287031504964015e-06,5.203075745616405e-06,1.950146954802616e-06,2.2018420647134024e-06,9.393245466567364e-07,2.0770515732503033e-06
210,1.7296304458617918e-06,1.3340237248173198e-06,1.4034814399244716e-06,1.1959632482082593e-06,2.549347755402398e-06,3.1764208506221603e-06,1.7063273952821605e-06,1.530996918938215e-06,1.6874417457646497e-06,1.631317129220041e-06,9.955703600386754e-07,4.984186359814248e-06,2.057483163500289e-06,2.5344589121521564e-06,9.36680597591688e-07,2.105411281943832e-06
211,1.6786931498980838e-06,1.3538797886120694e-06,1.3809966606166209e-06,1.170623159537688e-06,2.5582539828129533e-06,3.2072077936903003e-06,1.754842953639954e-06,1.5401631099508233e-06,1.6491816075114564e-06,1.6181679147330908e-06,9.652732167858521e-07,4.750192316271542e-06,2.1719670513680707e-06,2.909649166987125e-06,9.350901596647871e-07,2.1276910154986175e-06
212,1.6256695965752357e-06,1.3755805127125697e-06,1.355921097934582e-06,1.1490648784882484e-06,2.562744828613303e-06,3.2252209341221608e-06,1.8009688161109585e-06,1.5501020842352784e-06,1.6187649074342189e-06,1.6080161346188257e-06,9.381497524579652e-07,4.504659710401842e-06,2.2934981011646297e-06,3.332280100091407e-06,9.345522956890153e-07,2.1448141350749996e-06
213,1.5701801283160546e-06,1.3986708998836498e-06,1.3289535966668997e-06,1.1310975259105465e-06,2.5642990968069465e-06,3.2305529808473567e-06,1.8446027094083466e-06,1.5611676712475243e-06,1.5959644238210393e-06,1.6008641389672607e-06,9.145097329840178e-07,4.251886919832494e-06,2.421744292032502e-06,3.8081194788067694e-06,9.350188901621029e-07,2.1581750445286795e-06
214,1.511904491371055e-06,1.4225536929966949e-06,1.3007642054712764e-06,1.1166250008184277e-06,2.5640486070825825e-06,3.223314210333381e-06,1.8853953037135043e-06,1.573637792274876e-06,1.5804582885305442e-06,1.5964872410264015e-06,8.946629811514539e-07,3.996414682482532e-06,2.556051835806127e-06,4.343492667601023e-06,9.364379748178401e-07,2.169298479452514e-06
215,1.450965431259392e-06,1.446557114952285e-06,1.271963746826419e-06,1.1056620360917705e-06,2.5627535609903856e-06,3.2039463095375035e-06,1.922694157063059e-06,1.5876617009820342e-06,1.5718454130734969e-06,1.5945188698411047e-06,8.788844972721209e-07,3.7426428408972395e-06,2.6953722044096108e-06,4.944665110315087e-06,9.387566773290527e-07,2.1794917727438896e-06
216,1.3881206621176987e-06,1.4700730458271642e-06,1.2430756058568119e-06,1.098253460693581e-06,2.5608209542402106e-06,3.1734175033376744e-06,1.9554850393063394e-06,1.6032448240915413e-06,1.5695829541143837e-06,1.594602949285011e-06,8.673518394605086e-07,3.4945637378304934e-06,2.838161234543938e-06,5.617543352847075e-06,9.419300504054919e-07,2.1896498971344786e-06
217,1.3245949102431291e-06,1.4926998964265242e-06,1.214553756919308e-06,1.0943367430017193e-06,2.5582940515340753e-06,3.133268570777823e-06,1.9824220595244438e-06,1.620309560310698e-06,1.5729491149702213e-06,1.5964866032525838e-06,8.600906792984504e-07,3.2555525597041505e-06,2.982352053064487e-06,6.368032474285013e-06,9.459924781798573e-07,2.200228245845587e-06
218,1.2617486257550236e-06,1.5143381775821502e-06,1.1868082094915782e-06,1.093648110121636e-06,2.554873538747827e-06,3.0855044170779433e-06,2.0019530516497722e-06,1.6387080515654919e-06,1.5810329692467507e-06,1.5999974020935084e-06,8.569547451874194e-07,3.028266700100322e-06,3.1254485650310633e-06,7.2027753162906455e-06,9.510997364471557e-07,2.2113335751624785e-06
219,1.2008624288884237e-06,1.5352198943681657e-06,1.160218193452471e-06,1.0957258486094945e-06,2.5500413411428247e-06,3.0323324089024204e-06,2.0125311310731686e-06,1.6581253833802468e-06,1.5927997427713424e-06,1.604925417877209e-06,8.576391720252741e-07,2.8147072130759955e-06,3.2647168305775982e-06,8.129602800533996e-06,9.57492935542382e-07,2.2228476739844955e-06
220,1.1430589013568715e-06,1.5558211572490802e-06,1.1351276998204238e-06,1.0999975887238178e-06,2.543240861767337e-06,2.975879912874954e-06,2.0129378893116848e-06,1.6779877197724975e-06,1.607307694022572e-06,1.6109086715306974e-06,8.617218344840462e-07,2.6163565910287706e-06,3.3974288483989473e-06,9.157168481858528e-06,9.654320815459751e-07,2.2344495123268007e-06
221,1.0892675145869322e-06,1.5766576051572586e-06,1.1118019095083031e-06,1.1058943662835142e-06,2.5339676899616422e-06,2.918037694303624e-06,2.0026199330267077e-06,1.6974994932430216e-06,1.623942077499411e-06,1.6175376151076352e-06,8.68785449648701e-07,2.434270153861536e-06,3.5210808751703314e-06,1.0293860581321673e-05,9.751110946261869e-07,2.245520343124132e-06
222,1.0402135596305256e-06,1.5981116026149327e-06,1.0904080217996706e-06,1.1129090383397605e-06,2.5216804228695003e-06,2.8603948904691953e-06,1.981833245774995e-06,1.715817180254512e-06,1.6424723926871391e-06,1.6246929963543635e-06,8.786039211088732e-07,2.2690867215859414e-06,3.6335425045230497e-06,1.1546666447255925e-05,9.86621458233787e-07,2.25509626266755e-06
223,9.964460719622852e-07,1.6204137545301138e-06,1.0710885584373293e-06,1.120607105098361e-06,2.5056307507876828e-06,2.804153826683087e-06,1.951545560408274e-06,1.732209000102612e-06,1.662962731124287e-06,1.6327744765062858e-06,8.912124486458995e-07,2.121011349948604e-06,3.7330561762899857e-06,1.2920812380497169e-05,1.00005030540214e-06,2.262005094096565e-06
224,9.584214019602485e-07,1.6436938880137544e-06,1.0540314615113723e-06,1.1287173531929057e-06,2.4848504872024783e-06,2.7500666912390836e-06,1.9132409533403874e-06,1.7460528751114688e-06,1.685734970281261e-06,1.6425695171103134e-06,9.067794579282841e-07,1.9898192801335496e-06,3.818033461698398e-06,1.4420616151585576e-05,1.0155998636935522e-06,2.265139169598767e-06
225,9.266030280100848e-07,1.6679676662299394e-06,1.0394308430110692e-06,1.1372782299245644e-06,2.4583784531750022e-06,2.6984606125850663e-06,1.8687364166540384e-06,1.7567725950175252e-06,1.711436446558951e-06,1.6549091560465462e-06,9.254261093109952e-07,1.8748735337888133e-06,3.887029478397434e-06,1.6050962422792554e-05,1.0335461679297768e-06,2.2637037838073303e-06
226,9.01481231993457e-07,1.6930658425466572e-06,1.0274200686311247e-06,1.146630592432981e-06,2.4255144432668275e-06,2.649264869402352e-06,1.8200053321617435e-06,1.76391475309063e-06,1.7410133070518412e-06,1.670387320844323e-06,9.47128161859673e-07,1.7751891216367488e-06,3.939239563300477e-06,1.7817784514721495e-05,1.054091775466721e-06,2.2573266189241766e-06
227,8.835049612391961e-07,1.7185968001122886e-06,1.0180688368100946e-06,1.157254044336561e-06,2.385900697525112e-06,2.602010818908475e-06,1.7690089208298194e-06,1.7672706005360485e-06,1.7754925659038032e-06,1.6892518323521131e-06,9.71695207506114e-07,1.6896393299727501e-06,3.975040334646093e-06,1.9726811935856446e-05,1.077285977411974e-06,2.246015889165392e-06
228,8.730208358906109e-07,1.7439986783586592e-06,1.0113766431310377e-06,1.1696317595065444e-06,2.3395076099649185e-06,2.555882642490187e-06,1.7175759760422544e-06,1.7667993559813824e-06,1.8157393177243348e-06,1.7114485806429847e-06,9.987675411990313e-07,1.6172698696157324e-06,3.9959829206527865e-06,2.1782299402385523e-05,1.1030292834771217e-06,2.2300386263112676e-06
229,8.702642022495664e-07,1.7686694507487776e-06,1.0072162358231034e-06,1.1841702175585239e-06,2.2866731013890153e-06,2.509871229466323e-06,1.6673264741168842e-06,1.7624779860166836e-06,1.8623146596037347e-06,1.7367645950350242e-06,1.02779971254875e-06,1.5575103880030388e-06,4.004361269661518e-06,2.3987306158228868e-05,1.1310916547577773e-06,2.2098351353807173e-06
230,8.753583167874317e-07,1.7921105347607642e-06,1.0052864526863871e-06,1.2011238723036222e-06,2.22810472949133e-06,2.463099865657738e-06,1.6196097543739987e-06,1.7543340035437546e-06,1.9154062903684166e-06,1.7649467207890676e-06,1.0580694297980834e-06,1.5101471211891123e-06,4.002735693599073e-06,2.6344108346542506e-05,1.1611272396880186e-06,2.1860197690947444e-06
231,8.883007271095472e-07,1.8140152621496227e-06,1.005101256223434e-06,1.2205491884689705e-06,2.1646943355099317e-06,2.4152246481135937e-06,1.5754827213159375e-06,1.7425702189396325e-06,1.974810909891027e-06,1.7957222306691433e-06,1.0887960992512234e-06,1.4751384638476377e-06,3.99350565036985e-06,2.8853070949387536e-05,1.1926910603234251e-06,2.159378645327796e-06
232,9.08976184126423e-07,1.834283471943476e-06,1.0060182535212652e-06,1.242298665692635e-06,2.097316432939623e-06,2.366581590693771e-06,1.5357514743185023e-06,1.7275968996133747e-06,2.0399923069796323e-06,1.8288114104809566e-06,1.1193764065658119e-06,1.4524357349837615e-06,3.978539136853122e-06,3.1511301551523136e-05,1.2252727107866787e-06,2.1307641472026434e-06
233,9.371948745512352e-07,1.8529669170084346e-06,1.0073407070973464e-06,1.2660248778998395e-06,2.0268376010744514e-06,2.3179681575999794e-06,1.5010257292622621e-06,1.7099552459548925e-06,2.110178960876142e-06,1.8639437670222627e-06,1.1495617607781585e-06,1.441919735459098e-06,3.959044896855872e-06,3.4313018103870896e-05,1.258365252712456e-06,2.1009130700105352e-06
234,9.72709747552451e-07,1.8701301663878128e-06,1.0084592611350614e-06,1.2911635451857393e-06,1.9542522206714684e-06,2.2703018999102943e-06,1.4717347275509175e-06,1.6902016033403107e-06,2.1843949011073324e-06,1.900750099146195e-06,1.179399934731756e-06,1.4434724736298872e-06,3.9357573222126185e-06,3.7250744308524744e-05,1.2915125622603405e-06,2.0703046848598883e-06
235,1.0152349918410313e-06,1.8856681612482525e-06,1.008907023088694e-06,1.316920548450486e-06,1.8807813169183542e-06,2.2243851581218165e-06,1.4481314114881204e-06,1.668852265721216e-06,2.2614438047882532e-06,1.938590649277297e-06,1.2090390995253146e-06,1.4570740065250206e-06,3.90913749916211e-06,4.031498107167035e-05,1.324292001812928e-06,2.0391730970910307e-06
236,1.0644999331130063e-06,1.899228018705586e-06,1.0082940691613815e-06,1.342351921724321e-06,1.807869795238262e-06,2.180803193968149e-06,1.4303276086078212e-06,1.6463865946920057e-06,2.3399790881002463e-06,1.976528954048973e-06,1.2386069832378419e-06,1.482775511746812e-06,3.8793893349312426e-06,4.349231446927344e-05,1.3563290898182675e-06,2.0076621073623185e-06
237,1.1202855032371033e-06,1.910324065737314e-06,1.0062616057806958e-06,1.3665698237871978e-06,1.7370680129239015e-06,2.139897042636312e-06,1.4183214171528498e-06,1.623226444117993e-06,2.4186111268663833e-06,2.0134494575343086e-06,1.268228843145984e-06,1.5205562702524278e-06,3.846524539473282e-06,4.676485539751659e-05,1.387396666191808e-06,1.975937117628985e-06
238,1.1823923159254308e-06,1.918521115199374e-06,1.0025471508008433e-06,1.3889502029892669e-06,1.6698568200676023e-06,2.1017566914005314e-06,1.4119546726071076e-06,1.5997318443002325e-06,2.4958680218462033e-06,2.0481365516460452e-06,1.2981055068147061e-06,1.5701982713267298e-06,3.8106368558747584e-06,5.011269667776212e-05,1.4174664551410741e-06,1.9441254992815813e-06
239,1.2505563053184716e-06,1.92350820270723e-06,9.970756975097796e-07,1.4091502777432608e-06,1.6074992427963972e-06,2.0662363082168563e-06,1.4108381497619973e-06,1.5762491381797243e-06,2.570036765513533e-06,2.0793132571642963e-06,1.3285016869223073e-06,1.6312583364090411e-06,3.7721840563279778e-06,5.3517288880548215e-05,1.4466083110965622e-06,1.9122288230564926e-06
240,1.3243642393390598e-06,1.925080417087071e-06,9.899818272679136e-07,1.4269185433257175e-06,1.5509677417144342e-06,2.0330692600022285e-06,1.414321623186218e-06,1.553103696439881e-06,2.63913424399081e-06,2.1058079696290094e-06,1.3596338905155138e-06,1.7031576074444874e-06,3.732094891988278e-06,5.696332132233219e-05,1.4748265738843754e-06,1.8801994345730573e-06
241,1.4032171244431221e-06,1.923132774436621e-06,9.815477688480645e-07,1.4418923735388285e-06,1.500940129069871e-06,2.0020533644967167e-06,1.4215043353901726e-06,1.5304980350186734e-06,2.701148300770731e-06,2.1267915393131655e-06,1.3916014909152397e-06,1.78536705730306e-06,3.691647617624383e-06,6.043908557326299e-05,1.5019694294132423e-06,1.8480676550994434e-06
242,1.4863343019373242e-06,1.917621848766427e-06,9.720874292361572e-07,1.453544916102688e-06,1.4578006410336606e-06,1.9731085686239443e-06,1.4312631400785052e-06,1.5084442216103353e-06,2.7544161853075284e-06,2.1418535617412497e-06,1.424382961647532e-06,1.8775901152505562e-06,3.6521714708348975e-06,6.393581224676052e-05,1.5277255796269187e-06,1.8158818613086425e-06
243,1.5727690264040187e-06,1.9084565649280716e-06,9.618656810727362e-07,1.4613222445366541e-06,1.4216248881372297e-06,1.94614118175078e-06,1.4423275519010157e-06,1.4868786820042283e-06,2.7978610473314166e-06,2.1509453259588472e-06,1.457811488122327e-06,1.9798452909251957e-06,3.6148472083494704e-06,6.744526491382382e-05,1.551671744271224e-06,1.7835324838964238e-06
244,1.6614485632972452e-06,1.8954827605555327e-06,9.511258288271262e-07,1.4649156348110325e-06,1.3922111434751176e-06,1.92089284958933e-06,1.453403836402621e-06,1.4659328188333399e-06,2.8308991639994683e-06,2.1544089973584703e-06,1.4915173001413458e-06,2.0924259323256966e-06,3.580763850103483e-06,7.095531460626462e-05,1.5733473361897045e-06,1.750719595353143e-06
245,1.7512545032146287e-06,1.8786718846339605e-06,9.401557123786292e-07,1.4644420855696195e-06,1.3692275286255915e-06,1.896925556581763e-06,1.4633180396038067e-06,1.446092452798676e-06,2.85319870654592e-06,2.153076617559375e-06,1.5249363717553045e-06,2.215750913938914e-06,3.5509924377948917e-06,7.444644189317687e-05,1.5922838743203298e-06,1.7171333839744783e-06
246,1.8411030042923671e-06,1.8583264383265094e-06,9.292776803762424e-07,1.4603433233398753e-06,1.3524535170053605e-06,1.8736977325558994e-06,1.47119100923201e-06,1.4280667775070191e-06,2.8646947198657175e-06,2.148182813053212e-06,1.5574709199498005e-06,2.3501388148046277e-06,3.526556424574615e-06,7.789258242929568e-05,1.6080048212844994e-06,1.6826996382581119e-06
247,1.9299384363394396e-06,1.8350439558576784e-06,9.187876610429935e-07,1.4531562464070872e-06,1.341954998065374e-06,1.8506289846188806e-06,1.4766223712715381e-06,1.4125402359401248e-06,2.865874492549857e-06,2.141041826631689e-06,1.5886774953781936e-06,2.4955759710645063e-06,3.508415821911054e-06,8.126442374733538e-05,1.6201600662825625e-06,1.647692978127289e-06
248,2.0166224189161615e-06,1.8094578762922773e-06,9.089380732710352e-07,1.4433979496656378e-06,1.3380514802719077e-06,1.8271663912711842e-06,1.4797402590633392e-06,1.4000316038607652e-06,2.857894928100474e-06,2.1327545656385425e-06,1.6182632821295982e-06,2.6515687573295685e-06,3.4973807017018057e-06,8.453084062826522e-05,1.628741710455755e-06,1.6126329424857275e-06
249,2.0998500629338135e-06,1.7820419249120807e-06,8.999472388401839e-07,1.4315547190317444e-06,1.3411311373576297e-06,1.802903417059096e-06,1.481021672906931e-06,1.390865837067691e-06,2.8422804228048886e-06,2.1240904068209844e-06,1.6459071005392897e-06,2.8171557249970766e-06,3.4939565960946674e-06,8.765903719392187e-05,1.6340793448385306e-06,1.5780606738185387e-06
250,2.1781647493574167e-06,1.7531473628094862e-06,8.919695450711463e-07,1.418094349527034e-06,1.3514781514720186e-06,1.777680207249875e-06,1.4810228476706522e-06,1.3852019559424168e-06,2.820446616177152e-06,2.1154443368187327e-06,1.671159235141228e-06,2.991087418778786e-06,3.498303996359517e-06,9.06173271790702e-05,1.636575243410924e-06,1.5443626592714975e-06
251,2.250012158608395e-06,1.7231001867930855e-06,8.850663895603601e-07,1.4035123737380233e-06,1.3692316044618598e-06,1.7515654016809184e-06,1.4802562832893498e-06,1.3830757916772063e-06,2.7934673569337392e-06,2.1068390124553763e-06,1.6935799578319706e-06,3.1720414184085557e-06,3.5102183574273055e-06,9.338079332389878e-05,1.6364629175307426e-06,1.5116992591629285e-06
252,2.313912507597764e-06,1.6921560855371325e-06,8.792365876046113e-07,1.388372070310898e-06,1.3944653090630637e-06,1.7247503761292684e-06,1.4792572984639857e-06,1.3843892359263568e-06,2.7622227158946886e-06,2.098048412018705e-06,1.7129946465848189e-06,3.358656739719993e-06,3.5290661934154513e-06,9.593494512225672e-05,1.633764273665806e-06,1.4799788735312268e-06
253,2.368804743179575e-06,1.660390181665393e-06,8.744550375339862e-07,1.3732672828354885e-06,1.4272497651757624e-06,1.6974242771318014e-06,1.4786615921230435e-06,1.388871362736454e-06,2.727659806883205e-06,2.088837715522746e-06,1.7296279553576374e-06,3.549327503466753e-06,3.553899597348786e-06,9.827279043560945e-05,1.6283774023616074e-06,1.4488660087109037e-06
254,2.4142965619171203e-06,1.6277080623533543e-06,8.706698120049194e-07,1.3587405479773452e-06,1.4676132867308087e-06,1.6696525922520233e-06,1.4791497275322512e-06,1.3960829332004121e-06,2.6908103113222994e-06,2.0792031826719053e-06,1.7440090725555124e-06,3.741966259881571e-06,3.5837973348887893e-06,0.00010038567067830802,1.6201766444787533e-06,1.4178832245675222e-06
255,2.4505634801288235e-06,1.5940426044808522e-06,8.677926924239291e-07,1.3452301249009545e-06,1.5154866161603877e-06,1.6413530774890514e-06,1.4813047670346845e-06,1.4054512067619512e-06,2.652536952997672e-06,2.069449911738146e-06,1.7567239699872712e-06,3.9339665570210145e-06,3.618167836532172e-06,0.00010225278296416636,1.6090802870128166e-06,1.386604469599107e-06
256,2.4779811365436605e-06,1.5596179846182043e-06,8.657164255215082e-07,1.3330438063742148e-06,1.5707113474362315e-06,1.6124599700231563e-06,1.4854975088914828e-06,1.4163717269195663e-06,2.613321341178696e-06,2.0600330789660886e-06,1.76817486996477e-06,4.122364684452369e-06,3.6567641444417732e-06,0.00010383580601902432,1.5950608611323489e-06,1.3548385155676402e-06
257,2.4967928479022345e-06,1.5250386175978297e-06,8.643700764566454e-07,1.3223291883454154e-06,1.6330503202753972e-06,1.5831493239972877e-06,1.4918477290032237e-06,1.4284111999325907e-06,2.573334398112204e-06,2.05135012275015e-06,1.7784733607502856e-06,4.304110829539686e-06,3.699384975084434e-06,0.00010508185294941091,1.5780920101047983e-06,1.3226842916410148e-06
258,2.5070388511344867e-06,1.4911102900767387e-06,8.637771825100374e-07,1.313062700007269e-06,1.7021295053581219e-06,1.5539148653265758e-06,1.5002467145898237e-06,1.4414526531845113e-06,2.53265210424198e-06,2.043704571541372e-06,1.787479360449996e-06,4.4764724124788994e-06,3.745457261688098e-06,0.00010593232870728946,1.5581753931347256e-06,1.2904399637956068e-06
259,2.508707882054299e-06,1.4585645370222756e-06,8.640552471239724e-07,1.3050821081816853e-06,1.777352822564198e-06,1.5254614181153435e-06,1.5103835215953528e-06,1.4556424864257861e-06,2.491319610000349e-06,2.0373536312862283e-06,1.794879785379364e-06,4.637560124132074e-06,3.793783152032027e-06,0.00010633326836830727,1.5355506383390072e-06,1.2584706082343842e-06
260,2.5019420305844577e-06,1.427877185128868e-06,8.654093711637786e-07,1.2981433601355535e-06,1.8578480337690238e-06,1.498520678800035e-06,1.5217266810012027e-06,1.4712400368830866e-06,2.449240744593094e-06,2.0324794461073087e-06,1.8002189897281179e-06,4.786729189675083e-06,3.8425570166518564e-06,0.00010624454856821368,1.51083643776478e-06,1.2271247978831972e-06
261,2.487204270839967e-06,1.3992199725285114e-06,8.681586405048871e-07,1.2919622940853086e-06,1.942431322117466e-06,1.4736909239099628e-06,1.533503638093587e-06,1.4885427992213568e-06,2.4060820344362478e-06,2.029100521235328e-06,1.8029201019009871e-06,4.924570589306399e-06,3.889501632757814e-06,0.00010564693329207638,1.484858076815666e-06,1.196696399827727e-06
262,2.4653510508077385e-06,1.3725083268363575e-06,8.72704838452478e-07,1.2862166992562999e-06,2.0295755253360888e-06,1.4513734322858846e-06,1.544797734297789e-06,1.5079064951913197e-06,2.361259338931699e-06,2.0270001919672072e-06,1.8023538882622659e-06,5.052522302052563e-06,3.931997961987407e-06,0.00010454580096484723,1.4583568356822805e-06,1.1673985549438085e-06
263,2.4375515056136605e-06,1.3475076785568112e-06,8.794640422361076e-07,1.2805802300163983e-06,2.11745614886969e-06,1.4318063068957265e-06,1.554788687230759e-06,1.5297360924750834e-06,2.314041848310506e-06,2.0257316730405584e-06,1.7978944058710342e-06,5.172376044504353e-06,3.967250535661907e-06,0.00010296914649384139,1.4318408378192473e-06,1.1393343006040208e-06
264,2.4051097377017635e-06,1.3239118744950501e-06,8.88852957864767e-07,1.2748805403575106e-06,2.2041521913592693e-06,1.4150981975864436e-06,1.5629463612938112e-06,1.5543867127079709e-06,2.263807074795374e-06,2.0246540292946348e-06,1.7888788822686123e-06,5.285833318595486e-06,3.992516034346292e-06,0.00010095791938857496,1.405559327403125e-06,1.1124973004106974e-06
265,2.3693386837120444e-06,1.3013328426511365e-06,9.012775145265052e-07,1.2692822008940196e-06,2.2879037034608144e-06,1.40121304883305e-06,1.5690092603092814e-06,1.5820639522786956e-06,2.210300320544813e-06,2.0228862900534535e-06,1.7745747081378039e-06,5.394086468767983e-06,4.00535231031222e-06,9.855305603702958e-05,1.3795565663412809e-06,1.0868633379926206e-06
266,2.331559089011628e-06,1.27932586723441e-06,9.170923483896334e-07,1.2643019117555445e-06,2.3671888838967576e-06,1.3899944470161587e-06,1.572845735689754e-06,1.612775150239053e-06,2.153778503717617e-06,2.0192599019388827e-06,1.7543408529520854e-06,5.497480665209064e-06,4.003888965031812e-06,9.578986744109333e-05,1.353815033943976e-06,1.0625364116706818e-06
267,2.2931575202960613e-06,1.2575750433343322e-06,9.365811694181759e-07,1.2606408114560768e-06,2.4405651343894924e-06,1.3812622330936769e-06,1.5743687562531742e-06,1.6462800227982508e-06,2.0950417592823167e-06,2.01248181119489e-06,1.7279035346132986e-06,5.595385401772705e-06,3.987117178206205e-06,9.27030506542661e-05,1.3284045219185014e-06,1.039822511945524e-06
268,2.255567951997402e-06,1.2360958512746405e-06,9.599348698274556e-07,1.259008867129221e-06,2.5065939428215386e-06,1.37484972468032e-06,1.573493192196868e-06,1.6820565613847825e-06,2.0352939561358623e-06,2.0015009816209546e-06,1.6954561660529359e-06,5.686265402161719e-06,3.955117906717662e-06,8.93326902700644e-05,1.3035459232580381e-06,1.0191821068406825e-06
269,2.220136603340882e-06,1.2152428101754441e-06,9.872099415319771e-07,1.2600893767784356e-06,2.5641086232017596e-06,1.3705332184833452e-06,1.5700629128149481e-06,1.7193631294935208e-06,1.97586284749034e-06,1.9858236182771827e-06,1.6574988689145547e-06,5.767912597204175e-06,3.909122639459708e-06,8.57238575562564e-05,1.2795607806307967e-06,1.0011409940487182e-06
270,2.1879832830805296e-06,1.1955380941771018e-06,1.01831968154945e-06,1.2645895157598016e-06,2.6126114468784985e-06,1.3680056977009364e-06,1.563846987974342e-06,1.7574131231855415e-06,1.9179725848768296e-06,1.96556980806274e-06,1.6145938479537659e-06,5.837945490381291e-06,3.8512635112812685e-06,8.192283805372245e-05,1.2567402550220834e-06,9.862389583025793e-07
271,2.15991942265011e-06,1.177488294787215e-06,1.053068310375169e-06,1.2732330275674464e-06,2.6524870664356035e-06,1.3669614824249806e-06,1.5547203616005315e-06,1.7955948382182754e-06,1.8626382045437438e-06,1.9412556259730704e-06,1.5672379265403343e-06,5.894594324848398e-06,3.7840156209895086e-06,7.797488288378712e-05,1.2352735905983519e-06,9.750051362611282e-07
272,2.1363761515525996e-06,1.1614930120947701e-06,1.091165700283548e-06,1.286669455557707e-06,2.684963793804597e-06,1.3671463920841328e-06,1.5428748617159472e-06,1.833620349415017e-06,1.8106359579317572e-06,1.9134409595953737e-06,1.5159377044091859e-06,5.937416998824263e-06,3.7097339560170836e-06,7.392411670906345e-05,1.2152954162249486e-06,9.679211537171903e-07
273,2.117349471124324e-06,1.14783148009492e-06,1.1321922156711222e-06,1.3053708600835835e-06,2.711847872907597e-06,1.368302876596688e-06,1.5288179894866283e-06,1.8715137937093943e-06,1.7625213611103275e-06,1.8825040409732396e-06,1.4613623352143338e-06,5.967469388607895e-06,3.630593286868622e-06,6.981404715573e-05,1.1969117787971208e-06,9.653780057283038e-07
274,2.1024015520283588e-06,1.1366639997230949e-06,1.175599906344291e-06,1.3295669251904631e-06,2.7350930340383602e-06,1.3701296024680548e-06,1.513157864515748e-06,1.909440484443076e-06,1.7186405871789786e-06,1.8487070926375374e-06,1.4043682057946253e-06,5.9868818910931735e-06,3.5486780574079962e-06,6.568805048855298e-05,1.18016080187996e-06,9.67642497422097e-07
275,2.0907587413502063e-06,1.1279986802619436e-06,1.220850493159128e-06,1.3592199933493846e-06,2.7563718238856504e-06,1.372323051506565e-06,1.4963701534631593e-06,1.947470438148676e-06,1.6791813490455521e-06,1.8123797122038043e-06,1.3459067555388387e-06,5.998246849830807e-06,3.4658883096749976e-06,6.15899480440821e-05,1.1650225770354787e-06,9.748299516004372e-07
276,2.0815468072212327e-06,1.1216449326445613e-06,1.2676276948084415e-06,1.3940147820217734e-06,2.7768222228391007e-06,1.3746650949099967e-06,1.478702674862688e-06,1.9854253492645136e-06,1.6443452053749746e-06,1.7739237199920702e-06,1.286963120625534e-06,6.004171929643216e-06,3.3836998274413666e-06,5.756393767592507e-05,1.1514683760598149e-06,9.86889897438612e-07
277,2.074082640708549e-06,1.1172499074986707e-06,1.3159300176929489e-06,1.4333600527034637e-06,2.797026967139074e-06,1.3771428513026125e-06,1.4602161635398455e-06,2.0228592761336176e-06,1.6144808681959831e-06,1.7336432647398903e-06,1.2285270859603847e-06,6.007028742005342e-06,3.3030382220603493e-06,5.3652810066369636e-05,1.1394564304942482e-06,1.0036051684318681e-06
278,2.0680597481226913e-06,1.1144587832144674e-06,1.365947122344068e-06,1.4764476119838533e-06,2.817167197632272e-06,1.3800312930991304e-06,1.4408677098012857e-06,2.059061378988027e-06,1.5899974905152118e-06,1.6916887227200072e-06,1.1715235576223716e-06,6.008736449283417e-06,3.2243890301126526e-06,4.989468787803211e-05,1.128890970195583e-06,1.024588732438798e-06
279,2.0635337543614955e-06,1.1130872536205097e-06,1.4178361354371271e-06,1.5223627687941104e-06,2.8372070613961796e-06,1.3838201511019738e-06,1.420578592441739e-06,2.0930223550367528e-06,1.5711777622569859e-06,1.6482578138001104e-06,1.1167473976935602e-06,6.010464869058294e-06,3.1479923609695673e-06,4.631973785515267e-05,1.1195981839022035e-06,1.0492875170284213e-06
280,2.060711586867554e-06,1.113157940278283e-06,1.471558943653647e-06,1.570131001977066e-06,2.85696447223909e-06,1.389053403397543e-06,1.3992961390577672e-06,2.1234454679181525e-06,1.5580850478498589e-06,1.6038335484029532e-06,1.0648481988970486e-06,6.012327708411919e-06,3.073926959384794e-06,4.294810806309058e-05,1.1113081450667067e-06,1.0770010884972572e-06
281,2.059670991369432e-06,1.1147879614936321e-06,1.5268038158522645e-06,1.6186667457990575e-06,2.876087444563456e-06,1.396268316504269e-06,1.3770607678620424e-06,2.1488626059053385e-06,1.5505664369547048e-06,1.5591716549594161e-06,1.0163074746502567e-06,6.013244386068217e-06,3.0020472575219307e-06,3.9789554687544636e-05,1.103614052859729e-06,1.1068934178393757e-06
282,2.060217687633165e-06,1.1180379542588647e-06,1.5829548279341415e-06,1.6667486265156936e-06,2.894105542111718e-06,1.4060191275301033e-06,1.3540512137342347e-06,2.1678300849563054e-06,1.5483121847268015e-06,1.515063731779058e-06,9.71400992232605e-07,6.011078818522269e-06,2.931909330669132e-06,3.68445481850824e-05,1.0959319206873235e-06,1.1380415358101522e-06
283,2.0619513878426176e-06,1.1228085527532151e-06,1.6391356215559988e-06,1.7130999189287247e-06,2.9106251095902774e-06,1.4188319646098493e-06,1.3305867844613836e-06,2.1791485319691975e-06,1.5509419501811227e-06,1.4721629705220067e-06,9.302184950431038e-07,6.00306644556414e-06,2.8628590876608433e-06,3.410617588093662e-05,1.0875338295214093e-06,1.1696005126208867e-06
284,2.064382483020856e-06,1.1287925040771387e-06,1.6943459572681382e-06,1.7565502994345748e-06,2.925538948444686e-06,1.4350932375109489e-06,1.3070950774417296e-06,2.1820611442363124e-06,1.5579950636254097e-06,1.4310406350997765e-06,8.927705671294185e-07,5.986433378294208e-06,2.7942673493473904e-06,3.156219188626926e-05,1.077713498221158e-06,1.2009902349659286e-06
285,2.066941611515519e-06,1.1354959482746412e-06,1.7476148015120143e-06,1.7962353861640983e-06,2.939110586972084e-06,1.4549921886523914e-06,1.284048185304442e-06,2.1764068362352416e-06,1.5688125959682035e-06,1.3923211788389696e-06,8.591346804663152e-07,5.958948628649567e-06,2.7257546938190767e-06,2.9196849259927258e-05,1.066018885757477e-06,1.231908010095562e-06
286,2.068983774391104e-06,1.1423708310445351e-06,1.7980759857454417e-06,1.8317611356160821e-06,2.9519183753265663e-06,1.4785382030303844e-06,1.2618940562177048e-06,2.1627067971574563e-06,1.5824731397148109e-06,1.3566734657982373e-06,8.295352323993975e-07,5.919179697192194e-06,2.6573325564542272e-06,2.69923439652917e-05,1.0523608335114402e-06,1.2621599588971118e-06
287,2.0699827375195556e-06,1.1490163537911282e-06,1.8449618889081766e-06,1.863265737595995e-06,2.964709004538062e-06,1.5055756074017722e-06,1.2410377367868758e-06,2.1421130204254054e-06,1.5978566626564172e-06,1.324701948853786e-06,8.042906297311681e-07,5.866534364027685e-06,2.5894210174372444e-06,2.492997011248305e-05,1.0368981206368353e-06,1.2914858610659086e-06
288,2.069802873520269e-06,1.155298417425243e-06,1.8875913725770587e-06,1.891376417339621e-06,2.978204086503376e-06,1.5357819460568483e-06,1.2218370234143347e-06,2.116155296780508e-06,1.6137616854951487e-06,1.29690917047498e-06,7.836960449104389e-07,5.801335231114605e-06,2.522663265628933e-06,2.2991270551938824e-05,1.019824539127827e-06,1.3194996413439092e-06
289,2.068724132481553e-06,1.1613111545463263e-06,1.9254290512964597e-06,1.91705231559943e-06,2.992908381275e-06,1.5687194280177958e-06,1.2045366484742961e-06,2.086405313039496e-06,1.6289608129493462e-06,1.273710309150317e-06,7.679520086754288e-07,5.7249193694161594e-06,2.457622009109085e-06,2.115925328643308e-05,1.001260041463013e-06,1.345712867022448e-06
290,2.0671794159696264e-06,1.167297821628181e-06,1.958231108179855e-06,1.941327661322359e-06,3.0089889394655413e-06,1.6039368518015295e-06,1.1891937172754762e-06,2.0542573956074477e-06,1.642158159787751e-06,1.2553987788144826e-06,7.571620909655853e-07,5.639485618516353e-06,2.394605280128556e-06,1.9419422190695722e-05,9.813004583192471e-07,1.3695831205858253e-06
291,2.065491927430255e-06,1.1736691280888604e-06,1.986207095389647e-06,1.965129666389653e-06,3.026287488021772e-06,1.6410245084140968e-06,1.1757021565056319e-06,2.0208354036968586e-06,1.6519663082941311e-06,1.2420991716322641e-06,7.513541193924195e-07,5.547554966780683e-06,2.3336934823891228e-06,1.776045829900277e-05,9.600973526354848e-07,1.3906421233896376e-06
292,2.0637816716619433e-06,1.1810651518360329e-06,2.0100530439813906e-06,1.9892919429971386e-06,3.044461880287184e-06,1.6795966237631412e-06,1.163928630791307e-06,1.986960283098721e-06,1.6570048297800521e-06,1.2337751423320062e-06,7.504778653313754e-07,5.451260582725413e-06,2.274838066219895e-06,1.6174648807050326e-05,9.378590532680804e-07,1.408703602018534e-06
293,2.0619585247477546e-06,1.19030463686898e-06,2.0307685711687033e-06,2.0146037607188564e-06,3.063124410705187e-06,1.719265349168062e-06,1.153867089417313e-06,1.95319432102488e-06,1.6560835843244842e-06,1.2302753620183604e-06,7.543955798197575e-07,5.35182821447666e-06,2.2179459082520135e-06,1.4658056489918325e-05,9.148115576808038e-07,1.423950080060154e-06
294,2.0597632043024383e-06,1.2022155087984942e-06,2.049409342496063e-06,2.0417321042160293e-06,3.0818166790480834e-06,1.7596207298848222e-06,1.1456754560423953e-06,1.9199191139325615e-06,1.6484543618282291e-06,1.2313763287130195e-06,7.629108915775112e-07,5.249505605028099e-06,2.1629134383344936e-06,1.3210276369909026e-05,8.911693770917891e-07,1.4367832681911205e-06
295,2.0568686821471765e-06,1.2174807014186176e-06,2.0669985951732665e-06,2.0710719674661375e-06,3.099901351290642e-06,1.8001649467320025e-06,1.1395537508322203e-06,1.8873578765901279e-06,1.6340642518229048e-06,1.2367981714644394e-06,7.757996473426285e-07,5.143958099841404e-06,2.109579173276225e-06,1.1833768128469596e-05,8.671044046365813e-07,1.4476179429658763e-06
296,2.0529399942329873e-06,1.2365594612726044e-06,2.0845462876735534e-06,2.102663318493724e-06,3.116604633579999e-06,1.8402062586778439e-06,1.1355890753170671e-06,1.8555783890762719e-06,1.6135544265699896e-06,1.2462324916170047e-06,7.92793526140201e-07,5.034873534708119e-06,2.0576729344019405e-06,1.0532754929773375e-05,8.427573774757751e-07,1.4568036821659437e-06
297,2.0475990692705804e-06,1.259655355067896e-06,2.102984429193946e-06,2.136237345434118e-06,3.131173087652863e-06,1.8788438418123478e-06,1.1336770116089654e-06,1.8245977425947064e-06,1.5879448783503149e-06,1.259433031121328e-06,8.13576332368766e-07,4.922462158152332e-06,2.006925582894199e-06,9.31179353426601e-06,8.183157853977465e-07,1.464596149377483e-06
298,2.0403909012714303e-06,1.2867175147217433e-06,2.1230151481879906e-06,2.1713123904482512e-06,3.1429037980740663e-06,1.9151494225898153e-06,1.133489352239651e-06,1.7945506214910043e-06,1.5583125183299022e-06,1.2763004766731811e-06,8.378373669734739e-07,4.807732884119401e-06,1.9573276681856568e-06,8.174723632477402e-06,7.940488048024036e-07,1.4710853382347212e-06
299,2.0308330752526783e-06,1.3174762844502925e-06,2.144976873980643e-06,2.207220046388916e-06,3.15102182190933e-06,1.948441355878808e-06,1.1344682866006472e-06,1.7657113080830982e-06,1.525642112658965e-06,1.2969169367697535e-06,8.652932107335717e-07,4.692577511524218e-06,1.9092460697042414e-06,7.124590628173423e-06,7.702655597719587e-07,1.4762065894844211e-06
300,2.0185069602556177e-06,1.3515129019199212e-06,2.1687620545316674e-06,2.2431059668695784e-06,3.1546029567687967e-06,1.9784414020013553e-06,1.1359259158733709e-06,1.7383466055184624e-06,1.4907696424346073e-06,1.3215776819629585e-06,8.956276420986086e-07,4.579613685303034e-06,1.8632325775671257e-06,6.164053936835317e-06,7.472775005889293e-07,1.4798949692891346e-06
301,2.0030571825257142e-06,1.3883212104158377e-06,2.193781667052794e-06,2.2780572485049284e-06,3.152688682561028e-06,2.0052181701137493e-06,1.1372808110299162e-06,1.7126509035903534e-06,1.4544091336304926e-06,1.3507599932092926e-06,9.28421001375479e-07,4.471704367776257e-06,1.819763653889199e-06,5.295515281440887e-06,7.253740489821701e-07,1.482191388873235e-06
302,1.984065479602924e-06,1.4272885088221974e-06,2.2190100856717982e-06,2.3113254892738363e-06,3.1445608900044365e-06,2.028968703627507e-06,1.1382632551470928e-06,1.6888772300896184e-06,1.4172617682787916e-06,1.384974856983854e-06,9.631186900582856e-07,4.371385633777986e-06,1.7791299469469179e-06,4.520947654444403e-06,7.048024399463254e-07,1.4831488179492946e-06
303,1.961006293927732e-06,1.4676386170189851e-06,2.243167020667855e-06,2.3424398401024206e-06,3.130028210733417e-06,2.049794082761981e-06,1.138892528960425e-06,1.667444700439454e-06,1.3800723704688508e-06,1.424621665569704e-06,9.990308817297032e-07,4.280586979793315e-06,1.7414072624969905e-06,3.841823340455293e-06,6.857796138695418e-07,1.4826423157861193e-06
304,1.9334531282392567e-06,1.5084430964870508e-06,2.2650065588888833e-06,2.3711293117686377e-06,3.10957842172822e-06,2.067667916232993e-06,1.1393175698398837e-06,1.6488260378131172e-06,1.343629314387619e-06,1.4699536687513334e-06,1.0353248535272462e-06,4.2006791094005075e-06,1.706471235069205e-06,3.259317790298706e-06,6.685208584866234e-07,1.4802801202539302e-06
305,1.901373481063741e-06,1.5486702168238167e-06,2.2835314308951234e-06,2.3971679635566303e-06,3.0843151894131634e-06,2.0826196029270563e-06,1.1397232156749903e-06,1.6333265684173788e-06,1.308812130813695e-06,1.5211228358298867e-06,1.071012242382908e-06,4.1326611094236136e-06,1.6741040486788218e-06,2.7746430217596164e-06,6.532711700022666e-07,1.4755066744951828e-06
306,1.8652522951341412e-06,1.5872155879216876e-06,2.2979577471126905e-06,2.4202671859328025e-06,3.055713367336342e-06,2.094886531088855e-06,1.1403069040752205e-06,1.6209863430465372e-06,1.2766035335011796e-06,1.5782087816708287e-06,1.1050458251646754e-06,4.07736026961271e-06,1.644101311827896e-06,2.389262551585976e-06,6.403621189737963e-07,1.4678523587442115e-06
307,1.8259957636905247e-06,1.6229587286805469e-06,2.307504074343119e-06,2.440036330069801e-06,3.0253598769643635e-06,2.1048390087232986e-06,1.141284153599557e-06,1.6117051069337935e-06,1.2479951162233366e-06,1.6411940565014904e-06,1.136568284210998e-06,4.035521027089816e-06,1.6162635217009333e-06,2.1048522582433223e-06,6.302444703884352e-07,1.4571749603847508e-06
308,1.784729327396249e-06,1.6548214112320738e-06,2.311296453347068e-06,2.4559893669211975e-06,2.9948070036262447e-06,2.112762085429494e-06,1.1429045933620123e-06,1.6054737527333618e-06,1.223898043544144e-06,1.709949202430076e-06,1.1651346857789573e-06,4.007734636447968e-06,1.590351926422488e-06,1.9231304555404815e-06,6.234204561060669e-07,1.4437346015246953e-06
309,1.742594515949303e-06,1.6817567526776846e-06,2.308563170798566e-06,2.4676286014644474e-06,2.9654584887870817e-06,2.1186647575203307e-06,1.1454010048624118e-06,1.6024532799160305e-06,1.2051239863826601e-06,1.7842734633602016e-06,1.1907278496849771e-06,3.994338874067376e-06,1.5661270246220217e-06,1.8458411510337852e-06,6.20330801655513e-07,1.4280891525986134e-06
310,1.7006164960883017e-06,1.7027541038187527e-06,2.298954458153747e-06,2.474635274271277e-06,2.9383894887038756e-06,2.122188653954373e-06,1.1488739958332574e-06,1.6028045168774848e-06,1.1923948588441456e-06,1.8639425924515848e-06,1.2136003290570677e-06,3.995401400200644e-06,1.5433912921889575e-06,1.8749454551900357e-06,6.212908540635843e-07,1.4109259280842107e-06
311,1.6597060622866621e-06,1.716971068059247e-06,2.2826821872713708e-06,2.4770533294622013e-06,2.914231331502489e-06,2.1226773064843932e-06,1.1532166539511862e-06,1.6064598789586972e-06,1.186324998507597e-06,1.948684838597292e-06,1.2340848073985212e-06,4.010697192339326e-06,1.5219317767525105e-06,2.012761580846595e-06,6.264786489342381e-07,1.3929532479655322e-06
312,1.6207316531376428e-06,1.723920702200203e-06,2.260364320607256e-06,2.475272470686147e-06,2.8932836483326166e-06,2.119444522497517e-06,1.1581248174964495e-06,1.6130069317005828e-06,1.1873698656038397e-06,2.038065237553371e-06,1.2524662321499614e-06,4.039549996789444e-06,1.5014896866342235e-06,2.2618753839441894e-06,6.359517651697856e-07,1.374872496179783e-06
313,1.5844901067507521e-06,1.723580271635869e-06,2.2326987663174313e-06,2.4697783336927566e-06,2.8757652789017946e-06,2.112075830912117e-06,1.1631568676296407e-06,1.6216731846806088e-06,1.195782832312877e-06,2.1313567796445125e-06,1.2689549565498787e-06,4.080610320588739e-06,1.4819159721885145e-06,2.6249188573912726e-06,6.496774640652817e-07,1.3573513959020595e-06
314,1.5515805103996214e-06,1.7163959591443465e-06,2.2001729767286566e-06,2.4608483705725233e-06,2.8619868670630135e-06,2.100494116784077e-06,1.1678047725555513e-06,1.6314148242266647e-06,1.2116034742119258e-06,2.227472946039099e-06,1.2837358659239195e-06,4.131734203558598e-06,1.4634119929954409e-06,3.104350881323566e-06,6.675407706410402e-07,1.3410042066177722e-06
315,1.5223611390559272e-06,1.7032026256091555e-06,2.162943131585443e-06,2.4483991626182767e-06,2.85233239483183e-06,2.0847397021896002e-06,1.171582643222435e-06,1.641158418680367e-06,1.2346972675461966e-06,2.3249350427275283e-06,1.296986871959998e-06,4.190022817998198e-06,1.4466080246611301e-06,3.702266063840483e-06,6.893204658565531e-07,1.326437241485791e-06
316,1.4970284152730551e-06,1.6850456313019224e-06,2.1208661087165545e-06,2.4320535908150947e-06,2.8471270674695907e-06,2.064699868230722e-06,1.1741595411797853e-06,1.6501122932414297e-06,1.2648258798626473e-06,2.421882530752284e-06,1.3088080632775032e-06,4.252053054850809e-06,1.4323853189610096e-06,4.420293239997253e-06,7.146734967794193e-07,1.3142662167656345e-06
317,1.4756687162677411e-06,1.662957946531936e-06,2.0736122556914313e-06,2.4113242870114017e-06,2.846564362274309e-06,2.0400448817915104e-06,1.1754874818570405e-06,1.6579413927541647e-06,1.3016574009915355e-06,2.5162555234418552e-06,1.3191664262070593e-06,4.31432762814562e-06,1.4216331891321736e-06,5.259694469535111e-06,7.431557222709065e-07,1.3050174403580922e-06
318,1.458222413984336e-06,1.6378397296860673e-06,2.020865493098291e-06,2.385754854828584e-06,2.850724658069179e-06,2.01040977038668e-06,1.1757993582810346e-06,1.6647012820770816e-06,1.3447080342665542e-06,2.6061780133548355e-06,1.327958587188689e-06,4.373840775000663e-06,1.4151574854962271e-06,6.221531055510716e-06,7.742483572840068e-07,1.2990247128204817e-06
319,1.4444966330555887e-06,1.6104758802203531e-06,1.9626202583078843e-06,2.3549583006521385e-06,2.8595532979400846e-06,1.9756743132674806e-06,1.175473204564702e-06,1.6706387197191362e-06,1.393290070193588e-06,2.6903098093446537e-06,1.335139104794081e-06,4.42856175018297e-06,1.4136789609707618e-06,7.306514475044968e-06,8.073540111180062e-07,1.296459088312539e-06
320,1.4343226828877304e-06,1.5815552105349525e-06,1.8994634871855032e-06,2.318613160636462e-06,2.8727196912607574e-06,1.9361577867789562e-06,1.1749025987374714e-06,1.6760302869917694e-06,1.4464803683834094e-06,2.767915186685516e-06,1.3408247344134718e-06,4.477701388781411e-06,1.4177788341441446e-06,8.514440808994853e-06,8.417973865004807e-07,1.2974426998087482e-06
321,1.427736197398767e-06,1.5516123699380127e-06,1.832668847486586e-06,2.2765141190756254e-06,2.8894316749762717e-06,1.8926317157802995e-06,1.1744357694749883e-06,1.6811217747284321e-06,1.5031093664106593e-06,2.838693130694966e-06,1.3453136015529928e-06,4.521712810131829e-06,1.4278164871842694e-06,9.843543255316814e-06,8.76901124037018e-07,1.3020907135472336e-06
322,1.425005851266103e-06,1.5209632419197273e-06,1.7640178567725427e-06,2.2286980896970464e-06,2.9083707032066317e-06,1.8462050684597241e-06,1.1743820049455798e-06,1.6861387858283913e-06,1.5618085515891447e-06,2.9026246346909393e-06,1.348983083388473e-06,4.562023519113488e-06,1.4438806352706942e-06,1.129002715792311e-05,9.121112810874651e-07,1.3104528741436228e-06
323,1.4264933673878312e-06,1.4897190431736054e-06,1.6954378854713078e-06,2.175553805596645e-06,2.9278799005326777e-06,1.7982009323050659e-06,1.175060226276274e-06,1.6913283959048326e-06,1.621163982164466e-06,2.959952413653857e-06,1.3521362959805484e-06,4.6005876904716284e-06,1.4657734047564782e-06,1.2847731491537514e-05,9.470482781419707e-07,1.3224499786503975e-06
324,1.4324628839755994e-06,1.4578863361460167e-06,1.6286759918843882e-06,2.117806862877848e-06,2.946338403146603e-06,1.750052170632139e-06,1.176787529910897e-06,1.6969650014585578e-06,1.6799924756139184e-06,3.0111600646257406e-06,1.3549404834723326e-06,4.639440739365656e-06,1.4930583638543134e-06,1.4507802335836335e-05,9.814318684170096e-07,1.337845025461214e-06
325,1.4429630299324448e-06,1.4254964920061386e-06,1.5651587622599677e-06,2.056368627439064e-06,2.9624775375599266e-06,1.7031711560280807e-06,1.1798194552595322e-06,1.7032748911520288e-06,1.737553413096026e-06,3.056871019170492e-06,1.3575115676072693e-06,4.680366943324304e-06,1.5252077125622078e-06,1.6258438948283556e-05,1.0149714563249725e-06,1.3562272223121777e-06
326,1.4578177573126345e-06,1.3926961319725455e-06,1.5059910111468812e-06,1.9921881108793587e-06,2.9754683569766846e-06,1.6588303063709673e-06,1.1843325569579536e-06,1.7103906482229384e-06,1.7934347126577986e-06,3.097778722261089e-06,1.3600268524631706e-06,4.724631343464144e-06,1.5617789800638834e-06,1.8084891293132146e-05,1.0473654758589496e-06,1.3769986920626877e-06
327,1.4767048543266259e-06,1.3597525884035992e-06,1.451978913242071e-06,1.9262796780310745e-06,2.9848142661588903e-06,1.6181201978575765e-06,1.190408903293549e-06,1.718431301393481e-06,1.8472386290224317e-06,3.1345969749450925e-06,1.362711721328607e-06,4.772742914403488e-06,1.6024959712671646e-06,1.9969874937070055e-05,1.078438786923374e-06,1.3993968449665896e-06
328,1.4993040223494491e-06,1.3269790331739236e-06,1.4036504775580215e-06,1.8598468297265793e-06,2.990186130372248e-06,1.581936237486958e-06,1.1980274977011342e-06,1.7275530721663598e-06,1.898408835480211e-06,3.167972285535651e-06,1.3657394107926997e-06,4.824363689894854e-06,1.6471955774973155e-06,2.1894447750071826e-05,1.1082340005465587e-06,1.422606733930317e-06
