,EMG1,EMG2,EMG3,EMG4,EMG5,EMG6,EMG7,EMG8,EMG9,EMG10,EMG11,EMG12,EMG13,EMG14,EMG15,EMG16
0,5.12152406812271e-07,1.748982117478183e-07,8.158696328875756e-07,4.790622475055551e-07,1.1683245716991683e-06,7.067862563025844e-07,6.580819953733113e-07,2.943327611426523e-07,3.318167362240379e-07,2.22899266682828e-06,2.8813764178569703e-08,1.151199476506939e-06,2.5037535139497265e-07,-1.4917324478301101e-07,1.7267755659337348e-07,4.459862591058371e-07
1,6.594238721864706e-07,3.168666482261493e-07,8.991961504920879e-07,5.320245349668578e-07,1.3638278838648772e-06,8.607642103429834e-07,6.968373781914041e-07,4.379135461457606e-07,5.419066985529054e-07,2.679316945215361e-06,1.1667176967419991e-07,1.7247389283809757e-06,4.083996188117236e-07,7.371427769655514e-07,2.304894931746509e-07,5.487947135563096e-07
2,8.034380633621749e-07,4.597625352092884e-07,9.827579621671214e-07,5.868659271149253e-07,1.5593491356498728e-06,1.0147268366355919e-06,7.409180500045266e-07,5.803613530035155e-07,7.451028621226221e-07,3.140892005655585e-06,2.0415682720240856e-07,2.283422315888871e-06,5.679020375466971e-07,1.727097417750468e-06,2.861081428230246e-07,6.5222670660246e-07
3,9.424210339023235e-07,6.014267290310304e-07,1.066530905017212e-06,6.42952052808197e-07,1.7512041291356203e-06,1.1682843745653961e-06,7.906668284240633e-07,7.199330172042069e-07,9.389168512863786e-07,3.6106097382368446e-06,2.9057710272340353e-07,2.821567803107454e-06,7.279914203923109e-07,2.8268956412295283e-06,3.391929288885975e-07,7.536491628039154e-07
4,1.0750048837078607e-06,7.398036871076096e-07,1.1505690999462811e-06,6.999464345077344e-07,1.936072598756677e-06,1.3211340370415726e-06,8.464295982791259e-07,8.553648989408497e-07,1.1209706494217761e-06,4.084843253684618e-06,3.752546593743209e-07,3.3337934558524178e-06,8.882866121557628e-07,4.0425790873758955e-06,3.894230886111921e-07,8.508297637414634e-07
5,1.2002983315379273e-06,8.732081271967183e-07,1.2348756706856245e-06,7.576562686933337e-07,2.111261665368784e-06,1.4731207064056518e-06,9.085104999163883e-07,9.85699951617691e-07,1.2891660609244253e-06,4.55934678113876e-06,4.575541437866651e-07,3.815241348054553e-06,1.048925608225405e-06,5.380113042016313e-06,4.364849462971449e-07,9.42044386270588e-07
6,1.3177896445536214e-06,1.0005244851596593e-06,1.319326222515496e-06,8.159024890766563e-07,2.274939732660982e-06,1.6242608141657449e-06,9.771637327696706e-07,1.1100782774750797e-06,1.4418810675125019e-06,5.029355915364174e-06,5.369601443954485e-07,4.261992465046017e-06,1.2103385484498153e-06,6.845353072291537e-06,4.80064404599794e-07,1.0261705119155927e-06
7,1.4271866465840054e-06,1.1211282127929186e-06,1.4036175114157177e-06,8.745027398902197e-07,2.4262069876728654e-06,1.7746536492313825e-06,1.052572647206086e-06,1.2277580689107318e-06,1.5781142637676428e-06,5.489763513588969e-06,6.131197845269164e-07,4.671490053332969e-06,1.3729638909391074e-06,8.443604264523967e-06,5.198476267575386e-07,1.1027609587239801e-06
8,1.528259221032282e-06,1.2346629713937833e-06,1.4872188069337411e-06,9.33339167366235e-07,2.56487157878526e-06,1.9243380586465256e-06,1.1348001930085774e-06,1.3383068679768117e-06,1.697541269788362e-06,5.935071079210728e-06,6.857985478534387e-07,5.042863543920134e-06,1.5371423570281656e-06,1.01790058467423e-05,5.555743938280076e-07,1.1720403053900825e-06
9,1.6207147511142514e-06,1.3409212820260296e-06,1.5693934737282272e-06,9.924075079547847e-07,2.691018110995165e-06,2.0732672536665288e-06,1.2237576041144443e-06,1.4417184603847289e-06,1.8005003462051738e-06,6.359083154590573e-06,7.548316898181621e-07,5.377099664463267e-06,1.7032033001075346e-06,1.2054136218649535e-05,5.871506273663376e-07,1.2347406592077298e-06
10,1.7042200595569269e-06,1.4397736132721587e-06,1.6493174757342253e-06,1.0517585263340253e-06,2.804650759085138e-06,2.221444025963799e-06,1.3192037527366197e-06,1.5383274556259723e-06,1.8878965985261475e-06,6.754747848904205e-06,8.201291236386846e-07,5.676875894188537e-06,1.871570683628088e-06,1.4069829948772031e-05,6.147036272114198e-07,1.2918021533690117e-06
11,1.7785976430500305e-06,1.5310140239903818e-06,1.72619820769189e-06,1.1113731755165218e-06,2.9055405305272126e-06,2.369007201996225e-06,1.420757502304601e-06,1.6286000632279546e-06,1.960966821208307e-06,7.114528462042436e-06,8.816820444466532e-07,5.945957234802247e-06,2.042746233363549e-06,1.6225156661983446e-05,6.384925878209418e-07,1.344126599279323e-06
12,1.8439502954979072e-06,1.6142144640076596e-06,1.799256125814701e-06,1.1710674667448315e-06,2.9931494498216384e-06,2.5161047831244342e-06,1.527887461740837e-06,1.712981415115863e-06,2.0209655341435678e-06,7.431236081076997e-06,9.395355267867875e-07,6.188425108960449e-06,2.217291512453017e-06,1.851772953715264e-05,6.587642232224446e-07,1.3924983447057527e-06
13,1.9005215599187652e-06,1.68873471701471e-06,1.8676016992871537e-06,1.230456006405079e-06,3.066600659625221e-06,2.662756241953062e-06,1.6398656641838164e-06,1.7918984986231204e-06,2.0689677704827107e-06,7.698950995694407e-06,9.937668281160533e-07,6.40812263843139e-06,2.395940199284026e-06,2.0944398391945174e-05,6.756794179131688e-07,1.4375916592544971e-06
14,1.948484572864051e-06,1.753901274889148e-06,1.9301871782038427e-06,1.2889592115652285e-06,3.1248587225180173e-06,2.8089635960231687e-06,1.7557296736699143e-06,1.865846483998278e-06,2.1058785533634784e-06,7.913638306965168e-06,1.044499354556359e-06,6.608377589667053e-06,2.57962648201718e-06,2.3502117517759046e-05,6.89317180488505e-07,1.4799859556849437e-06
15,1.9878904056619434e-06,1.8092244875397707e-06,1.9858892201747164e-06,1.3458668519423824e-06,3.1671411258409438e-06,2.9549566495295708e-06,1.8742847834104143e-06,1.9353932148691895e-06,2.132562900472363e-06,8.073235295638088e-06,1.0918996419795194e-06,6.791763847700661e-06,2.7693138227457382e-06,2.6188675213147947e-05,6.997371062102195e-07,1.5201686313809345e-06
16,2.0187030765005905e-06,1.8544553708001424e-06,2.0336200636744258e-06,1.4004558990053234e-06,3.193338494154745e-06,3.10132824013376e-06,1.9941626187764815e-06,2.0010444589734057e-06,2.149957852338841e-06,8.177299400205516e-06,1.1361104455504525e-06,6.959780134948241e-06,2.965840147442305e-06,2.900302222414616e-05,7.070770631734685e-07,1.5584856335802342e-06
17,2.0408260901116165e-06,1.889441253303478e-06,2.0723862166470987e-06,1.4520970092806094e-06,3.20418466585405e-06,3.249010603045059e-06,2.113973036742382e-06,2.0631334542368658e-06,2.1590515402825403e-06,8.226415727469187e-06,1.1771765951248152e-06,7.112661331185855e-06,3.169858689082257e-06,3.19449421248989e-05,7.115873732755404e-07,1.5950704528221276e-06
18,2.0541847226165888e-06,1.9140208016511208e-06,2.101304398360437e-06,1.500308501295298e-06,3.201059961401481e-06,3.3991243039028464e-06,2.2325014299474244e-06,2.12186896017975e-06,2.1607771742071e-06,8.2214575213036e-06,1.215015880019834e-06,7.24950446155272e-06,3.3818039084866464e-06,3.501381217064062e-05,7.135745271344298e-07,1.6298797623795052e-06
19,2.058858458905395e-06,1.928137402035962e-06,2.119639794154725e-06,1.5448104031956887e-06,3.1855615283007118e-06,3.5527110693922297e-06,2.3487958093737904e-06,2.177389976417029e-06,2.1559732888624624e-06,8.163072741960179e-06,1.2494042059420416e-06,7.368522194373101e-06,3.60187696088084e-06,3.820640460959082e-05,7.133632457040223e-07,1.662874401535562e-06
20,2.05514881900661e-06,1.9320221535899577e-06,2.126921615800363e-06,1.5856200668568237e-06,3.1591447665009873e-06,3.7104495606420555e-06,2.4620930747351473e-06,2.2296469992509925e-06,2.1453845745219578e-06,8.052181904386738e-06,1.2799797594044843e-06,7.467225652941442e-06,3.83001389793092e-06,4.1514324966040096e-05,7.11308618871461e-07,1.6941967538253876e-06
21,2.0435495398445044e-06,1.9262568365997626e-06,2.1231162797084274e-06,1.623108536033515e-06,3.1230180655028193e-06,3.872494445187629e-06,2.571743099373415e-06,2.278219254183287e-06,2.1296562431859245e-06,7.891493517520346e-06,1.3063072547839042e-06,7.5426655088647415e-06,4.0658953755225805e-06,4.492270564468744e-05,7.077784029415867e-07,1.7241697933898975e-06
22,2.024680038666224e-06,1.911676422024003e-06,2.108767079589526e-06,1.6579141694281583e-06,3.078171192416914e-06,4.038404794826827e-06,2.6772684095444976e-06,2.3223067699478177e-06,2.109444005375751e-06,7.686684948690311e-06,1.3279560979476148e-06,7.591919111253178e-06,4.3091604855516445e-06,4.84114297889655e-05,7.031145536697779e-07,1.7531258324144652e-06
23,1.9992207252947734e-06,1.8891794245774143e-06,2.0849833460906722e-06,1.690738811008807e-06,3.025343614967274e-06,4.207046295353338e-06,2.7784628822045453e-06,2.3609720461758766e-06,2.0856245852101206e-06,7.4461400097699186e-06,1.3445512662106614e-06,7.612740692442418e-06,4.559671444814212e-06,5.195800439079424e-05,6.976358649399227e-07,1.781233896532157e-06
24,1.967854409022457e-06,1.8596701781044506e-06,2.0532220988535432e-06,1.7221354729033762e-06,2.9650342075857683e-06,4.37649659710241e-06,2.875345781614225e-06,2.3935144676158134e-06,2.0593777524101265e-06,7.17961460769736e-06,1.355852165972642e-06,7.6040695302753805e-06,4.8174718118803454e-06,5.554031059277438e-05,6.916493653548027e-07,1.808459970546574e-06
25,1.9312016315548306e-06,1.8242341537427587e-06,2.0149932230514973e-06,1.7523665949250865e-06,2.8977453024501417e-06,4.544014134339923e-06,2.967957837042861e-06,2.4198007287515865e-06,2.0320318705945896e-06,6.896919449899485e-06,1.3618408837101732e-06,7.566143337220521e-06,5.082422350174002e-06,5.9138687850642874e-05,6.854450086921613e-07,1.8346700504411824e-06
26,1.8897608747349464e-06,1.784263666062772e-06,1.9716938807602446e-06,1.781376328695534e-06,2.824262780355833e-06,4.706087803247519e-06,3.056162443043365e-06,2.440414053618052e-06,2.0048293043598974e-06,6.607283970472243e-06,1.3626943676042603e-06,7.500228062456931e-06,5.3537905136872445e-06,6.273753352475933e-05,6.793041187741797e-07,1.8597812646676021e-06
27,1.8439253608095866e-06,1.741310683435591e-06,1.924561506636939e-06,1.8088797084026058e-06,2.7456272242616782e-06,4.858685525881019e-06,3.1396124757427336e-06,2.4565648306203593e-06,1.978832696359963e-06,6.319248657817619e-06,1.3586703548657111e-06,7.4082219196294125e-06,5.629967484200539e-06,6.632604346064157e-05,6.735147060119247e-07,1.8838010910697077e-06
28,1.7940458211161907e-06,1.6968298308810337e-06,1.8746226250789615e-06,1.8344642420398735e-06,2.6628936264523286e-06,4.997786562788954e-06,3.2178923592897734e-06,2.469800725468411e-06,1.9549963868872168e-06,6.04057830285725e-06,1.3501064400342295e-06,7.292384880332393e-06,5.908342542375814e-06,6.989739853529415e-05,6.683663760188658e-07,1.9066989527542118e-06
29,1.7403926307119202e-06,1.6520178583156477e-06,1.8226520591760575e-06,1.857595331505793e-06,2.577093625700819e-06,5.120034348616837e-06,3.2906774089116322e-06,2.4816718592133206e-06,1.934263238974713e-06,5.7781270172288995e-06,1.337516636953979e-06,7.15523768430308e-06,6.185347511575433e-06,7.344642390086087e-05,6.641316538832997e-07,1.9282483215642026e-06
30,1.6830945082839102e-06,1.607757321991356e-06,1.7691838645089476e-06,1.8776314580107273e-06,2.4894590304733896e-06,5.223210166903253e-06,3.357716183639729e-06,2.493525580434054e-06,1.9176077102102525e-06,5.5378810317141355e-06,1.3215554730255102e-06,6.999531979251326e-06,6.4565627392660655e-06,7.69665000416772e-05,6.610637023334672e-07,1.947965638532563e-06
31,1.6223099180939987e-06,1.5646291312977735e-06,1.714590635554578e-06,1.8939876676602078e-06,2.4015051505676726e-06,5.306241218128207e-06,3.4185953367447103e-06,2.5064481802301225e-06,1.9060304231371846e-06,5.325071490963877e-06,1.3028493864642158e-06,6.828168298831585e-06,6.716703063060509e-06,8.044615580638424e-05,6.594137464624411e-07,1.965128710189964e-06
32,1.558563150325169e-06,1.5229908189151062e-06,1.659265064450525e-06,1.9063385661385437e-06,2.3147853915712004e-06,5.368659880441487e-06,3.472466801267618e-06,2.5212707615863755e-06,1.9004852707176912e-06,5.14412650532449e-06,1.281897711227809e-06,6.643943456540203e-06,6.9596895056321746e-06,8.38649255958237e-05,6.594505417104901e-07,1.97884470259262e-06
33,1.492856686287015e-06,1.4830738892951362e-06,1.6037962377305469e-06,1.914713274467878e-06,2.23061275213059e-06,5.4099298673743594e-06,3.5179540478668542e-06,2.5385708716286226e-06,1.9017453266208572e-06,4.998513575286064e-06,1.2591446272240425e-06,6.449127608328422e-06,7.179288254060665e-06,8.718884552390327e-05,6.614761201698983e-07,1.9882186410153703e-06
34,1.4264350807262742e-06,1.4450275528121692e-06,1.5489504742307136e-06,1.9194534131905573e-06,2.1500019260163356e-06,5.429266840732925e-06,3.5532758055613462e-06,2.558652020434697e-06,1.9103098804320618e-06,4.890671335062382e-06,1.2351424130307698e-06,6.245167054183392e-06,7.370057618458351e-06,9.036849060319319e-05,6.658226727362652e-07,1.9925898543084115e-06
35,1.3604964725525216e-06,1.4088965105269835e-06,1.4954729611386597e-06,1.9210378974445856e-06,2.073726401965995e-06,5.426011853339279e-06,3.5765089222820187e-06,2.5815573384230028e-06,1.926399526263673e-06,4.822069893164406e-06,1.2105869288441364e-06,6.032815414368977e-06,7.527687279361546e-06,9.334187164924258e-05,6.72811969376826e-07,1.9916371430317293e-06
36,1.2960853107986083e-06,1.374633837757432e-06,1.443913302273822e-06,1.919886585081255e-06,2.0023077113421255e-06,5.400058400960519e-06,3.585931920070252e-06,2.607095504891057e-06,1.9499685617691823e-06,4.793238845174512e-06,1.1861652135410426e-06,5.812510622290319e-06,7.648875438550138e-06,9.603989191189679e-05,6.826961692726042e-07,1.9852953944764826e-06
37,1.2341144064220491e-06,1.3422002858671052e-06,1.394581292886755e-06,1.9162763493096865e-06,1.9359485243003416e-06,5.352037689486514e-06,3.5803714909494055e-06,2.63480871140007e-06,1.980707546188665e-06,4.803698225117493e-06,1.1624243393948054e-06,5.584638313986217e-06,7.7317076676446e-06,9.839045301075517e-05,6.956200029686438e-07,1.973685809674084e-06
38,1.1754197937125202e-06,1.3116157756544621e-06,1.3475869981979792e-06,1.9103531738142746e-06,1.8745574211317444e-06,5.283357853636814e-06,3.559434670603234e-06,2.663948654073011e-06,2.018043867507036e-06,4.8519014465900555e-06,1.139766121539603e-06,5.349697053506649e-06,7.776165744876697e-06,0.00010032090793049588,7.116081343345178e-07,1.9571741473051424e-06
39,1.1207912730206163e-06,1.2829255221412765e-06,1.3029276830484854e-06,1.9022493505408547e-06,1.8179454016921107e-06,5.1961873064432225e-06,3.523558431805444e-06,2.693485364297381e-06,2.0611342483696873e-06,4.935254959750988e-06,1.1184798957662563e-06,5.108543590897699e-06,7.783687069487573e-06,0.00010176193019665883,7.305697897266662e-07,1.9364048996286622e-06
40,1.0709471825083505e-06,1.2562065714370164e-06,1.2605838356507313e-06,1.892287631161581e-06,1.76609504291345e-06,5.093336688711518e-06,3.473893233166121e-06,2.722091027322976e-06,2.108938963309901e-06,5.050206166731191e-06,1.0987859108170117e-06,4.862658586718649e-06,7.756025582407102e-06,0.00010265479355938892,7.523240676523699e-07,1.912144727541276e-06
41,1.026510042201674e-06,1.2315815953829703e-06,1.2205631743148358e-06,1.8810341618585484e-06,1.7193175084808794e-06,4.978022296255534e-06,3.412083702100826e-06,2.7481995878673762e-06,2.160442518452907e-06,5.192513999979824e-06,1.0808998854462612e-06,4.614230619160358e-06,7.6944304044178e-06,0.00010295969355916377,7.766193872105122e-07,1.8850168216651778e-06
42,9.880129169308614e-07,1.209128451288429e-06,1.1829185673457733e-06,1.8691254067341189e-06,1.6782046106071294e-06,4.8535817401772025e-06,3.340025791321428e-06,2.770242838288811e-06,2.214852015218791e-06,5.3579393824609425e-06,1.065047731944389e-06,4.365970394861093e-06,7.5995349721130705e-06,0.00010266009314549881,8.031413305066776e-07,1.8553269850596858e-06
43,9.558819482757748e-07,1.1887663787500112e-06,1.14780469192083e-06,1.8571117378716607e-06,1.6434500300288188e-06,4.723211025917297e-06,3.2596811641646257e-06,2.786924359580673e-06,2.2715703689563934e-06,5.543257837786626e-06,1.0513912400331196e-06,4.120739834141671e-06,7.471747301304029e-06,0.00010175958576617443,8.315366586442287e-07,1.823044498750609e-06
44,9.303996781376708e-07,1.1702510173896795e-06,1.1155270268958815e-06,1.8454198978976449e-06,1.6156881242502948e-06,4.589757719399836e-06,3.1729989479918583e-06,2.797352060645056e-06,2.3299962630442586e-06,5.747029239928801e-06,1.0399387995718866e-06,3.881214132807534e-06,7.311735311329454e-06,0.00010027170449525742,8.614254784914185e-07,1.7879192838372305e-06
45,9.116952556381945e-07,1.1532320497447356e-06,1.0864922134536273e-06,1.8343613239149372e-06,1.5954229487067023e-06,4.455616786285386e-06,3.0819080842960784e-06,2.8010217206238266e-06,2.3893817100637675e-06,5.969689135644013e-06,1.0305115057687815e-06,3.649783041644725e-06,7.1205317205685875e-06,9.820952226552844e-05,8.92375615252309e-07,1.7497440948866203e-06
46,8.997537137413792e-07,1.1372671065933834e-06,1.0611108127800614e-06,1.8241961355657806e-06,1.5830249619087367e-06,4.32275338339862e-06,2.9882487955823475e-06,2.7977712107990664e-06,2.4488755007343145e-06,6.212969844940816e-06,1.0227682816700768e-06,3.4286690648590713e-06,6.89925527870414e-06,9.558599564756994e-05,9.239171928374426e-07,1.7086727345283523e-06
47,8.944228502343841e-07,1.1218474146111227e-06,1.0397676562074197e-06,1.8152089201149506e-06,1.5787575344484177e-06,4.192760492832673e-06,2.8935892508005625e-06,2.7878130960469594e-06,2.5076755216819434e-06,6.478993869852379e-06,1.016289737217761e-06,3.220056619814427e-06,6.649234540508509e-06,9.242598961576673e-05,9.556581026780368e-07,1.6653433678525288e-06
48,8.954096033860504e-07,1.1065043303672783e-06,1.0228245397986866e-06,1.8076559989185307e-06,1.5828024075613436e-06,4.06679626098122e-06,2.7991019748826987e-06,2.7718199912789268e-06,2.5651453523248765e-06,6.769722958373031e-06,1.010671621000566e-06,3.0260931673882634e-06,6.372841868589512e-06,8.877635610365553e-05,9.87385097584171e-07,1.6206759022558042e-06
49,9.022848938291508e-07,1.0908835330667823e-06,1.010560929147511e-06,1.8015900136034889e-06,1.5952434408990952e-06,3.9453946208556514e-06,2.705645298958272e-06,2.750918223875923e-06,2.6208012518779255e-06,7.0872155061926905e-06,1.0055260689865971e-06,2.8487584291810055e-06,6.074081344270904e-06,8.470448693733759e-05,1.0190058520905444e-06,1.575580160361911e-06
50,9.145333863821411e-07,1.0747352262901909e-06,1.0030854995532156e-06,1.796712801855123e-06,1.6159934664069732e-06,3.8283372977088695e-06,2.6139080854939973e-06,2.7264897363402172e-06,2.6742472534861448e-06,7.434116974075785e-06,1.000433200465305e-06,2.68969808001512e-06,5.75822982520452e-06,8.029049070667215e-05,1.0504044069515075e-06,1.5308420452828e-06
51,9.316159792907783e-07,1.0579309385656017e-06,1.0002934465543694e-06,1.7923421488113908e-06,1.6447205115787004e-06,3.714727671850683e-06,2.5244331444272835e-06,2.699852172319413e-06,2.7252820349584566e-06,7.813531637982457e-06,9.949865386373545e-07,2.5501817161720115e-06,5.4310286780563915e-06,7.562112035533548e-05,1.0813930754534482e-06,1.487120744773141e-06
52,9.52999571497669e-07,1.0404898011831569e-06,1.0018831025616684e-06,1.7874626770110185e-06,1.6808411362433513e-06,3.603233912533309e-06,2.4375504522717604e-06,2.671983734100266e-06,2.774149232453723e-06,8.228414713665494e-06,9.889196332525852e-07,2.431187282687042e-06,5.0980985571031975e-06,7.078629955122938e-05,1.1117607470279276e-06,1.4449167878155866e-06
53,9.7818629670874e-07,1.0225062569243922e-06,1.0074505319996906e-06,1.7808705162185076e-06,1.7235540147249371e-06,3.492419851567123e-06,2.3533695797820626e-06,2.6433887840280147e-06,2.8216285335786597e-06,8.681159229829238e-06,9.821649144229897e-07,2.3334520437948675e-06,4.76462569771513e-06,6.587503248989187e-05,1.1412764776317795e-06,1.404560499842146e-06
54,1.006725979141778e-06,1.0040361947459703e-06,1.0166643650068162e-06,1.7714889409679435e-06,1.7718327562441839e-06,3.3810804255007343e-06,2.271892359722706e-06,2.614119592824661e-06,2.868893299519255e-06,9.173441212391756e-06,9.74771089995282e-07,2.2574588896893733e-06,4.435111502158191e-06,6.096988428228094e-05,1.1696561768013987e-06,1.366291258553505e-06
55,1.0381458483314922e-06,9.85046202761305e-07,1.0294076749385436e-06,1.758759053710313e-06,1.824393198132401e-06,3.2684895167358554e-06,2.1931366830395077e-06,2.5839565533694673e-06,2.9172947285215922e-06,9.705938199776527e-06,9.667777705134848e-07,2.203399983454541e-06,4.11322101734997e-06,5.6142188053845816e-05,1.1966039260083561e-06,1.3303580342087005e-06
56,1.0718691214421094e-06,9.654221678959042e-07,1.045756952524331e-06,1.742815194028457e-06,1.8797661910618976e-06,3.154528463711949e-06,2.1171436806602623e-06,2.552676616598525e-06,2.9681273655157356e-06,1.0277951249875734e-05,9.58160434080883e-07,2.1711292312799542e-06,3.8018236528176583e-06,5.144976898412827e-05,1.2219045710104605e-06,1.2970321128407637e-06
57,1.107223746896491e-06,9.450576642665734e-07,1.0658296555579393e-06,1.724325024474412e-06,1.9365144482348034e-06,3.039704846672548e-06,2.04393481062103e-06,2.5202794730649253e-06,3.0223895457205105e-06,1.0887253000948079e-05,9.48830763489742e-07,2.1602079815255985e-06,3.50316126178228e-06,4.6936948122307626e-05,1.2454996563985764e-06,1.2665501542031612e-06
58,1.1434829635995395e-06,9.240324615434994e-07,1.0896502885641682e-06,1.70418456470464e-06,1.9933923991591756e-06,2.9250286567303094e-06,1.973592900775303e-06,2.4871012024266427e-06,3.080612328093033e-06,1.1530149687707814e-05,9.386595327151136e-07,2.1701166835281215e-06,3.2190683629001055e-06,4.263561062044917e-05,1.2675496265128079e-06,1.2390981496827665e-06
59,1.1798901896825e-06,9.027123460360929e-07,1.1171043205510964e-06,1.6832712497208244e-06,2.0493026675297218e-06,2.811741266997519e-06,1.9064225583513892e-06,2.4537725732450382e-06,3.1427870454637685e-06,1.2201565197001528e-05,9.275054429560347e-07,2.200485388002167e-06,2.9511516741715445e-06,3.8566742019190513e-05,1.288441001922031e-06,1.2148509966148262e-06
60,1.2157302128033593e-06,8.816403463932827e-07,1.1479366800644123e-06,1.6622910581469942e-06,2.103230861060663e-06,2.7010463622261365e-06,1.8429511467887683e-06,2.4209927921560725e-06,3.2083911490000966e-06,1.289519108473165e-05,9.152549507825634e-07,2.2511251128769654e-06,2.7008260670092914e-06,3.4742498394679694e-05,1.3086733359758057e-06,1.1939868805589877e-06
61,1.2504276150798716e-06,8.613540564003279e-07,1.1817676439239566e-06,1.6417307094682102e-06,2.154296066984408e-06,2.594037267292316e-06,1.7837638105270328e-06,2.3892224042593694e-06,3.2764747703281046e-06,1.3603960624781674e-05,9.019336071831117e-07,2.3218463775543318e-06,2.4692119008448065e-06,3.116852555149616e-05,1.3286851531188818e-06,1.176670842686099e-06
62,1.2835788290342623e-06,8.423054414331688e-07,1.218111211125991e-06,1.621930687872338e-06,2.201790848909436e-06,2.4918078363632213e-06,1.7293946821726233e-06,2.35847669916647e-06,3.345749850402453e-06,1.4320816786806578e-05,8.878278586241405e-07,2.4122435582365536e-06,2.257003658491521e-06,2.7845898706238285e-05,1.3487350025780672e-06,1.1630482080528725e-06
63,1.3149108765362425e-06,8.248948110279063e-07,1.2563569970933182e-06,1.60316564441396e-06,2.2452321439998287e-06,2.395508167407087e-06,1.68029522819511e-06,2.328308583901485e-06,3.414754970208941e-06,1.503903425175472e-05,8.734483122727586e-07,2.521556761527762e-06,2.0644510696645987e-06,2.4772398541700363e-05,1.3688513183341915e-06,1.1532307584146807e-06
64,1.3442200337837932e-06,8.095219056554176e-07,1.2957414745979325e-06,1.585613128775456e-06,2.2845882377328187e-06,2.30621453111401e-06,1.6367441861841112e-06,2.297956202544365e-06,3.482073307288637e-06,1.5751439510492598e-05,8.593485257389295e-07,2.6485718388978287e-06,1.8914610287077897e-06,2.1943241010609764e-05,1.3888227968369054e-06,1.147289899631808e-06
65,1.3713086802800317e-06,7.965664890863286e-07,1.3353633159329898e-06,1.5693144809800577e-06,2.3205370140240835e-06,2.224809814029631e-06,1.598732483555616e-06,2.26659137227108e-06,3.546334365334722e-06,1.6449086189397644e-05,8.459799143345527e-07,2.7915218541224045e-06,1.7376731063634082e-06,1.9351500648961732e-05,1.4082633889748867e-06,1.1452828013223973e-06
66,1.3959170265540504e-06,7.863309469097534e-07,1.3741986939219629e-06,1.5542684810187692e-06,2.3544209290427034e-06,2.152023275522139e-06,1.565947817310795e-06,2.2335975698156725e-06,3.6060278683190194e-06,1.712056258154575e-05,8.336563250080372e-07,2.948022754905086e-06,1.6024380023043513e-06,1.698842600539026e-05,1.4267614096055442e-06,1.147248687318107e-06
67,1.4177102245883828e-06,7.790286853405148e-07,1.4110647998345784e-06,1.5405730200202562e-06,2.3878825084500533e-06,2.0884488400967434e-06,1.5378584620636935e-06,2.198750374148639e-06,3.6595404642167884e-06,1.775224141058646e-05,8.225549103886319e-07,3.11507610671432e-06,1.4847815974185234e-06,1.4843736926455459e-05,1.444003943319055e-06,1.1531441476126248e-06
68,1.4363951777392905e-06,7.748050116693761e-07,1.4446254944991606e-06,1.5284728158296237e-06,2.422465637933433e-06,2.0344263246918613e-06,1.5137940225240143e-06,2.1621682707042983e-06,3.70547855759951e-06,1.8328885101111403e-05,8.12719385360698e-07,3.289147985752997e-06,1.3834392332177009e-06,1.290591633981367e-05,1.4597626685053438e-06,1.162780459762097e-06
69,1.451887638404152e-06,7.737352645552896e-07,1.4735803615495272e-06,1.518308154125343e-06,2.459364178769647e-06,1.9899449296538603e-06,1.492952363484857e-06,2.124099303669458e-06,3.7428256537686157e-06,1.8834230800487113e-05,8.041204828517338e-07,3.466256369960398e-06,1.2969444537092785e-06,1.1162514639108563e-05,1.4737939218566407e-06,1.1758243075493047e-06
70,1.4643606623662165e-06,7.75795645095663e-07,1.497017045301356e-06,1.5104260304947945e-06,2.499320354810745e-06,1.954723049500881e-06,1.4743866038635133e-06,2.084784198329256e-06,3.7706997254257856e-06,1.9251806623110617e-05,7.967563809657738e-07,3.641962000880895e-06,1.2236965359682157e-06,9.600515189898073e-06,1.4857972071150006e-06,1.1918429766905294e-06
71,1.4741303684612673e-06,7.808382794779947e-07,1.5147308541208506e-06,1.5050866848698395e-06,2.542612452545914e-06,1.928427283208215e-06,1.4571319938306337e-06,2.0444768290428516e-06,3.7881304854759365e-06,1.956635825316352e-05,7.906725816861216e-07,3.8113783918609333e-06,1.1619866548856046e-06,8.206765684696173e-06,1.4954705826197557e-06,1.2103140391099748e-06
72,1.481484974821429e-06,7.885878518068466e-07,1.5272974272132048e-06,1.5023780446537214e-06,2.589047483913699e-06,1.9108375269689912e-06,1.4405154213114228e-06,2.0034532734714846e-06,3.794216642482324e-06,1.9765809075801247e-05,7.858771897989691e-07,3.96946063598963e-06,1.1100485885341375e-06,6.968375271536668e-06,1.5025897415285523e-06,1.2306160402543416e-06
73,1.486602018932232e-06,7.986510159190332e-07,1.5358350400374205e-06,1.5021910368232714e-06,2.6379711373700634e-06,1.9018198360547828e-06,1.4244083096127915e-06,1.961951403475295e-06,3.788311081621453e-06,1.9843074667153e-05,7.822713594575375e-07,4.111549020816724e-06,1.0662098501244937e-06,5.8729668917755084e-06,1.5070110357775577e-06,1.2520888308350987e-06
74,1.489595527999476e-06,8.105601497550396e-07,1.5416270982535185e-06,1.5042816373170537e-06,2.6883974521560692e-06,1.901193296174318e-06,1.4091676818873e-06,1.9201952836525434e-06,3.7699374028248268e-06,1.9796610243090707e-05,7.796828683416409e-07,4.233863921192556e-06,1.0291213106175328e-06,4.908790402925301e-06,1.5085741642072896e-06,1.27411253492326e-06
75,1.4905701186463905e-06,8.238651496172646e-07,1.5458440395928327e-06,1.5083172862688695e-06,2.739256456290734e-06,1.9086695472383112e-06,1.3953430203296047e-06,1.8785041464410286e-06,3.7387380882420045e-06,1.962892107689077e-05,7.779707038097019e-07,4.3337495489916065e-06,9.978941358588762e-07,4.06478280134761e-06,1.5070535009529589e-06,1.29608450816919e-06
76,1.4895975253948636e-06,8.381891817030056e-07,1.5494170255910191e-06,1.513831622673469e-06,2.7896498735682845e-06,1.923899028186729e-06,1.3834312106562139e-06,1.8372854980697785e-06,3.6945585401173637e-06,1.9344414670970724e-05,7.771016017047829e-07,4.409689226281037e-06,9.720059953636143e-07,3.330638159657628e-06,1.5022784972928098e-06,1.3173094926208692e-06
77,1.48671796835508e-06,8.532013142294819e-07,1.5529993727946527e-06,1.5201550999286146e-06,2.839053190983787e-06,1.9464909939168994e-06,1.37379619094796e-06,1.7968611089953843e-06,3.637485435897405e-06,1.8949466550432772e-05,7.771253876283886e-07,4.461201841233027e-06,9.510666175518641e-07,2.696874028817428e-06,1.4942932271412024e-06,1.336928027266489e-06
78,1.482016164605374e-06,8.686231386216519e-07,1.5570264478727768e-06,1.5264021297513814e-06,2.8874552177556355e-06,1.9759132150441255e-06,1.3666837490306012e-06,1.7573088726990312e-06,3.5679343706865343e-06,1.845472392278284e-05,7.780820863568411e-07,4.48872773253333e-06,9.346218660980746e-07,2.15483348548693e-06,1.4833976891871346e-06,1.3540122657820753e-06
79,1.4756358152791004e-06,8.843361723702835e-07,1.5618586936095876e-06,1.5315720829380518e-06,2.935373782139599e-06,2.0113563721321435e-06,1.3622753159930614e-06,1.7185051368664035e-06,3.486746142569879e-06,1.7876399707621696e-05,7.799738700866027e-07,4.493569466364806e-06,9.220742360621632e-07,1.696615302929919e-06,1.4700824774061912e-06,1.3678549559964456e-06
80,1.4676773652230245e-06,9.004561034096153e-07,1.5678694062526393e-06,1.5347658972541442e-06,2.983667175762814e-06,2.0517019885110436e-06,1.3607196965747974e-06,1.680356693626348e-06,3.39511701311518e-06,1.723499863101723e-05,7.828750942131319e-07,4.477818197879042e-06,9.127347167679742e-07,1.3149773120147682e-06,1.4549095114996028e-06,1.3782797390642916e-06
81,1.4581052831925387e-06,9.172737823694513e-07,1.5754022762957204e-06,1.5353394445580394e-06,3.0331832397077412e-06,2.0956148799646907e-06,1.3620823286254884e-06,1.6430289740760539e-06,3.294609399676328e-06,1.6553024609708045e-05,7.870447971638954e-07,4.444103368983932e-06,9.059772180635728e-07,1.003208542772473e-06,1.4383821725796668e-06,1.3857246530490048e-06
82,1.4467214024387813e-06,9.35140637531029e-07,1.5846792482924662e-06,1.532835263998818e-06,3.084407814720659e-06,2.1416882100517e-06,1.3662707129379406e-06,1.6069711583017138e-06,3.1873414316047917e-06,1.5853224157284787e-05,7.92876327525405e-07,4.395127500735527e-06,9.013558296065618e-07,7.549750460426646e-07,1.4208734704352237e-06,1.3910170796469669e-06
83,1.433153817936704e-06,9.543869442193362e-07,1.5957372967196818e-06,1.5268511231051515e-06,3.1372392808650667e-06,2.1885713467777394e-06,1.3729974974926707e-06,1.572744327412625e-06,3.0759891842455904e-06,1.515748294166589e-05,8.007470213273581e-07,4.333148799973916e-06,8.985639284426418e-07,5.642584615806304e-07,1.402614085336333e-06,1.3950165821430522e-06
84,1.4169328437340379e-06,9.752912275228686e-07,1.6084127550181152e-06,1.5170787532596664e-06,3.190896643413426e-06,2.2350162080135294e-06,1.3817600908595217e-06,1.5408793553626876e-06,2.9634908308512966e-06,1.4485965093414579e-05,8.109201163462724e-07,4.2596570351825375e-06,8.972974994507305e-07,4.254459495426531e-07,1.3836977977012018e-06,1.3983787830558504e-06
85,1.3977551457306178e-06,9.980985781586416e-07,1.6224036390155222e-06,1.503445740211826e-06,3.243916503479616e-06,2.279796746133183e-06,1.3918776904528858e-06,1.511866399543134e-06,2.8526932281887247e-06,1.3856358058264725e-05,8.235266511143924e-07,4.175393431162631e-06,8.971524054175747e-07,3.334091166676697e-07,1.3641548047642818e-06,1.4015180276494647e-06
86,1.3757710773037818e-06,1.0230323500657395e-06,1.6374008534179513e-06,1.4861793721982927e-06,3.294275182182974e-06,2.3215944843664767e-06,1.4026495616763152e-06,1.4861144994035748e-06,2.7460867516336854e-06,1.3283440977817589e-05,8.385926478189199e-07,4.080645002656858e-06,8.976202971246824e-07,2.83446196544368e-07,1.3441139727375934e-06,1.4046620816212238e-06
87,1.3516120242103504e-06,1.0502529868107753e-06,1.6531611854531724e-06,1.4657948736337765e-06,3.3397482612776612e-06,2.3590537013806825e-06,1.4135465685305692e-06,1.4638208560680681e-06,2.64566829402355e-06,1.277913948997121e-05,8.560789183048237e-07,3.9755913028648474e-06,8.981737230599104e-07,2.71177747311775e-07,1.3239052626652637e-06,1.4078832771666094e-06
88,1.3261583880921444e-06,1.079842324584067e-06,1.669428403990341e-06,1.443069875060523e-06,3.3784515569271233e-06,2.3910218614698975e-06,1.4242849603163375e-06,1.4448710524517605e-06,2.552963126369097e-06,1.2352784238394173e-05,8.758930695151855e-07,3.86051756079099e-06,8.983547021513959e-07,2.924850674481544e-07,1.303976332989781e-06,1.4111282521251245e-06
89,1.3003080626434866e-06,1.1118491643606606e-06,1.6858248528840328e-06,1.4189874306308132e-06,3.4092294013547066e-06,2.416738310770471e-06,1.4347808882550039e-06,1.428821424308464e-06,2.46916159191529e-06,1.2011159641796614e-05,8.97882131911443e-07,3.735909254919199e-06,8.977892902209351e-07,3.435294488203976e-07,1.2847078761829447e-06,1.4143089105666471e-06
90,1.2749135126490351e-06,1.1462996874821315e-06,1.7018651786069752e-06,1.3946284608450342e-06,3.4315704984976325e-06,2.4358062489443404e-06,1.4451080216176178e-06,1.4149585715877873e-06,2.3952959967204253e-06,1.1758330206099841e-05,9.21858610532775e-07,3.602568505839287e-06,8.961336797643325e-07,4.208509751593716e-07,1.2663104154622357e-06,1.4173654593003002e-06
91,1.2508212005731952e-06,1.183171866041418e-06,1.717028691470615e-06,1.3710283001187687e-06,3.445130266153703e-06,2.4480005703267047e-06,1.4554972434213056e-06,1.4024482301660593e-06,2.3324085931302453e-06,1.1595520215504763e-05,9.476534967032924e-07,3.461730258553123e-06,8.930061918561415e-07,5.213895444921433e-07,1.248873268987844e-06,1.4201903553121232e-06
92,1.2288545696672968e-06,1.2223980537967804e-06,1.7307801515227768e-06,1.3490404132338782e-06,3.4493509064240556e-06,2.4530234465546835e-06,1.4662815025813306e-06,1.3905155458179827e-06,2.2816309769912518e-06,1.1521260533960383e-05,9.751300264584725e-07,3.3150261263718463e-06,8.879644406047531e-07,6.423579749902821e-07,1.232460733491539e-06,1.422488525050459e-06
93,1.209711338474599e-06,1.2638428576532513e-06,1.74257855054834e-06,1.3292834222528354e-06,3.4435493976366364e-06,2.4503086819901677e-06,1.4777396491178864e-06,1.3785150034153779e-06,2.2440998508366703e-06,1.1531962194281482e-05,1.0041370202548443e-06,3.1643127203089285e-06,8.805541144022759e-07,7.81160781818979e-07,1.2171231565991575e-06,1.4237404662106262e-06
94,1.1938815526734724e-06,1.307229965119131e-06,1.7519479964217658e-06,1.3121901258808742e-06,3.4273197209745747e-06,2.4390106674151216e-06,1.4899440641469008e-06,1.365844873404147e-06,2.22077391963896e-06,1.1622983692954316e-05,1.0344615590949731e-06,3.011529811920275e-06,8.703979359164313e-07,9.355032263595423e-07,1.202867225118376e-06,1.4233245704104198e-06
95,1.181633510322196e-06,1.3520911804541699e-06,1.7585856303219455e-06,1.2980655305851568e-06,3.4008935387997604e-06,2.4182532366837423e-06,1.5026963224834189e-06,1.3518818647191024e-06,2.212296262359694e-06,1.1789925831153697e-05,1.0658216432552278e-06,2.858642103027353e-06,8.572472900889432e-07,1.103614889531736e-06,1.1896849653897457e-06,1.420699311978968e-06
96,1.17304486274621e-06,1.3977574876012003e-06,1.762418336628086e-06,1.2870737866828855e-06,3.365293375830485e-06,2.387527462839526e-06,1.5155267384719034e-06,1.3360749670778522e-06,2.218927000384229e-06,1.2029710529220417e-05,1.0978775787206384e-06,2.707579964321632e-06,8.409808351075214e-07,1.2844233561525258e-06,1.1775636316223306e-06,1.415511332779979e-06
97,1.1680636002456836e-06,1.4433632355068736e-06,1.763538689624846e-06,1.2791872206144724e-06,3.322282644603466e-06,2.347009440722289e-06,1.5277640935725321e-06,1.3180753903549377e-06,2.2405125963111604e-06,1.234121899156925e-05,1.1302543406318378e-06,2.5601680143191145e-06,8.216689619736931e-07,1.4775394559209397e-06,1.166406748387241e-06,1.4076063306221959e-06
98,1.1665443779587597e-06,1.4878740597597098e-06,1.762048159128993e-06,1.2741560316700849e-06,3.2741527548831304e-06,2.2976015890566106e-06,1.538705398230784e-06,1.2977707737193913e-06,2.2765425469557976e-06,1.2725328420437788e-05,1.162550056032042e-06,2.4181424301499957e-06,7.997152457628786e-07,1.68304820646779e-06,1.155983420405807e-06,1.397026054277677e-06
99,1.1682105326064557e-06,1.5301312890267428e-06,1.7579867836222858e-06,1.2715059674586882e-06,3.223370654026761e-06,2.240658686381919e-06,1.5478223288229606e-06,1.275278637133716e-06,2.3263125570883347e-06,1.3184220743679952e-05,1.1943043076101036e-06,2.2832363496509525e-06,7.758732937765065e-07,1.9012604096419726e-06,1.1459973186912345e-06,1.384033030543612e-06
100,1.1725991165731497e-06,1.5688643253578843e-06,1.7514676372890416e-06,1.270596149118887e-06,3.172161178919955e-06,2.177569748469948e-06,1.5548995645241993e-06,1.2509764747632376e-06,2.389081474803811e-06,1.3720827732359777e-05,1.2249967728819075e-06,2.157154700696552e-06,7.510864240206902e-07,2.1325759149688712e-06,1.13621578582603e-06,1.369089754016878e-06
101,1.1790974769558716e-06,1.6027274638117402e-06,1.742844581135333e-06,1.2707797877598781e-06,3.1221984619611247e-06,2.1094542741736907e-06,1.560020422824227e-06,1.225539043087935e-06,2.4641383791448217e-06,1.4339674354752506e-05,1.2541145204553877e-06,2.0413948558428047e-06,7.263202044914851e-07,2.3774579884646867e-06,1.1265658890831394e-06,1.3527406487172146e-06
102,1.187093978968488e-06,1.6304895235681189e-06,1.732698788659816e-06,1.271579869370031e-06,3.0745338832554577e-06,2.0371043607389063e-06,1.5633897036140523e-06,1.1998993146790422e-06,2.550816813457034e-06,1.504830079140313e-05,1.2811878594368185e-06,1.9370771456482716e-06,7.024820364996701e-07,2.6364273184684203e-06,1.1171290605266464e-06,1.3355078666707903e-06
103,1.1961236260245024e-06,1.6513201345283027e-06,1.7216610215280428e-06,1.2727184572382215e-06,3.029670124692552e-06,1.961114232942964e-06,1.565159622673921e-06,1.1751010810609023e-06,2.6484424221934906e-06,1.5857070600123198e-05,1.3057478107383676e-06,1.8448876185840922e-06,6.804174939639445e-07,2.9100729526067213e-06,1.108018713951778e-06,1.3179004447021457e-06
104,1.205887601690079e-06,1.6649422780157978e-06,1.7102092975368928e-06,1.2739908895392808e-06,2.9876190981290917e-06,1.8820815343116754e-06,1.565397880683309e-06,1.1521079288167165e-06,2.756157806736957e-06,1.6777016735529072e-05,1.327305318015987e-06,1.7650859825122061e-06,6.609539193285964e-07,3.199166875809415e-06,1.099251435023697e-06,1.3004321813516197e-06
105,1.2162100786168e-06,1.6715143954371823e-06,1.6985657753432838e-06,1.275133001361577e-06,2.9479968925498702e-06,1.8007884301191159e-06,1.5641084675652235e-06,1.1316727774704266e-06,2.8727453261488312e-06,1.7817309678411433e-05,1.345395363078005e-06,1.6975442287909731e-06,6.449436537351827e-07,3.504829589445016e-06,1.0907751693694021e-06,1.2835723797113789e-06
106,1.2270580857330737e-06,1.6713674450682166e-06,1.68675795143344e-06,1.2757849687004056e-06,2.9102528323622187e-06,1.718242314026764e-06,1.5612415886408237e-06,1.1143165656462174e-06,2.9966448822517596e-06,1.8983647458214657e-05,1.3596280963420354e-06,1.6418418066245995e-06,6.33293195730341e-07,3.828569513069817e-06,1.0826527913877492e-06,1.267740813991565e-06
107,1.2385613550946496e-06,1.664873332336404e-06,1.674789523641429e-06,1.2755874374745589e-06,2.8738701540155944e-06,1.6355283477880581e-06,1.5567511521710601e-06,1.100369275281674e-06,3.1261009592592118e-06,2.0277831502094313e-05,1.3697525371797496e-06,1.5974181805742026e-06,6.269726722992066e-07,4.172247641620746e-06,1.0751971340422401e-06,1.253375526132942e-06
108,1.2509087630265463e-06,1.6525119829602797e-06,1.6627646692560858e-06,1.274390021721346e-06,2.8383577699785427e-06,1.5536668789747619e-06,1.5506663564490702e-06,1.0899978067858518e-06,3.259159818879431e-06,2.169846179637231e-05,1.3757272095586995e-06,1.5637211434362212e-06,6.269750049048638e-07,4.538212648506458e-06,1.0689043708855192e-06,1.2409478870932393e-06
109,1.2641998697173735e-06,1.6349128371541592e-06,1.650848221222338e-06,1.2723933365932374e-06,2.8031046055591476e-06,1.473639164767497e-06,1.5430798664125107e-06,1.083234811975496e-06,3.3934655095457784e-06,2.324261164561083e-05,1.3777056297727642e-06,1.5402822271127089e-06,6.342464821303641e-07,4.929446145303935e-06,1.0642633669236187e-06,1.2309193132328415e-06
110,1.278383918985089e-06,1.6127591850292028e-06,1.6391002874142927e-06,1.270063754657575e-06,2.7672648761567666e-06,1.3964343255373047e-06,1.5340987860613386e-06,1.080089785515886e-06,3.5260674010754175e-06,2.4907604977078742e-05,1.375974708224381e-06,1.5267174194023344e-06,6.4965079852503e-07,5.349323915526598e-06,1.0616194860023241e-06,1.2237268064791166e-06
111,1.293287165264813e-06,1.5866965868929363e-06,1.6273338631328914e-06,1.267929366093861e-06,2.7297731376913817e-06,1.3229894896066306e-06,1.5239152291147408e-06,1.0807001092521523e-06,3.6533538561565884e-06,2.6691356347257873e-05,1.3709990012173552e-06,1.5226945495794799e-06,6.739920137359356e-07,5.8013612605985505e-06,1.0611815384377263e-06,1.2197649532071976e-06
112,1.3086968288486304e-06,1.5573191335819256e-06,1.6150998165463572e-06,1.266442274308157e-06,2.689506227559189e-06,1.2541313012499538e-06,1.5129602873851423e-06,1.0853619354952435e-06,3.7711951190369956e-06,2.859123285405682e-05,1.363495394259228e-06,1.527872805718386e-06,7.080574472923924e-07,6.289571104133346e-06,1.063110009919536e-06,1.2193541191720974e-06
113,1.3244476916708944e-06,1.5251991148800962e-06,1.601817020825153e-06,1.2659315135876193e-06,2.6455292881989882e-06,1.1905759084835118e-06,1.501898070243062e-06,1.0944302425022665e-06,3.875521097051622e-06,3.060376680834579e-05,1.3543362600699009e-06,1.5417990714529194e-06,7.526138228868658e-07,6.819078836410403e-06,1.0675607533904246e-06,1.222757622200165e-06
114,1.3404373528303816e-06,1.4909334873107436e-06,1.5870128662426e-06,1.2666322032587414e-06,2.597318468924263e-06,1.1329145667948304e-06,1.4914051356272047e-06,1.1082170749417276e-06,3.963239164567322e-06,3.272595258595131e-05,1.3443683743411921e-06,1.5638033063812854e-06,8.083540455974379e-07,7.39621857288553e-06,1.0746601176939175e-06,1.230183056899074e-06
115,1.3565974738010942e-06,1.4551378901735902e-06,1.5705420779332318e-06,1.2687941792715048e-06,2.544889639549845e-06,1.08158599266796e-06,1.481950338314947e-06,1.1269214643297824e-06,4.032818479641008e-06,3.495527159590757e-05,1.3343355601240746e-06,1.5929620901212904e-06,8.758523632260076e-07,8.027991492484072e-06,1.0844639333550816e-06,1.2416965850974917e-06
116,1.3728943942217511e-06,1.4184217752818546e-06,1.5526128640810207e-06,1.2727729349828432e-06,2.48880771157395e-06,1.036896770275891e-06,1.4737379904920255e-06,1.150589939266495e-06,4.084035257819222e-06,3.7287052514882495e-05,1.3248633774665598e-06,1.6281290558780974e-06,9.555581817557931e-07,8.721609251277463e-06,1.0969180789099823e-06,1.2571417834667773e-06
117,1.3893316899087567e-06,1.3814261239771266e-06,1.5336479950140035e-06,1.2789968531977874e-06,2.4300248154069455e-06,9.99075456573625e-07,1.4668096420743247e-06,1.1791695140310965e-06,4.1172495724096785e-06,3.971207021236421e-05,1.316450443700092e-06,1.6680215407117992e-06,1.0478071567571497e-06,9.485022174823877e-06,1.1118322611821834e-06,1.2761776728194883e-06
118,1.4058757495024601e-06,1.344824154626667e-06,1.5141984181863975e-06,1.2878594900934694e-06,2.369554009407649e-06,9.682945680696798e-07,1.4612079964391636e-06,1.2126297290912322e-06,4.133083161870605e-06,4.2216873045016716e-05,1.3094927809098567e-06,1.7113905104200052e-06,1.1528272911993452e-06,1.0328054852123088e-05,1.1288934178027548e-06,1.2984398022630377e-06
119,1.4223318562912185e-06,1.3092513859592371e-06,1.4949429036071536e-06,1.2996478861032536e-06,2.308184303361477e-06,9.446475025529492e-07,1.4570443144297506e-06,1.2510140215723271e-06,4.1327980156353515e-06,4.478512835697568e-05,1.3043112976300267e-06,1.7572118104779772e-06,1.2707475657961523e-06,1.1262544043232434e-05,1.1477170670028183e-06,1.3237158818804245e-06
120,1.4382945182224595e-06,1.27528052953786e-06,1.4765949794608406e-06,1.3145150206162293e-06,2.246397051682211e-06,9.28150316383672e-07,1.454394713183669e-06,1.2943608524500743e-06,4.118763281586379e-06,4.739701232954301e-05,1.301182494412932e-06,1.8047839320662433e-06,1.4016005755456035e-06,1.230098729950189e-05,1.1678722632361186e-06,1.3520184427164822e-06
121,1.4532214822216335e-06,1.2434182535052084e-06,1.4597147433825643e-06,1.332458527078769e-06,2.1843946546802967e-06,9.187989845611988e-07,1.4531411701468376e-06,1.3425983655746256e-06,4.094351407411013e-06,5.0026727611377824e-05,1.3003832273600222e-06,1.853705606609292e-06,1.5453023761866121e-06,1.3455049690317896e-05,1.1888348130587086e-06,1.3835343712239424e-06
122,1.4665200018997138e-06,1.2140539271395828e-06,1.444583785372896e-06,1.3533073643475703e-06,2.1221913654233925e-06,9.165940002234405e-07,1.4529128839514075e-06,1.3955006830969864e-06,4.063288194915026e-06,5.264046517654538e-05,1.3021736569663445e-06,1.9037545276532244e-06,1.7016579948545222e-06,1.4734778234633864e-05,1.2099313788978625e-06,1.4185005344259331e-06
123,1.477522353765412e-06,1.1874480646225134e-06,1.4311784140045945e-06,1.37670329728315e-06,2.0598272032400448e-06,9.214775627163036e-07,1.4531943280887636e-06,1.4526611661891133e-06,4.028973778794244e-06,5.519558395816714e-05,1.3067109080383828e-06,1.9547035864171135e-06,1.8704342986386855e-06,1.6148011576900773e-05,1.2303644784697236e-06,1.4570671086707875e-06
124,1.4854591591850555e-06,1.1638272778599395e-06,1.4191962920849136e-06,1.4020686502766965e-06,1.997606689862008e-06,9.332528144022174e-07,1.4535419773307569e-06,1.51345282731341e-06,3.994136059095728e-06,5.764083005695911e-05,1.3139763525439313e-06,2.0061556496974862e-06,2.0514211533542808e-06,1.769985385755545e-05,1.2493234955700962e-06,1.4991918558199298e-06
125,1.48965714937098e-06,1.1434701922383536e-06,1.4081481313432033e-06,1.4285882096594432e-06,1.936140661942815e-06,9.51547260944964e-07,1.45374160107553e-06,1.5770178306113032e-06,3.960741217875807e-06,5.9919103409132724e-05,1.3237363936709245e-06,2.057456289327578e-06,2.2443823380016925e-06,1.9392690629419915e-05,1.2660917701100813e-06,1.5445672197800896e-06
126,1.489894594777431e-06,1.1266694197630705e-06,1.3975151668537193e-06,1.4552227843160971e-06,1.8761507187022194e-06,9.75799866101459e-07,1.4538127007252536e-06,1.642281585735259e-06,3.929983767678683e-06,6.197344780624843e-05,1.335554192677611e-06,2.10770433218021e-06,2.4489088985280893e-06,2.122670324202147e-05,1.2800981867996565e-06,1.5925816127809083e-06
127,1.4865626197339294e-06,1.1136357975027038e-06,1.3868958605722756e-06,1.4807761997674373e-06,1.818267010512225e-06,1.0052486827401684e-06,1.4539355883563564e-06,1.707944788641748e-06,3.9023365505480495e-06,6.375344897496361e-05,1.3488974059220666e-06,2.1559064365419398e-06,2.664243587757015e-06,2.3200283564168154e-05,1.290986790416469e-06,1.6423245396943674e-06
128,1.4804647610908922e-06,1.1044540511684592e-06,1.3760849463156067e-06,1.5040381623046156e-06,1.7629799956086117e-06,1.0389404459507835e-06,1.454379480540607e-06,1.7724614474940317e-06,3.877766851208193e-06,6.521804585589837e-05,1.3632596268569723e-06,2.201237272068321e-06,2.8891276192034263e-06,2.5309736947693026e-05,1.2987180511106942e-06,1.6926153171930848e-06
129,1.4724617915361054e-06,1.0990877585348925e-06,1.3651102853194104e-06,1.5239848547531688e-06,1.7106447203541114e-06,1.0757760141168808e-06,1.4554131369963414e-06,1.83412174562588e-06,3.856113059001507e-06,6.633248556219282e-05,1.3781543722460642e-06,2.243192658621981e-06,3.1217045224977638e-06,2.754817010009699e-05,1.3035482744468928e-06,1.7420826066077614e-06
130,1.4632528539422155e-06,1.0974212613869268e-06,1.3542475544959005e-06,1.5399681743171542e-06,1.661504855287148e-06,1.114566910468968e-06,1.457177710273255e-06,1.8913448862993514e-06,3.83729178433459e-06,6.70620263512404e-05,1.3930371258516075e-06,2.28149532141596e-06,3.3594750588924226e-06,2.9904151547987437e-05,1.3058292592712585e-06,1.7893612267347112e-06
131,1.4534002814357442e-06,1.0993340901028287e-06,1.3439696164360217e-06,1.55178514873544e-06,1.615787700729967e-06,1.1540880931813506e-06,1.4596039207944902e-06,1.943053763577735e-06,3.8211290841576165e-06,6.737073704069742e-05,1.4073428260079036e-06,2.3158868045001998e-06,3.599280349873666e-06,3.2360802450093754e-05,1.3058069028386254e-06,1.8333177727434202e-06
132,1.4435000056974443e-06,1.1047181597114894e-06,1.3348051891106517e-06,1.5595791192113902e-06,1.5737479541620278e-06,1.1931581257724145e-06,1.462501358683717e-06,1.988850636295256e-06,3.807211002811597e-06,6.723019223127517e-05,1.4206245602934933e-06,2.346035858289661e-06,3.837370761044194e-06,3.4895270424223484e-05,1.303564014851557e-06,1.8731241865923543e-06
133,1.4342997149961823e-06,1.113402479815643e-06,1.3271886008176889e-06,1.5636670399547083e-06,1.5356280669533723e-06,1.2307652875938854e-06,1.4657886042698945e-06,2.028849880735804e-06,3.79514665117484e-06,6.663216571610015e-05,1.432575475357752e-06,2.371612081813663e-06,4.06955891114047e-06,3.7478074717421455e-05,1.2990883658052393e-06,1.9081791645272573e-06
134,1.4266488299121592e-06,1.1251103533227833e-06,1.3214235177118986e-06,1.5644404500331914e-06,1.501711199808473e-06,1.2661845628517371e-06,1.4696413567666035e-06,2.063301388974119e-06,3.7848935588801283e-06,6.559646800433708e-05,1.442877507326551e-06,2.3923600631534157e-06,4.291283874854909e-06,4.0072330523679524e-05,1.2924359824894431e-06,1.9380355179904025e-06
135,1.4213435989700247e-06,1.1395289431517173e-06,1.3177731719492161e-06,1.5623984855966872e-06,1.4724635056926614e-06,1.299014793637808e-06,1.4744306243507635e-06,2.0922881968938457e-06,3.7766555411764655e-06,6.416929383593196e-05,1.4510951048171627e-06,2.4080583199735373e-06,4.497628630622621e-06,4.263313447472923e-05,1.2839216782591406e-06,1.9624276196156015e-06
136,1.4190154793006643e-06,1.1563817142299263e-06,1.3165708487386048e-06,1.5582310533848952e-06,1.448550885641119e-06,1.3291251553724524e-06,1.4805676080478913e-06,2.115679034477076e-06,3.770632210187212e-06,6.241253771757116e-05,1.4568038922356714e-06,2.4184974797043863e-06,4.683582480667176e-06,4.510708933194936e-05,1.274161602897935e-06,1.9813578784209725e-06
137,1.4201074193050607e-06,1.1753916536752717e-06,1.318243584440912e-06,1.5527989083042877e-06,1.430678518489935e-06,1.3565392550849399e-06,1.4883878989558078e-06,2.1333352982727386e-06,3.767076162440029e-06,6.039139552611849e-05,1.4598388668058664e-06,2.423635071222378e-06,4.84450219719041e-06,4.7433000155854325e-05,1.2639120745541269e-06,1.9951157890697152e-06
138,1.424851963230711e-06,1.1962075123379717e-06,1.3232344600151119e-06,1.5469679432163085e-06,1.4194506909120755e-06,1.3813339247024743e-06,1.4980983022604964e-06,2.145400612410052e-06,3.7664684708198763e-06,5.8168643922858844e-05,1.4603609275190007e-06,2.423813329355881e-06,4.976409938835904e-06,4.954607873472818e-05,1.253893919562499e-06,2.004168022509482e-06
139,1.4332421980094443e-06,1.218400665931842e-06,1.331922721369774e-06,1.5414291958420294e-06,1.415355857344085e-06,1.4036733657851983e-06,1.5098267169789874e-06,2.1524176616579916e-06,3.7694902998661066e-06,5.580469979137093e-05,1.4586824249041377e-06,2.4198332765611666e-06,5.0760404004882605e-06,5.1386207092080754e-05,1.2447287494663119e-06,2.0090536781988667e-06
140,1.4451073965622553e-06,1.2414871062698341e-06,1.3446146726281616e-06,1.5366105944976354e-06,1.4187558491840096e-06,1.4239524213219392e-06,1.523778052885463e-06,2.155243100542169e-06,3.7768040680773726e-06,5.3356736595292874e-05,1.455114391516118e-06,2.4129038371864833e-06,5.140891475755773e-06,5.290706322817493e-05,1.2368998821455897e-06,2.0103717448530294e-06
141,1.4602962869306716e-06,1.2649034089470839e-06,1.3615706569720744e-06,1.5326730528399573e-06,1.429822787975072e-06,1.442858581220833e-06,1.54034007659127e-06,2.154950922650831e-06,3.788764196410527e-06,5.087506465614231e-05,1.4499560192415036e-06,2.404594663637571e-06,5.169364229624577e-06,5.408128698101716e-05,1.230708842248416e-06,2.008737505851026e-06
142,1.4787839125799681e-06,1.2880094982977993e-06,1.3830506166054265e-06,1.5295792166553176e-06,1.4484960540035748e-06,1.4612880852778973e-06,1.5600045556570358e-06,2.1527418470864177e-06,3.8052188978427633e-06,4.8399790216828023e-05,1.4434857856942314e-06,2.396764346523875e-06,5.160682566692089e-06,5.489840012074352e-05,1.2263003700704967e-06,2.0046770101925487e-06
143,1.500576084168896e-06,1.3102103977400043e-06,1.4093433298304423e-06,1.527194398632209e-06,1.4744911500736312e-06,1.4802168961542342e-06,1.5831790621789114e-06,2.149735854049535e-06,3.8256301260575225e-06,4.595968344972027e-05,1.4359404030402665e-06,2.3913897447843815e-06,5.114579725469167e-06,5.5356537558662165e-05,1.223736154129024e-06,1.9985710083191113e-06
144,1.5255243236456071e-06,1.331111166827422e-06,1.4407163851320866e-06,1.525321969156447e-06,1.5073409972604164e-06,1.500583805417396e-06,1.6100429357550789e-06,2.1467214576854728e-06,3.849502088748313e-06,4.357345567479831e-05,1.427559918837838e-06,2.3903651860585437e-06,5.0314802874598485e-06,5.545486521970661e-05,1.2230232495483153e-06,1.990666562843836e-06
145,1.5532442416215099e-06,1.3505350939162611e-06,1.4773635898932066e-06,1.523667242194598e-06,1.5464568801357008e-06,1.5231758006433848e-06,1.6404881329531684e-06,2.1440378982707958e-06,3.876673910858729e-06,4.1253443657264375e-05,1.4186003145226108e-06,2.395357948085783e-06,4.913420283521276e-06,5.519302275201574e-05,1.2240682940780588e-06,1.9811119143816394e-06
146,1.5832132994085433e-06,1.3683799458021488e-06,1.5194234451566795e-06,1.5218726444804245e-06,1.5912207225463738e-06,1.5485292526004554e-06,1.6741141933624267e-06,2.1415862907819334e-06,3.9071199459144975e-06,3.901059614362884e-05,1.4092432466717797e-06,2.4077026889322727e-06,4.764671698717873e-06,5.457555709012238e-05,1.2266405657362496e-06,1.9700089169861686e-06
147,1.614967069433838e-06,1.3844292011740625e-06,1.5669728862274532e-06,1.5196932490458764e-06,1.641042143818312e-06,1.576897228298762e-06,1.7102781517973807e-06,2.1388756350515536e-06,3.940497222125379e-06,3.685819232570628e-05,1.3995380653794354e-06,2.4283166107643206e-06,4.5912127076222675e-06,5.361553735070224e-05,1.2304014967268828e-06,1.9574696461429297e-06
148,1.6481958448067315e-06,1.3982267529404398e-06,1.6199347823404741e-06,1.5171481860196306e-06,1.6952665884380372e-06,1.6083015889935046e-06,1.7482043806823033e-06,2.135131337099096e-06,3.9759245895975755e-06,3.481246901863219e-05,1.389484507865537e-06,2.457667653611825e-06,4.399489959863637e-06,5.2335351269367095e-05,1.2349369647000633e-06,1.94362743806381e-06
149,1.6826467713004504e-06,1.4090762135519866e-06,1.6779717111964975e-06,1.5144714676820485e-06,1.7530059243278785e-06,1.64260022952348e-06,1.787083867323008e-06,2.129510050657801e-06,4.012128745873771e-06,3.2890513495903545e-05,1.3791645134305693e-06,2.4958223957863595e-06,4.195439513695682e-06,5.0765599498499745e-05,1.2397632129033428e-06,1.9285956174853826e-06
150,1.7179801391284184e-06,1.416209428263081e-06,1.740442519605742e-06,1.5119320078373501e-06,1.8130455837299106e-06,1.679484234000996e-06,1.8260659016708506e-06,2.1213042349825076e-06,4.0476474578000325e-06,3.110706514366698e-05,1.368755082900458e-06,2.5426174737588426e-06,3.984135211874056e-06,4.894338053174543e-05,1.24437728982344e-06,1.9124317090066245e-06
151,1.753716694467924e-06,1.4190992305873907e-06,1.8064145099084778e-06,1.5097021799638378e-06,1.8738402844355678e-06,1.718403788415639e-06,1.8642033915815288e-06,2.1099840793683637e-06,4.080797420873312e-06,2.947194051719807e-05,1.3584096086451387e-06,2.597927695093355e-06,3.7697934728759417e-06,4.691095391753767e-05,1.2483700051921381e-06,1.895110587473712e-06
152,1.7892811880374246e-06,1.4177502147628692e-06,1.8746571509616935e-06,1.5078112340679556e-06,1.933590249685566e-06,1.7584884686775523e-06,1.9004638249120558e-06,2.095100792539658e-06,4.109607427539377e-06,2.7988916218924335e-05,1.348193194079084e-06,2.6618102776191485e-06,3.5558541992475383e-06,4.471452511857413e-05,1.2515265042213265e-06,1.8764806689293996e-06
153,1.8241223690588904e-06,1.4127416516236566e-06,1.9436014007055237e-06,1.5061696712359678e-06,1.99041876898827e-06,1.7985289746886787e-06,1.933742734625415e-06,2.076227428580613e-06,4.131998772762499e-06,2.665579858006854e-05,1.338188339621148e-06,2.7343839425020343e-06,3.3450538340233557e-06,4.240191432362849e-05,1.2538599439730545e-06,1.8563160110053497e-06
154,1.8578026617670873e-06,1.4049819010079405e-06,2.0113748344544703e-06,1.5046835556150388e-06,2.042551157506367e-06,1.8370330749550755e-06,1.9628763272260312e-06,2.0530577579800555e-06,4.145982917267342e-06,2.5465672875961507e-05,1.3286184128731075e-06,2.815607886864994e-06,3.139532860755031e-06,4.0018786675332266e-05,1.2555616492228758e-06,1.8345614271103747e-06
155,1.8899716609251194e-06,1.3954154217151607e-06,2.0760356019805977e-06,1.503363268900119e-06,2.0883901054747567e-06,1.8723186875856112e-06,1.986775395036442e-06,2.025604993883673e-06,4.149719680139184e-06,2.440955349363677e-05,1.3198062123744042e-06,2.905144381170918e-06,2.941029724685122e-06,3.760503248672436e-05,1.2568579141652542e-06,1.8115999126713402e-06
156,1.92030721815854e-06,1.384882585291421e-06,2.1359847632550262e-06,1.502320966360154e-06,2.1265933952971607e-06,1.902655427829638e-06,2.0046000718697205e-06,1.9943580930428788e-06,4.141702661857541e-06,2.347911894780205e-05,1.312042835592767e-06,3.002269289376896e-06,2.751016112733539e-06,3.5193252596145565e-05,1.257837384208041e-06,1.788304064651542e-06
157,1.948476190005241e-06,1.3740692423514225e-06,2.1903393371296976e-06,1.5017210472785385e-06,2.1563036943093932e-06,1.9265082086579674e-06,2.015830240327057e-06,1.960308362950291e-06,4.1210001825108846e-06,2.2667605743884043e-05,1.3055316735498553e-06,3.105745244537589e-06,2.5706389720464944e-06,3.280941437698628e-05,1.2583488124925123e-06,1.7658397915939714e-06
158,1.974101966913821e-06,1.3634721980434817e-06,2.2390010953910077e-06,1.5017894224468822e-06,2.1774052338372446e-06,1.942819923560223e-06,2.0202950010746265e-06,1.9248365117183803e-06,4.087153686591175e-06,2.1968580676842727e-05,1.300391288619423e-06,3.213691575931044e-06,2.400616714846529e-06,3.0474175720381073e-05,1.2579962082576783e-06,1.7453604041037806e-06
159,1.996822520573597e-06,1.3533968529782073e-06,2.282380293869338e-06,1.5028839244121097e-06,2.1904892512577798e-06,1.95113666545398e-06,2.0181947419301848e-06,1.889500882860933e-06,4.039800774665007e-06,2.1374261377808383e-05,1.2966206055557179e-06,3.3235311904140287e-06,2.2412934049633545e-06,2.820387451861478e-05,1.2562455578666605e-06,1.7277851530837076e-06
160,2.0164376557514345e-06,1.3439503974010527e-06,2.321008125120509e-06,1.5055512441919542e-06,2.1964567926410528e-06,1.951447505893985e-06,2.009986978203816e-06,1.8558055785133881e-06,3.978611565472631e-06,2.087561983406787e-05,1.2940293182163338e-06,3.4320654153852257e-06,2.0928471092168855e-06,2.601116087688375e-05,1.2526547689576338e-06,1.7137909138430252e-06
161,2.0329651286473805e-06,1.3350037355740304e-06,2.3552747945755525e-06,1.510488945993901e-06,2.196079287874979e-06,1.943853810904818e-06,1.9961551461710034e-06,1.8250276049779678e-06,3.903898446205252e-06,2.0464383391467126e-05,1.2922008144972514e-06,3.5357096133052414e-06,1.9554472514753802e-06,2.3905480069015013e-05,1.2471077641501498e-06,1.703932368873783e-06
162,2.0465760034677866e-06,1.326176635758343e-06,2.3853037645128682e-06,1.518401433518376e-06,2.1898031938744296e-06,1.928366262827485e-06,1.977079327599447e-06,1.7981299102386325e-06,3.81738295741203e-06,2.013433456159304e-05,1.2905299231298298e-06,3.6308685530174226e-06,1.8292037170541924e-06,2.1893584234482406e-05,1.2398672772916211e-06,1.698705659256286e-06
163,2.057584149264963e-06,1.3169154757747857e-06,2.41086269743652e-06,1.5298533313294257e-06,2.1777773882399647e-06,1.9049982501836136e-06,1.9530812299981394e-06,1.7757397535793194e-06,3.7222317167733965e-06,1.9880201262045606e-05,1.2883446405125351e-06,3.714393011650233e-06,1.7140509143158993e-06,1.99801799089039e-05,1.231421496439655e-06,1.698579734601575e-06
164,2.066548870755963e-06,1.3066888294438518e-06,2.4313462297678292e-06,1.5452077485207577e-06,2.1600135659372958e-06,1.87400059309399e-06,1.9245303915359624e-06,1.7581617094085393e-06,3.6222552944429994e-06,1.9695725117011734e-05,1.2850892012755297e-06,3.7840418804837816e-06,1.60974154328471e-06,1.8168633624018497e-05,1.2222641084442018e-06,1.7040790607648815e-06
165,2.074354518997296e-06,1.2952024688667052e-06,2.4459356472531735e-06,1.5646087937680645e-06,2.136617939140661e-06,1.8360074773542374e-06,1.8919500300000958e-06,1.7454018454694257e-06,3.521025791546362e-06,1.9573447689373377e-05,1.2804483032946184e-06,3.838768697367033e-06,1.5158839069653959e-06,1.6461531551398902e-05,1.212763234462336e-06,1.715790679500746e-06
166,2.082132792398421e-06,1.2824408326521604e-06,2.453866555399311e-06,1.5879862723734598e-06,2.1079450618732156e-06,1.7920518617849238e-06,1.8560941158599397e-06,1.737228818609183e-06,3.421513022089418e-06,1.9506472094022884e-05,1.2742911041055286e-06,3.878675755660735e-06,1.4319946250772455e-06,1.4860933690321697e-05,1.2032231820757275e-06,1.7342723552726864e-06
167,2.0910376954990278e-06,1.26851098592079e-06,2.454616884124869e-06,1.6151177192986363e-06,2.0745773265858297e-06,1.7434962263073988e-06,1.8179104231998983e-06,1.7333090556120574e-06,3.3261746231625604e-06,1.949031495159298e-05,1.2665262202621864e-06,3.904744044585297e-06,1.3576080937929469e-06,1.3368355963772996e-05,1.1940628637501165e-06,1.7599989523465372e-06
168,2.102014547118849e-06,1.253516413404659e-06,2.44796434621208e-06,1.6456902368659357e-06,2.0372434386514424e-06,1.6918774457142153e-06,1.7783659258729902e-06,1.7333128618981022e-06,3.2371567369285847e-06,1.9523444527203932e-05,1.2570583230768766e-06,3.91858344165426e-06,1.2923298312384336e-06,1.1984705849524818e-05,1.185871093615212e-06,1.7933147077587922e-06
169,2.1157101979963415e-06,1.2376185245967179e-06,2.4340298302255402e-06,1.6792923715859216e-06,1.9968179877050023e-06,1.638709877514453e-06,1.7382631863507735e-06,1.7368553279212852e-06,3.1563544916370375e-06,1.9606635331658724e-05,1.2458624229282304e-06,3.922307324714775e-06,1.2357755337661116e-06,1.0710320805819439e-05,1.1792635111519812e-06,1.834341519756351e-06
170,2.1325196097273165e-06,1.2211845869189783e-06,2.413378769229629e-06,1.7153962196889934e-06,1.954341892882153e-06,1.5853766626114586e-06,1.6981708066451343e-06,1.7433719280971855e-06,3.0853313413272685e-06,1.974165112284732e-05,1.2330287855876143e-06,3.918449350067558e-06,1.1875567123465923e-06,9.545001027621833e-06,1.1747117034845388e-06,1.882930524517878e-06
171,2.152643444124283e-06,1.2048415198680646e-06,2.3870830101746836e-06,1.7534078429045116e-06,1.9109348498048866e-06,1.5331327875430968e-06,1.658430123341676e-06,1.7521105233994636e-06,3.025269830543227e-06,1.9930081975447146e-05,1.2186906076103764e-06,3.909783395972652e-06,1.1474169341558117e-06,8.487902568934537e-06,1.1724840219814934e-06,1.9386841722464916e-06
172,2.1761110604322787e-06,1.1893700315770524e-06,2.3566017480513336e-06,1.7927495318753035e-06,1.8676819819432352e-06,1.4831291746669103e-06,1.6191745466180337e-06,1.7622281198838887e-06,2.976978349568777e-06,2.0173774199698113e-05,1.202909010112866e-06,3.899031759719572e-06,1.1153631332914873e-06,7.5373807043430826e-06,1.1726707443181968e-06,2.000965532315878e-06
173,2.202802352748885e-06,1.1755268146957906e-06,2.323478119583869e-06,1.8328841642209028e-06,1.82561243899565e-06,1.4364492497678537e-06,1.580359969051719e-06,1.772897792347348e-06,2.9408673043756405e-06,2.047666423025663e-05,1.1856283735280588e-06,3.888607842656181e-06,1.0916018405886457e-06,6.690987229303088e-06,1.1752037792217999e-06,2.0688790957820065e-06
174,2.232449413421061e-06,1.1639340592959287e-06,2.289007683007207e-06,1.8732539112804811e-06,1.7856722433261603e-06,1.3941433983489996e-06,1.5417853615434434e-06,1.7833813293257819e-06,2.9169235977601214e-06,2.0845682678527855e-05,1.1667384962724152e-06,3.880490643026494e-06,1.0763419217621462e-06,5.945699616938743e-06,1.1798304716676466e-06,2.1412983556132656e-06
175,2.264603681783519e-06,1.1550678606641063e-06,2.254044842295288e-06,1.9131733656353e-06,1.7486630719636586e-06,1.3571733785321625e-06,1.5031546816672008e-06,1.7930316954650921e-06,2.904725038018347e-06,2.128973895363111e-05,1.1462180840240897e-06,3.876176948467846e-06,1.0696533639957832e-06,5.298240947202083e-06,1.1860716835935931e-06,2.21691978926277e-06
176,2.2986389230592107e-06,1.1492605286625105e-06,2.218967281295237e-06,1.951722063805067e-06,1.7152446022814224e-06,1.3263097453985726e-06,1.4642462534987477e-06,1.8012159674543464e-06,2.9035346392831574e-06,2.1818111835363226e-05,1.1242709462106063e-06,3.876674628108875e-06,1.0714583394585673e-06,4.745228057408707e-06,1.1932418650685423e-06,2.294281303131859e-06
177,2.33386411016213e-06,1.1466665405256e-06,2.18372430951583e-06,1.9876923494121486e-06,1.6859269726566947e-06,1.3021058393388478e-06,1.4250645767026352e-06,1.8072770083721813e-06,2.9125402054093724e-06,2.24392926679264e-05,1.1013391999750418e-06,3.882552759496253e-06,1.0816282552364914e-06,4.283035669081712e-06,1.2005997517707903e-06,2.37179856759207e-06
178,2.3697273671167192e-06,1.147248688988787e-06,2.1479539541715907e-06,2.019702821681267e-06,1.6609817559832518e-06,1.2849318455612806e-06,1.3858503086381397e-06,1.8107206265150388e-06,2.931120281981908e-06,2.316004391838248e-05,1.077977058412661e-06,3.893956339888548e-06,1.1000993497584025e-06,3.907565151084216e-06,1.2075851430790746e-06,2.4478740033651815e-06
179,2.40597478711886e-06,1.1508430207179011e-06,2.1111699430018966e-06,2.0465179048053246e-06,1.6404109123493977e-06,1.2749961423816265e-06,1.346988042584105e-06,1.811565453984654e-06,2.958915442639231e-06,2.3984287413479148e-05,1.0546829938395677e-06,3.910489564072704e-06,1.1268901099532009e-06,3.614145929429851e-06,1.2139574808757292e-06,2.521051907588646e-06
180,2.4425985731405303e-06,1.1572410239356537e-06,2.0729371848340224e-06,2.067394270100555e-06,1.624099869651751e-06,1.2723512441483714e-06,1.308896666079718e-06,1.8105096947776223e-06,2.9956798030315033e-06,2.4912287494916072e-05,1.0317853274295046e-06,3.931102500258112e-06,1.1619997105553841e-06,3.3975373301427515e-06,1.2197060093608295e-06,2.59020143933666e-06
181,2.47958092238504e-06,1.166172216777577e-06,2.032956408445089e-06,2.0822136925882227e-06,1.6120586334466608e-06,1.2768760548476525e-06,1.2720188318201202e-06,1.8087583267944262e-06,3.0411386812550044e-06,2.594089721590845e-05,1.0094046559355198e-06,3.954140858995902e-06,1.2052786138687582e-06,3.2518883010606407e-06,1.2248492405305906e-06,2.654688881212751e-06
182,2.5166468573642777e-06,1.17722124405282e-06,1.9910707741989443e-06,2.09134879706863e-06,1.6045116361149404e-06,1.2882222231377964e-06,1.2369415455089397e-06,1.8077310714694867e-06,3.095077502495146e-06,2.706421977017721e-05,9.874784218247406e-07,3.977479166107918e-06,1.2563527039767287e-06,3.170687558175622e-06,1.2293362979364323e-06,2.714398370551545e-06
183,2.553185341605941e-06,1.189857119374919e-06,1.9472514462620777e-06,2.095383737973814e-06,1.6017595242622736e-06,1.3057708422900952e-06,1.2044719420217551e-06,1.8088675391564483e-06,3.1574901789781414e-06,2.8273206778385208e-05,9.65838087151198e-07,3.998602978473457e-06,1.314617895430585e-06,3.1468359192415196e-06,1.2330676588208201e-06,2.7695072747895277e-06
184,2.588277082588337e-06,1.2036071970427273e-06,1.9015798958902602e-06,2.0948403522121132e-06,1.6040285837670369e-06,1.3286417445177356e-06,1.1755381675607768e-06,1.8135013786418464e-06,3.2284817228937634e-06,2.955457052790874e-05,9.443145966542933e-07,4.0146478602114804e-06,1.3793128029213522e-06,3.1728666218308145e-06,1.2358964703200205e-06,2.820148380733314e-06
185,2.620706826595844e-06,1.2181754403121775e-06,1.8542065929856632e-06,2.0900119206957096e-06,1.6114661775362057e-06,1.3557566762006672e-06,1.1510119102947506e-06,1.8227212819021904e-06,3.30810156603592e-06,3.089022256573281e-05,9.228257934108254e-07,4.022525622908504e-06,1.4496582511259639e-06,3.241189262936574e-06,1.237567992393468e-06,2.8661864634301008e-06
186,2.6489247157193962e-06,1.2333680645388782e-06,1.805311198819743e-06,2.0809524655228276e-06,1.6241502247270864e-06,1.3859690097932604e-06,1.1315970222328446e-06,1.8372504645367115e-06,3.396396694454692e-06,3.225674855333248e-05,9.014252178755916e-07,4.019252331762108e-06,1.5249359581723348e-06,3.344158929299307e-06,1.2377220949287133e-06,2.907165984814901e-06
187,2.671010124726571e-06,1.2489374673489398e-06,1.7551326334236923e-06,2.0676113760141926e-06,1.6419930726656948e-06,1.4182744532804539e-06,1.1178041196335778e-06,1.8573973606337483e-06,3.4935200222801816e-06,3.3624443949848084e-05,8.803219635963057e-07,4.0023838750963475e-06,1.604411077354814e-06,3.4739750134790865e-06,1.2360788958705624e-06,2.9422923824391073e-06
188,2.6848261919753546e-06,1.264513646392842e-06,1.7040575237638065e-06,2.0500272766369172e-06,1.664626370468262e-06,1.4520315620188083e-06,1.1099486121417803e-06,1.8830800689686317e-06,3.5996331460843687e-06,3.495724563377922e-05,8.598641814058379e-07,3.9703367051230506e-06,1.6872417445494677e-06,3.6227247272678632e-06,1.2327008468537757e-06,2.9703716925946783e-06
189,2.6884924267551612e-06,1.2796603194277474e-06,1.6526485528048454e-06,2.02843956048352e-06,1.6913587249541735e-06,1.4870404772816966e-06,1.1081687792488913e-06,1.913930278640556e-06,3.71470407024675e-06,3.621520542556615e-05,8.40487995652825e-07,3.922514019568588e-06,1.7724889336945685e-06,3.7827634537317335e-06,1.2280649388919338e-06,2.9898462069037573e-06
190,2.68094313915931e-06,1.2939920795577642e-06,1.6015371431416633e-06,2.0032262230395785e-06,1.7212248284519262e-06,1.5234064545038518e-06,1.1125124715461473e-06,1.949452415765434e-06,3.838506103397164e-06,3.735944244617859e-05,8.226754517306993e-07,3.859323610361177e-06,1.8591204266669992e-06,3.947243109897849e-06,1.2228661962572794e-06,2.9990513603353204e-06
191,2.6622366107826213e-06,1.3072464773999367e-06,1.5512743731208254e-06,1.9747684102780653e-06,1.7531894290294912e-06,1.561288541055541e-06,1.1230457995080695e-06,1.9891154827628453e-06,3.970839605089356e-06,3.835698201896111e-05,8.069157294454157e-07,3.7821518791845685e-06,1.9459780810926744e-06,4.11051485425486e-06,1.217747070336553e-06,2.996605909348091e-06
192,2.6335317352868463e-06,1.3192462815581937e-06,1.5022943348609213e-06,1.9434558849296942e-06,1.786497618415382e-06,1.6006843084246382e-06,1.139861280806607e-06,2.0322923982665377e-06,4.111621792735973e-06,3.9181928067967253e-05,7.936371404348002e-07,3.6932338803051666e-06,2.0317774837472884e-06,4.2682772010335815e-06,1.2131401591992863e-06,2.9817916576749282e-06
193,2.5968051767406846e-06,1.3298617044145908e-06,1.4549788509348412e-06,1.909828444492973e-06,1.8209187633531617e-06,1.6413183200772128e-06,1.162969036909226e-06,2.078178445813029e-06,4.260624171045487e-06,3.9812151502662674e-05,7.831540494907545e-07,3.59535317477758e-06,2.1151298070577335e-06,4.417359507542179e-06,1.2092479012446024e-06,2.9548257071424487e-06
194,2.5544122572417817e-06,1.339068944616438e-06,1.4096802205996003e-06,1.8746316014406325e-06,1.8566467337497956e-06,1.6826655436952474e-06,1.192180553463508e-06,2.1258556205716644e-06,4.41708737034578e-06,4.022563732151532e-05,7.756571781482081e-07,3.49145225678861e-06,2.1946257108741617e-06,4.555159887772534e-06,1.2061193491324744e-06,2.9168943468993135e-06
195,2.5086377620296398e-06,1.3469566352209031e-06,1.3666596956232185e-06,1.8387235729229862e-06,1.893966556755615e-06,1.724123937580701e-06,1.2270687181852435e-06,2.1744450739802283e-06,4.579612137321751e-06,4.040211922334515e-05,7.712174839106951e-07,3.3843153010016325e-06,2.2690661947391963e-06,4.679305935080387e-06,1.2037764106527138e-06,2.869907417778373e-06
196,2.461381616998016e-06,1.3535829706635562e-06,1.3260272381334706e-06,1.8029463364898043e-06,1.9330113430406996e-06,1.7652441959791059e-06,1.267014019740212e-06,2.223204988029892e-06,4.74645137470216e-06,4.0330029868194223e-05,7.697942237138258e-07,3.2764244064080292e-06,2.3377676008637924e-06,4.788013391835335e-06,1.2023001235789733e-06,2.8161342226700847e-06
197,2.4140464492328124e-06,1.3588476347119151e-06,1.287757109292447e-06,1.7680473390925277e-06,1.9737761257214884e-06,1.8058817231859481e-06,1.3113100571816318e-06,2.271517164687413e-06,4.91594026362317e-06,4.001246583606039e-05,7.712595868570463e-07,3.1699653152348206e-06,2.400732508028815e-06,4.880577316345896e-06,1.2018044074542846e-06,2.7578647526115315e-06
198,2.367598014956222e-06,1.3625400342552162e-06,1.2517716358382746e-06,1.7346975833874105e-06,2.0162591916286513e-06,1.8462447590887013e-06,1.3592395740838616e-06,2.318749935856073e-06,5.086716936286237e-06,3.9466784674127694e-05,7.754329872736881e-07,3.0668294207682335e-06,2.4585307869349955e-06,4.957276564758232e-06,1.2023407702526233e-06,2.6971146376538866e-06
199,2.322720200060395e-06,1.3645267610182968e-06,1.2180067649349302e-06,1.7035364509114004e-06,2.0604922834800526e-06,1.8868856546852693e-06,1.4100585352212582e-06,2.3640800682369702e-06,5.257635726516249e-06,3.871835134340029e-05,7.820938785947391e-07,2.968505854257611e-06,2.511968425394017e-06,5.018930001903306e-06,1.2038402231818088e-06,2.6354184604009395e-06
200,2.2799889564377267e-06,1.364904926643829e-06,1.186392206425168e-06,1.6751130026425202e-06,2.106400290414612e-06,1.9286307582731178e-06,1.4629900223992547e-06,2.40649266635218e-06,5.427542150148803e-06,3.7793717268237706e-05,7.909720068309542e-07,2.8759641066622558e-06,2.5618113969787957e-06,5.06678141515762e-06,1.2061089678492962e-06,2.5737437313246723e-06
201,2.2399858167038314e-06,1.3639948736951239e-06,1.1568118689614198e-06,1.649765960274273e-06,2.153685059057627e-06,1.972406455723272e-06,1.517303245962582e-06,2.4450634588917558e-06,5.595078778212414e-06,3.671843861678262e-05,8.017507466623122e-07,2.7896382797589593e-06,2.608689180269245e-06,5.102899863414816e-06,1.2088203503140674e-06,2.5124879616431554e-06
202,2.2032655711191524e-06,1.3622137000815045e-06,1.129161809011669e-06,1.6275615175594133e-06,2.2018997217885485e-06,2.018999844666774e-06,1.572349406513224e-06,2.479310465550672e-06,5.758482230285769e-06,3.551933356372295e-05,8.141013916364276e-07,2.7094858091309265e-06,2.653104259231797e-06,5.130626226083048e-06,1.211532262351123e-06,2.4516006487287535e-06
203,2.1701791017060247e-06,1.3599772494093503e-06,1.1034810604420458e-06,1.6083260351290074e-06,2.2506407389393484e-06,2.0688955873678063e-06,1.6274546190254397e-06,2.5093316043079216e-06,5.915358447403269e-06,3.4226646400209225e-05,8.277155728055077e-07,2.6351109578477426e-06,2.6955399705297266e-06,5.154523137251437e-06,1.2137964271485346e-06,2.3908845679367425e-06
204,2.140698786337473e-06,1.3577195964890994e-06,1.0799933875353893e-06,1.5917677523662474e-06,2.2996941464943656e-06,2.122263596074318e-06,1.6817776798687978e-06,2.5356920072136345e-06,6.062687145678803e-06,3.287335436319923e-05,8.422828617850132e-07,2.5659694993401016e-06,2.736638133261994e-06,5.179830711152339e-06,1.215277505275835e-06,2.3303532176233995e-06
205,2.114419662562541e-06,1.3559488738091909e-06,1.0589848209915594e-06,1.5776009287785776e-06,2.349018273980003e-06,2.17900749142091e-06,1.7343252290065133e-06,2.5592246814875243e-06,6.197123178707239e-06,3.14923872132694e-05,8.574354046511906e-07,2.5015898822300582e-06,2.7772852988888e-06,5.211879531102445e-06,1.2157491740004758e-06,2.2704456223029147e-06
206,2.0907825456561215e-06,1.3551977616307011e-06,1.0406326455207143e-06,1.5655483366311195e-06,2.398594532620904e-06,2.238825005739831e-06,1.7841688184369879e-06,2.580887755330002e-06,6.315145232386715e-06,3.011359331498501e-05,8.727408736218292e-07,2.4417138313616896e-06,2.818545738116701e-06,5.2557733596834855e-06,1.2150169941538824e-06,2.212034142942678e-06
207,2.0693846685641607e-06,1.355878793829835e-06,1.0249113056721829e-06,1.5552174045043664e-06,2.4483494895359514e-06,2.3013514352194732e-06,1.830628467478548e-06,2.6017031365339327e-06,6.4128107762665705e-06,2.8761780774229535e-05,8.877617700243712e-07,2.386299120242059e-06,2.8614871346479215e-06,5.316237255321395e-06,1.212927833541055e-06,2.1563099698920367e-06
208,2.05012476948783e-06,1.3581922445426855e-06,1.0115795274758747e-06,1.5459679677189396e-06,2.4981965335109943e-06,2.366319833610898e-06,1.8732077536633352e-06,2.6227224450599914e-06,6.485742286117542e-06,2.745613263670715e-05,9.021160226146136e-07,2.335405231425536e-06,2.9069440380545565e-06,5.397398443072084e-06,1.209482946682427e-06,2.104614137967797e-06
209,2.033065938607366e-06,1.3621479087990991e-06,1.0002302115612707e-06,1.5369243499251245e-06,2.5480009779416445e-06,2.4335434263131327e-06,1.9114729475990057e-06,2.644958041175852e-06,6.529939043061936e-06,2.6210293252002327e-05,9.154805045163957e-07,2.289053958794509e-06,2.955336270456504e-06,5.502519603394686e-06,1.2049203264296913e-06,2.0582275298663193e-06
210,2.0182101904478885e-06,1.3676185453311959e-06,9.903938138345762e-07,1.5272273033297334e-06,2.597414158171359e-06,2.502745142321277e-06,1.945145403435782e-06,2.6692450669355847e-06,6.542846150055889e-06,2.5032513303724e-05,9.275557613755721e-07,2.2471368628027765e-06,3.006629394814523e-06,5.633890785668804e-06,1.1996608484805345e-06,2.0182281410507202e-06
211,2.00543816307185e-06,1.3744047516876242e-06,9.816445036811187e-07,1.5164071608838957e-06,2.6457696913238885e-06,2.573491825796814e-06,1.974265849934916e-06,2.696065605301743e-06,6.523593822509368e-06,2.3925951871624442e-05,9.380458847951422e-07,2.2093864098028798e-06,3.0603526143183664e-06,5.79288397918533e-06,1.1941385741798229e-06,1.9855037660611704e-06
212,1.9946090531492756e-06,1.3823667620742719e-06,9.736722945094232e-07,1.504554216689434e-06,2.6921855091031365e-06,2.6453150655054214e-06,1.9991810146996393e-06,2.725451781260315e-06,6.472208430999282e-06,2.2889148432634054e-05,9.466604343447352e-07,2.17543086522826e-06,3.115616642680019e-06,5.979935633612448e-06,1.1886409538735497e-06,1.960786758805534e-06
213,1.985642082476872e-06,1.3915228811052674e-06,9.663177638089304e-07,1.492138330648224e-06,2.73578372569597e-06,2.717789887999027e-06,2.020388787748871e-06,2.757014198047216e-06,6.388735792838684e-06,2.1916482661918044e-05,9.531056274319735e-07,2.144929889075433e-06,3.1712092712598385e-06,6.1943592134970666e-06,1.183257063277225e-06,1.944595011317415e-06
214,1.978471822760341e-06,1.4019644560463682e-06,9.595410196129515e-07,1.4797216332626463e-06,2.775823190046664e-06,2.790394959265669e-06,2.0383686466481507e-06,2.789958431938298e-06,6.27321191947392e-06,2.099893712255921e-05,9.57078340253117e-07,2.117682414628122e-06,3.2257031306906643e-06,6.434141327860926e-06,1.1779175347116068e-06,1.9371697581308933e-06
215,1.9729143997128977e-06,1.4136870663976693e-06,9.533124780614089e-07,1.467852086601182e-06,2.81163848885571e-06,2.8622594837947856e-06,2.0534450998776963e-06,2.8230010994268675e-06,6.12635200142434e-06,2.0125488577569665e-05,9.58350164474652e-07,2.093567482199466e-06,3.277377107074534e-06,6.695870535228467e-06,1.172479474938378e-06,1.938494330739902e-06
216,1.9685998436855686e-06,1.4265544302254475e-06,9.475079324037055e-07,1.4571272765614213e-06,2.8424336082436495e-06,2.931990186346993e-06,2.0657708737642404e-06,2.8543150423774426e-06,5.950206100673991e-06,1.9284790087008252e-05,9.56915286463026e-07,2.072352296812936e-06,3.3240107018327092e-06,6.974790862224824e-06,1.1668268773481157e-06,1.9483693965809255e-06
217,1.965078707526407e-06,1.4404203669242557e-06,9.419123720183182e-07,1.4482416914908993e-06,2.867052340212852e-06,2.997674477019599e-06,2.075468774778733e-06,2.881658890542565e-06,5.748331441042547e-06,1.8466535020804287e-05,9.529998251996707e-07,2.053616313555188e-06,3.3628606483066967e-06,7.26486673040869e-06,1.160945562953133e-06,1.966494617940373e-06
218,1.9619803446861275e-06,1.455250762298465e-06,9.36303054764362e-07,1.4419266510094337e-06,2.8838871443574437e-06,3.0570996529753927e-06,2.082773776274048e-06,2.9026919839715036e-06,5.525484533642189e-06,1.766207327055438e-05,9.469152779230793e-07,2.03694094344115e-06,3.3910183348027916e-06,7.558859688104442e-06,1.154960454988892e-06,1.992510352792964e-06
219,1.959040035430734e-06,1.4710982590280278e-06,9.30489286417779e-07,1.438844027939984e-06,2.8910726991225567e-06,3.1081316623058223e-06,2.0880349706249313e-06,2.915369831921623e-06,5.287070367731992e-06,1.686397945781774e-05,9.389828473664542e-07,2.022132940249779e-06,3.4060518730398653e-06,7.84873251382979e-06,1.1491514833889681e-06,2.0259898145351955e-06
220,1.9560168971482136e-06,1.487936020697913e-06,9.243042528894623e-07,1.4395247610027392e-06,2.886956731684606e-06,3.149019492536786e-06,2.09163858618194e-06,2.918302704176753e-06,5.038565656732488e-06,1.6064851139682775e-05,9.295827666050217e-07,2.009176161029407e-06,3.406599921687954e-06,8.126580197901733e-06,1.1439092996732056e-06,2.06638904760041e-06
221,1.9526545312899943e-06,1.5055029686198759e-06,9.176275389069749e-07,1.4443550506362919e-06,2.870639500214346e-06,3.1784761456140408e-06,2.093974496786551e-06,2.910986434974429e-06,4.785034955604825e-06,1.5257107966110305e-05,9.191835700991221e-07,1.9980051534889897e-06,3.3925499126905728e-06,8.385647843192183e-06,1.1396115872263487e-06,2.112951750992158e-06
222,1.9487524732258475e-06,1.5232949888521763e-06,9.104136464639465e-07,1.4535653871528057e-06,2.8422769866021303e-06,3.1956891297022827e-06,2.095482162196006e-06,2.8938677531874032e-06,4.5309205942049846e-06,1.443540491247466e-05,9.083062368455039e-07,1.9883966986284544e-06,3.364655731593538e-06,8.620863145758888e-06,1.1365154813465089e-06,2.1646405284242395e-06
223,1.944285943399893e-06,1.540666750922611e-06,9.026948659557963e-07,1.4672600102523177e-06,2.802917900754023e-06,3.2004136922008866e-06,2.0967091848555618e-06,2.868238032338836e-06,4.2801369516156166e-06,1.3600041442688552e-05,8.974889349246208e-07,1.980052854052361e-06,3.3238930428751837e-06,8.828863853480701e-06,1.1347359973096098e-06,2.2201596974087033e-06
224,1.9394723549635683e-06,1.5569008699858984e-06,8.94617223072292e-07,1.485509682712306e-06,2.7539709547496166e-06,3.193013960276122e-06,2.09827564975585e-06,2.835958487188253e-06,4.03614986157418e-06,1.2757998739214982e-05,8.872659761666243e-07,1.9727975464860438e-06,3.271126208686967e-06,9.007833647147452e-06,1.1342682954445307e-06,2.2780194269278725e-06
225,1.9347136760456897e-06,1.571221029751272e-06,8.865001906553327e-07,1.508379992421504e-06,2.6967809256898142e-06,3.1742537924815695e-06,2.1007148763127083e-06,2.7991008353122386e-06,3.80188861176833e-06,1.192070282565568e-05,8.781217025452363e-07,1.966785631819737e-06,3.207286418429728e-06,9.157295666154341e-06,1.1349930741116413e-06,2.33662977811361e-06
226,1.930429003180534e-06,1.582882135425128e-06,8.788171453240158e-07,1.53583001686144e-06,2.632644565772532e-06,3.1449563845786846e-06,2.1042826936291906e-06,2.759655778498318e-06,3.5796979789297253e-06,1.1100548097791903e-05,8.704383709018876e-07,1.962564104100734e-06,3.1336775165817654e-06,9.277727337229529e-06,1.1366493111557957e-06,2.394452509726269e-06
227,1.9269285617786904e-06,1.5913645257348713e-06,8.720812118229686e-07,1.5676278032966784e-06,2.563064517844058e-06,3.1058583817024397e-06,2.108850473912514e-06,2.7193613144979607e-06,3.371380454912686e-06,1.0308416436628217e-05,8.644885226744447e-07,1.9609023184061043e-06,3.05201898648518e-06,9.36983468376014e-06,1.1388127489727247e-06,2.4501238528225153e-06
228,1.924426733949863e-06,1.5964652433488318e-06,8.667410701243156e-07,1.6033852498743148e-06,2.489903056153598e-06,3.057695961071857e-06,2.1139255891968375e-06,2.6796094122097876e-06,3.178188370076686e-06,9.552779359664096e-06,8.604483645694404e-07,1.962500424372074e-06,2.9642287076783506e-06,9.4338392226347e-06,1.1409667005276125e-06,2.502445978770196e-06
229,1.9230592681308623e-06,1.598169493433893e-06,8.631627751378398e-07,1.6425982368489177e-06,2.415303354835585e-06,3.001291099207714e-06,2.118750592574833e-06,2.641432550742251e-06,3.0007816502611045e-06,8.839765239476693e-06,8.583861999669791e-07,1.9677646369066692e-06,2.8721587511755702e-06,9.469603142543803e-06,1.1427062404365714e-06,2.5503130306899456e-06
230,1.9228068675938354e-06,1.5965501035834226e-06,8.616683251229243e-07,1.6845819877579964e-06,2.3414134182372276e-06,2.937569705854669e-06,2.1224080043849337e-06,2.60552952682518e-06,2.8392542022415414e-06,8.173653444607325e-06,8.582650428125892e-07,1.976749491929172e-06,2.777419602707838e-06,9.477693939049833e-06,1.1439609530635608e-06,2.592754597100241e-06
231,1.923419566296237e-06,1.591900274890227e-06,8.625532861546336e-07,1.7283830784469033e-06,2.270092965768424e-06,2.8675720181837018e-06,2.1239535466156284e-06,2.5722398697563477e-06,2.6932801667862697e-06,7.557567902223761e-06,8.600279550906428e-07,1.9892363748805703e-06,2.6813162746741086e-06,9.460300783185025e-06,1.145072958242034e-06,2.6291362664764882e-06
232,1.924437065552933e-06,1.584870443323412e-06,8.660627456383102e-07,1.7727828346655824e-06,2.2027765268682715e-06,2.7924081160278665e-06,2.122626508182402e-06,2.541497775166153e-06,2.5623219821617248e-06,6.994044829935908e-06,8.637044483819471e-07,2.0048681975481224e-06,2.5849018121996294e-06,9.421153722467213e-06,1.1466874968968236e-06,2.659305347707619e-06
233,1.9253568968413707e-06,1.5763462977012312e-06,8.723656628182889e-07,1.8163778712759127e-06,2.1404703364165382e-06,2.7130974993096476e-06,2.1180266797616497e-06,2.512827227572278e-06,2.4457077253859325e-06,6.485222170520868e-06,8.694027697014454e-07,2.023245950570816e-06,2.4891051786354877e-06,9.364822163822024e-06,1.1495357798322053e-06,2.68346736767939e-06
234,1.9258948005664887e-06,1.5671706481100519e-06,8.81531549550685e-07,1.8576716749796918e-06,2.083764259141217e-06,2.630368775956911e-06,2.1100650443317787e-06,2.485396526622595e-06,2.342533045495469e-06,6.032723552833392e-06,8.772237662213895e-07,2.0438980623525584e-06,2.3948327510090372e-06,9.296087197250602e-06,1.154246739373055e-06,2.7018392696810083e-06
235,1.9260958316752973e-06,1.5579789176991755e-06,8.935083041556232e-07,1.8951692145083718e-06,2.0328333375327667e-06,2.544588127555994e-06,2.0987089971192985e-06,2.4582254820064187e-06,2.251576308090354e-06,5.637451732145057e-06,8.872204079547052e-07,2.066161313018553e-06,2.3029853682796247e-06,9.219434457848523e-06,1.1612672384681097e-06,2.7143359098076274e-06
236,1.926145988069494e-06,1.5492596737844536e-06,9.081470322095485e-07,1.9275280418273896e-06,1.987495444821795e-06,2.4559017417158482e-06,2.083796562923762e-06,2.4305583295438506e-06,2.171345560196889e-06,5.299477140082575e-06,8.993845249064921e-07,2.0891473232919077e-06,2.2143982602719733e-06,9.138593207937847e-06,1.1708595145786916e-06,2.7205212275320037e-06
237,1.9260764601501876e-06,1.5414953439143226e-06,9.252723979909104e-07,1.953786604602233e-06,1.947364018745784e-06,2.364478420375136e-06,2.0650718315138817e-06,2.402146788564083e-06,2.1002438221896453e-06,5.018133550915033e-06,9.136067363070264e-07,2.111879681889744e-06,2.12974741971781e-06,9.05648181987443e-06,1.1831276008620815e-06,2.719848713811823e-06
238,1.9256586471150238e-06,1.5351753409981799e-06,9.447228724599028e-07,1.9735535904332845e-06,1.9120576709437407e-06,2.2706615798959976e-06,2.0423009049953283e-06,2.3731858552489117e-06,2.0367851982408432e-06,4.792278332840779e-06,9.296430005639769e-07,2.133519104727033e-06,2.0495148662020863e-06,8.975602288537892e-06,1.1980363255871427e-06,2.7120051250874827e-06
239,1.924511604254749e-06,1.5306732606232835e-06,9.663411119382613e-07,1.986986805227137e-06,1.8813780626588766e-06,2.1749825478675822e-06,2.0153345647611167e-06,2.344016358805495e-06,1.979692532032342e-06,4.620547502281128e-06,9.47142735608808e-07,2.153602405974585e-06,1.9740548756190275e-06,8.898315114911873e-06,1.2153805186422002e-06,2.6971319941681595e-06
240,1.9221888350000947e-06,1.5281309670571227e-06,9.899969190938728e-07,1.9945337739127438e-06,1.8553587815332027e-06,2.078134843531951e-06,1.984135499868432e-06,2.314889268659334e-06,1.9277530703577984e-06,4.501532786178539e-06,9.65731369803656e-07,2.1722327017875235e-06,1.9036239367347207e-06,8.826677545018429e-06,1.234727225577133e-06,2.675859125390855e-06
241,1.9181074244867815e-06,1.527432356047086e-06,1.015665815494187e-06,1.9966025799151943e-06,1.8341605412452119e-06,1.9809578230982268e-06,1.948799071059601e-06,2.2858535166573983e-06,1.8796474172978167e-06,4.433945121641948e-06,9.850554134217845e-07,2.190065971522837e-06,1.8382726159669443e-06,8.762030712961083e-06,1.2554317601965223e-06,2.6492542622267017e-06
242,1.9114470452578414e-06,1.5282330517197732e-06,1.0434508942965714e-06,1.993388809755232e-06,1.8178896542109948e-06,1.8843568964959594e-06,1.9095278618561303e-06,2.2567490640307156e-06,1.834127873087318e-06,4.4166869272492675e-06,1.0047406534066015e-06,2.208031185120037e-06,1.777750506976368e-06,8.7045936746874e-06,1.276799487399976e-06,2.618742924494577e-06
243,1.901202342370186e-06,1.5299883605789588e-06,1.0734861214173625e-06,1.984895128685842e-06,1.8064439192132792e-06,1.7891581299292898e-06,1.8665264874944621e-06,2.2273558187785644e-06,1.7904983933899367e-06,4.448636909762828e-06,1.024331690317746e-06,2.226964152761523e-06,1.721597595919514e-06,8.653373265180837e-06,1.2983299050076314e-06,2.585913046532273e-06
244,1.8864149961626844e-06,1.5320160371065575e-06,1.1058173353690213e-06,1.9709860911616595e-06,1.7994905087849172e-06,1.696059861629312e-06,1.8199433437535268e-06,2.197598713310533e-06,1.7488717053896884e-06,4.528230367801522e-06,1.043279466132969e-06,2.247372278656375e-06,1.6693593011121562e-06,8.606703275623056e-06,1.3198410643304338e-06,2.552224021804206e-06
245,1.8664973362746052e-06,1.5336261740902451e-06,1.140343222689856e-06,1.9514596325206097e-06,1.796622140780227e-06,1.6057594823076997e-06,1.7700095319260039e-06,2.167643099867472e-06,1.7098923088136708e-06,4.653169039535957e-06,1.0609873765335253e-06,2.2694044278411536e-06,1.6207040687254284e-06,8.563177108712035e-06,1.3413574531668222e-06,2.5188285713640627e-06
246,1.8414733431631214e-06,1.5342120776944753e-06,1.1767863669653073e-06,1.926249744953053e-06,1.7975497978361361e-06,1.519091949677376e-06,1.7172497684853212e-06,2.137817488634839e-06,1.6742571390266937e-06,4.820382854235106e-06,1.0769125136827473e-06,2.2929775345615523e-06,1.575376595323481e-06,8.522268768013248e-06,1.3629208445078e-06,2.486581151789749e-06
247,1.8119357327446436e-06,1.5332708175410164e-06,1.2146832314254226e-06,1.8956755795524037e-06,1.802121923815792e-06,1.4370071317101318e-06,1.6625173105693475e-06,2.108377606422252e-06,1.6425206761059539e-06,5.026043407735252e-06,1.0907019544675386e-06,2.317926761050446e-06,1.5331711199507788e-06,8.484377830750985e-06,1.3844972485811048e-06,2.4560703657828914e-06
248,1.7787911458164652e-06,1.5304819022497722e-06,1.2534021539042604e-06,1.8605232085131172e-06,1.8101866240438723e-06,1.360426324204671e-06,1.6068159584373675e-06,2.0792783020787575e-06,1.6152003867084613e-06,5.26544015638942e-06,1.1022979981159588e-06,2.344055478273144e-06,1.4940224114041517e-06,8.450607332786549e-06,1.4059498589683998e-06,2.427633307035464e-06
249,1.7430840996932218e-06,1.5258423457185722e-06,1.2921352219113633e-06,1.8219011060346988e-06,1.8214888339783231e-06,1.290137906685359e-06,1.5510738395716987e-06,2.05021085194999e-06,1.592861978068776e-06,5.532781239623794e-06,1.1119168506626362e-06,2.3710638403483344e-06,1.4581072863964684e-06,8.422511158743308e-06,1.4270675381505136e-06,2.4014888183425982e-06
250,1.7059411820166054e-06,1.519713143069972e-06,1.3298609168743162e-06,1.7809787782346561e-06,1.835644836370125e-06,1.226782260518947e-06,1.4960176194954525e-06,2.0209244562675754e-06,1.5760431352195079e-06,5.821110977320948e-06,1.1198867518061953e-06,2.3984082043734393e-06,1.4258670458360143e-06,8.401783715688297e-06,1.447675365758976e-06,2.3779085835600214e-06
251,1.6684804804673599e-06,1.5127134559611066e-06,1.3653833884696336e-06,1.7387843902340084e-06,1.8521265440180644e-06,1.1708420765113792e-06,1.442142947212493e-06,1.9915217580436873e-06,1.5651402725684023e-06,6.122382595737914e-06,1.1264578815420978e-06,2.4251793017038597e-06,1.397927230341723e-06,8.389896411426655e-06,1.467717559375375e-06,2.35718447874697e-06
252,1.6316847923883162e-06,1.5054995838788199e-06,1.39748932606577e-06,1.6961834280789684e-06,1.870321071895232e-06,1.1226004518342983e-06,1.3897006313890309e-06,1.9624458524095188e-06,1.5603648630859637e-06,6.427507345397748e-06,1.1316986998931178e-06,2.450058121287238e-06,1.374983972436155e-06,8.387880763871852e-06,1.4872534295461049e-06,2.3394576855767586e-06
253,1.596327524998351e-06,1.4985461851544792e-06,1.4250778956258024e-06,1.653967239115173e-06,1.8896930758057463e-06,1.0821065239428076e-06,1.3386951538588328e-06,1.934208058402853e-06,1.561767744799677e-06,6.726295037719988e-06,1.1355007373703302e-06,2.4713544445801664e-06,1.3577668767530395e-06,8.396340190240731e-06,1.5064557175426572e-06,2.3246474014668046e-06
254,1.5629889974337928e-06,1.4920631604273466e-06,1.4471450600158133e-06,1.6128681106247368e-06,1.909868958666138e-06,1.0491602566652324e-06,1.28895741511274e-06,1.9071057237687004e-06,1.569265656272923e-06,7.007643496941048e-06,1.1376502464705927e-06,2.4871948286647514e-06,1.3470167744008442e-06,8.415407460302767e-06,1.5255897863231541e-06,2.3124836438494817e-06
255,1.5321348208993887e-06,1.4860554177486486e-06,1.4627889927975678e-06,1.573467761461163e-06,1.9305307584678853e-06,1.0233129123705147e-06,1.2403038483592013e-06,1.881105906708848e-06,1.5825862889655192e-06,7.260497614755215e-06,1.1379231053476185e-06,2.4958949060637478e-06,1.343395855487887e-06,8.444592323674408e-06,1.5448807865943096e-06,2.3025531793611383e-06
256,1.5041654793942229e-06,1.4804432732778188e-06,1.4714091664758678e-06,1.5361739767199105e-06,1.9512569657345414e-06,1.003903265352192e-06,1.1927140941507118e-06,1.8559177699682e-06,1.6011691351931692e-06,7.47548839792257e-06,1.1361860594579352e-06,2.496350273603852e-06,1.3474159233300223e-06,8.483119535221251e-06,1.5643506774859982e-06,2.2943224071670343e-06
257,1.479385366873334e-06,1.4751674500324902e-06,1.47293334892082e-06,1.5013679064187445e-06,1.97149500919325e-06,9.901162228436938e-07,1.1464139243975857e-06,1.8311817380586638e-06,1.6241291563035028e-06,7.646226826259389e-06,1.1324920471516564e-06,2.488276449954526e-06,1.359426163121699e-06,8.53105893986487e-06,1.583762035053623e-06,2.2871136347361112e-06
258,1.4579548833087825e-06,1.470208474358428e-06,1.4678468395745839e-06,1.4695387223426311e-06,1.9906912502117473e-06,9.810134870886838e-07,1.1017948190849673e-06,1.8066830596309968e-06,1.6502878782823019e-06,7.769287924514352e-06,1.1271190334651146e-06,2.472251091275023e-06,1.3796047933231314e-06,8.590569564696485e-06,1.6026770615517202e-06,2.2801789292859464e-06
259,1.439907101294554e-06,1.4655028741545137e-06,1.4570252716140568e-06,1.441205611586677e-06,2.0084461519907485e-06,9.755454815650342e-07,1.0592642503403542e-06,1.7825107772943743e-06,1.678241619409795e-06,7.843761872770913e-06,1.120494309960557e-06,2.4495188874072255e-06,1.4079680669861885e-06,8.666529315695153e-06,1.6205588716665393e-06,2.272985349139233e-06
260,1.4251877911647687e-06,1.460831015487596e-06,1.4414805757423075e-06,1.4167324099858103e-06,2.024520178723761e-06,9.725823243313553e-07,1.0191836254168445e-06,1.75910148938285e-06,1.7064918346370316e-06,7.872032418417026e-06,1.1130380333838474e-06,2.42160247206413e-06,1.4444248627247255e-06,8.766530765308637e-06,1.6368671740001538e-06,2.26545637717363e-06
261,1.4136427260607559e-06,1.455786609514272e-06,1.422124975298776e-06,1.3962369966164581e-06,2.0386585269913154e-06,9.709633433386127e-07,9.81894911808696e-07,1.7371400301262628e-06,1.7336047287877241e-06,7.860793423734822e-06,1.1050531167663007e-06,2.389931687338147e-06,1.4888130915307165e-06,8.900519333204417e-06,1.6511790906347988e-06,2.2579323198913417e-06
262,1.4050151339623514e-06,1.4498976045751014e-06,1.3996428525595505e-06,1.3796240891635669e-06,2.050439175888054e-06,9.696141978127418e-07,9.477264726294596e-07,1.7173494640126144e-06,1.7583768890264375e-06,7.820050282912067e-06,1.0967459673436436e-06,2.355681865330485e-06,1.5408716456376622e-06,9.080144532587426e-06,1.6633325272131884e-06,2.2509426073555984e-06
263,1.399009376349663e-06,1.4428482750673563e-06,1.3744976655538342e-06,1.3666897149721555e-06,2.0593427944292436e-06,9.67731969053712e-07,9.169404967055718e-07,1.7002793809146878e-06,1.7801305421361575e-06,7.76079450689276e-06,1.0883243946629862e-06,2.3198054364293297e-06,1.6002380870054762e-06,9.317790101294078e-06,1.673447027144539e-06,2.2449339977486135e-06
264,1.3953148255982813e-06,1.4346384087668613e-06,1.3470259230281445e-06,1.3572391773682914e-06,2.0650108092810606e-06,9.648513830101117e-07,8.896690360319205e-07,1.68621484975574e-06,1.7990429797453305e-06,7.693508667758026e-06,1.0800562467426054e-06,2.2831076720399017e-06,1.6665604316080748e-06,9.625462778766865e-06,1.6817318062498314e-06,2.240039048931272e-06
265,1.3935256959085902e-06,1.4255586215669027e-06,1.317568634948576e-06,1.351127533667895e-06,2.067529320360779e-06,9.607016929761165e-07,8.658831148933654e-07,1.6752515688310517e-06,1.816126579964455e-06,7.62796241907024e-06,1.0722351273130127e-06,2.2462614393614412e-06,1.7396303890327415e-06,1.0013850523443358e-05,1.6882281769783545e-06,2.2359977937478808e-06
266,1.3930833581559013e-06,1.4160113320561296e-06,1.2865962105025077e-06,1.348192045886822e-06,2.0675552716144965e-06,9.55027592202195e-07,8.454062173899042e-07,1.6674503587390943e-06,1.8328589460926677e-06,7.57365797577422e-06,1.0650833271789261e-06,2.2097648073645955e-06,1.8193762407092276e-06,1.049171944772296e-05,1.6926775419332188e-06,2.2323035532270174e-06
267,1.3933895498761365e-06,1.4063152094269137e-06,1.254738866260036e-06,1.348175458245076e-06,2.066181571329162e-06,9.475357027591312e-07,8.279828512428377e-07,1.6628867010988425e-06,1.8508658847252858e-06,7.540137647138855e-06,1.0586744811062827e-06,2.1738978489493934e-06,1.9057221520733286e-06,1.1065722283984004e-05,1.6945642765693635e-06,2.228476518092712e-06
268,1.3940507031936158e-06,1.3966367356193702e-06,1.2226779130976985e-06,1.3507339126827605e-06,2.064655742864374e-06,9.379775987365845e-07,8.134065295009556e-07,1.6615289084327118e-06,1.8717886072411641e-06,7.536738471208352e-06,1.0529471565071846e-06,2.138734196999317e-06,1.998479515139307e-06,1.1740704288129035e-05,1.6933032573201406e-06,2.2242106450960266e-06
269,1.395042105847739e-06,1.3870577556114398e-06,1.1909981349010647e-06,1.3555210420975353e-06,2.064146272530508e-06,9.262913956624591e-07,8.016233237762574e-07,1.6630868586291517e-06,1.897164395972662e-06,7.5721474316907415e-06,1.0477680655228131e-06,2.1042657038073072e-06,2.0973294251725895e-06,1.2520477676825058e-05,1.6884734711436058e-06,2.2192446012409607e-06
270,1.3966437761598028e-06,1.377630003877373e-06,1.1601288147956268e-06,1.3623055763187105e-06,2.0656011404783145e-06,9.126676602929051e-07,7.92694224082743e-07,1.6669580389824588e-06,1.928271090615647e-06,7.65407849497524e-06,1.042962024233536e-06,2.070614190329478e-06,2.2018455949986165e-06,1.3408791944743693e-05,1.6799567820912212e-06,2.213141625228963e-06
271,1.3992248792820643e-06,1.3683321406470834e-06,1.1303800270716707e-06,1.3710548434485866e-06,2.069644768208878e-06,8.974724481836087e-07,7.86659091986268e-07,1.6722518015334214e-06,1.9660281211060377e-06,7.788959114200096e-06,1.038346541983466e-06,2.0381585023159906e-06,2.311678738150634e-06,1.4410085063124756e-05,1.6679496318436047e-06,2.205229766926592e-06
272,1.4030665343127778e-06,1.359007915543162e-06,1.1020094481871288e-06,1.3818976663033895e-06,2.0765131342097177e-06,8.811193153813483e-07,7.834466153384763e-07,1.6778600889659472e-06,2.010973098293069e-06,7.981638809520168e-06,1.0338131171552357e-06,2.007505929870507e-06,2.4269214827204805e-06,1.5529721852602615e-05,1.6529001770429153e-06,2.194650893862814e-06
273,1.4083128029681944e-06,1.3493734660215198e-06,1.0752583289369613e-06,1.3949688177355084e-06,2.086071498344177e-06,8.64033099880628e-07,7.828707159271602e-07,1.6826062941773454e-06,2.063274157673958e-06,8.235370383372965e-06,1.0293863317396765e-06,1.9794383495221417e-06,2.5482776139694307e-06,1.6773738294923952e-05,1.6353935180161887e-06,2.180354007866464e-06
274,1.4149781873022304e-06,1.339166153777688e-06,1.0503259538970063e-06,1.4102492926060086e-06,2.09789463372167e-06,8.467142202341966e-07,7.846871168555324e-07,1.685438307913395e-06,2.1228105014446187e-06,8.552045987811455e-06,1.0252380540345572e-06,1.9548609577048316e-06,2.6768851926478635e-06,1.814835194543899e-05,1.6160261258975463e-06,2.1611175917474857e-06
275,1.4229190512928624e-06,1.3284142103717724e-06,1.0273486670999684e-06,1.4274921148003916e-06,2.1113656820826184e-06,8.297765230980485e-07,7.887084983125265e-07,1.6855474515407997e-06,2.1893225818989984e-06,8.932336632318697e-06,1.0216719578128547e-06,1.934650380749096e-06,2.8141361868069955e-06,1.9659474496766927e-05,1.5953309568805164e-06,2.1357779287817995e-06
276,1.4317865069485178e-06,1.317563696506002e-06,1.0064516839112683e-06,1.4462336215265137e-06,2.12585066288777e-06,8.139091711803704e-07,7.94941873197224e-07,1.68239910688253e-06,2.2624980192475806e-06,9.375624150699173e-06,1.0190373304233856e-06,1.9194503917832625e-06,2.9616994759887948e-06,2.131223811464253e-05,1.573737452052614e-06,2.1035805490743463e-06
277,1.4409996789043378e-06,1.3072928807448634e-06,9.877875715976146e-07,1.4658946935199566e-06,2.1409442252863856e-06,7.998270820853962e-07,8.036672960323654e-07,1.6757594544262382e-06,2.3419168945926284e-06,9.879875971434247e-06,1.0176160637732296e-06,1.909581264999302e-06,3.1215527460148292e-06,2.3110375347205683e-05,1.5515178799205351e-06,2.0644176123901815e-06
278,1.4497214185050896e-06,1.2982435023235092e-06,9.714761975738785e-07,1.4859641907473015e-06,2.1566082147172368e-06,7.88229790838922e-07,8.154072136054506e-07,1.665704375730791e-06,2.4269234094810937e-06,1.0441402387156876e-05,1.0175977194982283e-06,1.9051079808393592e-06,3.295783005905997e-06,2.5055352787250252e-05,1.528739166758614e-06,2.0188759220548907e-06
279,1.4568670962192562e-06,1.2909260556148993e-06,9.575255844932643e-07,1.50617361915816e-06,2.1731175989478253e-06,7.797515059420813e-07,8.30799969683902e-07,1.652529123498438e-06,2.5165074316328237e-06,1.1054454479960952e-05,1.0191224205274924e-06,1.9059814092893658e-06,3.4862110357571476e-06,2.7145321523885483e-05,1.5052490078609234e-06,1.968165739414853e-06
280,1.46123831451265e-06,1.2857736518477371e-06,9.458175766608999e-07,1.5265763008864616e-06,2.190924394151272e-06,7.749248970140057e-07,8.504571668176521e-07,1.6366208868145154e-06,2.6092682989100617e-06,1.1710882475827201e-05,1.0222877346180242e-06,1.912150122432406e-06,3.6940851996580443e-06,2.937400229493031e-05,1.4806891646936469e-06,1.913960713546821e-06
281,1.4617937835968287e-06,1.283216913021642e-06,9.361390940313306e-07,1.5474899887676451e-06,2.2105575060780196e-06,7.741804589175825e-07,8.748891013191638e-07,1.6183992931621606e-06,2.7034506012350037e-06,1.2399964811522573e-05,1.0271259066627652e-06,1.9235537490071637e-06,3.919925287645632e-06,3.172960900135867e-05,1.45459551483654e-06,1.8581437679925715e-06
282,1.4579339817877408e-06,1.2836920984508367e-06,9.282456606530765e-07,1.5693041864959502e-06,2.232585036793689e-06,7.778811606554799e-07,9.044919729237502e-07,1.5982595704293844e-06,2.79692432572497e-06,1.3108392337071182e-05,1.0336322873263966e-06,1.9399801633491777e-06,4.163429571836143e-06,3.419387640866069e-05,1.4266324397244123e-06,1.8025204788968957e-06
283,1.449648373186297e-06,1.2875514744454221e-06,9.219551187692027e-07,1.5922595133312373e-06,2.2575748003483265e-06,7.863804435145344e-07,9.395313670365209e-07,1.5764987935747583e-06,2.8871485925618746e-06,1.3820433847781774e-05,1.0418195471009631e-06,1.960899631111067e-06,4.423393867611839e-06,3.674118082469359e-05,1.3968145473676092e-06,1.7486213332432861e-06
284,1.437468776958948e-06,1.294944978915176e-06,9.17198725287651e-07,1.616327097872026e-06,2.2859811699549907e-06,8.000560409642011e-07,9.80104170483288e-07,1.553313257827134e-06,2.9713968822049307e-06,1.4518155390247103e-05,1.051688718968493e-06,1.985413175473282e-06,4.6976570146521434e-06,3.933780067152734e-05,1.365532533833884e-06,1.6976588219871772e-06
285,1.4222648712388534e-06,1.3057531858405912e-06,9.139645922105436e-07,1.6412185759692922e-06,2.3180101281793266e-06,8.192786893082279e-07,1.0261228801097712e-06,1.5287976175479086e-06,3.0472827476213933e-06,1.5181555435927703e-05,1.0631328675588128e-06,2.012361759979116e-06,4.983155991552265e-06,4.194165255772377e-05,1.3333831407626484e-06,1.6505657641651623e-06
286,1.4049786575225315e-06,1.3195737960859064e-06,9.121878989440277e-07,1.6664686142348406e-06,2.3535671873573923e-06,8.443487078453154e-07,1.0773604014979741e-06,1.5028678063393664e-06,3.113184135398498e-06,1.578903954014226e-05,1.0759191213350186e-06,2.0405558113017266e-06,5.276144570639105e-06,4.45031809099979e-05,1.3009467149608402e-06,1.608010014985434e-06
287,1.3864536568779175e-06,1.3357602469428038e-06,9.11677673102975e-07,1.69149627157232e-06,2.392342691390001e-06,8.754529832281986e-07,1.1335349254415786e-06,1.4752251734803524e-06,3.168215985439733e-06,1.6319066904762062e-05,1.0897887612834985e-06,2.0690185409088265e-06,5.572425997394966e-06,4.696813692668825e-05,1.2686646802138663e-06,1.5704119679363258e-06
288,1.3674488531719393e-06,1.3535417899714328e-06,9.120887514890477e-07,1.7156861221433756e-06,2.434005997294486e-06,9.126397226754889e-07,1.1943650300639202e-06,1.4454621659780739e-06,3.2118280582123815e-06,1.6752953116305733e-05,1.1045356979915816e-06,2.097114873361422e-06,5.867385162186533e-06,4.9282365527344985e-05,1.2368293388595028e-06,1.538010843019626e-06
289,1.3487576731508252e-06,1.3722117521808858e-06,9.129328055230547e-07,1.7386010845006349e-06,2.4783042203111344e-06,9.558042368838578e-07,1.2595410000364953e-06,1.4132419516357165e-06,3.2433970577942996e-06,1.7077239632544066e-05,1.119960239178958e-06,2.1244798037027153e-06,6.1558725642751e-06,5.1397608529175525e-05,1.205583137903537e-06,1.5109022567694711e-06
290,1.3313054992141456e-06,1.3912895587414905e-06,9.136748650357627e-07,1.7601926475037722e-06,2.524935095657458e-06,1.0047261436815318e-06,1.3286472230578726e-06,1.3784472769171702e-06,3.2621894430988413e-06,1.728389917546257e-05,1.1357686150068605e-06,2.150776137908283e-06,6.4322476361719464e-06,5.327646207760044e-05,1.1749239960747998e-06,1.489006754666749e-06
291,1.3161495190724094e-06,1.4105441053814015e-06,9.139125607823661e-07,1.7807705818826518e-06,2.5734225373805805e-06,1.059151480199413e-06,1.4011429468977399e-06,1.3412734478657478e-06,3.267716261180211e-06,1.736844554137979e-05,1.1515172416976183e-06,2.1754528029740988e-06,6.690663711253608e-06,5.4894342449680646e-05,1.1447867615587332e-06,1.4720602486145485e-06
292,1.30436119279799e-06,1.4298630988387545e-06,9.13524472654704e-07,1.8007457359361662e-06,2.623173497600716e-06,1.1188184903837834e-06,1.4764517022824587e-06,1.3022747912369286e-06,3.260067302528747e-06,1.7327461733978047e-05,1.1666025748240375e-06,2.1976455719269863e-06,6.92519471144186e-06,5.623675982165957e-05,1.1151588999246138e-06,1.4596666667695986e-06
293,1.2968678350221623e-06,1.4491008048188873e-06,9.126844727924322e-07,1.8203455611952804e-06,2.6735260574428257e-06,1.1833911605734147e-06,1.554115269771814e-06,1.2623351904731415e-06,3.2399111287069335e-06,1.7157221477474888e-05,1.1802897346646578e-06,2.216251610542654e-06,7.129591026475887e-06,5.7292543658113014e-05,1.0861337579262193e-06,1.4513492692311956e-06
294,1.2943514154907922e-06,1.4680545898337598e-06,9.117457885502474e-07,1.8394615250894441e-06,2.7236520517035016e-06,1.2524022199311092e-06,1.6339683302513482e-06,1.222531724139255e-06,3.208297052411825e-06,1.6854858221647775e-05,1.1918351065608265e-06,2.230164781930846e-06,7.297268727749346e-06,5.804798357886931e-05,1.0578751727553344e-06,1.4466167735189659e-06
295,1.297217315553706e-06,1.4865642372966437e-06,9.110769665683501e-07,1.8576801174647399e-06,2.7725057882075705e-06,1.3252612150862003e-06,1.7162589039182245e-06,1.1839629152481437e-06,3.166500615479213e-06,1.6421998341618214e-05,1.2007075923734492e-06,2.238530165011794e-06,7.422103648838094e-06,5.848784472594217e-05,1.0305374867235825e-06,1.4450825519365881e-06
296,1.3056050176326874e-06,1.5046272336724086e-06,9.109448942341446e-07,1.874451219919912e-06,2.819032180067116e-06,1.4012664784881497e-06,1.801570609978367e-06,1.1476608806904788e-06,3.115908127662124e-06,1.5868155729432948e-05,1.2067851939777958e-06,2.240859502958218e-06,7.499620975514788e-06,5.860303975523798e-05,1.004212097950885e-06,1.4465152937494735e-06
297,1.3194360271346039e-06,1.5224600701717182e-06,9.114703065846606e-07,1.8892727880117467e-06,2.8625708584167164e-06,1.479609591320883e-06,1.890533703792326e-06,1.1145742755543077e-06,3.0578416510323424e-06,1.5210786817885597e-05,1.2103859789117923e-06,2.2370819244570266e-06,7.527803067065555e-06,5.8398250795729784e-05,9.789183582253889e-07,1.45078580194663e-06
298,1.338494197498809e-06,1.5404571810235923e-06,9.126147131234478e-07,1.9017686631716786e-06,2.903169894711243e-06,1.559419642646522e-06,1.9835453743844655e-06,1.0855286596265879e-06,2.993372402804727e-06,1.4471805280724774e-05,1.2121186732596174e-06,2.2276524484232884e-06,7.507187839684426e-06,5.789360472529972e-05,9.545993316225071e-07,1.4578569466342824e-06
299,1.3624806151513177e-06,1.5590569346358173e-06,9.141756330891207e-07,1.9116321955124876e-06,2.941575571643151e-06,1.6398112673596314e-06,2.0806920887705267e-06,1.0611693678707743e-06,2.9232860970786935e-06,1.3673454339272297e-05,1.2126778551546022e-06,2.2135988195820763e-06,7.440386830663859e-06,5.712007088203898e-05,9.311341050387043e-07,1.4677870889788816e-06
300,1.390993796014067e-06,1.5786503072163482e-06,9.158023309990491e-07,1.918551603967771e-06,2.9789272512174798e-06,1.7199018945023042e-06,2.1817959256132637e-06,1.041945552348592e-06,2.848313486409328e-06,1.2836124659382811e-05,1.2127008447627088e-06,2.1963186997328967e-06,7.331336392391372e-06,5.611201106742786e-05,9.084019985435425e-07,1.4806133090107592e-06
301,1.4234741014798452e-06,1.5995754555630951e-06,9.170719286814422e-07,1.922272679077275e-06,3.016375072340762e-06,1.7988828785235815e-06,2.286387049960961e-06,1.0281391978115011e-06,2.769450660743792e-06,1.1977944465169134e-05,1.2126950633273878e-06,2.1772404159347905e-06,7.184476866155835e-06,5.4900191213513955e-05,8.863440632289609e-07,1.496213729337553e-06
302,1.4591622921041185e-06,1.6220535756394099e-06,9.176491793045143e-07,1.922770617391516e-06,3.054777714600695e-06,1.8761777136374282e-06,2.393605225937175e-06,1.019898284798135e-06,2.688008113200711e-06,1.1114794018131222e-05,1.2130268654595173e-06,2.1576371363267103e-06,7.003943789874812e-06,5.350750394982758e-05,8.649470710842508e-07,1.5143035659497117e-06
303,1.4971282854544828e-06,1.646048215657725e-06,9.174188975207944e-07,1.920298880713164e-06,3.0945023095905454e-06,1.9515579114971274e-06,2.502220129431901e-06,1.0172370619538062e-06,2.605371835112039e-06,1.0260277519074663e-05,1.21395179287743e-06,2.1386041031720717e-06,6.7930708836096636e-06,5.194909692823035e-05,8.441929137409888e-07,1.5345182594439862e-06
304,1.536446076589678e-06,1.6711885509487887e-06,9.164401090157481e-07,1.9152020259029354e-06,3.1353155936826726e-06,2.0251118541320862e-06,2.6108026086040715e-06,1.0200111369553483e-06,2.522769189612837e-06,9.425814987176487e-06,1.2156247443529502e-06,2.1209998946859645e-06,6.5545528095818745e-06,5.0236450750670646e-05,8.240500709341849e-07,1.5564663923971298e-06
305,1.576439625779799e-06,1.6967924535432628e-06,9.147887095737899e-07,1.9076908753140667e-06,3.1763554875519663e-06,2.097091191152538e-06,2.717831461017703e-06,1.0279135394264644e-06,2.4411504944014024e-06,8.62081347573889e-06,1.2181246133184108e-06,2.105352017076942e-06,6.291090427251718e-06,4.8382290053089645e-05,8.044852871424335e-07,1.5797139286354725e-06
306,1.6167922397902947e-06,1.7219428818855814e-06,9.124616308057005e-07,1.8977868466888536e-06,3.2161985046365947e-06,2.1676953028783936e-06,2.821641440360778e-06,1.0405312251363839e-06,2.3611519007677553e-06,7.852765490879108e-06,1.2215430240515827e-06,2.0918497134550937e-06,6.005956995183236e-06,4.6403336884744747e-05,7.854995861975411e-07,1.6037447037497716e-06
307,1.6574676955453563e-06,1.7456251122267464e-06,9.093749184697818e-07,1.8853642266325306e-06,3.2530394849627267e-06,2.2368708061371083e-06,2.920397233012051e-06,1.0574467462594218e-06,2.283158530180595e-06,7.127329377635368e-06,1.2260196329819605e-06,2.0803780883112687e-06,5.70321252809231e-06,4.4319797799094935e-05,7.672167912105819e-07,1.6279573148117145e-06
308,1.6985851770431197e-06,1.7669493483828678e-06,9.054392907359226e-07,1.8701410604856622e-06,3.28491826651236e-06,2.3042160625495155e-06,3.0121988406587157e-06,1.078316867937736e-06,2.207439935088026e-06,6.448454851401583e-06,1.2316513194400579e-06,2.0704984843912593e-06,5.387659134041466e-06,4.2152272326296224e-05,7.499191875394194e-07,1.651676991236946e-06
309,1.7403213743091769e-06,1.7853745604257566e-06,9.007055913583947e-07,1.8516500894521562e-06,3.3099481036916324e-06,2.3690037597904197e-06,3.0952305335725034e-06,1.1028745467345045e-06,2.1342827891674696e-06,5.818490418936608e-06,1.2383874098798119e-06,2.0614515983933554e-06,5.064608309604768e-06,3.991928067918231e-05,7.339842310117992e-07,1.674178843704832e-06
310,1.7828022411199622e-06,1.8007502880723392e-06,8.95479501779199e-07,1.8293309514764215e-06,3.326568350962057e-06,2.4302718409980163e-06,3.1679398889522375e-06,1.1308502423902651e-06,2.0640923682294033e-06,5.238292661324519e-06,1.2459921189795258e-06,2.052303054296067e-06,4.739435328638095e-06,3.7639208540586285e-05,7.198282110450295e-07,1.6948082565591831e-06
311,1.8260040564524823e-06,1.8131308954164823e-06,8.902875811659492e-07,1.8027830384115841e-06,3.333761253030288e-06,2.4869561494570367e-06,3.22926412938461e-06,1.1618597478546616e-06,1.9974418073810537e-06,4.707477568271851e-06,1.2540774336280522e-06,2.0421640900319044e-06,4.417023424559116e-06,3.533559127923147e-05,7.078723509908494e-07,1.713148485032787e-06
312,1.8697097135711897e-06,1.82254542935659e-06,8.857226633672112e-07,1.7720262172249923e-06,3.3311164441690683e-06,2.538046182511697e-06,3.278774884591681e-06,1.1953408834645114e-06,1.935037135764543e-06,4.224792284919869e-06,1.2622268182600667e-06,2.0303057569255897e-06,4.101367147054592e-06,3.3040080771585725e-05,6.984793322274994e-07,1.729027197322514e-06
313,1.9135189016613432e-06,1.8288721390561513e-06,8.823024474008309e-07,1.7375457964644968e-06,3.31874814202314e-06,2.5827252387044592e-06,3.31661765583054e-06,1.2305876293989312e-06,1.8776147121045845e-06,3.7883798627293733e-06,1.2701585110475955e-06,2.0161457774793436e-06,3.795505019722204e-06,3.079001662410096e-05,6.918912636541281e-07,1.7423491287936946e-06
314,1.9568829111983372e-06,1.8318204032945601e-06,8.804086694385709e-07,1.700075835230328e-06,3.2971757316263797e-06,2.620450534561253e-06,3.3432833920582985e-06,1.2668201266887484e-06,1.8258237595589001e-06,3.3959325043091185e-06,1.2777843201497113e-06,1.999269764127924e-06,3.5016984681003952e-06,2.8623008658377702e-05,6.882131631973007e-07,1.7530076861893183e-06
315,1.9991610835127936e-06,1.8310459895144478e-06,8.802863984599119e-07,1.660347075215788e-06,3.267192438387548e-06,2.6509238745409367e-06,3.359311585480413e-06,1.3031944950552315e-06,1.780122308330454e-06,3.0449732296267907e-06,1.2851102616935773e-06,1.9795897412525285e-06,3.221668512010775e-06,2.6572532963059938e-05,6.874406881662952e-07,1.7609744823414059e-06
316,2.0397695638567443e-06,1.8263888669310555e-06,8.820647508971728e-07,1.6189958649267753e-06,3.229649655302138e-06,2.6739211486589984e-06,3.3649915306457766e-06,1.3388121148824454e-06,1.7407080387726165e-06,2.733266489881621e-06,1.2920847964443268e-06,1.957552923568445e-06,2.9567369565303305e-06,2.4666289627856143e-05,6.895220742576196e-07,1.766342755752947e-06
317,2.0783871462172907e-06,1.81803649048131e-06,8.857557451099605e-07,1.5765583806567615e-06,3.185240243765276e-06,2.6890339816707446e-06,3.360167715996667e-06,1.3728029306420267e-06,1.707508167573452e-06,2.459154312746235e-06,1.2985267987120796e-06,1.9341960345617305e-06,2.7078488469979464e-06,2.2926550544555708e-05,6.944243974309992e-07,1.7691776087683324e-06
318,2.115024687531937e-06,1.8064323718437445e-06,8.91234915012207e-07,1.533481724361081e-06,3.1344970767143306e-06,2.6954901756836703e-06,3.3443091227318214e-06,1.4043693446191076e-06,1.6802204662801993e-06,2.2217170721700016e-06,1.3041647452032723e-06,1.9109187872851992e-06,2.4755908859364084e-06,2.1371069389963704e-05,7.02145789059333e-07,1.7693224514383925e-06
319,2.1498818367355856e-06,1.7920080550626305e-06,8.982676650008644e-07,1.4902259907079067e-06,3.077969946888281e-06,2.6922215285048282e-06,3.3168392052367393e-06,1.43277664950853e-06,1.6583638285408163e-06,2.020710950828476e-06,1.30870837616158e-06,1.8891142618517992e-06,2.2602386667494177e-06,2.001382390665947e-05,7.12669853130733e-07,1.766317223153453e-06
320,2.183108158923624e-06,1.7749757647493964e-06,9.06596443114225e-07,1.4473777508173875e-06,3.0163394316310195e-06,2.6781936512826265e-06,3.2774742473260673e-06,1.4574270251965291e-06,1.6412947990843034e-06,1.856308520458656e-06,1.3118909236189891e-06,1.8699422020603548e-06,2.061762389039842e-06,1.8865550186692605e-05,7.259225987764146e-07,1.7594322229041795e-06
321,2.2146377769626646e-06,1.7553484664653355e-06,9.160049031995638e-07,1.405604154153441e-06,2.9504457398699322e-06,2.6528353573509906e-06,3.2263656556283034e-06,1.4779287386218574e-06,1.6282492069123478e-06,1.7288314188387019e-06,1.3135210368188258e-06,1.8543286665881064e-06,1.8798241012953865e-06,1.7934206986563355e-05,7.417599135135483e-07,1.7477968389650178e-06
322,2.2441562266890976e-06,1.7331392890563994e-06,9.262821099812509e-07,1.3655248924439939e-06,2.8813758307389412e-06,2.616301153113476e-06,3.164093298833165e-06,1.4940104507934054e-06,1.6185380910479402e-06,1.638589994166446e-06,1.3135397917171746e-06,1.8430484411942147e-06,1.713848134408415e-06,1.7225435774026478e-05,7.59994339143145e-07,1.730614770230946e-06
323,2.2711049299896434e-06,1.7085000425007815e-06,9.371367278786928e-07,1.3276703469261177e-06,2.8105935736480917e-06,2.5693445215584083e-06,3.0916515002920928e-06,1.5054348996559509e-06,1.6118223401603481e-06,1.585766015965899e-06,1.31198003898022e-06,1.836764600621542e-06,1.5631601806550355e-06,1.6743004757804795e-05,7.804419513566105e-07,1.7074393447343335e-06
324,2.294719566870911e-06,1.681690912796413e-06,9.481742385298729e-07,1.2924878215277078e-06,2.739978390093555e-06,2.5128952733185977e-06,3.01048377680102e-06,1.51206388225759e-06,1.6081988830189934e-06,1.5703266747262558e-06,1.3088370658461139e-06,1.8359696721438429e-06,1.4271060353747446e-06,1.6489107509700596e-05,8.029125707776162e-07,1.6784238894936432e-06
325,2.3141880104688223e-06,1.6530645349167842e-06,9.589512698186063e-07,1.2603133096877015e-06,2.6716886372500966e-06,2.4477902225835883e-06,2.922508319299102e-06,1.513939280109549e-06,1.6080243901870368e-06,1.59201590165641e-06,1.3040058333720916e-06,1.8408554566837887e-06,1.305077296855816e-06,1.6464333105143604e-05,8.271465951163614e-07,1.6444185225024908e-06
326,2.328810593887197e-06,1.6231271909723349e-06,9.6907125906247e-07,1.2313732070725294e-06,2.6078790116437313e-06,2.3749446485232822e-06,2.8300091577926273e-06,1.511281931900102e-06,1.6116665322013407e-06,1.650387024866101e-06,1.2973574993678295e-06,1.851238925335781e-06,1.1965286222215628e-06,1.6667347174638272e-05,8.527813340148964e-07,1.6068454373859345e-06
327,2.3380119086977623e-06,1.5924959780365808e-06,9.783294287951224e-07,1.2058891556292243e-06,2.5504501523433397e-06,2.2956868262178045e-06,2.7353474131233405e-06,1.5044950352723425e-06,1.619335416159629e-06,1.7448013603953103e-06,1.2888752691782954e-06,1.8666406608761854e-06,1.101052243734106e-06,1.7094510083872448e-05,8.793597557708427e-07,1.5673991534909232e-06
328,2.341299648013337e-06,1.5617746997643965e-06,9.868097344278058e-07,1.1841959712759143e-06,2.5009450248932114e-06,2.2117916101025753e-06,2.640670611478838e-06,1.4942051297238336e-06,1.6310044839640709e-06,1.8743686110852146e-06,1.278740113542507e-06,1.8864661063341671e-06,1.018379713603171e-06,1.7739437942964717e-05,9.063517235413912e-07,1.5277447360066023e-06
