,EMG1,EMG2,EMG3,EMG4,EMG5,EMG6,EMG7,EMG8,EMG9,EMG10,EMG11,EMG12,EMG13,EMG14,EMG15,EMG16
0,1.3190831722909732e-07,3.2604837406273286e-07,6.037078264276074e-07,1.7843439599431916e-07,7.995181446560846e-07,-1.2842581017625598e-07,3.7132829610095955e-08,3.020800132281257e-07,1.0943615154085673e-06,2.2640712491573692e-06,2.8300595499171796e-07,-3.2682703963964813e-07,1.5633389954937916e-06,4.3851090713373784e-06,1.3992399811343977e-09,4.697194276556158e-07
1,2.0193540483447703e-07,4.5773636264754875e-07,6.292486041803546e-07,3.1891200644339995e-07,1.1171724223351368e-06,1.670777273854887e-07,1.8786838965831957e-07,4.1064312214702324e-07,1.5360487626471144e-06,4.330733076023736e-06,3.721925822014755e-07,1.7264822258489267e-07,1.749814892975993e-06,6.896225428500006e-06,1.635449969704657e-07,5.389266450471862e-07
2,2.708127696386089e-07,5.816625341230749e-07,6.563807858384584e-07,4.541253271890751e-07,1.4237268352202324e-06,4.5450143227557614e-07,3.3583293128079005e-07,5.189420795557455e-07,1.9714514588720594e-06,6.379435566132205e-06,4.5950699255855995e-07,6.542743386719335e-07,1.9420883167425353e-06,9.347761793872752e-06,3.17351440181827e-07,6.095954871697042e-07
3,3.3815693090971544e-07,6.971836674635893e-07,6.847397864616968e-07,5.824115859467573e-07,1.7163716685672206e-06,7.321251651114691e-07,4.799591143979489e-07,6.246168576952499e-07,2.385865025934694e-06,8.389947779202194e-06,5.438599979517841e-07,1.1141634962282241e-06,2.136568602360077e-06,1.1687471116621922e-05,4.6167155983463124e-07,6.80534362793998e-07
4,4.0375514648795014e-07,8.036307358302593e-07,7.138671220314254e-07,7.023751146737077e-07,1.992212440523299e-06,9.984023476264215e-07,6.192496145226171e-07,7.25549537178603e-07,2.7680661462440395e-06,1.0342570414581119e-05,6.24669309521721e-07,1.5483975829427631e-06,2.329711885140869e-06,1.3869392996585784e-05,5.954100437342512e-07,7.505364347871729e-07
5,4.675011779313252e-07,9.003845880099575e-07,7.432555553924679e-07,8.128905585436843e-07,2.248242177214445e-06,1.252041860676601e-06,7.527731977161086e-07,8.202045123262511e-07,3.111850049732034e-06,1.2219022794119702e-05,7.017401545838653e-07,1.952954121370789e-06,2.51837133927156e-06,1.585736890970153e-05,7.1757837667114e-07,8.18396619297793e-07
6,5.293373267573113e-07,9.869258147298414e-07,7.724211040086066e-07,9.130939274472106e-07,2.481374214175297e-06,1.4919938665066151e-06,8.795979067820904e-07,9.079906857554012e-07,3.4162293810331293e-06,1.400402728997243e-05,7.750112927263857e-07,2.3237027055940317e-06,2.7002527843588845e-06,1.7627671118729856e-05,8.273666358127124e-07,8.830220195515606e-07
7,5.892611889039531e-07,1.0627948077750914e-06,8.009399516817218e-07,1.0024615341589198e-06,2.6887665160279454e-06,1.7172621950678162e-06,9.987395942420773e-07,9.89336982525249e-07,3.684021055595501e-06,1.5686805373370833e-05,8.443669291602041e-07,2.6566269817856744e-06,2.8741879788787223e-06,1.9169947458670553e-05,9.241866295527635e-07,9.435734677423086e-07
8,6.47340714080494e-07,1.1275488804070477e-06,8.284493388404654e-07,1.0808590527144816e-06,2.8683692925487066e-06,1.9267129578198673e-06,1.1092538130828402e-06,1.0654057700115277e-06,3.919721207969665e-06,1.726102221306939e-05,9.095845725022685e-07,2.9483273895112517e-06,3.039999705340244e-06,2.0486167312104702e-05,1.0077440648609555e-06,9.995601154242002e-07
9,7.037065573915069e-07,1.1808640801451837e-06,8.546591885982497e-07,1.1484998747001973e-06,3.0193073574212726e-06,2.1191184489509408e-06,1.2104436160411388e-06,1.1376561093558926e-06,4.127938167123546e-06,1.8722921625377297e-05,9.703555605683985e-07,3.1965430439361393e-06,3.198026446849637e-06,2.1587689297715865e-05,1.0781926832104614e-06,1.0508301212964135e-06
10,7.585686737126813e-07,1.222742326189672e-06,8.793520703169652e-07,1.2059073725224031e-06,3.1418471330658504e-06,2.293480318287291e-06,1.3019615561919413e-06,1.2075365209271847e-06,4.312750769532568e-06,2.0069998628296105e-05,1.026347328538381e-06,3.400399368636572e-06,3.3485798410663977e-06,2.2490968685139334e-05,1.136268192660105e-06,1.0974210416343134e-06
11,8.122360748969661e-07,1.2535809587831215e-06,9.023835216989939e-07,1.2538974093188433e-06,3.2370617163449084e-06,2.4493732462131338e-06,1.3836656781675192e-06,1.2763770127740378e-06,4.477505763595945e-06,2.130230463003955e-05,1.0773275338772389e-06,3.560412625192697e-06,3.491627460259676e-06,2.3213118010805066e-05,1.1832341658502554e-06,1.1393648083516532e-06
12,8.650716595229133e-07,1.2740332499335824e-06,9.237446356551629e-07,1.293524096350564e-06,3.3064433037328307e-06,2.5869741578134275e-06,1.455386871257611e-06,1.3453479655444424e-06,4.6247183949807206e-06,2.2424158007101656e-05,1.1232929001030676e-06,3.6784378994192895e-06,3.6269281316622163e-06,2.3769373431249657e-05,1.2206317402447717e-06,1.1765819994974941e-06
13,9.174008949148945e-07,1.2849037747543607e-06,9.436007963452424e-07,1.3259668906385485e-06,3.351560703437067e-06,2.706725304888078e-06,1.5168594528890957e-06,1.4154126389599375e-06,4.756050745169943e-06,2.3442835384887635e-05,1.1644997340745007e-06,3.757592313742164e-06,3.754583295067304e-06,2.417360580600966e-05,1.2500012402676638e-06,1.208885989421948e-06
14,9.694451842751243e-07,1.2872063421361469e-06,9.621960052958486e-07,1.3523833536703722e-06,3.3738153153926146e-06,2.8088985900566204e-06,1.5678466942225692e-06,1.4873045060764013e-06,4.872291472720939e-06,2.4365406322981075e-05,1.2013699397490653e-06,3.8020711126097835e-06,3.875570076480737e-06,2.444035258080734e-05,1.2727103270855133e-06,1.2360591698831317e-06
15,1.0213143599116166e-06,1.2821940011021277e-06,9.79699498623905e-07,1.3738254170651602e-06,3.374477433439962e-06,2.893393705337034e-06,1.608305021446435e-06,1.5615438123185423e-06,4.97328883130435e-06,2.5197050126495873e-05,1.2343623972774438e-06,3.816829537551181e-06,3.991740380452034e-06,2.458570286820729e-05,1.289892165365845e-06,1.2579438741070546e-06
16,1.0730605782671153e-06,1.271233839535271e-06,9.961351896204245e-07,1.391289267137619e-06,3.3550074998890444e-06,2.959927335247161e-06,1.638490497696428e-06,1.6384579777334543e-06,5.057996996556084e-06,2.594110236841275e-05,1.2639032193331717e-06,3.80717447037561e-06,4.105240808448094e-06,2.4625984906522288e-05,1.3024691059483985e-06,1.2745111231032898e-06
17,1.1247405685017158e-06,1.2556339359363433e-06,1.0114441281761205e-06,1.405814174851987e-06,3.3173200305710124e-06,3.008491094866554e-06,1.6590201480632386e-06,1.718181134008448e-06,5.12487452897056e-06,2.659895220980162e-05,1.290334482517868e-06,3.7783277460132823e-06,4.217849823815772e-06,2.4575881379345295e-05,1.3112381676613454e-06,1.2859139849521937e-06
18,1.176405613012472e-06,1.2365367966394385e-06,1.0256325617355918e-06,1.4185067681630977e-06,3.263761957381291e-06,3.039756070610542e-06,1.6708511220090553e-06,1.8006905767799343e-06,5.172626023740865e-06,2.716918600089877e-05,1.3138327352807074e-06,3.7350514664923273e-06,4.330609439989851e-06,2.4448365386959388e-05,1.3169297863416813e-06,1.292483302954618e-06
19,1.2280596979215608e-06,1.2149025461137014e-06,1.0388870298418192e-06,1.430467436410787e-06,3.196934817932966e-06,3.0551374852843317e-06,1.6751144133798644e-06,1.8859112441108134e-06,5.200855239406927e-06,2.76476820425676e-05,1.334359484082076e-06,3.681445395608864e-06,4.443684237393973e-06,2.4256357625874318e-05,1.3201663912725043e-06,1.294655013082158e-06
20,1.2796675904149684e-06,1.1915509957844105e-06,1.0515505678812469e-06,1.442703331692479e-06,3.11952710362339e-06,3.0564703163668087e-06,1.6729172163249497e-06,1.97378601919582e-06,5.210073168470102e-06,2.8030394818875697e-05,1.351676179504018e-06,3.6209161928645265e-06,4.556339992531432e-06,2.401365466871916e-05,1.321387845079908e-06,1.2929312920681143e-06
21,1.3311729176960876e-06,1.1672027107487067e-06,1.0639958812850457e-06,1.456104483763333e-06,3.0341758730718336e-06,3.0455471966954716e-06,1.6652673347279402e-06,2.0642146581913287e-06,5.2010043958920305e-06,2.8317189115404872e-05,1.3653776889205927e-06,3.556198041490702e-06,4.666997600426076e-06,2.3733672338026925e-05,1.3208588674696297e-06,1.2878885542660837e-06
22,1.3824945439137579e-06,1.1425039832589206e-06,1.0765297887850463e-06,1.4714311779694933e-06,2.943366697974899e-06,3.023894238399629e-06,1.6530461605206316e-06,2.156899161569209e-06,5.1738301164247175e-06,2.85127795286558e-05,1.3749341360950522e-06,3.4894033801064784e-06,4.773287704587551e-06,2.3427260566991616e-05,1.3187397294159084e-06,1.2801730833876143e-06
23,1.433574136154742e-06,1.1180466786908382e-06,1.0893652639886365e-06,1.4892657766705249e-06,2.8494073442719265e-06,2.9928641407176945e-06,1.6369232355058704e-06,2.2512212075673047e-06,5.1280027645547246e-06,2.862391293218837e-05,1.3798044660345683e-06,3.4222113442739005e-06,4.872188895677787e-06,2.3101665550785346e-05,1.3151042116772656e-06,1.2705036108398712e-06
24,1.4844850453456375e-06,1.0943493363253048e-06,1.1026077044614632e-06,1.5099912082609076e-06,2.7544324626533157e-06,2.9537448559468816e-06,1.6173054807028465e-06,2.346197811141018e-06,5.062519870152441e-06,2.8657036959047832e-05,1.3796568209311776e-06,3.3561626572803972e-06,4.960440263212318e-06,2.2761252332952104e-05,1.3098904830783068e-06,1.2596567760197946e-06
25,1.535459425309206e-06,1.0717900891419047e-06,1.1162517874748546e-06,1.533812728248541e-06,2.6603660336343352e-06,2.907671340644244e-06,1.5944608564704318e-06,2.4404438766938744e-06,4.9762877605730235e-06,2.861949042751521e-05,1.3745715572848724e-06,3.2928438634149924e-06,5.035211289727138e-06,2.240949669530156e-05,1.302908325522322e-06,1.248420680132458e-06
26,1.586744209584806e-06,1.0505590280719395e-06,1.1302035061682864e-06,1.560752798497578e-06,2.5688553227359874e-06,2.855472642067624e-06,1.5687625817190774e-06,2.532158758577877e-06,4.868790073505826e-06,2.8521310703774226e-05,1.3650308808959242e-06,3.2338360442374006e-06,5.0947164539952e-06,2.2051370566215465e-05,1.2939826734849708e-06,1.2375704879125293e-06
27,1.6384298086972407e-06,1.030718406363156e-06,1.1443141882724954e-06,1.5905994044366667e-06,2.4812221562848313e-06,2.7976624781853024e-06,1.5408206390800636e-06,2.6192557198099245e-06,4.741079152967502e-06,2.837424511716601e-05,1.3516918666613217e-06,3.1805139530693987e-06,5.138347693791753e-06,2.1694772264703696e-05,1.2831506801303957e-06,1.227841090725463e-06
28,1.6904653267428464e-06,1.0123787674912363e-06,1.1584156167980758e-06,1.6228721012834954e-06,2.398456560195264e-06,2.7345878558441316e-06,1.5113795996018682e-06,2.6995648262083752e-06,4.59617965011523e-06,2.818864049718911e-05,1.3351561703109881e-06,3.133881567581294e-06,5.166154307307954e-06,2.1350120796546574e-05,1.2707643446943345e-06,1.2198906483616012e-06
29,1.7428438141562026e-06,9.958379538061617e-07,1.1723541499055365e-06,1.65685063671339e-06,2.3212916046878273e-06,2.6665872474183877e-06,1.4811121314023398e-06,2.7708849779921602e-06,4.438376058357323e-06,2.797047727564117e-05,1.3158985323947762e-06,3.0945592723470227e-06,5.178072355751628e-06,2.1028592547257242e-05,1.2574381523675894e-06,1.214312940572144e-06
30,1.7956970306524246e-06,9.815334431029398e-07,1.186050219859858e-06,1.6916408312668675e-06,2.2503127855451893e-06,2.594036212590158e-06,1.4504692461894442e-06,2.830963048822757e-06,4.272069657273441e-06,2.771970352818933e-05,1.2943089465319592e-06,3.0628225498768245e-06,5.173492624262459e-06,2.0740111097080863e-05,1.2438959234840573e-06,1.2116817913001329e-06
31,1.849174661125186e-06,9.69902213427818e-07,1.1996006884146382e-06,1.726265781538201e-06,2.1859710573838506e-06,2.5173089204427117e-06,1.419626849253008e-06,2.87773882522374e-06,4.1010951793244305e-06,2.7429811779396353e-05,1.2707125305481645e-06,3.038574983867948e-06,5.151309242376319e-06,2.049184200662074e-05,1.230808164013211e-06,1.212558423548155e-06
32,1.9033060436099809e-06,9.61307926449922e-07,1.213328914531906e-06,1.7598150915962145e-06,2.1285123420433636e-06,2.436796839849151e-06,1.3885429613593834e-06,2.9098610785186767e-06,3.928702297491825e-06,2.7088622930786027e-05,1.2453357999982278e-06,3.0213471102604467e-06,5.110287921584746e-06,2.0287546492548372e-05,1.2186849937115311e-06,1.2174223142659847e-06
33,1.95798368475347e-06,9.56018565348668e-07,1.2276854119186856e-06,1.7916253997572543e-06,2.0779530297023966e-06,2.3530643482056365e-06,1.3571473538467232e-06,2.9270846371472943e-06,3.7578138108704214e-06,2.6680926047992052e-05,1.2183104872875991e-06,3.0103928266867066e-06,5.049604189495419e-06,2.0127954238023192e-05,1.2078544312800165e-06,1.226577442479093e-06
34,2.012951333597621e-06,9.542058288243067e-07,1.2431084026267392e-06,1.8213738611354361e-06,2.0341240957481266e-06,2.2670121197503514e-06,1.3255625010949872e-06,2.9302273893816723e-06,3.591113869249691e-06,2.619290386800193e-05,1.1897462398801254e-06,3.0048228326307747e-06,4.969321653189927e-06,2.001194125913159e-05,1.198500849511296e-06,1.240130452953659e-06
35,2.067750911969233e-06,9.560031976685723e-07,1.2599722879327827e-06,1.8489815548955144e-06,1.9967037204492284e-06,2.1798333073178945e-06,1.2941551314764533e-06,2.920700384554499e-06,3.4308849200801543e-06,2.5616102319724674e-05,1.1597942004865845e-06,3.00376951286177e-06,4.870576613005464e-06,1.9937867742407442e-05,1.1906962609969612e-06,1.2580269748112855e-06
36,2.1216991997063638e-06,9.615717011631648e-07,1.2785694501847117e-06,1.8743801434046417e-06,1.965189780923686e-06,2.09275611243144e-06,1.263368674948509e-06,2.899944807579126e-06,3.278837209528312e-06,2.4947865771723725e-05,1.1286624618743296e-06,3.0066027280219685e-06,4.755452664835694e-06,1.9904347161701016e-05,1.1844070569654723e-06,1.2800567747595947e-06
37,2.1738816472785354e-06,9.711048645020917e-07,1.2990939762433942e-06,1.8973807626661702e-06,1.9388771487997603e-06,2.006800551333954e-06,1.2335222862181227e-06,2.86914158448194e-06,3.1360903110853712e-06,2.4188032846274484e-05,1.096618210974375e-06,3.013127294354689e-06,4.6266874387720295e-06,1.9909945110710578e-05,1.179530413805841e-06,1.3058174280176833e-06
38,2.223202716708265e-06,9.848112540659634e-07,1.3216531589278101e-06,1.9177950006886036e-06,1.9169654752246804e-06,1.9227156223429843e-06,1.2047668438949794e-06,2.8292112302773222e-06,3.0032109951115713e-06,2.3335896432366694e-05,1.0639797786577291e-06,3.0236708976085095e-06,4.487282915396045e-06,1.9951842567072782e-05,1.1759851803284255e-06,1.334692928771911e-06
39,2.268558212799001e-06,1.0029073434392218e-06,1.346250436488971e-06,1.9356428818873934e-06,1.8987502805179822e-06,1.8410382854222465e-06,1.1771995450182064e-06,2.7808748246220628e-06,2.880242823709716e-06,2.239076123139397e-05,1.0310811192993008e-06,3.039040215154671e-06,4.340065044054248e-06,2.002443617729111e-05,1.1737731211543776e-06,1.3658976274171742e-06
40,2.3089898242066157e-06,1.0255852027208431e-06,1.372709438932849e-06,1.951216230252508e-06,1.8836741366099392e-06,1.7621445388525103e-06,1.1510146715322478e-06,2.7247222750548835e-06,2.766829246610941e-06,2.135492233143535e-05,9.982521072322266e-07,3.0603817155467816e-06,4.187426145299203e-06,2.011936619137876e-05,1.1729196578867989e-06,1.3986288666538859e-06
41,2.3436739703656437e-06,1.0529624735793225e-06,1.4006039801791892e-06,1.9649494326031186e-06,1.871240142005252e-06,1.6862445252045113e-06,1.126584463617334e-06,2.6614210446215775e-06,2.6623941783141526e-06,2.0236332680015498e-05,9.65833077845071e-07,3.0889541236823982e-06,4.031331168015534e-06,2.0227611262457126e-05,1.1733857711579041e-06,1.432290687798828e-06
42,2.3718343583832886e-06,1.085062679728273e-06,1.4292343040826826e-06,1.9772038628064594e-06,1.8610519080471296e-06,1.613368288353356e-06,1.10442500774051e-06,2.592045367926787e-06,2.5661947233652026e-06,1.9049223882314475e-05,9.341977283215597e-07,3.125833336288893e-06,3.873264176156599e-06,2.0342472311991996e-05,1.1751246443781005e-06,1.46660925074656e-06
43,2.3927580348017004e-06,1.1218119456565655e-06,1.4576374978089923e-06,1.9881792552475773e-06,1.8529936128581602e-06,1.5434705197997535e-06,1.0850736711501433e-06,2.5182654866593843e-06,2.4773385956080743e-06,1.7812149431285655e-05,9.037709602067391e-07,3.171718143917765e-06,3.714088468103677e-06,2.0461172601167462e-05,1.1782310407525269e-06,1.501505648657858e-06
44,2.4059401504425682e-06,1.1630139965929026e-06,1.484676643723299e-06,1.9980597024781506e-06,1.847258461136827e-06,1.4766973123431872e-06,1.0689736802168193e-06,2.4421891782526365e-06,2.394905298899388e-06,1.654479409751571e-05,8.749877300944373e-07,3.2269253478521487e-06,3.554294910833263e-06,2.0583959765094245e-05,1.1829672777742516e-06,1.5368549627991656e-06
45,2.4111613857015384e-06,1.2083338892398335e-06,1.5092858090817583e-06,2.0071697912488445e-06,1.8441731451953124e-06,1.4135972375300922e-06,1.0564346484268373e-06,2.3659836103316925e-06,2.317943755415828e-06,1.526556393884549e-05,8.482104497012236e-07,3.2914091184276786e-06,3.3946415938505724e-06,2.071172751808004e-05,1.189631676189419e-06,1.572383791665211e-06
46,2.4083753300825783e-06,1.2573347039821421e-06,1.5307930429313006e-06,2.0159089488621935e-06,1.8440690564852997e-06,1.355055522476385e-06,1.0476322365914678e-06,2.291607251711478e-06,2.2452644768394374e-06,1.3990646119436843e-05,8.237142641646179e-07,3.364745039930622e-06,3.2364760005928104e-06,2.0843633318641074e-05,1.1984150670650538e-06,1.6077371549360766e-06
47,2.3976261388179953e-06,1.3095224245333666e-06,1.5490836383055227e-06,2.0245992645715786e-06,1.8472837924410218e-06,1.3020647694580587e-06,1.0425970033936014e-06,2.2207793990653015e-06,2.17538471011678e-06,1.2733987226771306e-05,8.017339290813427e-07,3.446163660067018e-06,3.08140103663452e-06,2.097537104413659e-05,1.2093179940714016e-06,1.6425316816500558e-06
48,2.3791587074839098e-06,1.364351552337063e-06,1.564461625589364e-06,2.033429037841457e-06,1.8541550632925719e-06,1.2555710054161573e-06,1.04122233639305e-06,2.1550402039074073e-06,2.1068545789123962e-06,1.1507415804606035e-05,7.824964242418494e-07,3.5345649930903098e-06,2.9307875924990683e-06,2.1098242812396068e-05,1.2221102263581267e-06,1.6763270515038323e-06
49,2.353519908790183e-06,1.4212541608174183e-06,1.577336619216947e-06,2.0424198876106302e-06,1.8649391628892096e-06,1.2164090779555928e-06,1.0433027496296868e-06,2.0957432348626285e-06,2.0386890438865252e-06,1.0320563567409914e-05,7.662187279920422e-07,3.628489031438103e-06,2.7855859165217446e-06,2.1198929101638164e-05,1.236325530810817e-06,1.7086382881674303e-06
50,2.321494820207121e-06,1.4797209531744957e-06,1.5880077311353407e-06,2.0513504157906076e-06,1.8796951836993106e-06,1.1852461683517898e-06,1.0485408908087868e-06,2.04395478268027e-06,1.9704591801964703e-06,9.180832216836936e-06,7.530751614857811e-07,3.726202973945022e-06,2.646341337840922e-06,2.126011914937242e-05,1.2512938789989369e-06,1.7390509773672677e-06
51,2.28394538470578e-06,1.5393533287210725e-06,1.5966699777771455e-06,2.059724450072698e-06,1.8981879086326242e-06,1.1625674048281306e-06,1.0565150622777787e-06,2.0003453446088146e-06,1.9019996966793788e-06,8.093700210399247e-06,7.431735972034632e-07,3.8259281928884985e-06,2.5133301392984846e-06,2.126261671347141e-05,1.2662205565360076e-06,1.7673369213585687e-06
52,2.2416874824852908e-06,1.599876549048712e-06,1.6034999555226838e-06,2.0668790895651246e-06,1.919843955707321e-06,1.148719859002136e-06,1.0666681555217957e-06,1.9651580666094406e-06,1.8331163254148555e-06,7.063191044676246e-06,7.365695697296532e-07,3.92605929556131e-06,2.386837999362084e-06,2.1188697326454288e-05,1.2803118772435237e-06,1.793465938005649e-06
53,2.195551502050313e-06,1.6611713964967464e-06,1.608643475388224e-06,2.0721898761716253e-06,1.94376269666632e-06,1.1439400865021278e-06,1.0783744080895865e-06,1.9382613252334596e-06,1.7635477447553453e-06,6.092200595174383e-06,7.332762186652593e-07,4.025307544026378e-06,2.2673391144283027e-06,2.102506577988076e-05,1.292857077373128e-06,1.817506511402449e-06
54,2.1465282550461284e-06,1.7232822162144083e-06,1.6121599662905686e-06,2.075184246377353e-06,1.9687859419242386e-06,1.1483663691360311e-06,1.091120035804386e-06,1.919293711142247e-06,1.6930816521284956e-06,5.182708353245851e-06,7.332577328986044e-07,4.122720002070195e-06,2.155421705517074e-06,2.0763733254669915e-05,1.3031822929031978e-06,1.8394962389576004e-06
55,2.095725559936528e-06,1.786311611887038e-06,1.6140890259498975e-06,2.0754491702752073e-06,1.9936308441937397e-06,1.1620859977133233e-06,1.104724967686423e-06,1.9079085505373842e-06,1.6216765133107377e-06,4.336026161020934e-06,7.364295748049167e-07,4.217458725967518e-06,2.051711328474758e-06,2.040037191241707e-05,1.3105791293380625e-06,1.8594047654838474e-06
56,2.0442177191476644e-06,1.8502360622525092e-06,1.614638863554747e-06,2.072478686154564e-06,2.01700475724543e-06,1.1851553803293692e-06,1.119423271419961e-06,1.9040033545386363e-06,1.5495654713839956e-06,3.5530564617997196e-06,7.426535838063445e-07,4.308381360090089e-06,1.956917981925468e-06,1.993141201440772e-05,1.3143550674615858e-06,1.877221873451251e-06
57,1.9930384811050668e-06,1.9148235400371074e-06,1.6143488468415034e-06,2.065699824180239e-06,2.0375927445438245e-06,1.2175441792366193e-06,1.1357260201615363e-06,1.9077401536562373e-06,1.4773244470359007e-06,2.8344807878939255e-06,7.517375411184899e-07,4.393722862851236e-06,1.8718005931059722e-06,1.9352821817259834e-05,1.3139676794676604e-06,1.8930794591650188e-06
58,1.94322524604853e-06,1.979791558032482e-06,1.6140983400884832e-06,2.0546948093325707e-06,2.053962564813647e-06,1.2590834662628154e-06,1.1542037857121279e-06,1.9193160999770136e-06,1.4058226417487539e-06,2.1809791599596484e-06,7.634463585758597e-07,4.471144502545051e-06,1.7970179421690398e-06,1.866267293336907e-05,1.3091130117206982e-06,1.9073131018566742e-06
59,1.8957498268547865e-06,2.0450990998833325e-06,1.6149306502348795e-06,2.0394207426376942e-06,2.0646039119279335e-06,1.3094591130627193e-06,1.1753531452879581e-06,1.9386941987194877e-06,1.3360345066675467e-06,1.5935890403832912e-06,7.774813025204761e-07,4.5380930695434605e-06,1.7330508281036443e-06,1.786569869512127e-05,1.299748748019388e-06,1.9204046665645374e-06
60,1.8513776290169447e-06,2.1110997179656406e-06,1.6177919837369011e-06,2.020277560224342e-06,2.0682135341467333e-06,1.3682158321117735e-06,1.1995682927293092e-06,1.9654997170805107e-06,1.2688446712830034e-06,1.0740205937956342e-06,7.934340558867089e-07,4.592183886346618e-06,1.6802788630392527e-06,1.6975844861936527e-05,1.2861216982042478e-06,1.93280837721046e-06
61,1.8105500521635597e-06,2.17840761264997e-06,1.6233486203140143e-06,1.997999364590722e-06,2.064047820835644e-06,1.4347887923999785e-06,1.2271574379750147e-06,1.999042644821431e-06,1.204982514865315e-06,6.246567495532422e-07,8.107843013342527e-07,4.631410698218035e-06,1.6391760108778674e-06,1.601488617039677e-05,1.2687720442588222e-06,1.944808750041105e-06
62,1.7733756537569037e-06,2.2476298044747895e-06,1.6319560817519817e-06,1.9734187685813834e-06,2.052129558649848e-06,1.5085606594946604e-06,1.2583349734145917e-06,2.0383247490245503e-06,1.145116164922093e-06,2.483441162573258e-07,8.289444474712816e-07,4.654231779484003e-06,1.6104492433560716e-06,1.5008511098067717e-05,1.248419227061634e-06,1.9565122968677725e-06
63,1.7397530168715995e-06,2.3192613509561737e-06,1.6437234140482168e-06,1.947269362493046e-06,2.0332689438744046e-06,1.5888533485777206e-06,1.2931591294223118e-06,2.082012209390534e-06,1.0900365552327228e-06,-5.1633352975204414e-08,8.472865831711288e-07,4.659704002528432e-06,1.594944595048522e-06,1.3982500192375243e-05,1.2258141525259618e-06,1.9678659270898816e-06
64,1.7094986011746781e-06,2.3937798899300575e-06,1.6585675730752029e-06,1.920170637059838e-06,2.0089161408842863e-06,1.6748445790017289e-06,1.3314683064732965e-06,2.128454687908698e-06,1.040758798588723e-06,-2.7127560578278044e-07,8.651582236637437e-07,4.647717175452921e-06,1.593421133335766e-06,1.2960452784586728e-05,1.2017117749862174e-06,1.978663433022953e-06
65,1.6823765774584882e-06,2.471664171425154e-06,1.676216775395906e-06,1.892702326259662e-06,1.980858534012728e-06,1.7655455470271675e-06,1.3728591090859154e-06,2.17582819421635e-06,9.984524801412858e-07,-4.0557884623141777e-07,8.819939115766806e-07,4.619172634496104e-06,1.6063947925979948e-06,1.1962956059103789e-05,1.1769109099309671e-06,1.9886400008654124e-06
66,1.6581333061763291e-06,2.5532153151769885e-06,1.696229774380756e-06,1.8653914271304252e-06,1.9508496225586985e-06,1.859924003569182e-06,1.416679173195063e-06,2.222388324403749e-06,9.643341322923957e-07,-4.485297678641551e-07,8.975312782865213e-07,4.57593605020314e-06,1.6340900166000186e-06,1.1007532895159828e-05,1.1522308187377694e-06,1.99761923371244e-06
67,1.6366067808972293e-06,2.6383557924959536e-06,1.7180627727658342e-06,1.8385974996720685e-06,1.9203287014108375e-06,1.9570898548446436e-06,1.4620304446800015e-06,2.2667011568148633e-06,9.396178045474184e-07,-3.933535179941313e-07,9.119189879162594e-07,4.520567630412328e-06,1.6764551160105892e-06,1.0108883262330945e-05,1.1284078915632373e-06,2.0055355786015533e-06
68,1.6177669690538975e-06,2.7265356657714337e-06,1.741094664727509e-06,1.8123931394213472e-06,1.890320649665621e-06,2.0564147300203192e-06,1.5078518177280473e-06,2.307736067327797e-06,9.254584612183241e-07,-2.3278857059881554e-07,9.25557512427152e-07,4.455936402630792e-06,1.733226158912551e-06,9.279230908954987e-06,1.1059951084280808e-06,2.0122816566654885e-06
69,1.6016016952100415e-06,2.8167549775938725e-06,1.7646059287949435e-06,1.7865369635513912e-06,1.8614535415113184e-06,2.1575369338145566e-06,1.5530916213616613e-06,2.3447729103906556e-06,9.228969515416815e-07,4.078560489487276e-08,9.388350819044902e-07,4.3848148303862205e-06,1.8040224068309552e-06,8.528664060025171e-06,1.0853482059130889e-06,2.017581472682485e-06
70,1.5879715131729897e-06,2.907741527954442e-06,1.7878063005253735e-06,1.7606122740758086e-06,1.8340120509263182e-06,2.2602840848661357e-06,1.5968185626632303e-06,2.37718446747077e-06,9.329312434698488e-07,4.353693857792921e-07,9.519846765723207e-07,4.309534210894402e-06,1.8883866392777033e-06,7.865334415597956e-06,1.0666746086868642e-06,2.0210759326371127e-06
71,1.5765529647041825e-06,2.998268644244943e-06,1.8098556578461614e-06,1.7343193148859863e-06,1.8080257466686363e-06,2.3645646959056177e-06,1.6382050860658806e-06,2.4043846583066533e-06,9.567253807618043e-07,9.593895966191506e-07,9.650553751211699e-07,4.231745832875667e-06,1.9857202125441085e-06,7.295574068952624e-06,1.0500804054224446e-06,2.022508553430104e-06
72,1.566859868308181e-06,3.0874265133857157e-06,1.8297981360082762e-06,1.7077623453826838e-06,1.783356384120753e-06,2.4702435950700936e-06,1.6765657479871042e-06,2.4260877597072083e-06,9.957701013784506e-07,1.6216266806384173e-06,9.779029062647187e-07,4.152291091260719e-06,2.0952728092317525e-06,6.8241233806466615e-06,1.0356040683238137e-06,2.021783040315586e-06
73,1.5583469305535642e-06,3.1746079580435497e-06,1.8465578656303568e-06,1.6815150651755891e-06,1.7597013744718473e-06,2.5769995395959234e-06,1.7115214542627705e-06,2.4424962427016427e-06,1.0518454227394547e-06,2.430966018382804e-06,9.901806821534096e-07,4.0712265792623516e-06,2.2163350061127176e-06,6.454438763374548e-06,1.0232323267349116e-06,2.018861711242555e-06
74,1.5506313436921986e-06,3.259192646581954e-06,1.8591665076478193e-06,1.6564128714048427e-06,1.7365803950029944e-06,2.684215598821437e-06,1.7431185641192407e-06,2.4540804164940993e-06,1.1268653346294473e-06,3.396070144297312e-06,1.0013701615300666e-06,3.988079806784143e-06,2.348446316978509e-06,6.188881706092739e-06,1.012895428860126e-06,2.013653162613715e-06
75,1.5436871868453952e-06,3.3402639713913473e-06,1.8671389262549087e-06,1.6332496655576583e-06,1.7134811730541053e-06,2.7909856870515075e-06,1.771857375835511e-06,2.461215229652218e-06,1.2227593064386667e-06,4.5250896690613944e-06,1.010904460037227e-06,3.902332680909243e-06,2.4913448395974487e-06,6.028757316609235e-06,1.0044536721142691e-06,2.0060195091643327e-06
76,1.537806367783258e-06,3.4166733486774033e-06,1.8707287566116843e-06,1.612576288321103e-06,1.6901691058330474e-06,2.896217903348146e-06,1.7987010431500126e-06,2.4640250466763046e-06,1.3414297655024759e-06,5.825434933698805e-06,1.0183556359362905e-06,3.8140164856460843e-06,2.644759542801681e-06,5.974374420697841e-06,9.97688158238792e-07,1.9959068558286886e-06
77,1.533384047794506e-06,3.487360005919092e-06,1.8708474199110391e-06,1.5946523778260203e-06,1.6669794888422004e-06,2.998670489431839e-06,1.8249757697387986e-06,2.4623676867432267e-06,1.4847305271044426e-06,7.303569126226306e-06,1.0235649271927472e-06,3.7241427130093397e-06,2.808328197255104e-06,6.025232784020091e-06,9.923153759529601e-07,1.983492443133152e-06
78,1.530737821114715e-06,3.5516342910361107e-06,1.8686898790603335e-06,1.5795032861226228e-06,1.644937979154624e-06,3.096846643811594e-06,1.8520849895727913e-06,2.455851693516918e-06,1.6544469342193178e-06,8.9647760471111e-06,1.0266590495432256e-06,3.634652091796676e-06,2.9816061569045328e-06,6.180243271853732e-06,9.880253875620949e-07,1.9692045707879604e-06
79,1.5300266959390336e-06,3.6092718961846045e-06,1.8653446724354037e-06,1.567018325678551e-06,1.625656842473059e-06,3.1889405506164625e-06,1.8812033650668535e-06,2.4439868172132653e-06,1.8522880706155841e-06,1.081291720913466e-05,1.0279705096127794e-06,3.54788662863211e-06,3.163980800147956e-06,6.437852791826742e-06,9.845313912028114e-07,1.9535536662738746e-06
80,1.531237686124092e-06,3.6604506101129422e-06,1.8615942056735108e-06,1.5570290867251264e-06,1.6110528591218939e-06,3.273011048390231e-06,1.913127677931904e-06,2.4264369408089062e-06,2.07982688866385e-06,1.2850187852567368e-05,1.0278942948782599e-06,3.4659565654596634e-06,3.354528264339979e-06,6.796038691402647e-06,9.81639292871199e-07,1.9368878065101265e-06
81,1.5342439452673832e-06,3.7056375391120307e-06,1.8578790889059136e-06,1.549317194401041e-06,1.6030275366071878e-06,3.3473003497821528e-06,1.9482550902597265e-06,2.4031566665783595e-06,2.3383810754007525e-06,1.5076777131113858e-05,1.0267831753942681e-06,3.3903346389655846e-06,3.5519240954932447e-06,7.2521715015493615e-06,9.793170084282899e-07,1.919233087937786e-06
82,1.5388782275010857e-06,3.745483904322233e-06,1.8543241168987149e-06,1.5435713464385714e-06,1.603245516720122e-06,3.410558146973926e-06,1.9866043099782185e-06,2.3743024376960473e-06,2.628919318733882e-06,1.749038707071577e-05,1.024952291586698e-06,3.321732986870827e-06,3.7544373248305525e-06,7.80272058007931e-06,9.776882240753705e-07,1.9002722739790716e-06
83,1.5449325129360265e-06,3.7807228168639328e-06,1.8508122852520094e-06,1.5393874973655753e-06,1.6130611708338406e-06,3.462306916013767e-06,2.0278504548634876e-06,2.3400399310367046e-06,2.951982805204073e-06,2.008572304756045e-05,1.0227027902364443e-06,3.260199500210773e-06,3.959932871010056e-06,8.442844170716633e-06,9.76930908046549e-07,1.8794738595707879e-06
84,1.552145646794653e-06,3.8120646856170843e-06,1.847125325475573e-06,1.5363635781081208e-06,1.6335644542309951e-06,3.5029711916761106e-06,2.0713560098983464e-06,2.300467659538215e-06,3.3075942578087633e-06,2.285408755217801e-05,1.0202785945880525e-06,3.20538759162878e-06,4.165727848049341e-06,9.166066978900768e-06,9.77187050016146e-07,1.8563486007059817e-06
85,1.5602313763385163e-06,3.840064315916768e-06,1.8430520676043964e-06,1.534239650058219e-06,1.6656422641075687e-06,3.5337906876130415e-06,2.1161960490949356e-06,2.255744731389094e-06,3.6951874159323207e-06,2.5783105467244727e-05,1.0178062219188927e-06,3.1568735318183567e-06,4.368356781808926e-06,9.964204854572502e-06,9.785639973986217e-07,1.8306969620548468e-06
86,1.5688674424532052e-06,3.864912611305805e-06,1.8383531489709606e-06,1.5330118332759746e-06,1.709959225105401e-06,3.5565048844229203e-06,2.1612174170477774e-06,2.2062876327031788e-06,4.113573767932157e-06,2.8856492599521906e-05,1.0152820358478268e-06,3.114311728692306e-06,4.563486284106707e-06,1.0827455552179168e-05,9.811574051124851e-07,1.8027108517838079e-06
87,1.577663119381353e-06,3.886186355828652e-06,1.8326543366412774e-06,1.5329880655907438e-06,1.7668931856242304e-06,3.57288685628094e-06,2.205165888353365e-06,2.1528384626520772e-06,4.560984804560157e-06,3.2053653649355406e-05,1.0125893577407526e-06,3.077358615043151e-06,4.746040502716405e-06,1.1744572394317262e-05,9.85035209446993e-07,1.7729047357366865e-06
88,1.5861560919542347e-06,3.902699935146366e-06,1.8254426715738104e-06,1.5347655537721527e-06,1.8365300105229803e-06,3.5842993173688105e-06,2.2468103901780197e-06,2.0963265402654037e-06,5.03515534595328e-06,3.5348881872892807e-05,1.0095237413970197e-06,3.0454857062070372e-06,4.910544871494099e-06,1.270322761930097e-05,9.902505160730694e-07,1.7419139858020991e-06
89,1.5937861188352985e-06,3.9125805197902705e-06,1.816235303802397e-06,1.5391019399536547e-06,1.918737089791674e-06,3.5914777730459054e-06,2.284972130844528e-06,2.0376291542282947e-06,5.533259951684849e-06,3.8710491887826566e-05,1.0058402684354958e-06,3.0178174082583253e-06,5.051833107670453e-06,1.3690558230024019e-05,9.969140897888226e-07,1.710258288603571e-06
90,1.5998973051431356e-06,3.913573661019688e-06,1.8048130285865488e-06,1.5467040174856978e-06,2.013221963674526e-06,3.594608860786148e-06,2.318521860246608e-06,1.9774643162767636e-06,6.051636642684162e-06,4.2100949409557794e-05,1.001293218536749e-06,2.9931275275081776e-06,5.165893243853703e-06,1.4693359251144998e-05,1.0052268064168992e-06,1.6782112512296183e-06
91,1.6038815926411387e-06,3.903513349313596e-06,1.7913335848212067e-06,1.5580424030869858e-06,2.119508263702634e-06,3.5935732764692637e-06,2.3464944512916917e-06,1.9164995145120347e-06,6.585502472442358e-06,4.547838112909325e-05,9.956400633369895e-07,2.9700770569034224e-06,5.2501156287315225e-06,1.5697565698822152e-05,1.015415892428834e-06,1.6458309513589979e-06
92,1.6053786003971255e-06,3.880813699356907e-06,1.7762250188338734e-06,1.5732895872786587e-06,2.236888545948863e-06,3.5881893204678646e-06,2.3683466094956496e-06,1.855468987622127e-06,7.1289216692037345e-06,4.879808808703429e-05,9.886648009381493e-07,2.947496182646458e-06,5.302833434486616e-06,1.6688166797004868e-05,1.0276628142093452e-06,1.6130596949361577e-06
93,1.6043526212389959e-06,3.8447532851646495e-06,1.7599372171510206e-06,1.5923813091184845e-06,2.364385160975214e-06,3.578389425145822e-06,2.384194152842374e-06,1.7951230109278422e-06,7.67519631806233e-06,5.20122539356355e-05,9.802469313069415e-07,2.924429129310911e-06,5.323069512201153e-06,1.7650841511031148e-05,1.0420897097993308e-06,1.5797723040107482e-06
94,1.6010007523852695e-06,3.7954224427133076e-06,1.7427642776585789e-06,1.6151400033070282e-06,2.500666915855677e-06,3.564303540659063e-06,2.3948419724304055e-06,1.736106164952593e-06,8.217624118987282e-06,5.506854601410785e-05,9.703963951965887e-07,2.900054527053015e-06,5.310963960661662e-06,1.857442075252703e-05,1.0587504000651101e-06,1.5458282283530848e-06
95,1.5955612942592846e-06,3.7334845717156047e-06,1.7248593000963696e-06,1.6413955367339367e-06,2.6439790572466515e-06,3.5462207969710327e-06,2.401577880687435e-06,1.6789328460154652e-06,8.750096266228286e-06,5.791141066454678e-05,9.591868422253503e-07,2.873798737209584e-06,5.268336300944538e-06,1.9452356121074866e-05,1.0775877161084852e-06,1.5112618367218801e-06
96,1.5881154998885571e-06,3.6600217184193752e-06,1.7063241216849568e-06,1.6710528568732008e-06,2.7921957068568696e-06,3.524468789844954e-06,2.4058390664725368e-06,1.6240517996291964e-06,9.26693174518936e-06,6.048756695374911e-05,9.466471272831549e-07,2.8455723514832663e-06,5.1988210600165475e-06,2.0282476303986195e-05,1.098405952830859e-06,1.4764940365406534e-06
97,1.5784904263261663e-06,3.5765024115421065e-06,1.6872099650792905e-06,1.704070490683402e-06,2.9429379328690407e-06,3.499304031793558e-06,2.408922914295174e-06,1.5718560663156814e-06,9.762254212924617e-06,6.275171296593645e-05,9.327557326111323e-07,2.8157561347835416e-06,5.107410092875866e-06,2.1065117629516163e-05,1.1208943937898913e-06,1.4423219450755602e-06
98,1.566347317330892e-06,3.484645223916818e-06,1.6674341042729508e-06,1.7403408990920307e-06,3.093620186540333e-06,3.470807272788476e-06,2.4118673290521905e-06,1.5226031351370166e-06,1.022984685212874e-05,6.466801493739496e-05,9.175725175109052e-07,2.784882044375353e-06,4.999536940779568e-06,2.1800313088073582e-05,1.1446597441539329e-06,1.4096940926752784e-06
99,1.551433024860707e-06,3.386102595864809e-06,1.6467432529412338e-06,1.7795346631146581e-06,3.241435865718549e-06,3.438764978497452e-06,2.4154290569066676e-06,1.4764117553650605e-06,1.0663570750410696e-05,6.620627292052479e-05,9.013598460902201e-07,2.753353481972937e-06,4.880176552833115e-06,2.2485625838030138e-05,1.1692343023639992e-06,1.3794767211153225e-06
100,1.5338384726508576e-06,3.2822258298312693e-06,1.6248126498905115e-06,1.821013126540652e-06,3.3834269419054933e-06,3.4027412515939597e-06,2.4200257245515682e-06,1.4334412608386055e-06,1.1057611483900948e-05,6.733621076991936e-05,8.845843441361715e-07,2.721396680083749e-06,4.753418473620134e-06,2.3115836572233746e-05,1.1940960136550622e-06,1.3523229749199613e-06
101,1.5140582638930736e-06,3.1740665456646023e-06,1.6014021498174125e-06,1.8638291354692566e-06,3.51669504634191e-06,3.3624538879620114e-06,2.425657515183047e-06,1.3940732022963164e-06,1.1406303860823404e-05,6.802747981568907e-05,8.678459942893996e-07,2.6891521126858684e-06,4.622534257518336e-06,2.3684140304418676e-05,1.218710675939923e-06,1.3286167429426215e-06
102,1.4928059923153657e-06,3.0624571853569887e-06,1.5763910298647228e-06,1.9067622642312207e-06,3.638650535218202e-06,3.318102408837495e-06,2.4318673860829e-06,1.3588782213075116e-06,1.1703900432273876e-05,6.825822896361533e-05,8.517953164507254e-07,2.656841240643602e-06,4.490156237100457e-06,2.4184151581464683e-05,1.242578554684692e-06,1.3084643866410329e-06
103,1.4708068349115557e-06,2.9480688982741154e-06,1.549651721164671e-06,1.9483967813827614e-06,3.7471862879144223e-06,3.270267315239948e-06,2.4377577082370478e-06,1.3284431131551454e-06,1.1944599444750644e-05,6.802512361152894e-05,8.370583572767557e-07,2.6249108499437196e-06,4.358241414786298e-06,2.4612373011492927e-05,1.2652754344949438e-06,1.2917524011801742e-06
104,1.4487611609325917e-06,2.831518254055202e-06,1.5209313275504197e-06,1.9872560388126036e-06,3.840719837254933e-06,3.2194736673647427e-06,2.442081443171795e-06,1.303262783580452e-06,1.2122867193549797e-05,6.734679047353385e-05,8.24200753909736e-07,2.593957272782314e-06,4.227933246213703e-06,2.497000969106584e-05,1.286441321697683e-06,1.2782686634131e-06
105,1.4273665709041437e-06,2.713561286471529e-06,1.4898804618965876e-06,2.0219230822723437e-06,3.918021443900469e-06,3.165798936829294e-06,2.443370438688659e-06,1.2837093800429243e-06,1.2233599518847653e-05,6.625901517449689e-05,8.137381205847953e-07,2.564430301806578e-06,4.099608940330331e-06,2.5262311783664065e-05,1.3057298593632323e-06,1.2677988645594558e-06
106,1.4072383525565168e-06,2.595293146224872e-06,1.4561370274263253e-06,2.051121888258858e-06,3.9778435964975256e-06,3.1087536026188167e-06,2.4400548324909502e-06,1.2699838940699869e-06,1.2271726887756846e-05,6.480462929295791e-05,8.061375685307307e-07,2.536370775066464e-06,3.97314556765423e-06,2.5495535857040292e-05,1.322787696352433e-06,1.2601120220492209e-06
107,1.3888084020667025e-06,2.4781768784917204e-06,1.4193363439376518e-06,2.0738419943898266e-06,4.018690512178426e-06,3.047405184628981e-06,2.430618533071424e-06,1.2620854791962026e-06,1.2232341418870317e-05,6.302421939838467e-05,8.017776192609287e-07,2.5094057360250426e-06,3.8482584425669106e-06,2.5674900216321238e-05,1.3372850905726127e-06,1.2549169548666072e-06
108,1.372331249474434e-06,2.3638191623167543e-06,1.37917429524983e-06,2.089538457118609e-06,4.03902637138347e-06,2.980663387299253e-06,2.413847587972856e-06,1.2599018116468298e-06,1.2112533049265017e-05,6.095416840735209e-05,8.008996212211728e-07,2.4830239584088506e-06,3.724845457877133e-06,2.580588199409337e-05,1.3490027759715984e-06,1.2518755179048271e-06
109,1.3579548249999198e-06,2.253697296461436e-06,1.3356514792133234e-06,2.098286407898145e-06,4.037703039030537e-06,2.9076426955222868e-06,2.3891160138887503e-06,1.263386742927248e-06,1.191359341357889e-05,5.863163870178263e-05,8.035815745795079e-07,2.45695859983316e-06,3.6033551307685716e-06,2.589654192572325e-05,1.3578940940272956e-06,1.2505932097990826e-06
110,1.345752550168734e-06,2.149055128801866e-06,1.2892702590912471e-06,2.1007617273558415e-06,4.014268207211141e-06,2.8279446658900387e-06,2.3565422870832294e-06,1.2726513691978743e-06,1.1641373429439607e-05,5.6098707997138784e-05,8.097370368098676e-07,2.4314003132468782e-06,3.48508349542127e-06,2.595769120759196e-05,1.3640277969127678e-06,1.2505861373149802e-06
111,1.3357220341205422e-06,2.0508933443883656e-06,1.2409312780373857e-06,2.098069923203054e-06,3.969161614718738e-06,2.741738734979507e-06,2.316893751969146e-06,1.2878715462310275e-06,1.1304542276811399e-05,5.340034367471431e-05,8.191207179817428e-07,2.4068882927449537e-06,3.3721456584813533e-06,2.6000642401652962e-05,1.367501129965552e-06,1.251337594475839e-06
112,1.327810633308113e-06,1.959961329534831e-06,1.1916569551512405e-06,2.0915041662516174e-06,3.903859324808479e-06,2.6496666921770634e-06,2.271312475639987e-06,1.309112063328658e-06,1.0912208268567495e-05,5.0579167854385324e-05,8.31338754753879e-07,2.384039561093736e-06,3.26702704268076e-06,2.6034452672469423e-05,1.3684170513517379e-06,1.2524292168018897e-06
113,1.3219333279462848e-06,1.8768061016391217e-06,1.142421220868607e-06,2.0822804954801737e-06,3.82082063796243e-06,2.5526515916309506e-06,2.221044940416884e-06,1.3362091009944635e-06,1.0472576570719573e-05,4.7672814838520605e-05,8.459134159981136e-07,2.3634400889531643e-06,3.172010822744967e-06,2.6064963222785756e-05,1.3668602436955126e-06,1.2536448829799169e-06
114,1.317932350495083e-06,1.8018266213694984e-06,1.0941355714960394e-06,2.0713440323253776e-06,3.7231137294251183e-06,2.451650716634038e-06,2.1672541410207006e-06,1.3687316242824745e-06,9.993084809908217e-06,4.471530647467367e-05,8.623993423157553e-07,2.3458127405969445e-06,3.0888560862131096e-06,2.6096500065870035e-05,1.362861400136131e-06,1.2549688076311377e-06
115,1.3155333602885761e-06,1.7352355160265922e-06,1.0476515864509399e-06,2.059301341008203e-06,3.6138638648381082e-06,2.3474265347792793e-06,2.1109150711861064e-06,1.4059824071522857e-06,9.481056663273208e-06,4.1739522377316975e-05,8.80449779696346e-07,2.33223302984525e-06,3.0187778533832517e-06,2.6134988711583018e-05,1.3564580753021825e-06,1.2564723122651214e-06
116,1.3143735650787815e-06,1.677028637626022e-06,1.003714885903195e-06,2.0463867804852905e-06,3.495896458414396e-06,2.240469162125325e-06,2.0528528995621836e-06,1.4470336137370245e-06,8.94406278005189e-06,3.8778073096641e-05,8.997930293185372e-07,2.3241131698958467e-06,2.9625213340881813e-06,2.619031190771992e-05,1.3478409220507475e-06,1.2582408707477826e-06
117,1.314123923564316e-06,1.627083955618573e-06,9.629185844811607e-07,2.0324102070860027e-06,3.3717884429138828e-06,2.1310857700248296e-06,1.9938855438269424e-06,1.4907886983068259e-06,8.389966935072533e-06,3.5861971352597966e-05,9.201782881130144e-07,2.3229689231608673e-06,2.9203563295070266e-06,2.627616592537751e-05,1.3374268873454473e-06,1.2604260979039927e-06
118,1.3146120969551374e-06,1.585292668924402e-06,9.256801138474338e-07,2.0167618974092262e-06,3.244111254284452e-06,2.0195437104391237e-06,1.934857491331422e-06,1.5360485093398873e-06,7.826694589042635e-06,3.3017927757033225e-05,9.413255371863892e-07,2.3301884035814806e-06,2.8919874500514124e-06,2.6407256595022058e-05,1.3257715813640666e-06,1.2632526458388062e-06
119,1.3157795441758073e-06,1.5515660358972805e-06,8.922312535014452e-07,1.9985462011950435e-06,3.1155521738973106e-06,1.9062251413509663e-06,1.8765066587403891e-06,1.5816052346646335e-06,7.261707829238582e-06,3.0266135224394465e-05,9.629240271161985e-07,2.3469134425671176e-06,2.876479984907392e-06,2.6595593547646974e-05,1.3133881534907598e-06,1.2669062310341055e-06
120,1.3174959533023913e-06,1.525733196010127e-06,8.626356923222105e-07,1.976841923055622e-06,2.988847412167093e-06,1.791794027563129e-06,1.819332071199751e-06,1.6263931381186101e-06,6.701553114871785e-06,2.7620193784536398e-05,9.847354231579476e-07,2.3740366481794926e-06,2.872291617430669e-06,2.6848074310420218e-05,1.3005975621716105e-06,1.2714770591256958e-06
121,1.3194298464889331e-06,1.5074557117571087e-06,8.368467883840993e-07,1.950993793437883e-06,2.8666043077977266e-06,1.6772880695693908e-06,1.7635606081486587e-06,1.669642745512663e-06,6.15188376301347e-06,2.508919730871553e-05,1.0067093829945884e-06,2.412275055482179e-06,2.877490130646133e-06,2.7166061805682988e-05,1.2874914525194386e-06,1.277005007671691e-06
122,1.3210530868567262e-06,1.4962251928631775e-06,8.147710714919541e-07,1.9208063733355127e-06,2.751095925697587e-06,1.5640443090878465e-06,1.709218079046996e-06,1.7109465802705815e-06,5.61773178949477e-06,2.268058893650287e-05,1.0289687013623197e-06,2.4621867693601754e-06,2.8901700633240848e-06,2.75458108542219e-05,1.2739922533762996e-06,1.28348495520016e-06
123,1.321749050843761e-06,1.4914243264779281e-06,7.962808179934067e-07,1.8866073146037254e-06,2.644105152212055e-06,1.4534906299476106e-06,1.656276995186716e-06,1.7502117310153212e-06,5.103551732013379e-06,2.0401977442515144e-05,1.051694066555257e-06,2.524114784822736e-06,2.908862784387489e-06,2.7978571226662416e-05,1.259942631589204e-06,1.2908422019747122e-06
124,1.3210077006205187e-06,1.4923728539532282e-06,7.8118057084853e-07,1.8492156545791559e-06,2.5468772742163073e-06,1.3469409552976501e-06,1.604745413020233e-06,1.7875368226173826e-06,4.613016152255493e-06,1.8260903618336902e-05,1.075028847641978e-06,2.5981973948120298e-06,2.9326478075330586e-06,2.8450905943676756e-05,1.2452166282564195e-06,1.298967375147137e-06
125,1.3185838632582658e-06,1.4983058070505112e-06,7.692053976528294e-07,1.809791991402927e-06,2.4601978198400204e-06,1.2454935594179337e-06,1.554606618724528e-06,1.8230410188631851e-06,4.148833931466439e-06,1.6263282118050163e-05,1.0990467828848403e-06,2.6844466758661726e-06,2.9609139394382673e-06,2.894598269716259e-05,1.229811998536749e-06,1.3077391456984314e-06
126,1.3144725883467278e-06,1.508346615552128e-06,7.600997969242359e-07,1.7695691734954277e-06,2.3845353877237036e-06,1.1500040386196097e-06,1.5057414202273893e-06,1.8566851429442692e-06,3.7127348791174962e-06,1.4412284945708801e-05,1.123760563970354e-06,2.7828217447749652e-06,2.9929965410337704e-06,2.9444631405686295e-05,1.2138048755714604e-06,1.3170289648248658e-06
127,1.3088000975987755e-06,1.521509047384845e-06,7.537303060490592e-07,1.7296227302741437e-06,2.320129345678084e-06,1.0610793941065793e-06,1.4580049989232231e-06,1.8881707070696942e-06,3.3056351953203966e-06,1.270849006075504e-05,1.1491429314175217e-06,2.8933059836076243e-06,3.0279491116590113e-06,2.9924616442092362e-05,1.1972219504900758e-06,1.3267675223024709e-06
128,1.3018114556465605e-06,1.536668085038771e-06,7.501349298148817e-07,1.6907920987398374e-06,2.266980285539438e-06,9.790849990056063e-07,1.4114014828646491e-06,1.916959021415349e-06,2.927933340188216e-06,1.1150437846148098e-05,1.175136084866431e-06,3.0159831785941294e-06,3.0645044911447807e-06,3.0359129215582585e-05,1.1800164284176531e-06,1.3369713736901282e-06
129,1.293905101550498e-06,1.5525110458684712e-06,7.494659027030328e-07,1.6536508897610097e-06,2.224854998207894e-06,9.041569453386644e-07,1.3661490202929464e-06,1.9423734955313166e-06,2.5797989702288155e-06,9.73471332004354e-06,1.2016632297411921e-06,3.1510553208457915e-06,3.1010970716214066e-06,3.071741211458176e-05,1.1621344742353144e-06,1.3476494370003423e-06
130,1.2855587245222939e-06,1.5675607429501462e-06,7.518960118700897e-07,1.6184583475109335e-06,2.193400764622471e-06,8.36220796603016e-07,1.3226049939599736e-06,1.963747574642803e-06,2.261330243197908e-06,8.455919767955432e-06,1.2286602258382943e-06,3.2987443012450025e-06,3.135963442632021e-06,3.0969145336236773e-05,1.1435448895047288e-06,1.3587216613638073e-06
131,1.277157498817147e-06,1.5803290181634142e-06,7.575905394146787e-07,1.5851661474075933e-06,2.1722773855717353e-06,7.750263060779659e-07,1.2812240823157684e-06,1.9805959051254087e-06,1.972565084174686e-06,7.3070639057331575e-06,1.2560794579300505e-06,3.4590868579393783e-06,3.167467174128009e-06,3.1090914056962684e-05,1.124266011996526e-06,1.3700462051836816e-06
132,1.2688677688204666e-06,1.58956615452005e-06,7.667295717478304e-07,1.5535010453282523e-06,2.161152909599116e-06,7.20196330187275e-07,1.2426069323936564e-06,1.9927716674327636e-06,1.7133942885852375e-06,6.280105901864682e-06,1.2838358290046823e-06,3.6317134282256706e-06,3.1944526409276665e-06,3.1070793598465676e-05,1.104443958542457e-06,1.3814671896414122e-06
133,1.2606500555520671e-06,1.5944799986749377e-06,7.794819953582814e-07,1.5230447728363528e-06,2.1595568888329573e-06,6.712805418749376e-07,1.2074973378336965e-06,2.0005550490866077e-06,1.4834436166036017e-06,5.366392526691335e-06,1.311734015427509e-06,3.815671952381371e-06,3.2162221361080107e-06,3.0908130209881725e-05,1.0843975646447678e-06,1.3927963401714855e-06
134,1.252401286249546e-06,1.5947705636479362e-06,7.959271363903893e-07,1.4932948927155843e-06,2.16670947818508e-06,6.278040556293174e-07,1.1766577296495086e-06,2.00460573263378e-06,1.2820090140779853e-06,4.557060168570765e-06,1.3394294606250578e-06,4.009291036442912e-06,3.2321729685950317e-06,3.0609081760215376e-05,1.064567726115298e-06,1.403768131997904e-06
135,1.244148702811501e-06,1.59042864257092e-06,8.160114334792977e-07,1.4637922366017054e-06,2.181415295733178e-06,5.893410960390338e-07,1.1507500503291514e-06,2.005754809601146e-06,1.1080743521439583e-06,3.843437787731589e-06,1.366450482178287e-06,4.210084547819037e-06,3.241628687267577e-06,3.0181850169338335e-05,1.045406159216276e-06,1.4139929524342331e-06
136,1.2361839577893014e-06,1.5814727758356635e-06,8.395710186310763e-07,1.4343222284290083e-06,2.2020378475972e-06,5.556095103585946e-07,1.1303274288145043e-06,2.0047279549658742e-06,9.60361257203342e-07,3.2173210583152517e-06,1.3922368637552641e-06,4.414710542253659e-06,3.244158327163935e-06,2.9634983302215074e-05,1.0272689696307946e-06,1.422891843829126e-06
137,1.2290357934030415e-06,1.5678579658273173e-06,8.663854782009745e-07,1.4050451611819413e-06,2.226525470122358e-06,5.264797066099732e-07,1.1158649643595502e-06,2.0019499307924645e-06,8.373781849260196e-07,2.6710603758610125e-06,1.4161415360060016e-06,4.619021967833933e-06,3.2399382358678835e-06,2.8977256841467572e-05,1.0103673419069456e-06,1.429690866201309e-06
138,1.2232811409239408e-06,1.549573779596072e-06,8.962319112446041e-07,1.3764323171182508e-06,2.252451013907166e-06,5.01876549988716e-07,1.1077378024025112e-06,1.9974833706504183e-06,7.37473557943778e-07,2.1975490951637607e-06,1.4374459009299916e-06,4.818303440145247e-06,3.2296026695956224e-06,2.821627573567666e-05,9.947997556755368e-07,1.433560303790128e-06
139,1.2193525888430196e-06,1.5268094869290436e-06,9.288976691911033e-07,1.3490477135829587e-06,2.2771308760141187e-06,4.816887017691947e-07,1.1061703839972798e-06,1.99104593925117e-06,6.58882998118129e-07,1.7902169476609474e-06,1.4554280695716656e-06,5.007728919388501e-06,3.2137080715352926e-06,2.7357054105626205e-05,9.806236897829e-07,1.4338232497444497e-06
140,1.21751736372223e-06,1.5000933928142765e-06,9.641158617776686e-07,1.323330241390184e-06,2.2979807873407585e-06,4.657465071293142e-07,1.1112008130695058e-06,1.9820913581030147e-06,5.997661428843071e-07,1.4430372757963603e-06,1.4694150784857293e-06,5.182904565083743e-06,3.19230568657633e-06,2.6402949079758938e-05,9.67879510287787e-07,1.4300939443150458e-06
141,1.217998580814298e-06,1.4703252423410782e-06,1.0014749387058273e-06,1.2995166524008959e-06,2.313071114378639e-06,4.538555402414691e-07,1.122658249490632e-06,1.970012655268719e-06,5.582417152564846e-07,1.1504862604932427e-06,1.4787965683105614e-06,5.340282172384703e-06,3.1648527637872644e-06,2.535815944934589e-05,9.56606884159205e-07,1.4223242499979883e-06
142,1.221044268804316e-06,1.4386455820269107e-06,1.040400962719073e-06,1.2777443518561338e-06,2.321544992832999e-06,4.45849600046218e-07,1.1401548743533554e-06,1.9544314997109036e-06,5.32417219131489e-07,9.07433142369592e-07,1.4830624755468891e-06,5.477356786100953e-06,3.1304409227470853e-06,2.4229928424292806e-05,9.469400433515809e-07,1.4108027739321391e-06
143,1.2268635450296704e-06,1.4062077738791032e-06,1.0802373523379261e-06,1.258239333962221e-06,2.323598125494122e-06,4.4161341080355324e-07,1.1631091168986915e-06,1.935394607778166e-06,5.204112581840587e-07,7.090107331823089e-07,1.4818843320166832e-06,5.592778921961981e-06,3.0882594920400902e-06,2.302997175504019e-05,9.391736691518548e-07,1.3960904471305723e-06
144,1.2355536122740316e-06,1.374002579927795e-06,1.1203656950450485e-06,1.24140817658747e-06,2.3200538126860825e-06,4.4109008320173024e-07,1.19078793463031e-06,1.913335319656701e-06,5.203715728304054e-07,5.505019130515516e-07,1.4751955109619506e-06,5.686501125231747e-06,3.0380739452954116e-06,2.1774860765180645e-05,9.336777992523359e-07,1.3788790535777258e-06
145,1.2471160946481907e-06,1.3427984483128558e-06,1.1602992021194655e-06,1.2277782884252998e-06,2.311825817941294e-06,4.4429787430757994e-07,1.2223137450501286e-06,1.8888346043968576e-06,5.305026717217334e-07,4.272528883496301e-07,1.4632133540967172e-06,5.759818518050686e-06,2.9803724048332747e-06,2.048468372981048e-05,9.307517694607776e-07,1.3598291924112988e-06
146,1.2615010063400977e-06,1.3131490976310354e-06,1.1997163658123526e-06,1.217939293194579e-06,2.2995593557117343e-06,4.513072305552122e-07,1.2566311358288223e-06,1.8623711138542112e-06,5.49115974900207e-07,3.346349094432762e-07,1.4463872564769462e-06,5.815101567112674e-06,2.9160760169545694e-06,1.9180333418826764e-05,9.305426513100629e-07,1.339465728160588e-06
147,1.278593552651255e-06,1.2854274452878133e-06,1.238459138548686e-06,1.2125463320876708e-06,2.283540247544589e-06,4.6218415357845347e-07,1.2925274168391175e-06,1.8342432802862692e-06,5.746863603692192e-07,2.6805290165172013e-07,1.4253188264515037e-06,5.8552598444209696e-06,2.8462263606910792e-06,1.788091012190262e-05,9.330287374523132e-07,1.3182044026846095e-06
148,1.2981499984579662e-06,1.259916715568582e-06,1.2765281331270124e-06,1.2122665232500367e-06,2.263778639421894e-06,4.769807038094464e-07,1.328740874351249e-06,1.8046432985494393e-06,6.058940543019603e-07,2.2297227749313183e-07,1.4007115186626149e-06,5.883106624571095e-06,2.7720700923862238e-06,1.6602249919191277e-05,9.380311881511287e-07,1.2964947416877934e-06
149,1.3197541160339892e-06,1.236976773344426e-06,1.314038334314719e-06,1.2176648149199865e-06,2.240182712156163e-06,4.957835149761572e-07,1.3640502823534853e-06,1.7737156822829782e-06,6.416367830055583e-07,1.949239146481703e-07,1.3733386849761006e-06,5.900781608056589e-06,2.695274232352328e-06,1.5356478519206153e-05,9.452560176481991e-07,1.2749173349394009e-06
150,1.3428770340857092e-06,1.2171622676690554e-06,1.3511092704357485e-06,1.2291215838632516e-06,2.212808149643641e-06,5.187492812242468e-07,1.3973113959267503e-06,1.7415375394838232e-06,6.810165841305988e-07,1.7947607141636948e-07,1.3439601206698493e-06,5.9094082286737405e-06,2.617780015312975e-06,1.4152198753207827e-05,9.54388816091574e-07,1.2541135586457532e-06
151,1.3670726620010028e-06,1.2011616322353117e-06,1.3878006576298489e-06,1.2467893295857053e-06,2.1820934771538815e-06,5.460757236120385e-07,1.4275592918416786e-06,1.7081037476628091e-06,7.233243220124978e-07,1.7224555959762432e-07,1.3132082693073148e-06,5.909005484606192e-06,2.5414337169336673e-06,1.2995102456122108e-05,9.652094349641105e-07,1.2346381912912092e-06
152,1.3921797730411008e-06,1.1896165136021096e-06,1.4241744873531144e-06,1.2705771098034135e-06,2.148877510806689e-06,5.779445940770877e-07,1.4541970665644373e-06,1.6733817242209178e-06,7.680276645972105e-07,1.690048547794504e-07,1.2815540799504217e-06,5.898491739906545e-06,2.467775676199273e-06,1.1888707547968122e-05,9.776092862537465e-07,1.2169204030649367e-06
153,1.4183147049351322e-06,1.1829725270496466e-06,1.4603601159223658e-06,1.3001727798330708e-06,2.1141408781311767e-06,6.14499637447181e-07,1.477099025091877e-06,1.6374148663399532e-06,8.147376365435156e-07,1.6582458644896754e-07,1.2493306802398594e-06,5.875781475234626e-06,2.3979846511724047e-06,1.0834933061301601e-05,9.914743683268655e-07,1.201366244449206e-06
154,1.445670665242631e-06,1.1814289432504898e-06,1.4965110746930164e-06,1.3351011790847425e-06,2.078745533359412e-06,6.558634455555215e-07,1.4965065723657455e-06,1.6004067991336859e-06,8.631356267200042e-07,1.5916765925491353e-07,1.216704734110223e-06,5.838136700454627e-06,2.3328941014216583e-06,9.834539862540566e-06,1.0065526407168996e-06,1.1884359598860088e-06
155,1.4743385865029203e-06,1.184965522508551e-06,1.5327294272387899e-06,1.3747887719292229e-06,2.0434355984394216e-06,7.021793470617305e-07,1.512820512419787e-06,1.5627007904410253e-06,9.12897892985069e-07,1.4593054722838166e-07,1.1836250530891237e-06,5.78278541468786e-06,2.2730851432114502e-06,8.887528543316237e-06,1.0224000024250938e-06,1.1785902097784453e-06
156,1.5042276647714993e-06,1.1933920562244234e-06,1.5690507204223888e-06,1.4185882948340799e-06,2.00901288059015e-06,7.536498838648896e-07,1.5264946656252578e-06,1.524657702746696e-06,9.6363448044634e-07,1.2348666712797038e-07,1.149855155161818e-06,5.707629614547226e-06,2.2189853776874495e-06,7.993433239137986e-06,1.0383974220236973e-06,1.172224664119743e-06
157,1.535030310745784e-06,1.2063570232413805e-06,1.6054554126410305e-06,1.465802579954186e-06,1.976482762156418e-06,8.105134299631982e-07,1.5380762849670851e-06,1.4865983974374695e-06,1.0148188900015612e-06,8.980086180881949e-08,1.1151181560784494e-06,5.611800147579144e-06,2.17094057758967e-06,7.1514746226829725e-06,1.0537911456330001e-06,1.1696981423731117e-06
158,1.566216177131858e-06,1.2233001080102925e-06,1.6418264051799925e-06,1.515771679433964e-06,1.9470925746148027e-06,8.72974978038269e-07,1.5482304851570626e-06,1.4488729413542698e-06,1.0657424890863562e-06,4.3601645310416815e-08,1.0792842299461962e-06,5.495871832399849e-06,2.1292677522395193e-06,6.360624532689941e-06,1.0677243102792069e-06,1.171363871429924e-06
159,1.5971253345544143e-06,1.2434173576923507e-06,1.6778660244314714e-06,1.5679280987010819e-06,1.9222386695659374e-06,9.411604479771564e-07,1.5576645286829942e-06,1.4118802325435928e-06,1.1155744188433519e-06,-1.5524076440276964e-08,1.0424710075500165e-06,5.3617572428716255e-06,2.0942686701598356e-06,5.619609935411048e-06,1.0793215830837131e-06,1.1775312112433674e-06
160,1.6271901972052983e-06,1.265714748873014e-06,1.7130954417835892e-06,1.6217399665753082e-06,1.9032622647853585e-06,1.0151131641788685e-06,1.5670922984458618e-06,1.3759780453053064e-06,1.1635277543851919e-06,-8.715123837164365e-08,1.0050041035077108e-06,5.212474111372893e-06,2.0662518604686827e-06,4.926877193842561e-06,1.0878833911242997e-06,1.1884276317656643e-06
161,1.6560902847319513e-06,1.2891206082058257e-06,1.7469575997312863e-06,1.6766385102010565e-06,1.8912634259580006e-06,1.0948398610954322e-06,1.5773057262066368e-06,1.341419380813986e-06,1.208972763494003e-06,-1.7002320365022866e-07,9.673333331074387e-07,5.051899012378211e-06,2.0455812815321206e-06,4.280611084375203e-06,1.0930392255277308e-06,1.204188303282554e-06
162,1.6836753713891182e-06,1.3125894669208703e-06,1.7788691787694983e-06,1.7319730600837339e-06,1.8870360299755673e-06,1.1803805387194807e-06,1.5892103053853201e-06,1.308386365386317e-06,1.251380581538586e-06,-2.6205132900438297e-07,9.299784238673829e-07,4.8844441631030504e-06,2.0326349173561703e-06,3.678895502439363e-06,1.0946877256106431e-06,1.2248176818563823e-06
163,1.7098566027754778e-06,1.3352679978688955e-06,1.8082239699337928e-06,1.7869635124942287e-06,1.8910647797612448e-06,1.27181928968083e-06,1.6037533207741143e-06,1.2770617821618998e-06,1.2902008994516063e-06,-3.604650193478233e-07,8.934693506939133e-07,4.714629883974207e-06,2.0276527133510638e-06,3.1199892711681898e-06,1.0928676002311984e-06,1.2501317150432079e-06
164,1.734646859242925e-06,1.3567267659214019e-06,1.8345009526097191e-06,1.8406740114138583e-06,1.9034974392082623e-06,1.369254786189904e-06,1.6218305403853834e-06,1.2476390187111473e-06,1.3248133652240812e-06,-4.62075025219999e-07,8.582906789038947e-07,4.546704331841631e-06,2.0306100310852417e-06,2.602604902638084e-06,1.0877774175933552e-06,1.2797523327600932e-06
165,1.758167363288303e-06,1.3770016938594869e-06,1.85739678175213e-06,1.892023592045977e-06,1.9241025985743864e-06,1.4728389788679069e-06,1.6442338632253137e-06,1.220319710995397e-06,1.3546083258190293e-06,-5.634387819343201e-07,8.24885639808955e-07,4.3844677281347426e-06,2.0411848472335696e-06,2.126092239614067e-06,1.0798323162660155e-06,1.3132022106934906e-06
166,1.780489750908954e-06,1.3963494725347746e-06,1.8767990111237063e-06,1.9399052417651677e-06,1.952285584319201e-06,1.5828283836555388e-06,1.6716299349789934e-06,1.1953945088017482e-06,1.3791799373254275e-06,-6.608648816828309e-07,7.936838084185237e-07,4.231244726523459e-06,2.0588277046294533e-06,1.6904996332245328e-06,1.0695880454269131e-06,1.3500481137510973e-06
167,1.801494183106131e-06,1.4149784038151954e-06,1.8926271475820184e-06,1.9834693416381985e-06,1.987222490326961e-06,1.6994914342963455e-06,1.704528737976701e-06,1.1732840677357531e-06,1.3985175062581174e-06,-7.503724982008986e-07,7.650893215657253e-07,4.08984629545557e-06,2.082935617008421e-06,1.2965272040541523e-06,1.0576585931244546e-06,1.3899390091185488e-06
168,1.8208637780844938e-06,1.4329685890836013e-06,1.9046826081105983e-06,2.0223893253078406e-06,2.028055865147839e-06,1.822928393803699e-06,1.7432089510868934e-06,1.1544384165018538e-06,1.4130840905926098e-06,-8.276877420608496e-07,7.394415440980724e-07,3.962485881221478e-06,2.1130093714715434e-06,9.454108783182084e-07,1.0447444354364143e-06,1.4324881645079878e-06
169,1.8381310676674418e-06,1.4503447919698456e-06,1.9126053427085433e-06,2.0568881670803933e-06,2.0740034229480843e-06,1.9529882873560183e-06,1.7876335564884852e-06,1.1392133669672064e-06,1.4237398071421854e-06,-8.882342186298484e-07,7.169895261150892e-07,3.850709524698243e-06,2.148641851451607e-06,6.388168853259236e-07,1.031632754197898e-06,1.4771401082367822e-06
170,1.8527342681995752e-06,1.467137069844775e-06,1.9159595678519444e-06,2.0875436696162946e-06,2.1243532627317556e-06,2.0893356428203967e-06,1.837414015394267e-06,1.127818784242729e-06,1.4315187287287723e-06,-9.270762126853966e-07,6.979029590433109e-07,3.7554179435353473e-06,2.1893394216719924e-06,3.7880562373062584e-07,1.0190861917123622e-06,1.523117814275785e-06
171,1.8640618717368788e-06,1.4833104532222659e-06,1.9143511502465246e-06,2.1150537430756044e-06,2.178496617909127e-06,2.231626385656997e-06,1.891815365097326e-06,1.1203296400551245e-06,1.4373865058032336e-06,-9.388725345718627e-07,6.823074648554168e-07,3.677018470693157e-06,2.2343324013114846e-06,1.6781753541425156e-07,1.00772948188812e-06,1.5694004305524805e-06
172,1.8714421748152718e-06,1.4986309733031202e-06,1.907438125509668e-06,2.14011281406461e-06,2.2360813558571426e-06,2.3797230842233708e-06,1.949772649570587e-06,1.1167441079952326e-06,1.4421291575306495e-06,-9.178979732857183e-07,6.703068714167812e-07,3.6155723750387026e-06,2.2825451787377034e-06,8.601761604124461e-09,9.980102132095213e-07,1.614724880738813e-06
173,1.874157343614732e-06,1.5126022822647378e-06,1.8949008702782093e-06,2.1633928127486565e-06,2.2971483719775686e-06,2.533824459682109e-06,2.0099122275863624e-06,1.117033689047473e-06,1.4463570763812686e-06,-8.580813928016723e-07,6.619712711668623e-07,3.5707733550373056e-06,2.332736128910748e-06,-9.589884269695638e-08,9.902054500385452e-07,1.6576721053128304e-06
174,1.8715395465889667e-06,1.5245171073194086e-06,1.8765797405238149e-06,2.185490828016094e-06,2.3620682349825442e-06,2.6943999562857447e-06,2.070569003763633e-06,1.1211290647995022e-06,1.450560152544703e-06,-7.529512978235521e-07,6.572957746150795e-07,3.541814097671962e-06,2.3837061996456037e-06,-1.4263260686940272e-07,9.844370385096031e-07,1.6968215764896733e-06
175,1.8630574960431343e-06,1.5336604105908698e-06,1.8527227666235764e-06,2.206777946339435e-06,2.4312850296552585e-06,2.861930020164591e-06,2.129863125211863e-06,1.1288848916214488e-06,1.45518515062171e-06,-5.954854255058389e-07,6.561626482830635e-07,3.5272839948484897e-06,2.434576853052409e-06,-1.284448808067863e-07,9.807027983149836e-07,1.7309156283467236e-06
176,1.8483482964234902e-06,1.5396222051216253e-06,1.8240473763490866e-06,2.2272738756081163e-06,2.505086322932006e-06,3.036568869187361e-06,2.1859389238776256e-06,1.1400719222112275e-06,1.4606518367711867e-06,-3.7800005069282625e-07,6.583468751353125e-07,3.5251281766810434e-06,2.4851251609706095e-06,-4.998504889257744e-08,9.789118913225248e-07,1.759022706559682e-06
177,1.8272808657901026e-06,1.542464849531134e-06,1.7915332323274583e-06,2.2466898146587482e-06,2.583609735062232e-06,3.217888207590704e-06,2.2372963076837877e-06,1.1543767375061173e-06,1.467297442624541e-06,-9.214444095935596e-08,6.635497948003447e-07,3.5326735891458136e-06,2.5359320411183337e-06,9.643988778858576e-08,9.788763221523397e-07,1.7806888879319425e-06
178,1.8000668887876154e-06,1.5425709379150545e-06,1.7561487986649183e-06,2.2645960402061516e-06,2.6670146686510997e-06,3.404782807508325e-06,2.2830058511392414e-06,1.171430745220794e-06,1.475320273209578e-06,2.7104226748784057e-07,6.714050816905574e-07,3.5467971176340343e-06,2.5881469383997746e-06,3.1492626146126065e-07,9.80287528394922e-07,1.796026221057649e-06
179,1.7672684768173682e-06,1.5403429887331102e-06,1.718692770472506e-06,2.280548595769807e-06,2.7555222332460734e-06,3.595472576417521e-06,2.322646481881015e-06,1.1908687128714585e-06,1.4847121467351464e-06,7.210002820798794e-07,6.814608551529833e-07,3.5642659374438198e-06,2.6430650621708595e-06,6.098949572026605e-07,9.82742276691849e-07,1.8056789996652424e-06
180,1.729691905958828e-06,1.5360130063825903e-06,1.6797781869096146e-06,2.2940725369171555e-06,2.8491954736291957e-06,3.7875073985339853e-06,2.3559959734441147e-06,1.2123236391751835e-06,1.4952049402035776e-06,1.2674435144704317e-06,6.93205559718735e-07,3.582151119667305e-06,2.7018325935077265e-06,9.85983922699467e-07,9.858190133220085e-07,1.810638754715778e-06
181,1.6883540374682091e-06,1.5296032447495507e-06,1.6399257013952638e-06,2.3045403704537774e-06,2.947657960002709e-06,3.977821734934067e-06,2.3827890356694144e-06,1.235372628254197e-06,1.506364203223192e-06,1.9201749166361966e-06,7.061559238899944e-07,3.598171296427505e-06,2.7653053571263454e-06,1.4479875658902463e-06,9.891862800695761e-07,1.811974289510214e-06
182,1.6444913642683725e-06,1.5209618126888708e-06,1.599714721437247e-06,2.311117590671885e-06,3.049948166619448e-06,4.162902189516667e-06,2.40278505970586e-06,1.259513072070652e-06,1.517828094185672e-06,2.688971498851548e-06,7.199485819562292e-07,3.6108595427761757e-06,2.8339669704193073e-06,2.0008315582918968e-06,9.926928571005524e-07,1.8106600990980812e-06
183,1.5994351844609956e-06,1.5098564283982428e-06,1.5598944324416762e-06,2.312943274888072e-06,3.154491801254964e-06,4.338965692315233e-06,2.415932613692585e-06,1.2841398379413303e-06,1.5294931656472484e-06,3.5834563888713304e-06,7.343634303922105e-07,3.6195338084838515e-06,2.9079189607139085e-06,2.64956622004411e-06,9.96347919372936e-07,1.807603115461755e-06
184,1.554431289826394e-06,1.4960666658781996e-06,1.5213502793466481e-06,2.309474495331326e-06,3.2591329334705363e-06,4.502041102624032e-06,2.422318348879685e-06,1.3085424485527126e-06,1.5415489946579439e-06,4.612874032812358e-06,7.49262430812007e-07,3.624154957791613e-06,2.986914302155588e-06,3.3993323010299976e-06,1.0001905485464597e-06,1.8037251986896743e-06
185,1.510605114172674e-06,1.4793836590761488e-06,1.4849425540744527e-06,2.300716054452746e-06,3.3612231456129034e-06,4.648020874334156e-06,2.4219472790224596e-06,1.332005564328286e-06,1.5544524072716313e-06,5.785842511488144e-06,7.64539330134141e-07,3.6251701117245237e-06,3.0703454854792358e-06,4.2552493917783035e-06,1.0041906579917917e-06,1.7999381613030906e-06
186,1.4690513908509269e-06,1.4596579864331439e-06,1.4513838741929932e-06,2.2871522076759537e-06,3.4578024042252773e-06,4.77284359444236e-06,2.4146439016172647e-06,1.3539638109871948e-06,1.568900282952882e-06,7.110239418109147e-06,7.801490212485405e-07,3.6233868586173908e-06,3.1571721577415127e-06,5.222224738163882e-06,1.0082695096874077e-06,1.7970534477215303e-06
187,1.4308646945117847e-06,1.437049830185651e-06,1.4212423520583376e-06,2.2694471945597136e-06,3.545929627907051e-06,4.872897430669629e-06,2.4002047849905655e-06,1.374077984079466e-06,1.5857555636252577e-06,8.593214073863788e-06,7.961249403522301e-07,3.6198916331703835e-06,3.2459198408033202e-06,6.30467395592418e-06,1.0123481547724591e-06,1.7957412728567239e-06
188,1.3970734556888319e-06,1.4122342457813862e-06,1.3949494495562966e-06,2.248157969764875e-06,3.623097438047802e-06,4.945528700817429e-06,2.378634114072389e-06,1.3921792606778294e-06,1.6059310622300063e-06,1.0241155221223096e-05,8.125201271157609e-07,3.6159950807399575e-06,3.334884803214063e-06,7.506180054592992e-06,1.0163614791845389e-06,1.7965596274814837e-06
189,1.3685775625357738e-06,1.3862740860031639e-06,1.3727370525529481e-06,2.223685835448424e-06,3.687469000254442e-06,4.989352506429494e-06,2.350224944420954e-06,1.408139500344472e-06,1.6304090451898275e-06,1.2059501070673988e-05,8.293373181026889e-07,3.613150079315519e-06,3.422379685127507e-06,8.829320153772066e-06,1.0202883117715602e-06,1.800006826897667e-06
190,1.3461002270339493e-06,1.3603015961245558e-06,1.3546037092781164e-06,2.1964487531161074e-06,3.7377057374383884e-06,5.0040847787294696e-06,2.315405893712441e-06,1.4217736318017515e-06,1.660454389703698e-06,1.4052403522584333e-05,8.464919366135121e-07,3.61277843345953e-06,3.506719740918904e-06,1.0275872431691755e-05,1.024174065516516e-06,1.8065292911503982e-06
191,1.3301329929819964e-06,1.3352908444676621e-06,1.3403689232850454e-06,2.166999365436826e-06,3.7724947984941246e-06,4.989934656514162e-06,2.2745027590892154e-06,1.4328151777025683e-06,1.6977171421300725e-06,1.622232656945253e-05,8.638121667147159e-07,3.615992802562479e-06,3.5860222088783835e-06,1.1847144344887231e-05,1.0280939685509033e-06,1.8164363130490904e-06
192,1.3209112079793929e-06,1.3119741429808511e-06,1.3297266040689268e-06,2.1359265742138515e-06,3.79024868866379e-06,4.947084544261598e-06,2.2276402375791306e-06,1.4409075378986562e-06,1.7440753071645582e-06,1.8569650927331257e-05,8.810993100433076e-07,3.623304534088348e-06,3.658236637707559e-06,1.3543904927249375e-05,1.0321000247463922e-06,1.8297765728024443e-06
193,1.3184284601856906e-06,1.290840918687157e-06,1.3222323214702846e-06,2.1037762108957445e-06,3.7893114442262394e-06,4.875798512338075e-06,2.1748246867047868e-06,1.4455981104504846e-06,1.801478707210062e-06,2.1092248776850642e-05,8.982154642472508e-07,3.6344389967746475e-06,3.721549942058372e-06,1.5365773125301937e-05,1.0361787614725182e-06,1.8462738024843015e-06
194,1.3224751109383445e-06,1.2721929254993064e-06,1.3173086099803698e-06,2.0711891672486994e-06,3.76850392373439e-06,4.777017472389576e-06,2.1161246247253087e-06,1.4464015056821411e-06,1.8719140751928293e-06,2.3784936712822005e-05,9.151025820524491e-07,3.6483117546596552e-06,3.774700651762119e-06,1.7310399167592387e-05,1.040193846765692e-06,1.865324503954704e-06
195,1.3327317229735338e-06,1.25620546421865e-06,1.3143605472849707e-06,2.0390127672933027e-06,3.7276966510950427e-06,4.652867362330543e-06,2.0519009431482523e-06,1.442911033753032e-06,1.957324697646028e-06,2.6638830023055334e-05,9.317317306316002e-07,3.663180582307573e-06,3.816813712772252e-06,1.9372814992423964e-05,1.0438348448530181e-06,1.8860412286336654e-06
196,1.3489052060209015e-06,1.2429342935370593e-06,1.3129331406607286e-06,2.008208143530393e-06,3.6682201956500334e-06,4.506753604451429e-06,1.983003961588432e-06,1.4348804818040463e-06,2.0594265489302153e-06,2.9640702371319286e-05,9.480822140222297e-07,3.6769376063952893e-06,3.847223888610369e-06,2.1544892019370857e-05,1.0466290900205574e-06,1.9073929126642905e-06
197,1.3707693659937242e-06,1.2322952425052568e-06,1.312764159794045e-06,1.9797465031528764e-06,3.592925665975519e-06,4.343040975353625e-06,1.910797133156836e-06,1.422297770637443e-06,2.179543562205697e-06,3.2772347286454515e-05,9.64154283934869e-07,3.6874094848009994e-06,3.865794960683032e-06,2.381470237822071e-05,1.0480454436662672e-06,1.9283845759270336e-06
198,1.3980542047561676e-06,1.2240984535665427e-06,1.313686620911798e-06,1.9545743087099905e-06,3.505803907706036e-06,4.166487372183089e-06,1.8369561811772642e-06,1.4054815242792551e-06,2.3185534428774266e-06,3.600985214693885e-05,9.799500555372797e-07,3.6925560748351657e-06,3.8732752313053896e-06,2.6166314693731736e-05,1.047661321611821e-06,1.9480982643004516e-06
199,1.43034490657912e-06,1.2181421715373744e-06,1.3154744495650056e-06,1.9335452524559198e-06,3.4113177776689484e-06,3.981709263427784e-06,1.7631657369741812e-06,1.3851262020030576e-06,2.47690701534169e-06,3.932278272306275e-05,9.954896193516849e-07,3.69059491975076e-06,3.871115216288231e-06,2.8580977627274766e-05,1.0452708454219802e-06,1.9656274843550115e-06
200,1.4671451027892395e-06,1.2142637510950323e-06,1.3177915097369137e-06,1.9173310812310793e-06,3.3137413098816846e-06,3.792889389358282e-06,1.6908991450188676e-06,1.3622282447129256e-06,2.654622340277105e-06,4.267332791981856e-05,1.0109236770871137e-06,3.6801281826311222e-06,3.860944153281139e-06,3.103980635631155e-05,1.0408421892821654e-06,1.9801016816445183e-06
201,1.5080265910180797e-06,1.2123022153402632e-06,1.3203228860758218e-06,1.9063482622854584e-06,3.216745836406352e-06,3.603705296204156e-06,1.6213514970657626e-06,1.337935316262736e-06,2.8512805294480573e-06,4.601549670555392e-05,1.026588708445829e-06,3.6602653721779964e-06,3.844194322015857e-06,3.352706262018463e-05,1.0344300872685257e-06,1.990795741637812e-06
202,1.552652007968446e-06,1.2120832097733728e-06,1.3229606928336572e-06,1.9007261954162723e-06,3.1232886252251464e-06,3.4173281140489843e-06,1.5554537693084238e-06,1.3134015678030428e-06,3.0661410630256284e-06,4.929550713881663e-05,1.04288690771029e-06,3.630665271089302e-06,3.8220581301787466e-06,3.603263276986915e-05,1.026160835072094e-06,1.997212130575281e-06
203,1.6006451977788368e-06,1.2134762142029468e-06,1.325834260316369e-06,1.9003845222513037e-06,3.035679053094965e-06,3.236416792430404e-06,1.4938777338563099e-06,1.2896891921740747e-06,3.298276583351459e-06,5.245614311873237e-05,1.0601278826417703e-06,3.591464946178061e-06,3.79564512615764e-06,3.855223984818854e-05,1.0162319608021256e-06,1.999133604822884e-06
204,1.6514734883191173e-06,1.2163986226691706e-06,1.3291680170307655e-06,1.9051902038639178e-06,2.955653345273883e-06,3.0631159882604393e-06,1.4370121509707681e-06,1.2677278746746573e-06,3.5465598145395873e-06,5.544581148187393e-05,1.0784690336025576e-06,3.543134922638138e-06,3.7661663537368715e-06,4.1084643826050404e-05,1.004870912041839e-06,1.996614759439049e-06
205,1.7044235297366625e-06,1.2207369783308484e-06,1.3331624126786163e-06,1.915087519913672e-06,2.884375937912638e-06,2.8990519177027624e-06,1.3849510843901735e-06,1.2483292621725584e-06,3.8095809263175636e-06,5.82268867079562e-05,1.0979275362566383e-06,3.486253717768468e-06,3.735009834983329e-06,4.36267980332952e-05,9.922961003343384e-07,1.9898585741383837e-06
206,1.7586285538386428e-06,1.2263177448173864e-06,1.3379928272043406e-06,1.930142767360549e-06,2.8224024389187097e-06,2.7453530730720596e-06,1.3375192929298853e-06,1.232205579258616e-06,4.0855417807905685e-06,6.077586506316376e-05,1.11843303214e-06,3.4211936011481515e-06,3.7035678898257473e-06,4.616955156856174e-05,9.78700761441373e-07,1.9791366264370393e-06
207,1.8131146180274618e-06,1.2329512852175755e-06,1.3438091615326783e-06,1.9504969299708535e-06,2.7696967856457834e-06,2.602788996521252e-06,1.2943147753497807e-06,1.2199355286182732e-06,4.372046007580221e-06,6.307505826374011e-05,1.1398858881004223e-06,3.3479455414920496e-06,3.672914064431991e-06,4.8696020098790493e-05,9.642313217176296e-07,1.964911635093058e-06
208,1.8669371128738788e-06,1.2404427864026812e-06,1.3506723706838912e-06,1.9762475278198186e-06,2.725765092642078e-06,2.471994986623878e-06,1.2547896253755206e-06,1.2119050612455257e-06,4.6659166827273944e-06,6.510511251480046e-05,1.1621400942540885e-06,3.2663610836986228e-06,3.6436775734798283e-06,5.1182333706340514e-05,9.489742621102211e-07,1.9479519151453873e-06
209,1.9194115047234377e-06,1.2485518253791589e-06,1.3585018779544328e-06,2.007310451609128e-06,2.6898538681674663e-06,2.3535679808696526e-06,1.2183759945334294e-06,1.208277541702895e-06,4.963292461221942e-06,6.684742756147226e-05,1.184948015500316e-06,3.17669678959722e-06,3.6162519544174543e-06,5.359907944650253e-05,9.330098603287208e-07,1.929183788608927e-06
210,1.970212825604584e-06,1.256985045473438e-06,1.3670607995994914e-06,2.043367125092738e-06,2.661072285911571e-06,2.247939313707591e-06,1.1845538278418827e-06,1.2089835982245914e-06,5.2599805589943545e-06,6.829498080586284e-05,1.2079472419807556e-06,3.080045930423485e-06,3.591089534847445e-06,5.5912630399480585e-05,9.165128337181232e-07,1.909431862384208e-06
211,2.01919803558235e-06,1.265458329697803e-06,1.3759307842646644e-06,2.0839812223280298e-06,2.6383823983212664e-06,2.1551860501909442e-06,1.152863738482965e-06,1.2137223393574157e-06,5.551759042923067e-06,6.946150632747625e-05,1.2306717666990836e-06,2.9783527418156624e-06,3.5687835529257038e-06,5.808658234942865e-05,8.997992839912287e-07,1.8893344415112383e-06
212,2.066116612287177e-06,1.2737906370878524e-06,1.3844896012142639e-06,2.1288063928129633e-06,2.6205411251311865e-06,2.074947996036865e-06,1.1229999900110104e-06,1.2219876270616632e-06,5.834342131449608e-06,7.03803274015688e-05,1.2526142447761211e-06,2.874038634429364e-06,3.5499265879562008e-06,6.0083259464466955e-05,8.832767583592216e-07,1.8694202488233995e-06
213,2.1104410661029592e-06,1.2819836040793922e-06,1.3919839450679925e-06,2.1777378653117856e-06,2.606114029501406e-06,2.0064823348766633e-06,1.0949245180321969e-06,1.2331214185064652e-06,6.103138699308258e-06,7.109324017943979e-05,1.2733577378969245e-06,2.769530134483917e-06,3.534935379208863e-06,6.186511792461191e-05,8.673392227043809e-07,1.8501357432184926e-06
214,2.1514253987989993e-06,1.2902335333277892e-06,1.39771598575517e-06,2.230972427319768e-06,2.593649124078283e-06,1.948803892986047e-06,1.068826445200592e-06,1.246456011442837e-06,6.353486740734169e-06,7.163831064482609e-05,1.29264883584862e-06,2.666961362093745e-06,3.5239013734505386e-06,6.339681438503813e-05,8.522761930554057e-07,1.8317714619854133e-06
215,2.1883789519240986e-06,1.298829149976911e-06,1.4011834650669415e-06,2.2889718168190447e-06,2.5820030428368108e-06,1.900785193339933e-06,1.044975996660976e-06,1.2615591354341453e-06,6.58170566863627e-06,7.204418442231996e-05,1.310332953570262e-06,2.5681468125804717e-06,3.5164138636028837e-06,6.464848360292915e-05,8.382530713118848e-07,1.8143806414919838e-06
216,2.2209507878851663e-06,1.307975447761099e-06,1.4020443445479532e-06,2.3522875837152247e-06,2.57065809360458e-06,1.861155548619791e-06,1.0236525743083055e-06,1.2783815253192136e-06,6.786113509467839e-06,7.232987212479956e-05,1.3262530107686948e-06,2.474710297824748e-06,3.5114696639348338e-06,6.559833552640899e-05,8.253803481990283e-07,1.7977288479796305e-06
217,2.2491324441313004e-06,1.3176566623086845e-06,1.4000739722802709e-06,2.42133120683349e-06,2.5598140356747276e-06,1.8284883812012318e-06,1.0051489020448096e-06,1.2971424977296047e-06,6.966911592174668e-06,7.250512090804441e-05,1.3402330775758286e-06,2.388137259111794e-06,3.5077023635590207e-06,6.623196934317854e-05,8.138326136490758e-07,1.7813215270417723e-06
218,2.2729764273925958e-06,1.3276203177561007e-06,1.395255595219126e-06,2.496241459873506e-06,2.5501775438874734e-06,1.8012195940942406e-06,9.89738292765126e-07,1.318078135920855e-06,7.125083306355448e-06,7.257053671742566e-05,1.352133452482814e-06,2.3097147481904158e-06,3.5038455674022407e-06,6.653888615187161e-05,8.039062849005957e-07,1.76458952095523e-06
219,2.2923661742143952e-06,1.3374998423496867e-06,1.3877883409762291e-06,2.576819015024618e-06,2.542568211104423e-06,1.7776989728937909e-06,9.776134057230815e-07,1.34127459320722e-06,7.2615551122845165e-06,7.25194021749815e-05,1.3618573203779355e-06,2.2404908671791123e-06,3.498942320302524e-06,6.650819710325118e-05,7.959398720730656e-07,1.7471414557375523e-06
220,2.3070419322159483e-06,1.3470110611407965e-06,1.3778950492781969e-06,2.662430132199188e-06,2.5375460120188e-06,1.7563371957883735e-06,9.68866317253242e-07,1.3666604029378975e-06,7.377193784197088e-06,7.234077054195032e-05,1.3692448556834433e-06,2.181246172642664e-06,3.4921201170425664e-06,6.612475981660943e-05,7.901868296323731e-07,1.7288579049942905e-06
221,2.3167234261108832e-06,1.3560855071028688e-06,1.3656794397769433e-06,2.7519435591176266e-06,2.5352171112079447e-06,1.7358180355604593e-06,9.635050999867522e-07,1.3940857026728319e-06,7.4728452562131276e-06,7.202196354490773e-05,1.373930615657347e-06,2.1324782691489577e-06,3.482434241897685e-06,6.537007026984706e-05,7.867701256771941e-07,1.709797872470186e-06
222,2.321172256110375e-06,1.3648676650560994e-06,1.3512179906031693e-06,2.843829809234971e-06,2.535219221533485e-06,1.7152676987653714e-06,9.614665054089005e-07,1.423369380478572e-06,7.548956304485494e-06,7.155080021874926e-05,1.375283477921863e-06,2.0944553226942383e-06,3.4691843168703154e-06,6.423225086432766e-05,7.857114836861163e-07,1.6901095510271471e-06
223,2.3202898571860724e-06,1.3736187227774416e-06,1.3347486255287455e-06,2.936408715686188e-06,2.536753361062899e-06,1.6943019417964767e-06,9.626327150852883e-07,1.4542667491084733e-06,7.6053848059921855e-06,7.091862838840143e-05,1.372506549991694e-06,2.0672625140831484e-06,3.4523436140207794e-06,6.271972409116438e-05,7.869635780224691e-07,1.6700097024334383e-06
224,2.314326582295726e-06,1.3825901940461484e-06,1.3167106878264297e-06,3.028076147162948e-06,2.5385947226952784e-06,1.6728934675926137e-06,9.668934190382132e-07,1.4864663315147021e-06,7.64166130721912e-06,7.012169332177243e-05,1.3649107329078175e-06,2.0508607039269746e-06,3.4325191268963094e-06,6.0867952035701195e-05,7.904203697744155e-07,1.6497247592748582e-06
225,2.303984599348713e-06,1.3919335131084245e-06,1.2975995986268822e-06,3.117390616503086e-06,2.5391814943116397e-06,1.6511759153827811e-06,9.742272339285422e-07,1.519678474644619e-06,7.657128068677199e-06,6.915785853956095e-05,1.3522330553289337e-06,2.04520031477953e-06,3.4104402875931053e-06,5.873546764151971e-05,7.959144008240627e-07,1.6294307427568599e-06
226,2.2902218333236496e-06,1.4017133584893826e-06,1.277838537147273e-06,3.203073386029379e-06,2.5368932107255214e-06,1.6293887545215087e-06,9.847297683973758e-07,1.553658859627063e-06,7.650645548777479e-06,6.802294134101431e-05,1.3347713019749613e-06,2.0502093640333942e-06,3.386467225671951e-06,5.639340600450333e-05,8.032248322750204e-07,1.609281576410172e-06
227,2.273994296254302e-06,1.411997697361391e-06,1.257805281226762e-06,3.284016456139721e-06,2.5304556159692926e-06,1.6079154107929957e-06,9.985636059003512e-07,1.5880789116631657e-06,7.620520113491055e-06,6.671332117897904e-05,1.3132351235414292e-06,2.0656391806967414e-06,3.360509008346877e-06,5.391473413578089e-05,8.120910383563359e-07,1.5894135804956774e-06
228,2.25616884497217e-06,1.4228936743628226e-06,1.237931978074693e-06,3.359295981152078e-06,2.5192471916731444e-06,1.5872691362465938e-06,1.0158601094739822e-06,1.6223948670756422e-06,7.565368679808181e-06,6.523245356199478e-05,1.2884413580368054e-06,2.09096620256901e-06,3.33236317609954e-06,5.136679248217021e-05,8.221863544279512e-07,1.5698791728204275e-06
229,2.237453278286415e-06,1.434462948644832e-06,1.2187462975615218e-06,3.4281179479046403e-06,2.503332688320679e-06,1.5680593718064632e-06,1.0366263720030543e-06,1.6558567959094165e-06,7.485476724693171e-06,6.359423681323604e-05,1.2610870379928986e-06,2.1254084311371984e-06,3.302176857223438e-06,4.880744534882253e-05,8.330820005347528e-07,1.5506195641512473e-06
230,2.2182837116541215e-06,1.4466110084282749e-06,1.2008088541501645e-06,3.489631584417641e-06,2.4832579117897273e-06,1.5509611878417176e-06,1.0607026135995472e-06,1.6876492631862513e-06,7.383461926831219e-06,6.182139860752417e-05,1.2317237175948451e-06,2.1680443676666606e-06,3.270616830092392e-06,4.628391510052482e-05,8.442897061595885e-07,1.5314467527643378e-06
231,2.1988237668848966e-06,1.4590681253615635e-06,1.1845943527552539e-06,3.542657097504478e-06,2.4597623635322845e-06,1.536615191691188e-06,1.0877920393842893e-06,1.7170612962020667e-06,7.2636795458575025e-06,5.994066195830208e-05,1.2008330236295118e-06,2.217981192666306e-06,3.238588996528901e-06,4.383354566046251e-05,8.553781068003576e-07,1.5119654627281857e-06
232,2.1790785761888843e-06,1.4714678510098209e-06,1.1704060892616159e-06,3.5855718469801524e-06,2.4335153148165304e-06,1.5254911830453893e-06,1.1175292985066522e-06,1.7435481260327215e-06,7.131018928177937e-06,5.797642097033959e-05,1.168865952744713e-06,2.2744278663449697e-06,3.2067989417638008e-06,4.148549406316603e-05,8.660499933556884e-07,1.4915253484577056e-06
233,2.159002597759898e-06,1.483461594413234e-06,1.158364542723404e-06,3.616571674786354e-06,2.4049385601044177e-06,1.5178274787273699e-06,1.1495018844017867e-06,1.7666357117406518e-06,6.990114657775832e-06,5.594584355862443e-05,1.136243744488989e-06,2.3366146507580252e-06,3.175512426749198e-06,3.926214107603608e-05,8.761040771414464e-07,1.4693281032897925e-06
234,2.1385281761441765e-06,1.4947827185808667e-06,1.1484505738397904e-06,3.63414267779329e-06,2.374215045721901e-06,1.5137019165177088e-06,1.1832156459102805e-06,1.7858157709369999e-06,6.8450835732855335e-06,5.385868975594783e-05,1.103342530695012e-06,2.4036652959587396e-06,3.1445385502221293e-06,3.717978356406711e-05,8.853909148825069e-07,1.444699785205036e-06
235,2.117496445072208e-06,1.5051997256668273e-06,1.140559943179186e-06,3.6373337600889354e-06,2.341490150905556e-06,1.5131994367589685e-06,1.2181012965560778e-06,1.800627197769093e-06,6.699286631316172e-06,5.172096483930899e-05,1.070469265999424e-06,2.474540039317315e-06,3.1133097050073305e-06,3.524904757043721e-05,8.938963235157852e-07,1.4174024765633805e-06
236,2.095532711189926e-06,1.514467680147711e-06,1.134541823370729e-06,3.6256655675519635e-06,2.307113897656155e-06,1.5165236667060465e-06,1.253605680155379e-06,1.8108569554569702e-06,6.555079425023137e-06,4.9537267315910506e-05,1.0378897719805936e-06,2.5480602180069255e-06,3.081038552390373e-06,3.347542445316973e-05,9.01839411072734e-07,1.3878038377150672e-06
237,2.071999946479011e-06,1.5224211053265308e-06,1.1302367408632941e-06,3.5989276610330333e-06,2.271819636441051e-06,1.5239352507540358e-06,1.289299697253137e-06,1.816576630294484e-06,6.413728943817972e-06,4.731002197772417e-05,1.0059089330682925e-06,2.6229805594494154e-06,3.0469134562525e-06,3.185980982200109e-05,9.096187808212587e-07,1.3567856934943146e-06
238,2.0461068743429267e-06,1.5291073094563462e-06,1.127505021118939e-06,3.5571958008243155e-06,2.2368265477102106e-06,1.5355927983790905e-06,1.3249353842330125e-06,1.8179457969595595e-06,6.275410818245054e-06,4.503982394587008e-05,9.748820560650361e-07,2.6980479561826073e-06,3.010229950808416e-06,3.0398747666809767e-05,9.17665241254996e-07,1.325467272559852e-06
239,2.017056424823409e-06,1.5347652571728072e-06,1.1262359728126726e-06,3.5011014154926098e-06,2.203810675674519e-06,1.551442842556496e-06,1.3604767657949678e-06,1.8150084827315828e-06,6.139350459703156e-06,4.272867018840279e-05,9.451160826458552e-07,2.7719292536307298e-06,2.9704583088656903e-06,2.9084328582111553e-05,9.263412686354395e-07,1.2949606541104337e-06
240,1.984160670811798e-06,1.539660127158823e-06,1.126398617108386e-06,3.432065914540829e-06,2.1747210057112514e-06,1.5711999848163484e-06,1.3961623534701964e-06,1.8076571504469275e-06,6.004384696946559e-06,4.038155690016879e-05,9.16785035752195e-07,2.842990942714061e-06,2.927292401410388e-06,2.7904013493794948e-05,9.359081465696232e-07,1.2662502511409475e-06
241,1.947014281582888e-06,1.5439687516723767e-06,1.1281005465226328e-06,3.352172275115074e-06,2.1515451374263564e-06,1.5943539782448961e-06,1.4325515950826259e-06,1.795725763155024e-06,5.8697911271588075e-06,3.800437746498942e-05,8.899524381221128e-07,2.909132506147098e-06,2.8806472335956883e-06,2.684075876101971e-05,9.465037594038345e-07,1.2401444055723629e-06
242,1.9057173945849502e-06,1.5477932306434338e-06,1.1315180299725393e-06,3.263722920533514e-06,2.1361218587694562e-06,1.6201896720086755e-06,1.470436638175033e-06,1.7790725262036307e-06,5.735717691998667e-06,3.560339137386537e-05,8.646379708603217e-07,2.9679276313532334e-06,2.830612626928326e-06,2.5873691307994507e-05,9.58105643323746e-07,1.217265733595063e-06
243,1.8609373698125885e-06,1.551167381452213e-06,1.1367415573774135e-06,3.1689442071735763e-06,2.1300036775425916e-06,1.6479009093241207e-06,1.510631271725547e-06,1.7576420396319527e-06,5.602873546081796e-06,3.318935619472521e-05,8.408521292280928e-07,3.0171221246482763e-06,2.7774054190813526e-06,2.497951060623473e-05,9.705050214641816e-07,1.1980783442607174e-06
244,1.8136844797601289e-06,1.554040872031779e-06,1.1436992760465388e-06,3.0700567384606665e-06,2.1343798785109543e-06,1.6768004162997648e-06,1.5537996575437788e-06,1.7316168224358788e-06,5.471911960416346e-06,3.0780916502338784e-05,8.186291565268537e-07,3.055217001609874e-06,2.721278982910725e-06,2.413473211321019e-05,9.833302996107246e-07,1.1829450456618387e-06
245,1.7649710041328454e-06,1.5563167434654193e-06,1.1521693002577117e-06,2.9694181462035415e-06,2.150081986695796e-06,1.7064764862642647e-06,1.6004157639415996e-06,1.701545639680343e-06,5.342987829457794e-06,2.8402635134796055e-05,7.98060673712518e-07,3.0817282393138487e-06,2.662456591358246e-06,2.331843106560227e-05,9.961321526480887e-07,1.172164077251595e-06
246,1.715607699285139e-06,1.55784214247456e-06,1.161815865948069e-06,2.869500894887176e-06,2.1776229651770103e-06,1.7367832181403777e-06,1.6507672565700713e-06,1.6682410969376443e-06,5.215524413016906e-06,2.608023990658317e-05,7.792569357507804e-07,3.0969725870534058e-06,2.601283989570772e-06,2.251449061380981e-05,1.0084894113270955e-06,1.1659348033295192e-06
247,1.6661863109736944e-06,1.5583147729585658e-06,1.1722540103418102e-06,2.772766665131738e-06,2.217219089743073e-06,1.7677431090805452e-06,1.7049134473584323e-06,1.6325831876034736e-06,5.088277322244656e-06,2.3836955312955356e-05,7.622584695452636e-07,3.1015819494007878e-06,2.538477542570578e-06,2.1712314741955394e-05,1.0200664370143588e-06,1.164289294813947e-06
248,1.6171607538361126e-06,1.5572387537046706e-06,1.1831381863137456e-06,2.6815047601975573e-06,2.268786972436555e-06,1.7994988471279867e-06,1.7626612686445925e-06,1.5954598250062518e-06,4.959870067405168e-06,2.1691734546689068e-05,7.46993449835641e-07,3.0960657024574408e-06,2.4750923033233865e-06,2.0905772531027048e-05,1.0305920993321703e-06,1.1670421428798777e-06
249,1.5689687302795215e-06,1.5540393134860424e-06,1.1942167292306335e-06,2.5976455492784336e-06,2.331912368807336e-06,1.8322781055883047e-06,1.823666587856384e-06,1.5577649823687075e-06,4.829501323975192e-06,1.9658910358026573e-05,7.333113058789544e-07,3.080701572505598e-06,2.412221062565094e-06,2.0091005558282863e-05,1.0397985285056172e-06,1.1737685695899361e-06
250,1.5221040201509254e-06,1.5483429404045463e-06,1.2053420928524715e-06,2.522631271072572e-06,2.405834426078767e-06,1.866275905780797e-06,1.8876045794112721e-06,1.520342103123435e-06,4.697295265490003e-06,1.774888172400742e-05,7.210677610599788e-07,3.055774434709644e-06,2.3508118663833494e-06,1.9263972712201244e-05,1.0474021198974169e-06,1.183843189019227e-06
251,1.4770372337349172e-06,1.540224185534781e-06,1.2164761052112332e-06,2.4574124105484334e-06,2.489466903673303e-06,1.9015692255042573e-06,1.954222766521561e-06,1.4839447329749861e-06,4.564131796039741e-06,1.5969139815672057e-05,7.101955074798089e-07,3.0218354488458592e-06,2.291764042763883e-06,1.841871414079608e-05,1.053174932281443e-06,1.1965849380855077e-06
252,1.4340756019563977e-06,1.530171769904775e-06,1.2276855146520264e-06,2.4024911016392648e-06,2.581392080548408e-06,1.938179380996117e-06,2.0232087528332233e-06,1.4492260190561188e-06,4.431203616538021e-06,1.4324930510488708e-05,7.007051405329832e-07,2.9797666047380984e-06,2.236091239358001e-06,1.7547533497885473e-05,1.0570305662451457e-06,1.2114495747688406e-06
253,1.393393680625798e-06,1.5188272783735464e-06,1.239096078945322e-06,2.357922152562743e-06,2.6798315063627583e-06,1.9761180562109123e-06,2.094016148570627e-06,1.4167190306588372e-06,4.299679421070368e-06,1.2819445241848357e-05,6.926597284780136e-07,2.9307850433874367e-06,2.1849540492442787e-06,1.664347893792712e-05,1.0590254014477555e-06,1.2281031641234936e-06
254,1.3552521381299545e-06,1.50675978116558e-06,1.2508204724549519e-06,2.323330489434149e-06,2.782631504497148e-06,2.015277314289853e-06,2.165822760566638e-06,1.3868457897294942e-06,4.1706590497136114e-06,1.14537767732156e-05,6.861830297256668e-07,2.876475857138871e-06,2.139583194635716e-06,1.5703733164708965e-05,1.0592963182455916e-06,1.2463450748885052e-06
255,1.3201380602543893e-06,1.4944011272186031e-06,1.2629034717548823e-06,2.2980616144933877e-06,2.887267083496814e-06,2.0553099154278157e-06,2.237654481633487e-06,1.3599403128472123e-06,4.045249570838688e-06,1.0226866539257638e-05,6.814637349900748e-07,2.8187210844234843e-06,2.1011623764440996e-06,1.473172111603128e-05,1.0579798766072753e-06,1.2660380798838706e-06
256,1.2886829816072026e-06,1.4820743695151475e-06,1.2752918683990923e-06,2.2814305926905185e-06,2.990984834017332e-06,2.095677477825088e-06,2.308595682968998e-06,1.3362578622217114e-06,3.924462604939787e-06,9.135565383072726e-06,6.787134258019895e-07,2.759477918669664e-06,2.0706714322379596e-06,1.37366989673293e-05,1.0551313529421555e-06,1.2870826296696572e-06
257,1.26151084403152e-06,1.470044567067958e-06,1.2878385366152015e-06,2.272860592789647e-06,3.091186121281366e-06,2.1358343550916546e-06,2.378000007222667e-06,1.315996467726093e-06,3.8089337201850233e-06,8.17479605750554e-06,6.781204892251708e-07,2.700573118992083e-06,2.048735951769226e-06,1.273138469199282e-05,1.0507188052655646e-06,1.3093310284891889e-06
258,1.239153180481583e-06,1.458567250454043e-06,1.3003683519898812e-06,2.271819183394219e-06,3.1858906761353613e-06,2.175391148183044e-06,2.4456405945695805e-06,1.2992961714431898e-06,3.6987585062060184e-06,7.337708168078122e-06,6.79826996470781e-07,2.643650907922867e-06,2.0356006791574796e-06,1.1729262095756833e-05,1.044757975318797e-06,1.3324772575143683e-06
259,1.2220190111706805e-06,1.4478797748053556e-06,1.312758214873803e-06,2.2776914018000432e-06,3.2740326732026875e-06,2.2141278790378295e-06,2.5117440693679872e-06,1.2862151159722699e-06,3.593624192162943e-06,6.615782238894909e-06,6.839119524722795e-07,2.590196338010498e-06,2.031223345890567e-06,1.0742752185904801e-05,1.037508144883438e-06,1.356043301389439e-06
260,1.210379048813048e-06,1.4381170228794766e-06,1.324964916093377e-06,2.2896827233752898e-06,3.3554872003828174e-06,2.251856458868909e-06,2.5768785375684987e-06,1.2767473802152293e-06,3.4931557425708994e-06,5.998959723733156e-06,6.903801052698741e-07,2.5414762969671004e-06,2.035345202426708e-06,9.782392936053802e-06,1.0295386499996793e-06,1.3794593214138027e-06
261,1.2043412614788154e-06,1.4292582314210847e-06,1.3370433731609697e-06,2.3067242879240418e-06,3.430829064079153e-06,2.2883600433824332e-06,2.6417500808941784e-06,1.2708427909012536e-06,3.397253603625159e-06,5.475882454009737e-06,6.99145816060698e-07,2.498401931058867e-06,2.047477313697914e-06,8.856599117938697e-06,1.0215953004002648e-06,1.4022292950043831e-06
262,1.2038174584761124e-06,1.4211790207912437e-06,1.3492065481899556e-06,2.3274476724884984e-06,3.5008786298703353e-06,2.3236051393312807e-06,2.7070129637669377e-06,1.26838841386847e-06,3.306229391470638e-06,5.03427637369044e-06,7.100150978276465e-07,2.4614310263135034e-06,2.0668602728689766e-06,7.971666950954812e-06,1.014406764675998e-06,1.4241970597358792e-06
263,1.2084997993976072e-06,1.4137200453933349e-06,1.3618586339313e-06,2.350357743000228e-06,3.5662287277943415e-06,2.358023654316211e-06,2.773125586352748e-06,1.2692088630330499e-06,3.2207250569060103e-06,4.6613776488809034e-06,7.226952067546858e-07,2.4305399486685347e-06,2.092483124154524e-06,7.13197292033842e-06,1.0085707371729618e-06,1.4457249707635582e-06
264,1.2178760892016368e-06,1.4066853465826083e-06,1.3755052262545267e-06,2.374120859910266e-06,3.6270398965289565e-06,2.3925285412996528e-06,2.8402412439608354e-06,1.27308300647513e-06,3.141504770732109e-06,4.34430509921181e-06,7.368205219261416e-07,2.4052441573125605e-06,2.1232289197499734e-06,6.340350434568491e-06,1.0045148286158566e-06,1.467575530233713e-06
265,1.2312778640872672e-06,1.3997976709526816e-06,1.3905684598758256e-06,2.3976734731706654e-06,3.6832162023082275e-06,2.428222739218535e-06,2.9081626668457017e-06,1.2797346939566847e-06,3.069207876208326e-06,4.0706300468432175e-06,7.519895036074465e-07,2.38468414838893e-06,2.1580582537684603e-06,5.598530173804309e-06,1.0024843356837544e-06,1.4906015563202431e-06
266,1.247893037512818e-06,1.3926785683826185e-06,1.407230298252259e-06,2.4200320446273595e-06,3.7347529415660434e-06,2.466014904568979e-06,2.9763333562212235e-06,1.2888240830427356e-06,3.0041919378790638e-06,3.8293056731926945e-06,7.6784296808324e-07,2.3677868815533397e-06,2.1960468047684035e-06,4.907526673734196e-06,1.0025499168033978e-06,1.5154955019524623e-06
267,1.2667292078723868e-06,1.3848992089436755e-06,1.425365297245266e-06,2.4400858797301376e-06,3.781916505016107e-06,2.5063564856457003e-06,3.0438250165890416e-06,1.2999511141249697e-06,2.946546946420406e-06,3.6113131506416627e-06,7.841670986046689e-07,2.3535057122236696e-06,2.2362794264642043e-06,4.2678874954739966e-06,1.0046496622140141e-06,1.5426840420262006e-06
268,1.2866370868991248e-06,1.3760829044123819e-06,1.4445426065837407e-06,2.456636499491039e-06,3.8250776081422356e-06,2.5491561124784297e-06,3.109351242620301e-06,1.312676790433326e-06,2.8961715573545146e-06,3.4095343167359256e-06,8.009555542213048e-07,2.341081348449896e-06,2.2777472614383354e-06,3.679767285533595e-06,1.0086833195312224e-06,1.5723015477541233e-06
269,1.30646948334545e-06,1.365984796602258e-06,1.4640982570155564e-06,2.4685424291688673e-06,3.864332566547399e-06,2.5938270858746805e-06,3.171268868162761e-06,1.3265927000044157e-06,2.852783337672863e-06,3.2186834163780505e-06,8.183669255921967e-07,2.330148109426425e-06,2.31927985152005e-06,3.142885724207701e-06,1.0146022536519784e-06,1.6041828741875292e-06
270,1.3252749579072849e-06,1.3545033740229631e-06,1.4832844102452752e-06,2.474765492604429e-06,3.899287168293068e-06,2.6394458312510402e-06,3.227560688926155e-06,1.3413545367758797e-06,2.815927258458037e-06,3.03583203367968e-06,8.365905840668057e-07,2.320604154694938e-06,2.359483786146589e-06,2.65646869079041e-06,1.0223947906932811e-06,1.6378687758623271e-06
271,1.3423719537818742e-06,1.3416502678460128e-06,1.5014216848949145e-06,2.474381844449475e-06,3.929222141011314e-06,2.684967630613681e-06,3.2759495551551113e-06,1.3565829392626498e-06,2.7850397007665572e-06,2.8605078487004315e-06,8.557485889692308e-07,2.3124324940166523e-06,2.396787187848736e-06,2.2192316192024217e-06,1.0320134318045597e-06,1.6726208067517436e-06
272,1.3572979191311885e-06,1.3275484590771509e-06,1.5179402638248826e-06,2.466677496568582e-06,3.953444145304332e-06,2.729370542802739e-06,3.3141851107378067e-06,1.3717376311028279e-06,2.7594366337813464e-06,2.693759694821149e-06,8.759245900725275e-07,2.3056815505858516e-06,2.429643323069603e-06,1.8294317152390642e-06,1.043356981226229e-06,1.7074474922399308e-06
273,1.3697435302613382e-06,1.3125057476402749e-06,1.5322795214143862e-06,2.451314184394098e-06,3.9715600572048774e-06,2.7716219430855727e-06,3.340372788468249e-06,1.3861540806139956e-06,2.7381518963843487e-06,2.5370066471843454e-06,8.972293121157264e-07,2.3005530171436684e-06,2.4567199605086692e-06,1.4849601575357182e-06,1.0562771510268374e-06,1.7412066216634982e-06
274,1.3795160603491863e-06,1.2970995523831972e-06,1.5437348202490902e-06,2.4285005109860692e-06,3.98368014928135e-06,2.8105230685606467e-06,3.3532563850677773e-06,1.3992765158131257e-06,2.7197840664303565e-06,2.391444049438854e-06,9.197676606067232e-07,2.2973985518693516e-06,2.4769495489587576e-06,1.1834286760117738e-06,1.0705345730828999e-06,1.7728200043221782e-06
275,1.3864778947290222e-06,1.2821435045630823e-06,1.5513894047744115e-06,2.399102363154672e-06,3.9906406487832755e-06,2.8446847925349762e-06,3.3524218427142196e-06,1.410891147005334e-06,2.7025484067494992e-06,2.257933023762958e-06,9.435403517073452e-07,2.2965577352993044e-06,2.4895326772978044e-06,9.22265856576343e-07,1.0857279736974564e-06,1.8014783674396912e-06
276,1.3904455466664458e-06,1.2685445180821062e-06,1.5542345801193568e-06,2.364581125399657e-06,3.994171506141547e-06,2.872792078516564e-06,3.338348734011012e-06,1.4211301337755889e-06,2.684538238359072e-06,2.1370110696327678e-06,9.683914301209857e-07,2.2981878415268216e-06,2.4939707456559472e-06,6.988147751764953e-07,1.1012750491970482e-06,1.8267074747910939e-06
277,1.3911667681191312e-06,1.257181167987469e-06,1.5514549679196143e-06,2.326702012673618e-06,3.996847109855243e-06,2.893977169713488e-06,3.3122018708668912e-06,1.4302946723218416e-06,2.6640653413167374e-06,2.0288805905718157e-06,9.94005889402946e-07,2.3022655039465134e-06,2.4900913896297903e-06,5.103841844435219e-07,1.1165004230595663e-06,1.8483496911219894e-06
278,1.3884914485971561e-06,1.2488367851862635e-06,1.5427001864819636e-06,2.287171788461025e-06,4.0018129310181095e-06,2.9080373226680803e-06,3.275364952078277e-06,1.4387269838831096e-06,2.640024146190811e-06,1.933402697479812e-06,1.019926151477206e-06,2.3086866230323904e-06,2.478049916229051e-06,3.542945518277687e-07,1.130793021958997e-06,1.8666143338458584e-06
279,1.3826252991437572e-06,1.2441564654468724e-06,1.5281498002617114e-06,2.247450864273101e-06,4.012472258151166e-06,2.9153794569546714e-06,3.2289525617355974e-06,1.446770122570753e-06,2.612207695967987e-06,1.850136826310621e-06,1.0456216553304374e-06,2.3172651990292666e-06,2.4583200033858524e-06,2.2802557079638978e-07,1.1437078143780138e-06,1.8822266990951838e-06
280,1.3742046295955292e-06,1.2436230555323523e-06,1.5083452734865461e-06,2.2087634640029358e-06,4.032282518668968e-06,2.91669636697098e-06,3.1736027078486916e-06,1.4547352204444427e-06,2.5813312737162473e-06,1.778424308390843e-06,1.0705879148276833e-06,2.3277202991905894e-06,2.431624957338373e-06,1.2948049823969354e-07,1.1549283447063082e-06,1.8965128339538186e-06
281,1.364102116768603e-06,1.2475251293916696e-06,1.4839408356947827e-06,2.17213635223552e-06,4.0646297566210166e-06,2.912544073060802e-06,3.109631748687829e-06,1.4629212623555794e-06,2.548641864238773e-06,1.7174648591004814e-06,1.0943764805889063e-06,2.3398490760279154e-06,2.3987597309874003e-06,5.7196290786107076e-08,1.1641433723081739e-06,1.9112646880026042e-06
282,1.353143700118336e-06,1.255925188664785e-06,1.4555375430511345e-06,2.1383934882731108e-06,4.112677033225149e-06,2.9031222452657057e-06,3.037395250424389e-06,1.4716878334818595e-06,2.5153919826325104e-06,1.666393657718372e-06,1.1166252061952665e-06,2.3537340100453844e-06,2.360423374551023e-06,1.030600709895235e-08,1.1710059676745728e-06,1.9284233134822567e-06
283,1.34196699803442e-06,1.2686637761788744e-06,1.4236204994272662e-06,2.1081762534802954e-06,4.179144308944459e-06,2.888382541389816e-06,2.9576140662674954e-06,1.4814506809156908e-06,2.4825652743095742e-06,1.6243982144898323e-06,1.1372080628168512e-06,2.369700742764165e-06,2.317256759087363e-06,-1.1660640937657911e-08,1.1752844962112766e-06,1.9497567937781165e-06
284,1.3310707181908064e-06,1.285367171422406e-06,1.3885484641178451e-06,2.082026801140276e-06,4.266060802840341e-06,2.8682717294182983e-06,2.8714854593120734e-06,1.4925961025377263e-06,2.4509307410387023e-06,1.5907872303190931e-06,1.1563390878161214e-06,2.3880452517019923e-06,2.2700667893802604e-06,-8.881624829621974e-09,1.1770614120494082e-06,1.9766790521356323e-06
285,1.3209236155727136e-06,1.3054346435936445e-06,1.350643744385086e-06,2.0604763566555207e-06,4.3745780261332604e-06,2.8429200648582496e-06,2.7805802724751204e-06,1.5054465708959656e-06,2.421266340716465e-06,1.564948394013689e-06,1.174455444634151e-06,2.40880671641578e-06,2.2200336630912514e-06,1.885247456688223e-08,1.1767401328140798e-06,2.0102061626699903e-06
286,1.3120268584628287e-06,1.328060929022774e-06,1.3103995701845739e-06,2.0440765007607905e-06,4.504872362703695e-06,2.8127813023152806e-06,2.686648211851443e-06,1.520310814190148e-06,2.3946420961533876e-06,1.5463093765084443e-06,1.1920107536504272e-06,2.4317746266124e-06,2.1687368089915666e-06,7.234401968018374e-08,1.1748632663915432e-06,2.050957401986857e-06
287,1.3049668385256788e-06,1.3523555186322497e-06,1.268620390005515e-06,2.0333928229098674e-06,4.656087671480689e-06,2.7787292250191597e-06,2.5914093946221168e-06,1.5375336777896935e-06,2.372629239709781e-06,1.5344072570773926e-06,1.209332318344906e-06,2.4566267380466894e-06,2.1179645615543597e-06,1.530873720541097e-07,1.171942132433655e-06,2.0991621855709744e-06
288,1.3004768236553182e-06,1.3775398353115653e-06,1.2263506612065584e-06,2.0290066062906513e-06,4.826331003040622e-06,2.7420167743890713e-06,2.4964100215130646e-06,1.5574709797031208e-06,2.3572050204012828e-06,1.5290465409722375e-06,1.2265362052641751e-06,2.4830005706332435e-06,2.0694353162050483e-06,2.631030812333285e-07,1.1683941920508834e-06,2.1546685686005923e-06
289,1.2994063111464009e-06,1.4030955101753483e-06,1.1846905089058329e-06,2.0314907339334634e-06,5.01280078439428e-06,2.704039297680119e-06,2.4030407478277627e-06,1.580388254177705e-06,2.350375264303571e-06,1.5304101190106353e-06,1.2434898246412416e-06,2.5105100736872376e-06,2.02459714059632e-06,4.0464195556274847e-07,1.1645258840896992e-06,2.2169268210199287e-06
290,1.302581271867647e-06,1.4287481287920695e-06,1.1446460858090554e-06,2.041307626316985e-06,5.212053069181867e-06,2.666001515636879e-06,2.312637464970096e-06,1.606369339513056e-06,2.3538896814358914e-06,1.5390264059027122e-06,1.2598390221291658e-06,2.5388756800254676e-06,1.984542126829385e-06,5.800227265557862e-07,1.1605016101781442e-06,2.2849849489546025e-06
291,1.310676353594043e-06,1.4543591321915616e-06,1.1070498262741323e-06,2.058712360476255e-06,5.420333637771012e-06,2.6287080501655463e-06,2.226483299280699e-06,1.6353266419514486e-06,2.3692505565764387e-06,1.5556977569800952e-06,1.2750684602312711e-06,2.568180552571579e-06,1.950026891744603e-06,7.916826999897903e-07,1.1563424492179845e-06,2.3576044828838522e-06
292,1.3241496762840099e-06,1.4799040823331607e-06,1.0725343647381704e-06,2.0837931522902282e-06,5.6339029632822596e-06,2.5925967199559457e-06,2.145704423472211e-06,1.667099083075054e-06,2.397788997099267e-06,1.581448257086999e-06,1.2885309620438629e-06,2.5990405820502338e-06,1.9215883422471767e-06,1.042318585504374e-06,1.1520150982134894e-06,2.43349666584052e-06
293,1.3432088720656695e-06,1.505546330372442e-06,1.0415606190870027e-06,2.1166042942898165e-06,5.849242819605407e-06,2.557902850421281e-06,2.0711656726576607e-06,1.7015592304495444e-06,2.4406148470844807e-06,1.6174753865181509e-06,1.2994658103021293e-06,2.632543875256957e-06,1.8996453618827103e-06,1.3349391639363454e-06,1.1475304463247572e-06,2.511517009027078e-06
294,1.3678023108264828e-06,1.5316342618421663e-06,1.0144743218491528e-06,2.1572396968967507e-06,6.06297824096083e-06,2.5247853687824922e-06,2.0034510509547964e-06,1.738673625790856e-06,2.498525865651462e-06,1.6652006159927054e-06,1.3071352273477358e-06,2.670030471607111e-06,1.88452560118634e-06,1.6727467421736708e-06,1.142935462950855e-06,2.5906989045137817e-06
295,1.397642071242699e-06,1.5585657503248565e-06,9.915197164874811e-07,2.2058224986404266e-06,6.2714577472236575e-06,2.493353611211709e-06,1.9429546895394238e-06,1.7784675501112817e-06,2.5719352864924122e-06,1.7263475552800908e-06,1.3110952179432861e-06,2.7128145523432156e-06,1.8764930527480133e-06,2.058929768355174e-06,1.1382732279965384e-06,2.6701698199584023e-06
296,1.4322446566692382e-06,1.5866474163227226e-06,9.728057631038656e-07,2.2624897277812126e-06,6.470214244552052e-06,2.463601424583292e-06,1.8899746363730621e-06,1.820903860832334e-06,2.6608062579830395e-06,1.8028405068349959e-06,1.3113967783658715e-06,2.76191812938681e-06,1.8757772416507162e-06,2.4965324671078725e-06,1.1336176359354047e-06,2.749032965171857e-06
297,1.4709467119186927e-06,1.6160246594498745e-06,9.582853776460492e-07,2.327367805102268e-06,6.653745311858101e-06,2.4353334085178737e-06,1.8446910564783166e-06,1.865806433651495e-06,2.764700862815643e-06,1.896574723445381e-06,1.3085560127399031e-06,2.8178958307077867e-06,1.8825616140244025e-06,2.988480800147198e-06,1.1291230553956137e-06,2.8262374045843705e-06
298,1.51289644590318e-06,1.646688443756595e-06,9.477636489831157e-07,2.400473571423488e-06,6.815894418681909e-06,2.408266969557538e-06,1.8070916495356595e-06,1.9128684349474538e-06,2.883005058722685e-06,2.0092574604533158e-06,1.3033691971150165e-06,2.880756237770859e-06,1.896987548856989e-06,3.537643704607849e-06,1.1250361162168866e-06,2.900488174075221e-06
299,1.5571286419051857e-06,1.6785463798458758e-06,9.409462315746545e-07,2.4816176720496114e-06,6.950656168140455e-06,2.3823298260527393e-06,1.7769940316266514e-06,1.9616192588050067e-06,3.015199573230633e-06,2.1423529728522343e-06,1.2967218276240357e-06,2.949972404599426e-06,1.919159341353281e-06,4.1467691765373135e-06,1.1216748976948547e-06,2.9703189792073745e-06
300,1.6027864515017154e-06,1.7114418031446243e-06,9.375585811602149e-07,2.5704630942431247e-06,7.052989742461459e-06,2.3578788601689796e-06,1.7541802858615376e-06,2.011364476380156e-06,3.1610556955681783e-06,2.2970469001348816e-06,1.2894365004067187e-06,3.0246500982631613e-06,1.9490573725788946e-06,4.818343878457615e-06,1.1193598133266382e-06,3.034345495938153e-06
301,1.6493571586368388e-06,1.7450489771558506e-06,9.374947312750066e-07,2.666681571691225e-06,7.119386172402759e-06,2.3356459041267134e-06,1.7384937835811696e-06,2.0612167522425564e-06,3.320754386049106e-06,2.474266874671686e-06,1.2821579283868387e-06,3.103823215448092e-06,1.9864419851701616e-06,5.554523579590782e-06,1.1183646566048955e-06,3.0915406508136122e-06
302,1.6967394099509132e-06,1.7787430116124561e-06,9.408733818047478e-07,2.769989627964981e-06,7.148175167165176e-06,2.3165216501596477e-06,1.7297842142717668e-06,2.110159615258839e-06,3.4948949406236962e-06,2.6748414019276327e-06,1.275289224004368e-06,3.186685846807334e-06,2.030897179745356e-06,6.357113821641e-06,1.1189392334208203e-06,3.1413816080390155e-06
303,1.7451369893427365e-06,1.8115388422069488e-06,9.479331372061741e-07,2.8799819282231746e-06,7.139632315395992e-06,2.3013670006388283e-06,1.7277788262406912e-06,2.1570716405147776e-06,3.6842936690601167e-06,2.899637909492094e-06,1.2689885636027713e-06,3.2726359140919715e-06,2.0819509122117192e-06,7.227441845893291e-06,1.121292114623418e-06,3.1838449001311073e-06
304,1.7949191054546931e-06,1.8421388819033346e-06,9.58866223438335e-07,2.9959013944901794e-06,7.095901510762949e-06,2.290930326515045e-06,1.732013216942005e-06,2.200776004785827e-06,3.889628130647746e-06,3.149440207082974e-06,1.2632582931607273e-06,3.361211604835247e-06,2.1391063233152468e-06,8.166036565270364e-06,1.125500886875289e-06,3.219302182154424e-06
305,1.8465385592295976e-06,1.8691388289354169e-06,9.73741794677946e-07,3.1165402738871387e-06,7.0207075691140075e-06,2.28583514786588e-06,1.7418213719039327e-06,2.240092247609665e-06,4.111232237602851e-06,3.4246481185317525e-06,1.2581181948722148e-06,3.4520676073975425e-06,2.201777820779491e-06,9.172196805446515e-06,1.131464293972212e-06,3.2483673956547125e-06
306,1.9004829299160484e-06,1.8913417218352436e-06,9.925419196603915e-07,3.2403211916551817e-06,6.918828539879433e-06,2.286534909594922e-06,1.7563439891984543e-06,2.273799484166563e-06,4.349299349649777e-06,3.7250809676243224e-06,1.2537065240666756e-06,3.5450088322673755e-06,2.2692640207115843e-06,1.0243677633540741e-05,1.1389146634461502e-06,3.271710894934642e-06
307,1.9571886831684717e-06,1.908009892294336e-06,1.0152322340734861e-06,3.365461144763869e-06,6.79532795746259e-06,2.2931964858525134e-06,1.7745968122593975e-06,2.3006699546661096e-06,4.604341257308937e-06,4.04995060412128e-06,1.2501847075805621e-06,3.639995744001709e-06,2.3407659218659693e-06,1.1376774757443446e-05,1.1474150463338315e-06,3.2898589514789115e-06
308,2.0168992530628484e-06,1.9189598950328633e-06,1.0418031894602514e-06,3.4901039164503294e-06,6.6547128489687076e-06,2.3056435568048495e-06,1.7956244773324e-06,2.3197362484093517e-06,4.877459631995186e-06,4.397932658693007e-06,1.2475757356662483e-06,3.7370971373713213e-06,2.4153789725509354e-06,1.2566799282111401e-05,1.1563334073215117e-06,3.3030038380514248e-06
309,2.0795517742562683e-06,1.92453623650674e-06,1.0722677467978777e-06,3.6123192925414944e-06,6.500390881051894e-06,2.323500173358819e-06,1.8187088136631742e-06,2.330541832848654e-06,5.170170246182946e-06,4.7674154139224e-06,1.2457495597111147e-06,3.836481833550953e-06,2.492161688000735e-06,1.3808494298961773e-05,1.1648580219015397e-06,3.3108503678662966e-06
310,2.1447952158553427e-06,1.9255033707214677e-06,1.1066198874143676e-06,3.729930326101402e-06,6.334634311782811e-06,2.346481360643645e-06,1.8435794852082882e-06,2.3331019843895273e-06,5.483903671695037e-06,5.156960257220257e-06,1.2445573508382918e-06,3.938525794096129e-06,2.570321986472236e-06,1.5096003329200118e-05,1.1721094299772808e-06,3.312597310244349e-06
311,2.2121302233485143e-06,1.922862079838442e-06,1.144759619810302e-06,3.8403369060080825e-06,6.158859556848421e-06,2.3746623543354855e-06,1.8704929053797555e-06,2.3277074081889387e-06,5.819480959169999e-06,5.565741916740878e-06,1.2439175878966303e-06,4.043927351054192e-06,2.649275228930489e-06,1.642257927180998e-05,1.1773367139990985e-06,3.30712487550739e-06
312,2.281068497414993e-06,1.917615269310768e-06,1.1864212026970668e-06,3.940612710964668e-06,5.973986117575104e-06,2.4086112325429407e-06,1.900052684494972e-06,2.3148483658286268e-06,6.176746516005855e-06,5.9936499598201025e-06,1.2437343966056774e-06,4.153604390157689e-06,2.7284681088419357e-06,1.778063815687439e-05,1.1800649545522685e-06,3.293286478494943e-06
313,2.3512279280608522e-06,1.91055954882788e-06,1.231159762193767e-06,4.0279282172372524e-06,5.780815102713808e-06,2.449340384071795e-06,1.9328584240489633e-06,2.2953166035038987e-06,6.554368012943461e-06,6.4408631886686625e-06,1.2437638499923665e-06,4.268335289598697e-06,2.8073128444768116e-06,1.9162544899277142e-05,1.1800615111888729e-06,3.270182763652391e-06
314,2.4223525487630404e-06,1.9022174571068836e-06,1.2784057006733527e-06,4.100068347842204e-06,5.5804126295533615e-06,2.4980751006334923e-06,1.9692137145669604e-06,2.2702844501583954e-06,6.94989506444214e-06,6.907087818774805e-06,1.2436032198413472e-06,4.388356763896243e-06,2.8855075129631856e-06,2.0561759022564763e-05,1.1772266959092751e-06,3.2373770167125052e-06
315,2.4942726795875373e-06,1.8929257365308325e-06,1.3275233250854923e-06,4.155760600403596e-06,5.374452731455805e-06,2.555942804623199e-06,2.009018117307139e-06,2.241168499400272e-06,7.360258475174834e-06,7.3910396091001075e-06,1.2428232520633827e-06,4.51311197915798e-06,2.9634248241452447e-06,2.1973282501989603e-05,1.1716019234396686e-06,3.1949782003946763e-06
316,2.566779037179623e-06,1.882929300782998e-06,1.3778092481619983e-06,4.1946568562362435e-06,5.16543235469449e-06,2.623750478287437e-06,2.0518020684602085e-06,2.2093491519636993e-06,7.782563412312433e-06,7.890488957612654e-06,1.241115855714966e-06,4.641233856129165e-06,3.0421033496381633e-06,2.3392544793640128e-05,1.1634543105083003e-06,3.1435359302254947e-06
317,2.6394216965320993e-06,1.872391325401038e-06,1.4284854877749531e-06,4.217048303022559e-06,4.956678535400399e-06,2.7018768894984664e-06,2.0968276312518224e-06,2.175975885603748e-06,8.214656652021872e-06,8.402541615861046e-06,1.2383375025193984e-06,4.770742341698881e-06,3.1228901394696875e-06,2.4813041721827468e-05,1.1532719119902125e-06,3.0838354345859202e-06
318,2.711376908929935e-06,1.86139314147012e-06,1.4787669785137555e-06,4.223560142755087e-06,4.752137478918179e-06,2.790200644443202e-06,2.143211644001318e-06,2.1419360891365986e-06,8.655078352923734e-06,8.92370772450379e-06,1.2344532388235348e-06,4.8992384581646115e-06,3.207097197325893e-06,2.622414654917956e-05,1.1416406743807328e-06,3.0167081274533572e-06
319,2.7815026684144226e-06,1.8499583363656615e-06,1.5279192569955333e-06,4.214920310637063e-06,4.555985537343669e-06,2.888088334014935e-06,2.1900089000845185e-06,2.107859543870608e-06,9.102495936538518e-06,9.449683276253049e-06,1.2294649636503416e-06,5.023929113247327e-06,3.2957908148872405e-06,2.761034359190776e-05,1.1291134778406819e-06,2.9429232324866363e-06
320,2.8485372516157413e-06,1.8380668876255549e-06,1.5752410274248205e-06,4.191697131120323e-06,4.372174003472127e-06,2.9945190719676124e-06,2.236186086050677e-06,2.0740775053978884e-06,9.555054429219308e-06,9.975064569482426e-06,1.2233909190613582e-06,5.141666459012234e-06,3.38961657128531e-06,2.8951717162404577e-05,1.1161503167520945e-06,2.8632637287758817e-06
321,2.911304366522029e-06,1.8257015469324927e-06,1.6201090932867721e-06,4.154086802335282e-06,4.204072527961833e-06,3.1083259767140815e-06,2.28055899588092e-06,2.0406204199934803e-06,1.0010014992751643e-05,1.0493208074437454e-05,1.2162943022049608e-06,5.249249591000918e-06,3.4886662538240284e-06,3.0224490082451635e-05,1.103110526566999e-06,2.778761087796407e-06
322,2.9687534165636367e-06,1.8129649258468523e-06,1.6621408958985522e-06,4.102029227382895e-06,4.054290443611403e-06,3.2284506776590583e-06,2.321893433834053e-06,2.0073386819908175e-06,1.0463761242658557e-05,1.0996229417109456e-05,1.2083012110332359e-06,5.343915202623952e-06,3.5924567776848195e-06,3.1401635270137926e-05,1.0903067274471084e-06,2.690806877823476e-06
323,3.019805358101399e-06,1.8001483855989626e-06,1.7013091215292097e-06,4.035672401380504e-06,3.924686740945664e-06,3.354087182800069e-06,2.359205353523704e-06,1.974130571080199e-06,1.0912028926147811e-05,1.1475104284208489e-05,1.1995574715695283e-06,5.423738402094647e-06,3.699961666681954e-06,3.2455268306615064e-05,1.0781163998646093e-06,2.6009935707343063e-06
324,3.0633042281171722e-06,1.7876273933313786e-06,1.7378996234727034e-06,3.955905536867279e-06,3.816573077025889e-06,3.4846045068734355e-06,2.3920367034713183e-06,1.9411845111815856e-06,1.1350235413342853e-05,1.192009373011758e-05,1.1901406308981402e-06,5.487716591714037e-06,3.8095903189473387e-06,3.3361081950493796e-05,1.0670225687057983e-06,2.5109006514895773e-06
325,3.0982691377992846e-06,1.7756934913237633e-06,1.77234568432318e-06,3.864703521992376e-06,3.730972924464129e-06,3.6192717814185895e-06,2.4205067680784987e-06,1.909061829714095e-06,1.1773905585387165e-05,1.2321775347125074e-05,1.180021511172696e-06,5.53548954457947e-06,3.919149706559688e-06,3.410264606416086e-05,1.0575440707546083e-06,2.422033712793023e-06
326,3.124150918195536e-06,1.7645196567077997e-06,1.8050163712315463e-06,3.765142917474833e-06,3.6686881139066955e-06,3.757082006989764e-06,2.4451688827709197e-06,1.8785216668402138e-06,1.2179128810075209e-05,1.2672527856408213e-05,1.1691270710587112e-06,5.566941489990569e-06,4.02594411466762e-06,3.467381609833909e-05,1.0501868042142651e-06,2.3358614042618273e-06
327,3.1408025462989414e-06,1.7542387732690867e-06,1.836093537895493e-06,3.6610606469624757e-06,3.630119880995533e-06,3.896921071772852e-06,2.4668432197140577e-06,1.8502774624730436e-06,1.2562841731427861e-05,1.2967733061583386e-05,1.1574262240828593e-06,5.582066826222258e-06,4.127184536978325e-06,3.507899075283446e-05,1.0454499719353504e-06,2.2538330638764636e-06
328,3.1482934680679257e-06,1.7449698643534842e-06,1.8655976139233503e-06,3.55649448644411e-06,3.6150690416339882e-06,4.0378312404485306e-06,2.4865153650515436e-06,1.8249590858725621e-06,1.29227608225735e-05,1.3205828048317817e-05,1.1449640309023468e-06,5.581195894035444e-06,4.220640711476685e-06,3.5331244180547436e-05,1.0437887983655863e-06,2.1773541524096436e-06
