,EMG1,EMG2,EMG3,EMG4,EMG5,EMG6,EMG7,EMG8,EMG9,EMG10,EMG11,EMG12,EMG13,EMG14,EMG15,EMG16
0,2.7904847475294875e-08,-2.3528656141396292e-07,6.048532963466193e-08,4.845240299340508e-07,-1.1530272613708865e-07,1.274132095312947e-06,-2.1707231318743343e-07,1.3413180809302022e-07,1.0300267602968823e-06,-3.3254694002014976e-07,-3.105473661943605e-08,2.912102606657419e-07,4.1008819717726956e-07,2.9020233171627893e-06,3.4096633028029373e-07,4.917044498003047e-08
1,1.0191848550346311e-07,-2.7696284046436622e-08,2.704292220266604e-07,6.009008631879807e-07,3.6506781098785077e-07,1.5693028362624473e-06,1.3146583247785683e-07,2.5404690222767045e-07,1.21016673614251e-06,1.2579596927934545e-06,5.594851486570945e-08,6.226823599893206e-07,7.302160680743708e-07,4.059245356642808e-06,4.1798682455407095e-07,4.597367546006957e-07
2,1.7727748394682268e-07,1.7321060599756169e-07,4.760075074928135e-07,7.179960356302334e-07,8.325676962010696e-07,1.8541003439863492e-06,4.6473597310152396e-07,3.7304131904641754e-07,1.3889552445214303e-06,2.8506357131679253e-06,1.3974666490732336e-07,9.46554304710682e-07,1.0432088460864468e-06,5.1963879983425696e-06,4.951707522442004e-07,8.497010575909802e-07
3,2.531417208524546e-07,3.64892636799564e-07,6.741258857517136e-07,8.335244699104637e-07,1.27912152507071e-06,2.122976560896863e-06,7.78893629030325e-07,4.894041892018379e-07,1.565531583034278e-06,4.431893260846092e-06,2.1972698809918542e-07,1.2605263110622763e-06,1.3442906798723986e-06,6.296502787358522e-06,5.707263683420712e-07,1.2138785540700376e-06
4,3.287701217578145e-07,5.450073388271935e-07,8.623206782121862e-07,9.452223266712149e-07,1.6980704697281443e-06,2.3718452117336933e-06,1.0705699042965937e-06,6.016963299199745e-07,1.7393210618002952e-06,5.991656749068802e-06,2.954043839183649e-07,1.5623100948138795e-06,1.6299047494527315e-06,7.346828015310657e-06,6.431494451712043e-07,1.5477596485575298e-06
5,4.0354185344035e-07,7.116070276891386e-07,1.038739124804758e-06,1.0509893618551738e-06,2.0847109769796086e-06,2.5983399711261626e-06,1.3369980361783603e-06,7.088377723937833e-07,1.90985998658514e-06,7.523369540255787e-06,3.6639477248375993e-07,1.849623206417788e-06,1.897787194694416e-06,8.340714160050643e-06,7.113194301396128e-07,1.8476512635368974e-06
6,4.76973513562987e-07,8.633374149960263e-07,1.2019325332630152e-06,1.1491767033208584e-06,2.436464344558234e-06,2.801585165759963e-06,1.5761600761773173e-06,8.100605188038383e-07,2.076574252734055e-06,9.023056858994221e-06,4.3238129729019804e-07,2.1202597038394324e-06,2.1468327757307086e-06,9.277713812153403e-06,7.745350518892952e-07,2.110790734610554e-06
7,5.488029030398511e-07,9.995291783810495e-07,1.350746151950136e-06,1.23885994381348e-06,2.7526590907892085e-06,2.981716402449776e-06,1.7869806966848467e-06,9.047915181089265e-07,2.238742732504576e-06,1.0488355800298436e-05,4.931069801730421e-07,2.3720794855182e-06,2.376863323048554e-06,1.0161678687795296e-05,8.324450521667415e-07,2.335476016154706e-06
8,6.190611303764332e-07,1.120186489378151e-06,1.4844008223309393e-06,1.319894193914213e-06,3.03411772703931e-06,3.139523965604573e-06,1.9695159545517382e-06,9.926141527424777e-07,2.395615297699148e-06,1.191804038382793e-05,5.484068115542869e-07,2.6028450225596494e-06,2.5883423775076846e-06,1.0998006177199447e-05,8.849012091183842e-07,2.5211598014672605e-06
9,6.880281530137507e-07,1.2259542996421375e-06,1.6025836845913275e-06,1.3927044963907842e-06,3.282771097531066e-06,3.2763583314868506e-06,2.1250472631236473e-06,1.0732895749715354e-06,2.546594239565035e-06,1.3312062041572157e-05,5.982927466887293e-07,2.810178784234255e-06,2.7821697337776445e-06,1.1791904184080541e-05,9.318041705784194e-07,2.6684730721571027e-06
10,7.561014080730464e-07,1.3180443808627903e-06,1.7053753026076314e-06,1.4579328679152978e-06,3.501368687476652e-06,3.3940663798176536e-06,2.256050782883089e-06,1.1467315238090961e-06,2.6913692836813773e-06,1.4671687127793773e-05,6.430337635786693e-07,2.991845969577158e-06,2.9595947481055797e-06,1.2548589273474266e-05,9.72992675337206e-07,2.779223494960499e-06
11,8.236571846784926e-07,1.3980261851195312e-06,1.7930468971611165e-06,1.516144041844993e-06,3.6932158211105837e-06,3.494730217922663e-06,2.3660608208134416e-06,1.2129819370875952e-06,2.8298485464649064e-06,1.599906467057513e-05,6.831137549728773e-07,3.146192854022415e-06,3.122080063463737e-06,1.3274280259741521e-05,1.0082413320505367e-06,2.856327319722772e-06
12,8.909546039415873e-07,1.4675269064480594e-06,1.8658840644960477e-06,1.5677567451396172e-06,3.86187873949759e-06,3.580498027471793e-06,2.459410420238432e-06,1.2722737772477749e-06,2.9618758300877617e-06,1.7295988819658193e-05,7.190855184031145e-07,3.2724954884888665e-06,3.2710996145425534e-06,1.3976404884339656e-05,1.0373738491762575e-06,2.903505026020392e-06
13,9.580999356925662e-07,1.5280036897981974e-06,1.9241473246855115e-06,1.6132036763127335e-06,4.0108641259191224e-06,3.653865164758943e-06,2.5408210679185456e-06,1.325078918740254e-06,3.0869227189838343e-06,1.8562324336925335e-05,7.514480971326287e-07,3.3711488475191487e-06,3.4081368790804623e-06,1.4662607978909172e-05,1.0603696265202137e-06,2.9247471373834666e-06
14,1.025044046444499e-06,1.580644744848945e-06,1.9681689420692715e-06,1.6531171652706073e-06,4.1433673870981165e-06,3.7180624913707836e-06,2.6149430454563275e-06,1.3720146023880785e-06,3.2039099187377586e-06,1.9794701874075292e-05,7.806104449940427e-07,3.4436981620859417e-06,3.534905588673982e-06,1.5339198383298555e-05,1.0773802889246626e-06,2.9238573965167648e-06
15,1.091567853169672e-06,1.6263431452498293e-06,1.998497172512357e-06,1.6883104057263468e-06,4.2622275868641646e-06,3.7770020454385447e-06,2.686066048658193e-06,1.4137347560307682e-06,3.311134892624907e-06,2.09857301755723e-05,8.069520062227965e-07,3.492673029325785e-06,3.6533906395636586e-06,1.601014085416502e-05,1.0887070238841711e-06,2.9042505392738175e-06
16,1.1572586630308822e-06,1.6657226762650945e-06,2.0159602327905545e-06,1.7195624678395455e-06,4.370050327298814e-06,3.8348372768934895e-06,2.758094099740506e-06,1.4509237938845677e-06,3.4062726664188756e-06,2.212364999850722e-05,8.309425421295938e-07,3.521169121225886e-06,3.76551923235041e-06,1.6677187902172025e-05,1.094767308581826e-06,2.8688784144220956e-06
17,1.2215002343572805e-06,1.6992109397462383e-06,2.021580951471995e-06,1.7474252659511249e-06,4.4692222615646445e-06,3.895577425651424e-06,2.8346455499821524e-06,1.4842585355637324e-06,3.486526836016863e-06,2.3192251575365843e-05,8.532100970567485e-07,3.5322830407673084e-06,3.872785128359093e-06,1.7340644873762425e-05,1.0960583707138857e-06,2.8202581447743725e-06
18,1.2834772666353903e-06,1.72711887301153e-06,2.0163859416626657e-06,1.772203931493974e-06,4.561685447371083e-06,3.962972546434924e-06,2.9190936242113867e-06,1.5143079318036061e-06,3.5489751263155083e-06,2.4171157102219078e-05,8.744821257542176e-07,3.528742945357075e-06,3.976148655235575e-06,1.800002361744514e-05,1.09318866577218e-06,2.7606987714590973e-06
19,1.3422478930476545e-06,1.7497181628557508e-06,2.0012112235399667e-06,1.7940928618186905e-06,4.648760584917783e-06,4.040529141681697e-06,3.0144811512952588e-06,1.5414864058329196e-06,3.591047342279101e-06,2.5037287416140913e-05,8.954553243220754e-07,3.5129165504341823e-06,4.076143731796324e-06,1.8654391675696896e-05,1.0869460375511715e-06,2.692590936944087e-06
20,1.3969434947578477e-06,1.7673482011189188e-06,1.9766184798102968e-06,1.8133575214100402e-06,4.731308879661868e-06,4.131457545005656e-06,3.1233589116850575e-06,1.566026057909993e-06,3.6110679330308147e-06,2.5768402001114693e-05,9.167143828770675e-07,3.486957753840066e-06,4.1729224013046e-06,1.930250738016879e-05,1.0782547869252465e-06,2.618458353494525e-06
21,1.446979601617826e-06,1.7805146353187904e-06,1.9429712262015653e-06,1.8304019854723828e-06,4.810108210564341e-06,4.238535198730429e-06,3.2476505885567494e-06,1.5879297027369458e-06,3.6087443547248303e-06,2.6347734743367914e-05,9.387348708429725e-07,3.4528526523003814e-06,4.266123723902248e-06,1.9942736902449973e-05,1.0680133237449847e-06,2.5407064837796955e-06
22,1.4920742456488263e-06,1.789869820620179e-06,1.9006105212158725e-06,1.8456426942704536e-06,4.886160989030183e-06,4.363959105632339e-06,3.388587783303865e-06,1.6069802885026347e-06,3.5853235850675213e-06,2.676644768981759e-05,9.61901597057804e-07,3.4124093156282237e-06,4.354761469889918e-06,2.0572682016564306e-05,1.0569539365290108e-06,2.461342450101824e-06
23,1.5320927669502544e-06,1.7960961225423422e-06,1.8500705729695174e-06,1.8593344377381772e-06,4.960743081925112e-06,4.509193706405758e-06,3.5466662463521057e-06,1.6227972447932744e-06,3.5432041046170087e-06,2.702162664257336e-05,9.865354648603175e-07,3.3673125026480088e-06,4.4373272163386255e-06,2.1188613142239357e-05,1.0455996351250596e-06,2.3819101485243523e-06
24,1.5669521321881883e-06,1.7998690931872819e-06,1.7922686113474757e-06,1.871517567475633e-06,5.035126688383826e-06,4.674817669556064e-06,3.7216081928644244e-06,1.634882299540329e-06,3.485246740511859e-06,2.7112000183464396e-05,1.0129915767739643e-06,3.31925169252296e-06,4.511988480708797e-06,2.1785105065540363e-05,1.0342726085023957e-06,2.30357113334352e-06
25,1.5966721597310576e-06,1.8019148482541807e-06,1.7285333370755335e-06,1.8820284460391505e-06,5.110220283214988e-06,4.860437665776285e-06,3.912384291667492e-06,1.6427520777679706e-06,3.414316557009605e-06,2.7035821115415626e-05,1.0417522491404159e-06,3.269973862615546e-06,4.576752899072295e-06,2.2355373873734674e-05,1.023120522277926e-06,2.2271448943835147e-06
26,1.6214489823234483e-06,1.8029761909816972e-06,1.660434988392543e-06,1.8904590731408089e-06,5.1865359569967145e-06,5.064673168936871e-06,4.117289801908356e-06,1.6462279896584148e-06,3.333140524618882e-06,2.6792470797783988e-05,1.0733680670484944e-06,3.22113192339316e-06,4.62972991588454e-06,2.2892251555792483e-05,1.0121893720169015e-06,2.1531321160168884e-06
27,1.64168344874684e-06,1.8036752935672027e-06,1.5895773538252054e-06,1.8961159514347677e-06,5.264512632260426e-06,5.285156326795299e-06,4.333967582626434e-06,1.6456768975940519e-06,3.2441583033966383e-06,2.6385759437221533e-05,1.1083131606598784e-06,3.174083608235775e-06,4.6695228245483705e-06,2.3388668365638656e-05,1.0015074775813776e-06,2.081862432831215e-06
28,1.6579747621855773e-06,1.8044620438665565e-06,1.5174986406733525e-06,1.898106508559352e-06,5.34478698434825e-06,5.5186553774876915e-06,4.559346204172858e-06,1.641967377730698e-06,3.149388726410736e-06,2.5825860592842968e-05,1.1469499160133257e-06,3.129885114606087e-06,4.695395256183565e-06,2.383658301205053e-05,9.91085726502464e-07,2.013666668986061e-06
29,1.6710358249763316e-06,1.8057065557554641e-06,1.4456389176612132e-06,1.8955988202456612e-06,5.4281032103659125e-06,5.761500094963779e-06,4.789688094290271e-06,1.6361942696594863e-06,3.0505117254536026e-06,2.512808598749059e-05,1.189639011124679e-06,3.0894044804349177e-06,4.707030012366282e-06,2.422515829150196e-05,9.808552058659972e-07,1.9488555196730352e-06
30,1.6815221420342282e-06,1.8077912797173536e-06,1.3752706499246408e-06,1.8881546296104012e-06,5.515094357344671e-06,6.010210403743776e-06,5.020957058773744e-06,1.6294423212697308e-06,2.9490198501786793e-06,2.430971573746624e-05,1.2368464168351448e-06,3.053309401480643e-06,4.70444973954729e-06,2.4539978132546313e-05,9.706373483160833e-07,1.8875917767502043e-06
31,1.6898781203725473e-06,1.8110707410675972e-06,1.3074094509501873e-06,1.8759324032824288e-06,5.60645276492328e-06,6.261975913577352e-06,5.24941384293278e-06,1.62276130911328e-06,2.8462164910954964e-06,2.338771688609619e-05,1.289095911625674e-06,3.0219476705875602e-06,4.688493970551574e-06,2.476400435010081e-05,9.601831340813367e-07,1.8298813484836422e-06
32,1.696282433737696e-06,1.815749953782778e-06,1.2427947982520408e-06,1.85961283595185e-06,5.703436826185758e-06,6.514668570691598e-06,5.472150650474076e-06,1.6172489124664415e-06,2.743096875743691e-06,2.2378367066040803e-05,1.3468126614432308e-06,2.9953476854557465e-06,4.661185829575919e-06,2.4880121293058743e-05,9.492740517647159e-07,1.7756355132922928e-06
33,1.7007012736142147e-06,1.8218187071631102e-06,1.1819690172784536e-06,1.840113694526129e-06,5.8080366097682075e-06,6.766358124861889e-06,5.687386723355852e-06,1.6140609137853278e-06,2.6403001916697167e-06,2.129762902483136e-05,1.4102553562283621e-06,2.9734116901383633e-06,4.625340758800327e-06,2.4874837149059292e-05,9.378370790094815e-07,1.724673660583933e-06
34,1.7030537891639149e-06,1.8290478527525408e-06,1.1253993816718473e-06,1.8183502540048749e-06,5.922470590155945e-06,7.014782628681197e-06,5.894479348745989e-06,1.6143065599175136e-06,2.5381985174396827e-06,2.0161013194000246e-05,1.4795696893419485e-06,2.9561784648674955e-06,4.5837571432311275e-06,2.4741628023595516e-05,9.259991990823949e-07,1.6767459164312769e-06
35,1.7034090100680016e-06,1.8369664771292352e-06,1.0735619937369897e-06,1.7952173545421547e-06,6.0483897124840034e-06,7.257377635504696e-06,6.093639580559862e-06,1.6189001119578968e-06,2.4370214958855177e-06,1.8982697683092646e-05,1.5548159276439098e-06,2.9440478727163384e-06,4.5386191399732384e-06,2.448178179751707e-05,9.140324057208794e-07,1.6316189955437225e-06
36,1.7020323204391069e-06,1.8448394264554125e-06,1.0269480053741879e-06,1.7716523333534617e-06,6.186290093540524e-06,7.491844539932953e-06,6.285464696746055e-06,1.628466066648029e-06,2.3369759385978757e-06,1.777490981790219e-05,1.6359750632885684e-06,2.937918799829813e-06,4.491253575350663e-06,2.4101900230093594e-05,9.022136380141676e-07,1.5890995254132617e-06
37,1.6992199265468257e-06,1.851743085462834e-06,9.860135604787045e-07,1.7485613930855778e-06,6.3352762630287425e-06,7.716632096589055e-06,6.470535468552175e-06,1.6433537155894137e-06,2.238337261599122e-06,1.6548817213575756e-05,1.723046890505408e-06,2.939163432387652e-06,4.442081124133446e-06,2.3609960146370458e-05,8.907186441826097e-07,1.5489832008712627e-06
38,1.6950772352480377e-06,1.8567645619297155e-06,9.511138486186993e-07,1.7266931488245964e-06,6.493041556659224e-06,7.930902875073649e-06,6.649201959324027e-06,1.6637069489829068e-06,2.141401489956223e-06,1.531644015757023e-05,1.816145622708992e-06,2.949374708368862e-06,4.390764676322931e-06,2.30137441078798e-05,8.796493538049566e-07,1.5110268780555676e-06
39,1.6894489690907079e-06,1.8592391032203618e-06,9.224568593279688e-07,1.706638397134676e-06,6.655979761545138e-06,8.134033570161708e-06,6.8214273175963005e-06,1.6894846526788028e-06,2.0463593911491957e-06,1.4091685418542804e-05,1.915440739001914e-06,2.9699849546722945e-06,4.3366279640489885e-06,2.2323117636544216e-05,8.691366979306286e-07,1.474935531976005e-06
40,1.68205845828243e-06,1.85892229143531e-06,9.000989126306472e-07,1.6888902056061035e-06,6.819469476703378e-06,8.32490260492048e-06,6.98657109541332e-06,1.7204659699675452e-06,1.953312646330922e-06,1.288967386201952e-05,2.021061200835097e-06,3.001980777910467e-06,4.279125846101166e-06,2.1553139635542e-05,8.593722767298085e-07,1.440325209840917e-06
41,1.6726956102959066e-06,1.8560431516957345e-06,8.839624010501301e-07,1.673826127296738e-06,6.9783867462758676e-06,8.501349397515983e-06,7.1432166993092265e-06,1.7563211627569028e-06,1.8624300120598661e-06,1.1725248636305455e-05,2.1331850436198526e-06,3.0458405624255287e-06,4.218014894014354e-06,2.072451479183426e-05,8.505373725941417e-07,1.4067100597047824e-06
42,1.6612459738868053e-06,1.851226520396566e-06,8.738484093828276e-07,1.6616307150936148e-06,7.127771898231912e-06,8.660244117954111e-06,7.2891375580993065e-06,1.7966518481470565e-06,1.774062593608129e-06,1.0611782101742656e-05,2.252276384674377e-06,3.101686676996183e-06,4.15317018491048e-06,1.9860968151840272e-05,8.427382094304879e-07,1.3735706850385041e-06
43,1.647584803294647e-06,1.8453152670387758e-06,8.694620150660073e-07,1.6522374579200735e-06,7.263378938796336e-06,8.798184872169476e-06,7.421238856626779e-06,1.8409187205699062e-06,1.6887557663004249e-06,9.56060673733804e-06,2.379196319921504e-06,3.169601920854042e-06,4.084250411196094e-06,1.8985605520075364e-05,8.360264245294403e-07,1.3404656187515204e-06
44,1.6315474252214565e-06,1.8391620615061255e-06,8.704531930366876e-07,1.64529663112655e-06,7.381824766356303e-06,8.912228701826398e-06,7.53536311979991e-06,1.8883464008439129e-06,1.6071906159307859e-06,8.580858056413947e-06,2.5150414481770757e-06,3.2499367147717033e-06,4.010417969885321e-06,1.8118746475890932e-05,8.304566763914516e-07,1.3071025805558933e-06
45,1.6130341323028759e-06,1.833451452092553e-06,8.76427877902988e-07,1.6401483762663422e-06,7.480255937192243e-06,9.000002574385431e-06,7.626260009076369e-06,1.9378785571738782e-06,1.5300623410742702e-06,7.679542026245146e-06,2.660897389743529e-06,3.343339215398907e-06,3.930366813791303e-06,1.7277810322699417e-05,8.260953770585267e-07,1.2733681461912442e-06
46,1.59210150729334e-06,1.8285744890644514e-06,8.86925201230272e-07,1.6358399241789368e-06,7.555711162929381e-06,9.059122870189139e-06,7.688052339911625e-06,1.988217272941795e-06,1.4579268768443937e-06,6.8617320134233495e-06,2.8177735352047907e-06,3.4504519022122877e-06,3.842819344236191e-06,1.6477796158986044e-05,8.230102522405558e-07,1.2393452835977558e-06
47,1.5689413423989826e-06,1.8245593808569463e-06,9.014122905097264e-07,1.63128551313147e-06,7.6047134787433445e-06,9.086659730657071e-06,7.715118860858943e-06,2.0379824645578336e-06,1.3911083471666391e-06,6.130793975387458e-06,2.986677279784204e-06,3.5715465003685298e-06,3.7472182433565493e-06,1.5731589092425633e-05,8.213192530890801e-07,1.2052787453661347e-06
48,1.543796828321954e-06,1.8210576143331736e-06,9.193004038610763e-07,1.6256054630401337e-06,7.62367569631293e-06,9.079454229654233e-06,7.703118474658842e-06,2.08592736732806e-06,1.3297344258347054e-06,5.488642165143255e-06,3.168569037555412e-06,3.706327527591713e-06,3.644133780499957e-06,1.5050656456412471e-05,8.212382525278896e-07,1.1715064272786118e-06
49,1.5169240532169467e-06,1.8173692758407507e-06,9.399508332346782e-07,1.618463828679908e-06,7.609997190761738e-06,9.035106313016e-06,7.649912826797797e-06,2.1311078767494793e-06,1.2738602035551527e-06,4.936072427735245e-06,3.3641763973644314e-06,3.853863423330236e-06,3.535178987770007e-06,1.4445914421776068e-05,8.230378608848747e-07,1.1384407727821594e-06
50,1.4886584775448009e-06,1.8124670905685629e-06,9.62720050496367e-07,1.6101557446691374e-06,7.5630898858862126e-06,8.952849238197278e-06,7.556136157358452e-06,2.1729345493828892e-06,1.2235572707908973e-06,4.473049280776447e-06,3.573880672771533e-06,4.012626494874228e-06,3.4225404027440986e-06,1.3927812978284872e-05,8.269684296823933e-07,1.1065571852917297e-06
51,1.4595268999861854e-06,1.8050161865844976e-06,9.870878287215384e-07,1.601433558166867e-06,7.48479689049824e-06,8.833945605584244e-06,7.425203611422899e-06,2.2110460265908563e-06,1.1788836580823478e-06,4.098800189133596e-06,3.79771359475097e-06,4.1807229768683815e-06,3.30839300961288e-06,1.3505574818979233e-05,8.332224450159537e-07,1.0763171892659027e-06
52,1.4302725170678253e-06,1.793512637446866e-06,1.0127705171805975e-06,1.5932574547548996e-06,7.37918614194501e-06,8.681624260381178e-06,7.262716497526025e-06,2.2450968230179236e-06,1.139807043189913e-06,3.811811587666237e-06,4.0353398267654785e-06,4.356267448465728e-06,3.1944792947948605e-06,1.3186273061714841e-05,8.419041759263201e-07,1.048075394178897e-06
53,1.4017314474544259e-06,1.776651094738186e-06,1.039703640802931e-06,1.5865889901016756e-06,7.251916250472782e-06,8.500574366929289e-06,7.07544861451562e-06,2.2746802422806823e-06,1.1062243311236147e-06,3.609905193022634e-06,4.286011118353128e-06,4.537717789808755e-06,3.0819530293105147e-06,1.2974300724009098e-05,8.52997697318552e-07,1.0220308257983942e-06
54,1.374643270158384e-06,1.7537676156535236e-06,1.067912259168132e-06,1.5822287588517933e-06,7.10939280272159e-06,8.296087228817717e-06,6.870254812825896e-06,2.299410984975397e-06,1.0780900816239497e-06,3.490410194371695e-06,4.548532810881999e-06,4.7239528312259305e-06,2.9714179054051914e-06,1.2871413046733219e-05,8.663687260862184e-07,9.982407080621067e-07
55,1.3495378969143058e-06,1.725038879413427e-06,1.0973998865157197e-06,1.5807158374966583e-06,6.957906749709476e-06,8.073114048852072e-06,6.653221941875468e-06,2.3189899793703003e-06,1.0555012608695702e-06,3.4503857078837886e-06,4.8212003026162225e-06,4.9140085704103005e-06,2.8631667960757415e-06,1.2877167785346235e-05,8.818068781435459e-07,9.767033085310745e-07
56,1.3267544685307972e-06,1.6912923069626039e-06,1.128117711971898e-06,1.5823240803338707e-06,6.802953524927565e-06,7.835627199318898e-06,6.429187458415699e-06,2.3331715921955878e-06,1.0386156143477144e-06,3.4868709255128635e-06,5.101646733853934e-06,5.106637387766563e-06,2.757612679207834e-06,1.2989317523283163e-05,8.990821653650108e-07,9.574880329494843e-07
57,1.3065319842508624e-06,1.6536019640048614e-06,1.1599265012573815e-06,1.587120865306399e-06,6.648929829182314e-06,7.5866538470387955e-06,6.201563013002167e-06,2.3417317766419896e-06,1.0274998233856179e-06,3.597032831254502e-06,5.386639368116917e-06,5.299902599671405e-06,2.655607978692118e-06,1.3203799266115566e-05,9.179709025035734e-07,9.408303849181156e-07
58,1.2890878371302227e-06,1.6129759081720592e-06,1.1925216825997553e-06,1.5950180383487438e-06,6.499140320727289e-06,7.328913113827487e-06,5.9724211866811426e-06,2.344570090146838e-06,1.0220645457595886e-06,3.7780784535050997e-06,5.6719520469398135e-06,5.4909130276501555e-06,2.558349687849011e-06,1.3514447750097778e-05,9.382329349046686e-07,9.270945054137428e-07
59,1.274632128669939e-06,1.570235782577614e-06,1.2254088686741463e-06,1.605773866119212e-06,6.355834199612537e-06,7.065450240547945e-06,5.742852583063966e-06,2.341937415195075e-06,1.0220644472177807e-06,4.027115998004741e-06,5.952366100530449e-06,5.675826294005035e-06,2.466981725552269e-06,1.391284425393026e-05,9.595969510571795e-07,9.166395742760522e-07
60,1.2633071855934926e-06,1.525987426786146e-06,1.2579337688023807e-06,1.6189431407266504e-06,6.220253528899523e-06,6.799798195095853e-06,5.513461261063367e-06,2.33460548970464e-06,1.0271057282797872e-06,4.341334952914392e-06,6.22166216672386e-06,5.850228549321116e-06,2.382248460891642e-06,1.4388466912449784e-05,9.818189533697003e-07,9.097132676666308e-07
61,1.2550971487505393e-06,1.4806285741319543e-06,1.2892870501950009e-06,1.6338159053030922e-06,6.092871847050397e-06,6.5356984569240124e-06,5.2847817295862416e-06,2.323823798574015e-06,1.036713475438672e-06,4.7185190066000495e-06,6.472514847734708e-06,6.0097273520768525e-06,2.304407367690594e-06,1.4928968426396941e-05,1.0047742268953973e-06,9.064000545195662e-07
62,1.2497794172956296e-06,1.434422738157558e-06,1.3184986469023594e-06,1.6494113416579523e-06,5.9738226322598666e-06,6.276612227822079e-06,5.057527036724278e-06,2.3111082670962935e-06,1.05042749879086e-06,5.157502956459743e-06,6.696573913769198e-06,6.150287086416875e-06,2.233382155141005e-06,1.5520338102149617e-05,1.0284695548063763e-06,9.065982608624498e-07
63,1.2469768989779905e-06,1.3876674864033125e-06,1.3445041066422895e-06,1.6645570461666763e-06,5.8633548059245304e-06,6.025258499935473e-06,4.832719338637829e-06,2.2980026537212202e-06,1.0678124601448078e-06,5.658202194381949e-06,6.8851987773664255e-06,6.268046319893366e-06,2.169060329511158e-06,1.6146765387970885e-05,1.05294779981006e-06,9.100326294776623e-07
64,1.2463033115742012e-06,1.3408497785759626e-06,1.3663079473086784e-06,1.6780147426885232e-06,5.76208201759045e-06,5.783379198176227e-06,4.611764428146084e-06,2.285883802700779e-06,1.0884437670290023e-06,6.221073867689915e-06,7.030960566658095e-06,6.359229115759743e-06,2.1115987834763707e-06,1.6790196243738392e-05,1.0781844623815395e-06,9.162990872392273e-07
65,1.2474662294031488e-06,1.2946107393060562e-06,1.3832090669556355e-06,1.6886102741573849e-06,5.670837531752184e-06,5.551806761036889e-06,4.396449777830446e-06,2.2758094481353333e-06,1.1119502259686835e-06,6.846230539274779e-06,7.129337300941484e-06,6.42071566435698e-06,2.06155091206641e-06,1.743013263859028e-05,1.1040489762981382e-06,9.249295316507592e-07
66,1.250217853961389e-06,1.249614967507492e-06,1.3949680912331966e-06,1.6953902165430953e-06,5.590256704434278e-06,5.330770675149159e-06,4.188823393995642e-06,2.2684050943116148e-06,1.1380142281259115e-06,7.532754019773979e-06,7.179394457600416e-06,6.450498699949518e-06,2.0197211394460594e-06,1.8044614296110618e-05,1.1302951748113757e-06,9.354971417659362e-07
67,1.2542810644309989e-06,1.2065193822577322e-06,1.4017539836696144e-06,1.6978311762945922e-06,5.520496566001236e-06,5.120305895637579e-06,3.990991084514408e-06,2.2638055739477558e-06,1.1663405568276091e-06,8.278662172787947e-06,7.182860383667362e-06,6.447370486193111e-06,1.986860898471602e-06,1.8612550089501894e-05,1.1565645087776026e-06,9.477138739569906e-07
68,1.2594179370115155e-06,1.1659647114917216e-06,1.4038981194991286e-06,1.6960321774677668e-06,5.461364376931116e-06,4.920624930246543e-06,3.8048969050650016e-06,2.261677926266906e-06,1.1967298113455754e-06,9.081591468683176e-06,7.143046727396166e-06,6.410765740455554e-06,1.963431519326809e-06,1.911632339588874e-05,1.1824416484483337e-06,9.61405288965275e-07
69,1.2655286689190987e-06,1.1285076172455316e-06,1.4016716965466375e-06,1.690750842351442e-06,5.412708498738536e-06,4.732352937619017e-06,3.632093700221654e-06,2.2613130730657223e-06,1.229208316675794e-06,9.939769954620807e-06,7.065180341650146e-06,6.341447388811737e-06,1.949551787606066e-06,1.9543375342422154e-05,1.2075443316342941e-06,9.764222177728486e-07
70,1.272600189920594e-06,1.0945867389621333e-06,1.395176322624942e-06,1.6832041068993835e-06,5.374682668771504e-06,4.556540018930039e-06,3.4735375809606063e-06,2.2616886251502213e-06,1.264054270505179e-06,1.0852418053931388e-05,6.957229903563404e-06,6.242167074529434e-06,1.9450486356431364e-06,1.9886225391303104e-05,1.2315944079820709e-06,9.92631973317661e-07
71,1.280626029289999e-06,1.0645366730680778e-06,1.3842792027508828e-06,1.6747241482289345e-06,5.347599443330616e-06,4.3943861364821425e-06,3.32951273838413e-06,2.2614345103243074e-06,1.3016870474022639e-06,1.1819026681013039e-05,6.829654055834906e-06,6.1175137138556705e-06,1.9495008681046017e-06,2.0141123594738572e-05,1.2544299525653537e-06,1.009945703907543e-06
72,1.2896725954611206e-06,1.0385760656849932e-06,1.3686030851711028e-06,1.6664922235576235e-06,5.331483604230367e-06,4.246807924054268e-06,3.199718949292721e-06,2.258801491608982e-06,1.3425797984214413e-06,1.2838038191260453e-05,6.694213282142476e-06,5.9733190953811474e-06,1.962282952673642e-06,2.030574614160656e-05,1.2759296105446602e-06,1.0282863906081848e-06
73,1.2999516770607132e-06,1.0167748896569406e-06,1.3476561867819428e-06,1.6594881791833855e-06,5.325819423889538e-06,4.114229190249658e-06,3.083433098718562e-06,2.2518089205197567e-06,1.3873176842158892e-06,1.3905847830177768e-05,6.56279249440632e-06,5.816217491447545e-06,1.9826517316855965e-06,2.037673751232647e-05,1.2959267704479973e-06,1.047518299333622e-06
74,1.3117270286490516e-06,9.990504540061507e-07,1.3210880329226297e-06,1.6545954530438428e-06,5.329734082377052e-06,3.996779949367713e-06,2.9796498176266388e-06,2.23864085989913e-06,1.4366817226119872e-06,1.5016304662755608e-05,6.446673976862553e-06,5.653358930955081e-06,2.0098714382694416e-06,2.0348927307208724e-05,1.3141889589425152e-06,1.0674078051750713e-06
75,1.3251657290072505e-06,9.852220507429653e-07,1.2889317737834928e-06,1.6527329830874508e-06,5.342249292075531e-06,3.894605911616042e-06,2.887120942956961e-06,2.21815477365878e-06,1.491635379120378e-06,1.6160505124828803e-05,6.356177695140856e-06,5.491956901788601e-06,2.0433018226424783e-06,2.021754674390289e-05,1.3303828933900933e-06,1.087635156214199e-06
76,1.3402753157979017e-06,9.75120138046395e-07,1.2517034301221082e-06,1.6549083411653092e-06,5.3622629632159535e-06,3.807981593723664e-06,2.80428496617697e-06,2.1901904830499204e-06,1.5532340809207817e-06,1.732708162489658e-05,6.300455439748717e-06,5.338718008466652e-06,2.082341791317893e-06,1.9981990559206366e-05,1.344024485332563e-06,1.1078046006783615e-06
77,1.3568775877673742e-06,9.686650889608781e-07,1.2103421106153611e-06,1.6621358734309883e-06,5.388378909692154e-06,3.737251658719296e-06,2.7292856179293435e-06,2.1554598061101325e-06,1.6224873458206623e-06,1.850323143742618e-05,6.287324541227855e-06,5.1995087016450665e-06,2.1262779378193364e-06,1.9648146696545803e-05,1.354554440049549e-06,1.1274483898457928e-06
78,1.374581536841268e-06,9.658384436214437e-07,1.1660446248898977e-06,1.6752829923840265e-06,5.418825857274118e-06,3.682709950568524e-06,2.6602413632379423e-06,2.1151616536832966e-06,1.7002137709262102e-06,1.9676148111456235e-05,6.323146173794976e-06,5.0793158460645235e-06,2.1742576234088287e-06,1.922782729938205e-05,1.3615304167147834e-06,1.1460704354853894e-06
79,1.3928489969066921e-06,9.66628297389096e-07,1.1200577633415979e-06,1.6949669132872975e-06,5.451584448535773e-06,3.6444405699999706e-06,2.5955902514744465e-06,2.07066744305168e-06,1.786957986428319e-06,2.083413403253174e-05,6.412807918701133e-06,4.982262361685965e-06,2.2254107899932596e-06,1.8736277260460906e-05,1.364766417929525e-06,1.1631831122053912e-06
80,1.411171173344863e-06,9.71052726857911e-07,1.0735099560389274e-06,1.7215256112307299e-06,5.484721295577287e-06,3.622151293528791e-06,2.534288336494647e-06,2.023422750341368e-06,1.883010205582073e-06,2.1966918620500847e-05,6.559843963687909e-06,4.911544024924361e-06,2.278888246329512e-06,1.8189782858154338e-05,1.3643339011937963e-06,1.1783256177702321e-06
81,1.4291846689248258e-06,9.791909573556458e-07,1.027344642837727e-06,1.7550002708444038e-06,5.516785217822873e-06,3.615071716481319e-06,2.4758764924151704e-06,1.9749376727307893e-06,1.988498367574075e-06,2.3065249582208484e-05,6.766629469156255e-06,4.869331981289967e-06,2.3337714022581975e-06,1.7604485898829306e-05,1.360475451416622e-06,1.1911618340984013e-06
82,1.446618982637001e-06,9.911221346898454e-07,9.823270799061914e-07,1.7951245654596956e-06,5.547039577837464e-06,3.6219577992897366e-06,2.420479691693673e-06,1.9267202846917684e-06,2.10352042197505e-06,2.4119847748645294e-05,7.034495626331185e-06,4.856741177171366e-06,2.389031360192482e-06,1.699602554711176e-05,1.3535259167635257e-06,1.2016141162717926e-06
83,1.463221325635608e-06,1.0068181002977552e-06,9.390589052544613e-07,1.8413919536862945e-06,5.575404601318403e-06,3.6411789214825712e-06,2.368704832922831e-06,1.8801529336608344e-06,2.2284403078712237e-06,2.5120053564124405e-05,7.3636661025457285e-06,4.873884163099451e-06,2.4435840707606096e-06,1.6379164878793246e-05,1.3439136055240395e-06,1.209886835690106e-06
84,1.4787546259928505e-06,1.026098701490925e-06,8.9801275687931e-07,1.8932013111391393e-06,5.602141663029729e-06,3.670810765963094e-06,2.3214219166217444e-06,1.8363847000701473e-06,2.3642960983874257e-06,2.605420015598279e-05,7.753115617375835e-06,4.919901906752438e-06,2.4963810582720844e-06,1.5767099430070646e-05,1.33219158726355e-06,1.2163870999952495e-06
85,1.4929538002202443e-06,1.048684192928839e-06,8.596225968956638e-07,1.949946567726772e-06,5.627388607097199e-06,3.7086187146059287e-06,2.27952520672166e-06,1.7962773973713398e-06,2.5128346054017604e-06,2.691326895212221e-05,8.200527789993423e-06,4.992945597549036e-06,2.546547559009001e-06,1.5170653600855925e-05,1.3189778819932445e-06,1.2216383718629962e-06
86,1.5054810247981697e-06,1.0742611409374356e-06,8.243617952780554e-07,2.010952630357429e-06,5.650697656446851e-06,3.751925942639032e-06,2.2437688751669967e-06,1.7604202432416218e-06,2.6760273538549933e-06,2.769522268401743e-05,8.702328207039965e-06,5.090266524631943e-06,2.5935720748863066e-06,1.4597645656608049e-05,1.3048363956118638e-06,1.2262147270381433e-06
87,1.51608595518569e-06,1.10247088075128e-06,7.927238871335917e-07,2.0753330436606603e-06,5.670806952683603e-06,3.797654568001829e-06,2.2146615639562563e-06,1.7292229964111749e-06,2.855581967635964e-06,2.840630937563773e-05,9.253586764590372e-06,5.208469649483391e-06,2.6374324261707615e-06,1.4052593615512475e-05,1.2902391672702563e-06,1.2306727803716184e-06
88,1.5248973953274635e-06,1.1328779073781183e-06,7.651464691665249e-07,2.1418902660183038e-06,5.685861511768229e-06,3.842827043023362e-06,2.192380071704965e-06,1.7029995627262358e-06,3.052775957557884e-06,2.905910427500246e-05,9.847708087862639e-06,5.343713454348516e-06,2.6785141557948477e-06,1.3536737810616654e-05,1.275628868762193e-06,1.235504616496154e-06
89,1.5325293482089203e-06,1.1649922665460677e-06,7.419585611583497e-07,2.2091172043949243e-06,5.693978459646994e-06,3.8853061309643604e-06,2.1767047796559787e-06,1.6819250983034361e-06,3.268431453137825e-06,2.9669042887971976e-05,1.0476065655132257e-05,5.491635088800247e-06,2.7173111399496244e-06,1.304826804172056e-05,1.2614935877966538e-06,1.241158222819903e-06
90,1.539893888976621e-06,1.1982683010735895e-06,7.2336119795391e-07,2.2753369802056773e-06,5.6937242992438205e-06,3.924212451399704e-06,2.166989117290785e-06,1.6659219877606714e-06,3.502846601498332e-06,3.0250845091265738e-05,1.1127734504044136e-05,5.647068441117442e-06,2.7540614132962965e-06,1.2582695631052062e-05,1.2483879518541713e-06,1.2480581425271602e-06
91,1.5479199999058522e-06,1.2320343223657713e-06,7.094406229965083e-07,2.3389420659448807e-06,5.684248279558359e-06,3.959749220283324e-06,2.162229012426712e-06,1.6546073207932117e-06,3.755741384675655e-06,3.081664391680634e-05,1.1789315236879913e-05,5.803816717146e-06,2.7885144647199543e-06,1.2133542884093617e-05,1.236874867489332e-06,1.2565373931696183e-06
92,1.5573951868960213e-06,1.2654400790497069e-06,7.002237731010998e-07,2.3985977448273408e-06,5.665247993937999e-06,3.9926985023502835e-06,2.161331028186184e-06,1.647346955509191e-06,4.02626197773069e-06,3.13771082828765e-05,1.2444813884447047e-05,5.954708215018e-06,2.8199479666030265e-06,1.169382647539836e-05,1.2274174634179953e-06,1.2667378716160483e-06
93,1.568953576855526e-06,1.297460259115724e-06,6.957414710689485e-07,2.453335728047749e-06,5.637015411684337e-06,4.024029038054668e-06,2.1634974277542394e-06,1.6434063683943493e-06,4.313004487311193e-06,3.19438967465097e-05,1.3075739376580703e-05,6.092021678216629e-06,2.8474311364303206e-06,1.1258246060412114e-05,1.2202977268929993e-06,1.2785750362618607e-06
94,1.5830821044423429e-06,1.326935502392248e-06,6.960541289258617e-07,2.5025705842941174e-06,5.600516973304283e-06,4.0547281069374796e-06,2.1684339898391007e-06,1.642100633406533e-06,4.614273574946897e-06,3.253067844385621e-05,1.3661889688324076e-05,6.208188612920992e-06,2.8701715769984302e-06,1.0824967807992379e-05,1.2155941971257838e-06,1.291797166252396e-06
95,1.600051397503742e-06,1.3526877860929063e-06,7.012311487853444e-07,2.5460619888497e-06,5.557296352583417e-06,4.085626389218681e-06,2.1762076311296967e-06,1.6427884352708655e-06,4.928791500080911e-06,3.31520498963776e-05,1.4183225329648977e-05,6.296642826322458e-06,2.887702330972583e-06,1.039606144292867e-05,1.2131817284847623e-06,1.3061351332948453e-06
96,1.619831918699032e-06,1.3737093737623338e-06,7.112994690651865e-07,2.58377781525433e-06,5.509169091980972e-06,4.11709488435444e-06,2.186922470899262e-06,1.6447176191850205e-06,5.25639844896925e-06,3.382136818396567e-05,1.4622475192615042e-05,6.3527259099763775e-06,2.8998620317280705e-06,9.976734611486124e-06,1.2127261439052518e-06,1.3214767492123158e-06
97,1.6421050045002615e-06,1.3893000058529132e-06,7.261931430603651e-07,2.615651493680545e-06,5.45785524458345e-06,4.14882475331684e-06,2.2004827564905207e-06,1.6469436875197022e-06,5.59805612401739e-06,3.45486174141068e-05,1.4967299814284716e-05,6.374415629111633e-06,2.9067605378434264e-06,9.574156034390119e-06,1.2136869155833317e-06,1.3379570828473323e-06
98,1.6663395295303764e-06,1.3990414948755092e-06,7.457346214863788e-07,2.641403047927802e-06,5.404638559975876e-06,4.17989821456839e-06,2.216522526790427e-06,1.648516919305567e-06,5.95516653283366e-06,3.533913719023367e-05,1.5210700713352927e-05,6.362503271078161e-06,2.9088555041051818e-06,9.196541135578224e-06,1.2153390257340797e-06,1.3559376952413034e-06
99,1.691825454545765e-06,1.4026969977449332e-06,7.69651484863885e-07,2.6605775827757994e-06,5.350142093114536e-06,4.209088905800783e-06,2.234445352169944e-06,1.6488631722890077e-06,6.328765673123776e-06,3.619384506942132e-05,1.5349260023844577e-05,6.31996659461418e-06,2.9070357856356203e-06,8.852677404105643e-06,1.2168409600342774e-06,1.3759395979851946e-06
100,1.7177214657940118e-06,1.4002535951280854e-06,7.976234423023798e-07,2.672685405277221e-06,5.294381242784449e-06,4.235236566185214e-06,2.2535130812655965e-06,1.6480469917740865e-06,6.718986626370784e-06,3.711085094295996e-05,1.5380630349588395e-05,6.250765456340028e-06,2.9025571852464103e-06,8.551635890425744e-06,1.2173813625110564e-06,1.398563918131259e-06
101,1.743243838182537e-06,1.39210589526073e-06,8.293582612448484e-07,2.6772942754122563e-06,5.237044456127675e-06,4.257567081023472e-06,2.2729329655054156e-06,1.646690092271991e-06,7.124822373863057e-06,3.808697040198447e-05,1.5302713550274802e-05,6.158921317069091e-06,2.8968382506033924e-06,8.302311333707451e-06,1.216342736051751e-06,1.424389550235527e-06
102,1.7678774316664657e-06,1.3791061103800586e-06,8.646672066097945e-07,2.6741269100417604e-06,5.177740492195218e-06,4.2758169567612555e-06,2.291923112676278e-06,1.645680769737012e-06,7.544081938873299e-06,3.9117269641722184e-05,1.5115217349216751e-05,6.048545792953633e-06,2.891226758230709e-06,8.112774891791635e-06,1.2133711788559515e-06,1.4538671438132834e-06
103,1.7913644912497756e-06,1.3623654960559989e-06,9.034938141868932e-07,2.6632000394341806e-06,5.11610812748911e-06,4.2901062201616875e-06,2.3097681608497197e-06,1.6459623376953347e-06,7.97337512762739e-06,4.0193034591223684e-05,1.4821835340343845e-05,5.924364882312983e-06,2.8867988195230556e-06,7.989942441402722e-06,1.2083469732077204e-06,1.4872413360170086e-06
104,1.8134680927259362e-06,1.3429839370106918e-06,9.458879383014148e-07,2.644889207798438e-06,5.051835838814675e-06,4.300664578373542e-06,2.3258355462859666e-06,1.648434914082869e-06,8.407990727044915e-06,4.130127848013516e-05,1.4431286368627958e-05,5.79183721631663e-06,2.88426025191843e-06,7.939860126823135e-06,1.2013438598420264e-06,1.5245187525091301e-06
105,1.8337756906295954e-06,1.3218788406172673e-06,9.91938706369094e-07,2.619871941403489e-06,4.984548932820179e-06,4.307552899696587e-06,2.339486017895164e-06,1.653864716051046e-06,8.841891500357486e-06,4.2427431826343535e-05,1.3956802492301431e-05,5.656641121513405e-06,2.8840249376816616e-06,7.968111935593595e-06,1.1926004845027849e-06,1.5654697413472612e-06
106,1.851773758140695e-06,1.2997413604506837e-06,1.0416769052199843e-06,2.5890787435436473e-06,4.913530818141451e-06,4.310419592498505e-06,2.34993187336612e-06,1.6628164680215642e-06,9.268216471642944e-06,4.355814303666758e-05,1.3414460742580646e-05,5.523974325408334e-06,2.8864011816121087e-06,8.079765385373128e-06,1.1824522828259755e-06,1.609623704952054e-06
107,1.8671149374018485e-06,1.2770622881130457e-06,1.0949876867304538e-06,2.553737940244452e-06,4.837513715487261e-06,4.3083289190140975e-06,2.356239051810092e-06,1.6756548478693469e-06,9.680234655652155e-06,4.468073101843021e-05,1.282112353907937e-05,5.398171392941449e-06,2.8917641836742727e-06,8.278869510442711e-06,1.1712565316518146e-06,1.6562620694421712e-06
108,1.8797767250493415e-06,1.2541759439360268e-06,1.151568716815772e-06,2.5154021750733196e-06,4.754859444327842e-06,4.299841278143869e-06,2.3575506419036995e-06,1.6925771870422236e-06,1.0072256953913594e-05,4.5781478043393717e-05,1.2192746259349481e-05,5.282711618379139e-06,2.900684241926349e-06,8.567916236095255e-06,1.159374816226028e-06,1.7044287689839286e-06
109,1.889952011174864e-06,1.2313547442649664e-06,1.2109137700272602e-06,2.4758055112451735e-06,4.664076414727311e-06,4.283448078740838e-06,2.3533828440241796e-06,1.7136082032557624e-06,1.0439978092392245e-05,4.684638478354231e-05,1.1543349342890618e-05,5.180273581579005e-06,2.9139769737961963e-06,8.947676984345028e-06,1.1471509195661417e-06,1.7529555456339576e-06
110,1.8978033366720737e-06,1.2089689886133276e-06,1.2723047554329235e-06,2.4366060137677475e-06,4.564295771074995e-06,4.258148612201608e-06,2.343811473109515e-06,1.7385896753747332e-06,1.0779996061322247e-05,4.786205034033069e-05,1.088459386285892e-05,5.092607701893219e-06,2.9326057554053086e-06,9.417538224821641e-06,1.1348602792017314e-06,1.800555031946553e-06
111,1.90329954921434e-06,1.1875961378372528e-06,1.3348361742790152e-06,2.3992464079789153e-06,4.455414962761405e-06,4.223818142139249e-06,2.3294193888674207e-06,1.7672376440821185e-06,1.1088789411385584e-05,4.881315125471802e-05,1.0225850692489531e-05,5.020373317555411e-06,2.957456537115885e-06,9.976178939746612e-06,1.1227145097930448e-06,1.8460144506808215e-06
112,1.9062386510141668e-06,1.1679661194964654e-06,1.3974642748615496e-06,2.3649984447897075e-06,4.337830259193635e-06,4.18109819850216e-06,2.31102722551359e-06,1.799191149632358e-06,1.1361751532509168e-05,4.9678210347453825e-05,9.574564026032824e-06,4.963151212124952e-06,2.9891655847647096e-06,1.0622385339692293e-05,1.1108976890603704e-06,1.88837433829782e-06
113,1.906411784700199e-06,1.1507841939630538e-06,1.4590377041340784e-06,2.334999834946621e-06,4.211925810682363e-06,4.130868540724487e-06,2.2895147352417034e-06,1.8339582955513818e-06,1.1592596983070806e-05,5.042701891976541e-05,8.93666799156882e-06,4.919570151368454e-06,3.0282352412895717e-06,1.135576291625106e-05,1.0995670176949231e-06,1.9269679429446436e-06
114,1.9037248901177953e-06,1.136575775105413e-06,1.5183845630243627e-06,2.310166552186379e-06,4.0777909900157615e-06,4.073883903979991e-06,2.265903302759554e-06,1.8708485338493387e-06,1.177324653854643e-05,5.102188203282127e-05,8.316978588259906e-06,4.8873643545253045e-06,3.07540303978877e-06,1.2176940391455168e-05,1.0888601803494248e-06,1.9613732618150967e-06
115,1.8981698641450167e-06,1.1256500872988133e-06,1.5745425132543723e-06,2.291057702380856e-06,3.935522762256126e-06,4.01101447592441e-06,2.2414012291260562e-06,1.9090279887681028e-06,1.1894601978561823e-05,5.1423547253804046e-05,7.719550349296365e-06,4.863458258271421e-06,3.1318387033720932e-06,1.3086913075179052e-05,1.0789228362724513e-06,1.9914285790895527e-06
116,1.8898212179408527e-06,1.1181666088511817e-06,1.6269701156757889e-06,2.2777926646732287e-06,3.7858437327927983e-06,3.943693251848654e-06,2.2171966247870687e-06,1.947658376402898e-06,1.1948447124868648e-05,5.159937667632419e-05,7.1479247799226425e-06,4.84429267592788e-06,3.198905196627118e-06,1.4085754799310964e-05,1.0698907930457413e-06,2.0173182223052723e-06
117,1.8789513343189716e-06,1.1142078564202677e-06,1.6755432958682474e-06,2.2700493641447967e-06,3.6304638116366646e-06,3.873970570282741e-06,2.1942142654387445e-06,1.985973002293344e-06,1.1929714996284193e-05,5.152947163012124e-05,6.605228903120859e-06,4.8262648368330685e-06,3.277830988775688e-06,1.5171506626811696e-05,1.061846030261274e-06,2.039537099450936e-06
118,1.8660241696287948e-06,1.113780253707676e-06,1.7203721812005574e-06,2.267156350974155e-06,3.471973626423278e-06,3.8041523280148013e-06,2.1730359549459837e-06,2.0232615860412763e-06,1.1837771106591528e-05,5.120838850761992e-05,6.094156269340308e-06,4.805997264974961e-06,3.3696448351681983e-06,1.6339814101721017e-05,1.054805065807304e-06,2.05866486140643e-06
119,1.8514715599073864e-06,1.116778753087568e-06,1.7615709809231697e-06,2.2682752454212073e-06,3.3134866684703168e-06,3.736371926792684e-06,2.1539024312737003e-06,2.0588531251922146e-06,1.1675846311499782e-05,5.064227742292275e-05,5.616897201841378e-06,4.7804266257561915e-06,3.475169020171365e-06,1.7584109827449218e-05,1.0487136017746677e-06,2.0751833015750527e-06
120,1.8355235347716467e-06,1.122972064729588e-06,1.799097824606733e-06,2.2725606138977925e-06,3.158289794065659e-06,3.672346222525177e-06,2.1367136493043462e-06,2.0921380403445423e-06,1.1449017815165831e-05,4.984244908002776e-05,5.1750947121068575e-06,4.74691643282e-06,3.594869128160573e-06,1.8895792327456904e-05,1.0434472970147193e-06,2.0894845550510363e-06
121,1.8183010973146146e-06,1.1319840526825039e-06,1.832746363438043e-06,2.2792033972327546e-06,3.00955474356598e-06,3.6133434001434066e-06,2.1211179722189867e-06,2.122575422297961e-06,1.1162479135169078e-05,4.8818376629643196e-05,4.7698319260834815e-06,4.703494591583975e-06,3.728726087302936e-06,2.0264096225111024e-05,1.0388682325315404e-06,2.1018919821976535e-06
122,1.800042409641414e-06,1.1432730703595668e-06,1.8622729955422137e-06,2.2874348297033693e-06,2.8700873626145385e-06,3.560303056091438e-06,2.1067538387316107e-06,2.149616734306079e-06,1.0821607266110048e-05,4.757462391063852e-05,4.401578441704809e-06,4.6491050310062674e-06,3.876205227737705e-06,2.1675578170576104e-05,1.0349122716141463e-06,2.112551246600053e-06
123,1.7812012210710107e-06,1.1561631292338847e-06,1.8875788568411477e-06,2.296561656216269e-06,2.7421941450842607e-06,3.5140410039142026e-06,2.0935172009063592e-06,2.1725947748498646e-06,1.0433302347835502e-05,4.6113396909604315e-05,4.07011727958832e-06,4.583731625922371e-06,4.03623059760828e-06,2.311336502613267e-05,1.0316135996380141e-06,2.1213157547389627e-06
124,1.7623175241055662e-06,1.1699161527044891e-06,1.9088707589735264e-06,2.3059657668459857e-06,2.627722542415018e-06,3.4754139159720122e-06,2.0816371286686725e-06,2.1907774388367906e-06,1.0006855932575671e-05,4.4440206432941536e-05,3.7745993282616874e-06,4.508373091748298e-06,4.207257429497935e-06,2.455693268250841e-05,1.0290264686430048e-06,2.1277982406521846e-06
125,1.7437818175405848e-06,1.183829241073839e-06,1.9267357282641613e-06,2.3150418275400225e-06,2.5281475697940274e-06,3.4452958303934724e-06,2.0714878195892516e-06,2.203661172079836e-06,9.55344379819672e-06,4.256953765786624e-05,3.513754160859873e-06,4.424866798442931e-06,4.387572262034008e-06,2.5983281915406104e-05,1.0271426305106903e-06,2.131583100112429e-06
126,1.7256878297355495e-06,1.197397262343588e-06,1.9421002124138475e-06,2.323193299557748e-06,2.444559447866196e-06,3.424349902113526e-06,2.063330098818244e-06,2.2112585715775364e-06,9.08468834656372e-06,4.052814800661703e-05,3.286075203915284e-06,4.335516504738902e-06,4.57567221452865e-06,2.7369275437876624e-05,1.02591402462471e-06,2.132438093783902e-06
127,1.7078833257734696e-06,1.2104592464074428e-06,1.9560875620573206e-06,2.3299275037694513e-06,2.377597397822697e-06,3.412764014818624e-06,2.057183622052469e-06,2.2141199779450004e-06,8.61129358857818e-06,3.835406526667453e-05,3.0898270045456444e-06,4.242577954161886e-06,4.770436472607419e-06,2.8694067494275366e-05,1.0253267530294794e-06,2.130384769297279e-06
128,1.6901945413546492e-06,1.2231531883303892e-06,1.969805001582576e-06,2.3348719634180035e-06,2.3274452925978006e-06,3.4101574685717573e-06,2.0528220261743136e-06,2.2131089031571143e-06,8.142362857770179e-06,3.6091697119711475e-05,2.9229458317861185e-06,4.147807379594e-06,4.97092481799678e-06,2.994063661174761e-05,1.0254183324331601e-06,2.1256434542009017e-06
129,1.6726728618342733e-06,1.235695737115208e-06,1.98413346713901e-06,2.3376304506491178e-06,2.293887817476502e-06,3.4157159289936903e-06,2.0498518059198473e-06,2.209099246096901e-06,7.685274298752576e-06,3.3785988291295266e-05,2.7829964017125045e-06,4.052232273518174e-06,5.175897969134892e-06,3.1095339213654303e-05,1.0262796612903523e-06,2.118582692498399e-06
130,1.655662763028241e-06,1.2481802526142606e-06,1.9996006222387665e-06,2.3377116510800833e-06,2.276388462750619e-06,3.4284163603653568e-06,2.0478217677085604e-06,2.2027225866258236e-06,7.24581400637057e-06,3.1478226066643994e-05,2.6672053739745224e-06,3.956171396603269e-06,5.383398474263878e-06,3.2145322883876155e-05,1.0281249434342038e-06,2.109730181185851e-06
131,1.6396364825174992e-06,1.2604998911814941e-06,2.0163472936911967e-06,2.334700005299602e-06,2.2742511459944113e-06,3.4471269075317748e-06,2.0462234064303855e-06,2.1942526858123424e-06,6.82844314485197e-06,2.9203931932107024e-05,2.5724645491104095e-06,3.859554426852843e-06,5.590615601638071e-06,3.30765857422705e-05,1.031328176265763e-06,2.099736752970131e-06
132,1.6249710226604757e-06,1.2723483385727271e-06,2.034168477902355e-06,2.3284828223147616e-06,2.286864497759063e-06,3.4704964159958904e-06,2.0444061596294415e-06,2.1836496471004343e-06,6.436496675754517e-06,2.699205133874284e-05,2.49527718891797e-06,3.762516942504762e-06,5.793896668893584e-06,3.387528061283591e-05,1.0363111017163545e-06,2.0892189576752554e-06
133,1.6118630339430238e-06,1.283265704647988e-06,2.052581358559684e-06,2.31928158793875e-06,2.3138174278532463e-06,3.4968178307107765e-06,2.0415859658719458e-06,2.1707125761892247e-06,6.07218198732421e-06,2.4864920454080598e-05,2.4317883082425217e-06,3.665922551329844e-06,5.988812848379433e-06,3.452977643076198e-05,1.043400976604407e-06,2.0786299643265818e-06
134,1.6003608151174003e-06,1.2927750129678217e-06,2.0708387031131005e-06,2.3074481865751436e-06,2.3547612240126016e-06,3.524113753439497e-06,2.0369736414213618e-06,2.1553310204834447e-06,5.736565002404926e-06,2.2838812438380653e-05,2.3780290206369054e-06,3.57138993854213e-06,6.1705107714692e-06,3.502975992940935e-05,1.052791806181954e-06,2.068291713034576e-06
135,1.590386816841825e-06,1.3005876971877322e-06,2.087939492955639e-06,2.293177432059945e-06,2.409213629345278e-06,3.5503883828820717e-06,2.0299506145536714e-06,2.1378131565217634e-06,5.429768114685869e-06,2.0924710461210382e-05,2.3302708298042463e-06,3.48083666052857e-06,6.334316655097277e-06,3.536417521227326e-05,1.064554901792796e-06,2.0585008998936666e-06
136,1.581765799453653e-06,1.3067552231619345e-06,2.102768130473641e-06,2.276357314896458e-06,2.4765425656586215e-06,3.5737950121209128e-06,2.0202574335852316e-06,2.1191101928813025e-06,5.151386713797107e-06,1.912908221031584e-05,2.285299682898367e-06,3.395979268628358e-06,6.475979041417086e-06,3.552236976514133e-05,1.078626169637786e-06,2.049615991353784e-06
137,1.5742953034745071e-06,1.311684563098113e-06,2.1143336889086157e-06,2.2566745412558495e-06,2.5560557805896443e-06,3.5926787700178544e-06,2.0081011215426792e-06,2.1007269843006515e-06,4.900948429898527e-06,1.7454837675760546e-05,2.240602954202098e-06,3.318150705875782e-06,6.591336477153744e-06,3.549791422081328e-05,1.0947913507121333e-06,2.042079879026592e-06
138,1.5677683070982255e-06,1.3160488824350343e-06,2.1219728927785623e-06,2.2338713103716986e-06,2.6469645153394027e-06,3.6056497869863794e-06,1.9940974667085753e-06,2.0843555749350476e-06,4.678113126943717e-06,1.5902573653281942e-05,2.194436905753099e-06,3.2484470726709913e-06,6.6762315190015825e-06,3.5290084388503695e-05,1.1126984631315603e-06,2.036315995779127e-06
139,1.5619354677949299e-06,1.3206723477374191e-06,2.125368831195325e-06,2.2079183467311007e-06,2.7482672934797394e-06,3.611752790480104e-06,1.9791274066166793e-06,2.071536131147992e-06,4.482445911735727e-06,1.4471731801392863e-05,2.1456556769957044e-06,3.1880061211846514e-06,6.727237894751598e-06,3.4901139719620696e-05,1.131895976024333e-06,2.0325903378997606e-06
140,1.55647362292789e-06,1.3264142185806555e-06,2.1243431218667423e-06,2.1789707613388402e-06,2.8587556226910313e-06,3.610671602606212e-06,1.9641908949737474e-06,2.0635312328782885e-06,4.31309005405517e-06,1.3161259631554298e-05,2.093563308560461e-06,3.1381627473501625e-06,6.742592961253572e-06,3.433460656829395e-05,1.1519144957702266e-06,2.0310005516724392e-06
141,1.5509504438725784e-06,1.3340384211433944e-06,2.1186804838432283e-06,2.147173791925034e-06,2.9770545548498073e-06,3.602886354839086e-06,1.9502342213567223e-06,2.061295826043623e-06,4.168675444422413e-06,1.1969813443778419e-05,2.0381093266735875e-06,3.100343295856747e-06,6.722712054920916e-06,3.359918629955245e-05,1.1723576117351901e-06,2.031529015388252e-06
142,1.5448370486878589e-06,1.3441147982677762e-06,2.1082037361541486e-06,2.1124914966170776e-06,3.1015197681573122e-06,3.589681138148417e-06,1.938006212813731e-06,2.065458999557384e-06,4.047261756941187e-06,1.0895797635683822e-05,1.980064967971463e-06,3.075797537811082e-06,6.6702738858866685e-06,3.2713584480927534e-05,1.1928939778642522e-06,2.034036896237551e-06
143,1.5376206217427819e-06,1.356998848095425e-06,2.0929036680656485e-06,2.0747404670916068e-06,3.2301441335224746e-06,3.5728766490361023e-06,1.9280357564474004e-06,2.076341533795868e-06,3.946189653295369e-06,9.937418465693493e-06,1.9207423069948063e-06,3.0653650052289e-06,6.589731002223238e-06,3.170505671355864e-05,1.213200428944808e-06,2.038266183692052e-06
144,1.5288677289584992e-06,1.3728402337030767e-06,2.0729392486977533e-06,2.0338577143564732e-06,3.3606776131089397e-06,3.554350224735039e-06,1.9206663718921614e-06,2.09394724084304e-06,3.862104454893109e-06,9.092711161535097e-06,1.8615427107878844e-06,3.06941148309212e-06,6.486190389726275e-06,3.0602971287378905e-05,1.2330012108636285e-06,2.043901641818422e-06
145,1.5181815061096732e-06,1.3915780975095327e-06,2.048640873821012e-06,1.9901790167975537e-06,3.4908306426840414e-06,3.5357212885843257e-06,1.9160911575228524e-06,2.117908665717465e-06,3.791260920925634e-06,8.35940056427191e-06,1.8037440158161123e-06,3.087908653383788e-06,6.364420215879486e-06,2.9433705037914302e-05,1.2521492395622597e-06,2.050621657325675e-06
146,1.505254371293665e-06,1.4129351652128537e-06,2.020618584565841e-06,1.9445025339702567e-06,3.618366964766762e-06,3.518390742071628e-06,1.9144687263023204e-06,2.147477199206423e-06,3.7298716777816803e-06,7.734540049052892e-06,1.748444848683782e-06,3.1204903527990356e-06,6.2285779675754684e-06,2.8219681062958365e-05,1.2706095906731517e-06,2.0581332445172027e-06
147,1.4900759334272675e-06,1.4363963914960408e-06,1.989853299834233e-06,1.8979418905225854e-06,3.741102646489778e-06,3.5036170271676476e-06,1.916123705653847e-06,2.1815668167964857e-06,3.6742331948640916e-06,7.214074931560995e-06,1.6964987112605734e-06,3.166421173675472e-06,6.082188212725341e-06,2.6980873524224074e-05,1.2883634358627217e-06,2.0662506703065243e-06
148,1.473061351126019e-06,1.4611892264620594e-06,1.957636687269417e-06,1.8516957342651033e-06,3.856903636143369e-06,3.4924336883269878e-06,1.921650500217241e-06,2.2187676620862488e-06,3.620695977282287e-06,6.792612584114954e-06,1.6484966006935588e-06,3.224559250072569e-06,5.927907733157005e-06,2.57355722497085e-05,1.3053526952776666e-06,2.075004031030475e-06
149,1.454932850604351e-06,1.4863546343594093e-06,1.925366015930722e-06,1.806832737077059e-06,3.963724374791082e-06,3.4856214896218883e-06,1.9317809276753595e-06,2.2573351865556315e-06,3.5658421104370723e-06,6.463530177016204e-06,1.604843379972393e-06,3.293435806112561e-06,5.767308998647762e-06,2.4499150466597055e-05,1.3214869923782502e-06,2.084670454852097e-06
150,1.4364985312253544e-06,1.5109323288180646e-06,1.894295359535194e-06,1.7641593549796221e-06,4.059625424763589e-06,3.4838494502328663e-06,1.947131436948683e-06,2.295248497946133e-06,3.5070519969871904e-06,6.2192453630975376e-06,1.5658532641605695e-06,3.371575723712287e-06,5.600928962746742e-06,2.3282557920589866e-05,1.3366245059955599e-06,2.095630412553533e-06
151,1.4185318282560978e-06,1.5341290868283475e-06,1.8653666607790094e-06,1.7242237273890824e-06,4.142658781099516e-06,3.4878171794317183e-06,1.9680336761250502e-06,2.3303559979046923e-06,3.4431574385184167e-06,6.051383666692801e-06,1.5317890638834843e-06,3.4579616123966243e-06,5.428545393824661e-06,2.2091947459772096e-05,1.3505145511786208e-06,2.1081129696775617e-06
152,1.4017276542549997e-06,1.555315504936196e-06,1.839159338908086e-06,1.687430494951232e-06,4.210787949484315e-06,3.498206952767077e-06,1.994471117860498e-06,2.360548372800927e-06,3.374652081903501e-06,5.950761537489589e-06,1.502823464313442e-06,3.5523118665252887e-06,5.249596372477099e-06,2.0929000533744512e-05,1.3627731699061602e-06,2.1220289527412086e-06
153,1.3866696266630997e-06,1.573891388823914e-06,1.815886308904832e-06,1.65415137202586e-06,4.262236748217722e-06,3.5154875161643787e-06,2.026058749495534e-06,2.3839051937127446e-06,3.3032337815879307e-06,5.907309848421651e-06,1.4789749635022375e-06,3.6550036957064307e-06,5.063663390536548e-06,1.9791640685118084e-05,1.3729188099933712e-06,2.136983375004665e-06
154,1.3738517117636791e-06,1.5892275321776324e-06,1.7954180605079628e-06,1.6247464515613564e-06,4.296244851489133e-06,3.539901980855493e-06,2.0621217422220925e-06,2.398820498873052e-06,3.2309896061301854e-06,5.910025357956593e-06,1.4601254313514607e-06,3.7667292544986376e-06,4.870865108779579e-06,1.8675490743425917e-05,1.3804836153361869e-06,2.152349906336054e-06
155,1.3637151748166153e-06,1.6007827896643804e-06,1.7774005162749845e-06,1.5994972012683606e-06,4.313710324625058e-06,3.5718130246010297e-06,2.1019463204708576e-06,2.404173692443797e-06,3.15977923472792e-06,5.946962293870176e-06,1.4461272345985316e-06,3.888034127254341e-06,4.672041403829974e-06,1.75760390823021e-05,1.3851668535485083e-06,2.1673174944420793e-06
156,1.3566237382370026e-06,1.6082832828960129e-06,1.761459689155756e-06,1.5785017005878627e-06,4.317312934529642e-06,3.6120255116202367e-06,2.145083685845067e-06,2.3995139137506254e-06,3.0910956524608175e-06,6.005524084229594e-06,1.436855275295556e-06,4.018900847536732e-06,4.468746319856753e-06,1.6490871896635036e-05,1.386875018325251e-06,2.180993489790303e-06
157,1.3528581635198237e-06,1.6118233485222968e-06,1.7473837884652293e-06,1.5616191289403683e-06,4.3110922527648085e-06,3.6616811669682778e-06,2.191438617593755e-06,2.3850341652075555e-06,3.026224459202073e-06,6.073330282807662e-06,1.4321241080971085e-06,4.158539774455955e-06,4.263069901166764e-06,1.5420993784976567e-05,1.3856016525615335e-06,2.1925926061417104e-06
158,1.3527117523757564e-06,1.61186107582661e-06,1.7351774889087897e-06,1.5485192382153941e-06,4.299685921866706e-06,3.7219535880484074e-06,2.241072671526519e-06,2.3612462367914167e-06,2.966391839108633e-06,6.1393278000788595e-06,1.4315824070806276e-06,4.305461959105307e-06,4.057272707078661e-06,1.4370372880376728e-05,1.3813161510644682e-06,2.2015836845325787e-06
159,1.3565937742413363e-06,1.6091323666105073e-06,1.724965754429391e-06,1.5388014601777215e-06,4.287566558547118e-06,3.7939999031277777e-06,2.2940379980259475e-06,2.3287088994900687e-06,2.9127849124609644e-06,6.194511481787864e-06,1.4347169344052763e-06,4.457781305931539e-06,3.853440839177265e-06,1.334419750695653e-05,1.3739632492340685e-06,2.207717565925509e-06
160,1.365022636608542e-06,1.6045005324564371e-06,1.7168174681999113e-06,1.5321156665285161e-06,4.278603791874964e-06,3.8790869178555995e-06,2.3504658653882256e-06,2.288111186139948e-06,2.866503568528696e-06,6.232085186929841e-06,1.4409696766781182e-06,4.613598336393429e-06,3.6535156927377814e-06,1.2347734119509236e-05,1.363524554391717e-06,2.210978100788143e-06
161,1.378507164460033e-06,1.5988034674277142e-06,1.7105969352967355e-06,1.5282217337968579e-06,4.275955700360791e-06,3.978522303990724e-06,2.41067524451187e-06,2.2404657389852043e-06,2.8285224752215377e-06,6.247267216602268e-06,1.4498729481371526e-06,4.771287141090297e-06,3.4595898566942264e-06,1.1386469657095703e-05,1.350102915509892e-06,2.211511259862624e-06
162,1.3974014813812075e-06,1.5927932353453272e-06,1.7058883153964674e-06,1.5269518831101511e-06,4.282035035829463e-06,4.093432510172452e-06,2.4750875677189892e-06,2.187105505095456e-06,2.79969933399293e-06,6.2369039296376715e-06,1.4610968729891451e-06,4.929599103211766e-06,3.273936001341967e-06,1.046638073376776e-05,1.333958532924754e-06,2.209555819535017e-06
163,1.4218199312566007e-06,1.5871671888749859e-06,1.701977399065491e-06,1.5281129341117494e-06,4.298456335559221e-06,4.224676429701506e-06,2.5440853946222474e-06,2.129553267443925e-06,2.7807910899503984e-06,6.199493213824548e-06,1.4743917189789802e-06,5.087695377118238e-06,3.0986635103843578e-06,9.593925458281135e-06,1.3154099499098465e-06,2.2053950081571583e-06
164,1.4516185202247158e-06,1.5825790825814e-06,1.6979498212248043e-06,1.5313895027765804e-06,4.326043964189334e-06,4.37289145457339e-06,2.6179778611303226e-06,2.0694283947945338e-06,2.7723847670954655e-06,6.136330792065691e-06,1.489487118258927e-06,5.2452470126099205e-06,2.9354133359915754e-06,8.776180871995927e-06,1.2946943983604175e-06,2.199370079942995e-06
165,1.4864004936764757e-06,1.5795962403060216e-06,1.6929763806644768e-06,1.5362610644090852e-06,4.365010698347147e-06,4.53846540224551e-06,2.697032908630252e-06,2.0083802796836766e-06,2.7747571309628823e-06,6.052927469779041e-06,1.5059881048311988e-06,5.402497190984411e-06,2.785318125413034e-06,8.020763750713914e-06,1.2719648766162308e-06,2.191950484759024e-06
166,1.5255310871444435e-06,1.5787000683896822e-06,1.6866382968925037e-06,1.5419370484814886e-06,4.41534328281472e-06,4.7213896543529825e-06,2.7814462107428355e-06,1.947952193036286e-06,2.787823890350927e-06,5.959003023799208e-06,1.5232997704433814e-06,5.560110591614617e-06,2.649154781662271e-06,7.33517111056619e-06,1.247386593618975e-06,2.1837428708853894e-06
167,1.5681816997113275e-06,1.5803503876253872e-06,1.679029499014314e-06,1.5473675233939038e-06,4.477111860704176e-06,4.921074559447933e-06,2.871188351768003e-06,1.8894128907349097e-06,2.81129227738696e-06,5.866936524889148e-06,1.5406569045659784e-06,5.718870715166225e-06,2.527561047801592e-06,6.7260063201623e-06,1.22118071809608e-06,2.175353287673816e-06
168,1.6134487803152888e-06,1.5850115900653028e-06,1.670574396665747e-06,1.5514150412367755e-06,4.550374641074355e-06,5.13614883954034e-06,2.9657958846014806e-06,1.8337264637112913e-06,2.8449774908785465e-06,5.789948496539178e-06,1.557294896703216e-06,5.879384948852308e-06,2.4211298575184653e-06,6.198545655998152e-06,1.1936003776302625e-06,2.167197358341251e-06
169,1.6605177093042015e-06,1.5930882647443232e-06,1.6617333979520034e-06,1.5531821379385836e-06,4.63482631571207e-06,5.364254762636353e-06,3.064233217368089e-06,1.7816895253921676e-06,2.8891755875160708e-06,5.740944060644833e-06,1.5726858860947619e-06,6.041875657115053e-06,2.3302938190784277e-06,5.756666929802128e-06,1.1648805459958248e-06,2.159392010157601e-06
170,1.708706450766011e-06,1.604807212824831e-06,1.6527948916151927e-06,1.5522768397850756e-06,4.729586847136924e-06,5.6019355834896e-06,3.1649139230875927e-06,1.734041280009551e-06,2.944933335370604e-06,5.732029870895102e-06,1.5867107606742709e-06,6.206117031410633e-06,2.2551822267084665e-06,5.403124225849259e-06,1.135206048855338e-06,2.151762229793944e-06
171,1.7573386443829503e-06,1.6201124718602058e-06,1.643833652066508e-06,1.5487766049154607e-06,4.833188334277755e-06,5.844760016574306e-06,3.265904637200365e-06,1.6914383518352866e-06,3.0139747799593766e-06,5.7743324854526755e-06,1.5996652129406645e-06,6.371536316835182e-06,2.1956934954808303e-06,5.1400797548377335e-06,1.104742044808553e-06,2.143974546132401e-06
172,1.8056738424503796e-06,1.63864611055068e-06,1.6347765706035967e-06,1.5430187752724874e-06,4.943557932209497e-06,6.087762580611212e-06,3.3652772602268603e-06,1.6544186378203143e-06,3.098240320281285e-06,5.877977182573698e-06,1.6121003873423695e-06,6.537348344581007e-06,2.1517311602228455e-06,4.9695450239636e-06,1.0736805713920874e-06,2.13576343110563e-06
173,1.8530599461519876e-06,1.6598593839991047e-06,1.6254481134129538e-06,1.5355061077591683e-06,5.058122511966145e-06,6.326120563123603e-06,3.461465372502525e-06,1.6234389542938294e-06,3.1994115025541555e-06,6.052277284311801e-06,1.6246199664596616e-06,6.702489778058768e-06,2.123293585056413e-06,4.893505221032318e-06,1.042250438227524e-06,2.1271015022088187e-06
174,1.8991372792198078e-06,1.6832058284702655e-06,1.6155691690561514e-06,1.5268764642480224e-06,5.174292622995935e-06,6.55585575928212e-06,3.5534351075802706e-06,1.598906199259142e-06,3.318785175188064e-06,6.305997558602208e-06,1.6377698190749208e-06,6.865272860598324e-06,2.110390251431302e-06,4.9139739385588435e-06,1.010704497760962e-06,2.118211014918907e-06
175,1.943859887787229e-06,1.7082586352734006e-06,1.6048463895383266e-06,1.517786844880523e-06,5.29002633398505e-06,6.774292808612832e-06,3.6406411184733603e-06,1.581132769788461e-06,3.457443970347989e-06,6.647478414984117e-06,1.65206150075443e-06,7.023030791461837e-06,2.1130262495596336e-06,5.0333796892584665e-06,9.79291942456161e-07,2.109476765659524e-06
176,1.9873245293587358e-06,1.7346344078411555e-06,1.5932023774263065e-06,1.5088249327836493e-06,5.403911959827906e-06,6.979989474294695e-06,3.7228650965853527e-06,1.5702379478432327e-06,3.616512825489706e-06,7.084630457388456e-06,1.6680424563783453e-06,7.172061107299869e-06,2.131212854398691e-06,5.255268049266301e-06,9.482104144491054e-07,2.101370405894082e-06
177,2.029558567894738e-06,1.7617961863843795e-06,1.5809657107196495e-06,1.5005400989586971e-06,5.514703785866226e-06,7.172069878354642e-06,3.7999555067713876e-06,1.5660628816168558e-06,3.7973878539559725e-06,7.6249308550695925e-06,1.6862669890928402e-06,7.307829849701824e-06,2.1648587809707597e-06,5.5848598408204375e-06,9.175821827406028e-07,2.0944063705140146e-06
178,2.07042022316032e-06,1.788913633241347e-06,1.5688752628784504e-06,1.4934753416235048e-06,5.6208313489021784e-06,7.349490014204323e-06,3.871518346799218e-06,1.5681674687206245e-06,4.001839317455787e-06,8.275457792894836e-06,1.7071442820320482e-06,7.425321929675621e-06,2.2136754489416905e-06,6.029065785296451e-06,8.875029387059183e-07,2.089058354541633e-06
179,2.10966746573698e-06,1.8149076981971085e-06,1.5579561076911643e-06,1.4881107355502507e-06,5.7204269730971765e-06,7.511009328428589e-06,3.936782702669519e-06,1.575921121285017e-06,4.231895103513319e-06,9.042870176322079e-06,1.7307911156919936e-06,7.519552769763688e-06,2.2772609446572815e-06,6.595931021039618e-06,8.581150642274309e-07,2.0856313377532715e-06
180,2.1470825389883487e-06,1.8386839395879732e-06,1.5493597920992814e-06,1.4847630200711955e-06,5.811831576135332e-06,7.655881019472825e-06,3.994732056296272e-06,1.5886100241997652e-06,4.4895271722406165e-06,9.93321038108996e-06,1.7569724265596796e-06,7.586148212315412e-06,2.355268294628397e-06,7.293761147390363e-06,8.296339458463616e-07,2.0841745179802065e-06
181,2.1824826292000898e-06,1.8594192821797273e-06,1.5441920225879724e-06,1.4835042522050892e-06,5.894111099173778e-06,7.784477582020003e-06,4.044309792671317e-06,1.60545854139934e-06,4.77634058125681e-06,1.0951529394971764e-05,1.785105913232916e-06,7.621813043866655e-06,2.4474387701706016e-06,8.130399765921479e-06,8.023349360198951e-07,2.0844602988771194e-06
182,2.2156774585021715e-06,1.876750472867291e-06,1.5433503332525315e-06,1.4841373623847365e-06,5.967293781812635e-06,7.898277916749096e-06,4.084546695581111e-06,1.6255725512334779e-06,5.093455062693687e-06,1.2101441616219892e-05,1.8143193445378242e-06,7.624617238674166e-06,2.553511413993165e-06,9.113246824353385e-06,7.765352949157786e-07,2.0860074783048915e-06
183,2.2465131323436165e-06,1.8908187191048023e-06,1.547423032009795e-06,1.4862599693199593e-06,6.032327375145196e-06,7.999342385713405e-06,4.114594024423203e-06,1.647895474430114e-06,5.441474534882123e-06,1.3384661701161606e-05,1.8435864990279918e-06,7.594071263938496e-06,2.6732187999717316e-06,1.0250008329497033e-05,7.525667649374124e-07,2.088141319234731e-06
184,2.2748731644188824e-06,1.9021575404269786e-06,1.556682265528606e-06,1.4894176981281062e-06,6.090821286871977e-06,8.089733204044227e-06,4.133658983669149e-06,1.671215383742139e-06,5.820338312025822e-06,1.4800553109777064e-05,1.8719163301716042e-06,7.530962833063052e-06,2.8063643755780623e-06,1.15491711623183e-05,7.307156682632181e-07,2.090061458205196e-06
185,2.3005508904060735e-06,1.9114351808384734e-06,1.571149160835044e-06,1.4932979070418804e-06,6.144627381199192e-06,8.171179455804373e-06,4.140926024920872e-06,1.6942199058599446e-06,6.229114616130255e-06,1.634578324797581e-05,1.898474837567897e-06,7.437044685919424e-06,2.9527774968591993e-06,1.3019326137703199e-05,7.111630355776507e-07,2.090887695984939e-06
186,2.323192044784139e-06,1.9192121949122326e-06,1.5906612122219576e-06,1.49787513581365e-06,6.195315745360834e-06,8.244964257589222e-06,4.135626144844703e-06,1.7155765731036438e-06,6.665865231963799e-06,1.8014040006383206e-05,1.9225455278558437e-06,7.314694908042891e-06,3.1121300327111506e-06,1.4667705897497414e-05,6.939958492852796e-07,2.0896999627332393e-06
187,2.342398964057819e-06,1.9258707780520253e-06,1.614884472330588e-06,1.5034266220044267e-06,6.243684214103749e-06,8.311821748088286e-06,4.117239863782335e-06,1.7340796147273963e-06,7.127507270017253e-06,1.979559808402513e-05,1.9434093666528157e-06,7.166499389234334e-06,3.28386178185186e-06,1.6498960277195408e-05,6.792644568627303e-07,2.085618677852286e-06
188,2.357838758873386e-06,1.9316633657720697e-06,1.6432839556373323e-06,1.5104147619593608e-06,6.289553502027131e-06,8.371676910131843e-06,4.085535173762496e-06,1.7489743330734198e-06,7.609605373801277e-06,2.1676814960989386e-05,1.9602769321575205e-06,6.994677004979092e-06,3.4673713999789996e-06,1.8514716906803378e-05,6.669958965557057e-07,2.0779239871138945e-06
189,2.3692064130388297e-06,1.936794930322765e-06,1.67512663895962e-06,1.5193153112294417e-06,6.331897130267128e-06,8.423250733523623e-06,4.040267759562487e-06,1.7603024609345407e-06,8.106244408938827e-06,2.3640084815553727e-05,1.972257897831428e-06,6.800599299165113e-06,3.6621973062921396e-06,2.0713831320720006e-05,6.571651138343083e-07,2.0661180995210524e-06
190,2.376097047726591e-06,1.9415144274516484e-06,1.7095765260946658e-06,1.5304813886135287e-06,6.369024437852465e-06,8.463751579169252e-06,3.9809114031459584e-06,1.7688948618616635e-06,8.610180643451178e-06,2.566482265370145e-05,1.9783242177727217e-06,6.5849153466183635e-06,3.867878819704106e-06,2.3092890769879223e-05,6.496735825579719e-07,2.04983400175207e-06
191,2.3780317573320744e-06,1.946122047119666e-06,1.7458440583522516e-06,1.5440940168214325e-06,6.3986862961345525e-06,8.489054129996344e-06,3.906826282022368e-06,1.7759807764271602e-06,9.113169852875443e-06,2.772990513634377e-05,1.977376152000197e-06,6.348415898847627e-06,4.0837620496703915e-06,2.5646331990580824e-05,6.44337091432839e-07,2.0286687284687428e-06
192,2.374723817781312e-06,1.950844741666394e-06,1.7832564834878829e-06,1.5601853377971603e-06,6.418301458868564e-06,8.494594568297029e-06,3.817702030218306e-06,1.782771319656165e-06,9.606058333842433e-06,2.9817593056626966e-05,1.9684959039753313e-06,6.093049817099149e-06,4.3090272618228614e-06,2.8365732832566454e-05,6.408826311176451e-07,2.0021745620615284e-06
193,2.3663044886005073e-06,1.9557174231181475e-06,1.821172817069633e-06,1.5786595871273479e-06,6.425412643045178e-06,8.476546446529568e-06,3.7139211501431634e-06,1.7902649137546184e-06,1.0078570473567403e-05,3.1917325496529855e-05,1.951236363459167e-06,5.8223691253995e-06,4.542654960536432e-06,3.123851788229697e-05,6.389735481484547e-07,1.970074083295699e-06
194,2.3532624687706193e-06,1.9605881141308918e-06,1.8588811920006046e-06,1.5992815064780848e-06,6.418221053582018e-06,8.43259510566671e-06,3.5967175612941088e-06,1.7992275823200819e-06,1.0519506448457463e-05,3.4026119372459504e-05,1.9257117112083734e-06,5.541234915026306e-06,4.7832199255289996e-06,3.42467572263676e-05,6.382740529758705e-07,1.9324693199277343e-06
195,2.3362199830949417e-06,1.9651933633271584e-06,1.8956464433932962e-06,1.6217093994315635e-06,6.396023897017952e-06,8.36218483792432e-06,3.468110259280819e-06,1.8102526392740873e-06,1.0917947630287597e-05,3.614429563017952e-05,1.8924282495824886e-06,5.255072243703527e-06,5.028743827836999e-06,3.7366450299068216e-05,6.385329612528826e-07,1.8898528783437038e-06
196,2.3157938962937928e-06,1.969242657154641e-06,1.9308161866306625e-06,1.6456008541938326e-06,6.359490794027788e-06,8.266525030945356e-06,3.3306333516330054e-06,1.8238540559734741e-06,1.1264996563474813e-05,3.8269653704078155e-05,1.8520344616895562e-06,4.969083899992563e-06,5.276620329682392e-06,4.0567137836128226e-05,6.396157683155503e-07,1.843001980956834e-06
197,2.292618867809347e-06,1.972534271580754e-06,1.963788487891612e-06,1.6706907796400563e-06,6.310693804944909e-06,8.14845397522061e-06,3.1869585072366946e-06,1.840511971537431e-06,1.1554984325058932e-05,4.039402183154802e-05,1.8052249125235693e-06,4.687832188567526e-06,5.523743192591545e-06,4.381152466328876e-05,6.414377012632887e-07,1.7929134344111077e-06
198,2.2674451974042114e-06,1.9751071822631193e-06,1.9938406592919948e-06,1.6967754838214628e-06,6.25271501482816e-06,8.011962995169728e-06,3.039540391155357e-06,1.8606084538731039e-06,1.1785362218700878e-05,4.250360921497343e-05,1.7527806215139354e-06,4.415279293242475e-06,5.767088516673334e-06,4.7054912388385716e-05,6.438654379402346e-07,1.740771907991051e-06
199,2.2411644435501713e-06,1.9773759403490245e-06,2.02000466088096e-06,1.7236358241988264e-06,6.188869579224044e-06,7.861303792537861e-06,2.890423979303517e-06,1.8842887939756035e-06,1.1955246866494911e-05,4.458296967727742e-05,1.6955490913180685e-06,4.154959194263848e-06,6.004385743593178e-06,5.0244205490226305e-05,6.466809402285919e-07,1.687837083718784e-06
200,2.2146784790158235e-06,1.9801566366223447e-06,2.041174981136196e-06,1.7509563984458926e-06,6.122074132617675e-06,7.700128411201781e-06,2.741295771693047e-06,1.9113586947125405e-06,1.2063646845449861e-05,4.662046393528434e-05,1.6343481262929127e-06,3.910000173294923e-06,6.234168804193238e-06,5.331679769951522e-05,6.495955261600386e-07,1.6352549465169466e-06
201,2.188718534147613e-06,1.9845087732405537e-06,2.0564573117922117e-06,1.7782979648738898e-06,6.054856553754068e-06,7.531134449453088e-06,2.593679520312815e-06,1.941343738434273e-06,1.2108803938529563e-05,4.8611269909121806e-05,1.5699451917605614e-06,3.682995129000961e-06,6.455199254890692e-06,5.620144067016717e-05,6.522688888505423e-07,1.5839331220593517e-06
202,2.163775492850007e-06,1.991448995811852e-06,2.0655239151157936e-06,1.8051661282032945e-06,5.989756302972886e-06,7.355978839145284e-06,2.449079732014372e-06,1.9737090194652414e-06,1.2088935911693399e-05,5.055634182012289e-05,1.5031458748476242e-06,3.4758367164083144e-06,6.666090076517311e-06,5.8823645847981414e-05,6.543550486908759e-07,1.5345269151118704e-06
203,2.140104737530453e-06,2.001705466423902e-06,2.0686567564542532e-06,1.8311695349639349e-06,5.929479038422188e-06,7.175044792091849e-06,2.309024551381869e-06,2.0080412214283043e-06,1.2003418079390564e-05,5.245977177591431e-05,1.4348785173396989e-06,3.2896454021557007e-06,6.865597623831907e-06,6.111505449753898e-05,6.55584292920669e-07,1.487467666705099e-06
204,2.1177076039769117e-06,2.0156213336967532e-06,2.0664373418020975e-06,1.8561963973578683e-06,5.876593931178857e-06,6.9872111413711566e-06,2.175079119598408e-06,2.0440439134452727e-06,1.1853662765864491e-05,5.432705375340743e-05,1.3661763874925263e-06,3.1248477203115536e-06,7.053084497425598e-06,6.302258636207313e-05,6.558281956482026e-07,1.4430420767882497e-06
205,2.0963572258089005e-06,2.0331721785602796e-06,2.059462666054034e-06,1.880498815868049e-06,5.8330824313108285e-06,6.7900279413908776e-06,2.048820088507457e-06,2.081452265787282e-06,1.1643602701851206e-05,5.6163917070140704e-05,1.2980620256728899e-06,2.9813664428941318e-06,7.228693095581109e-06,6.451258997403715e-05,6.551220815397217e-07,1.401523121030076e-06
206,2.075747676493711e-06,2.054015315610314e-06,2.0483660357593967e-06,1.9046221486905146e-06,5.800127068734865e-06,6.580480997740013e-06,1.9317429657146213e-06,2.120022640116269e-06,1.1379663158896589e-05,5.797432649380559e-05,1.2314385847740593e-06,2.8588565531627956e-06,7.393277366098882e-06,6.556727260129751e-05,6.536515921569183e-07,1.3632155915409892e-06
207,2.055674849239697e-06,2.0775401779453175e-06,2.0339431429644255e-06,1.9292309751856628e-06,5.778225074489893e-06,6.356229247896782e-06,1.8251973149454947e-06,2.1595450501425095e-06,1.1070012346513888e-05,5.9757560957707386e-05,1.167066486370568e-06,2.7568659949465067e-06,7.548102717406991e-06,6.617544716383363e-05,6.516967972086465e-07,1.3283610408949828e-06
208,2.0360774924774847e-06,2.102888281209098e-06,2.017157702743851e-06,1.9549216044493143e-06,5.767380756002246e-06,6.116887915062496e-06,1.73041975574823e-06,2.1997393593064616e-06,1.072324166112792e-05,6.150523599950084e-05,1.1056053569781107e-06,2.674794365749264e-06,7.694287768876273e-06,6.632632159921773e-05,6.495685930669825e-07,1.2970210513946691e-06
209,2.0169144566090443e-06,2.1288886088370293e-06,1.9990611762603722e-06,1.9820838920569804e-06,5.767081330782178e-06,5.864756236106197e-06,1.6485588638401973e-06,2.2400537356408058e-06,1.0347201955039271e-05,6.319889567635501e-05,1.0476822195729087e-06,2.611736238246669e-06,7.832241955514117e-06,6.601409394729552e-05,6.475817274256113e-07,1.269040492390342e-06
210,1.9980804697233633e-06,2.1539593257499653e-06,1.9806807778396506e-06,2.01091343722326e-06,5.776003303203805e-06,5.6046069721431324e-06,1.5805987289923904e-06,2.279508049992971e-06,9.948742236927679e-06,6.480938104500342e-05,9.939292298933734e-07,2.5663965394612776e-06,7.961370846626584e-06,6.524941663900979e-05,6.460259045920071e-07,1.244105802815989e-06
211,1.9795103725911733e-06,2.1761397556906238e-06,1.962929288685269e-06,2.0416184872661415e-06,5.791696143155404e-06,5.342671982804559e-06,1.527266200007111e-06,2.3166539978919804e-06,9.534214787245927e-06,6.630000894862405e-05,9.449538455864999e-07,2.537063205198619e-06,8.079973830462288e-06,6.40667196227428e-05,6.451087961891053e-07,1.2218377028154084e-06
212,1.961356332454334e-06,2.1933517998198294e-06,1.9466583722473642e-06,2.074647215911937e-06,5.810574212546237e-06,5.085460730162232e-06,1.489009113485931e-06,2.349630448238425e-06,9.109960810329625e-06,6.76338466001218e-05,9.012982514616632e-07,2.521579861950608e-06,8.18522576251023e-06,6.252189142508336e-05,6.449211108978992e-07,1.201823469738295e-06
213,1.9440265237378234e-06,2.20382393515019e-06,1.9328387560924553e-06,2.1107384873687477e-06,5.828378927020624e-06,4.839101277532463e-06,1.4659979470693147e-06,2.3763365551707434e-06,8.682371430861851e-06,6.87823955567944e-05,8.634379743718209e-07,2.5174383678795435e-06,8.273424757396274e-06,6.068332428855809e-05,6.45439697054769e-07,1.1835957696636276e-06
214,1.9280078744653552e-06,2.2064823697034395e-06,1.9226630775680576e-06,2.1508207972237854e-06,5.841013548642546e-06,4.609264514794558e-06,1.4581109215216365e-06,2.3948006833003087e-06,8.257645313802122e-06,6.973142135956848e-05,8.317813649311106e-07,2.5220388219508854e-06,8.340587763205638e-06,5.862220074485407e-05,6.465399611710469e-07,1.166666470424156e-06
215,1.913623447288253e-06,2.201102085456368e-06,1.917453558622979e-06,2.195896574471498e-06,5.845437156226069e-06,4.401181275114547e-06,1.4649394044098432e-06,2.4036900440605906e-06,7.841501667844347e-06,7.047954071930389e-05,8.066283645678829e-07,2.5329222654054883e-06,8.383214526757924e-06,5.640518818620536e-05,6.480335411587471e-07,1.1506701279363676e-06
216,1.9009650849094936e-06,2.1881732184036507e-06,1.9184534669891806e-06,2.246956824250673e-06,5.84025452924765e-06,4.219480495581268e-06,1.4858493020565455e-06,2.402676184717872e-06,7.439117184227106e-06,7.103009581676528e-05,7.881253372487754e-07,2.5477940448915225e-06,8.399111146284314e-06,5.4089728466125776e-05,6.497597845204248e-07,1.135528254748664e-06
217,1.8900513535617556e-06,2.1686437361867044e-06,1.9266299800684316e-06,2.3048756849253416e-06,5.825786521457605e-06,4.067975394625642e-06,1.5200826133924246e-06,2.392385466608993e-06,7.055273607596657e-06,7.138495471279739e-05,7.762648330427703e-07,2.564358908071328e-06,8.3881365497482e-06,5.172191772324181e-05,6.516751557595536e-07,1.1214681595448186e-06
218,1.8810444658240893e-06,2.1437090531067893e-06,1.942567586679742e-06,2.3702819755442694e-06,5.803628822056994e-06,3.949547451841272e-06,1.5668016024411359e-06,2.373977848596323e-06,6.6943518926495745e-06,7.154519354028144e-05,7.709193650984262e-07,2.5801530068245123e-06,8.352434132853741e-06,4.933711515164929e-05,6.538507305690264e-07,1.108851658371469e-06
219,1.8743592232135656e-06,2.114653913682173e-06,1.9664845947735918e-06,2.443514915478971e-06,5.775930569995118e-06,3.86614876988202e-06,1.625038242777137e-06,2.3486453725576332e-06,6.360115114084726e-06,7.15126249785682e-05,7.718691839696876e-07,2.592603322092952e-06,8.29580475628302e-06,4.696240918153354e-05,6.563945339233387e-07,1.097974057267677e-06
220,1.8706128371076443e-06,2.082683810760297e-06,1.9983347596306444e-06,2.5247591985902168e-06,5.744737947791601e-06,3.818859718620472e-06,1.6937112582680086e-06,2.3173017322591474e-06,6.055616906311073e-06,7.128793946154854e-05,7.787993173649479e-07,2.5993485963210496e-06,8.222791519142345e-06,4.4619431573682066e-05,6.594099390207418e-07,1.0890044406192513e-06
221,1.8704692661245113e-06,2.0488112695122354e-06,2.037871046199345e-06,2.6142772892697095e-06,5.711562169715661e-06,3.8079485082911847e-06,1.7718086716227472e-06,2.280570929364668e-06,5.783216583560363e-06,7.086789803761024e-05,7.912904638416953e-07,2.5986135044029715e-06,8.138549623364278e-06,4.2326167388341226e-05,6.630196388197531e-07,1.082062620807244e-06
222,1.8745116058507343e-06,2.013899312386984e-06,2.084586303055575e-06,2.7125154747081258e-06,5.677112196871267e-06,3.8329878457323585e-06,1.8585485159300839e-06,2.2389806564421184e-06,5.544417439288547e-06,7.02427502025379e-05,8.088655634242036e-07,2.5894387707189183e-06,8.049378957839676e-06,4.009718031865177e-05,6.673725950132011e-07,1.077332957976379e-06
223,1.8832425019764748e-06,1.978773315887009e-06,2.1375982498585187e-06,2.819973873581597e-06,5.641249245356367e-06,3.893109090505334e-06,1.9533192374053563e-06,2.193134529406057e-06,5.33961196802787e-06,6.939476439642431e-05,8.311027347623081e-07,2.5716778767903564e-06,7.96268991937955e-06,3.794301437511999e-05,6.726171937164741e-07,1.0751590514095767e-06
224,1.8971286586340944e-06,1.9442220396421106e-06,2.1955856005124465e-06,2.936978071714076e-06,5.6032725450270255e-06,3.987349242079709e-06,2.055458708739793e-06,2.1437318322608e-06,5.167977469321326e-06,6.830177914608631e-05,8.577094935097877e-07,2.5457811703427014e-06,7.886029758356676e-06,3.587018565328491e-05,6.788884678592632e-07,1.0760703862115923e-06
225,1.9165319301540607e-06,1.91086971345297e-06,2.256800895717143e-06,3.0635438053122116e-06,5.56240330174613e-06,4.11492770898924e-06,2.1640841231652585e-06,2.0915286722466522e-06,5.027518359286977e-06,6.694641430347758e-05,8.884578868957447e-07,2.512554649881406e-06,7.826051563225489e-06,3.388238668281035e-05,6.863115866750048e-07,1.080693308413597e-06
226,1.941548855709693e-06,1.8790515356672254e-06,2.31917429264465e-06,3.1993515021466014e-06,5.518261815139153e-06,4.275252132772146e-06,2.278118398296863e-06,2.037376165179559e-06,4.9151816046199355e-06,6.532433841097263e-05,9.230445770745435e-07,2.4730739163045324e-06,7.788188609565283e-06,3.198225881858851e-05,6.95001618306807e-07,1.089600694433275e-06
227,1.9718912723995253e-06,1.84876873089719e-06,2.3805220219985744e-06,3.3437036615658556e-06,5.471274567842999e-06,4.467612850133103e-06,2.3964681534035674e-06,1.9822885436601865e-06,4.827013543405035e-06,6.344494041401566e-05,9.610019812753167e-07,2.4286799494327353e-06,7.776867187126188e-06,3.01726321036127e-05,7.050460667906381e-07,1.103200940989821e-06
228,2.0068620232617563e-06,1.8196790349826824e-06,2.4387986512827546e-06,3.495405426672888e-06,5.423007107007977e-06,4.690861937326166e-06,2.5181685007224225e-06,1.9273909661446415e-06,4.758277223386924e-06,6.132450889522785e-05,1.0016862284755348e-06,2.380847507642971e-06,7.795661056877992e-06,2.845679126492467e-05,7.164977419614757e-07,1.1216904848940596e-06
229,2.045461107441702e-06,1.7911196218450806e-06,2.4923147649856372e-06,3.6526769551944357e-06,5.376369974010681e-06,4.943314651127396e-06,2.642344103195414e-06,1.8737276584459346e-06,4.703628478437797e-06,5.8978278593820055e-05,1.0443079193992307e-06,2.330915245142628e-06,7.84719081302552e-06,2.683823073223394e-05,7.294105303523473e-07,1.1450397579306207e-06
230,2.0866046110235432e-06,1.7622527816879182e-06,2.539891399689997e-06,3.8131554815759e-06,5.33558954582885e-06,5.222677671010113e-06,2.7679897755425173e-06,1.8220662964064873e-06,4.657439752365165e-06,5.64189683439245e-05,1.0879755673007983e-06,2.279911615670239e-06,7.933012749784654e-06,2.5320427969353527e-05,7.438723872453089e-07,1.1729850419491102e-06
231,2.129279010772452e-06,1.7323562537030392e-06,2.5809289729270875e-06,3.973871704630252e-06,5.305883650355913e-06,5.52584015744316e-06,2.8937231356381433e-06,1.772823467303167e-06,4.61401484213194e-06,5.366315210718054e-05,1.1317237363924655e-06,2.2286498035088577e-06,8.053637734305283e-06,2.3906399396979642e-05,7.599851147661469e-07,1.2050152124351873e-06
232,2.172535310455495e-06,1.7011065669371801e-06,2.6153504194629664e-06,4.131171727272534e-06,5.292927626069409e-06,5.848680235856831e-06,3.017693952496867e-06,1.7261718091307971e-06,4.5678229712767554e-06,5.073886287238127e-05,1.1745537029363135e-06,2.1779875883940342e-06,8.208512614720184e-06,2.259755612725019e-05,7.778128478862833e-07,1.2403683419627538e-06
233,2.215469359376401e-06,1.6686433766952415e-06,2.6434054145032302e-06,4.280735141115725e-06,5.3023000220255214e-06,6.185956524740051e-06,3.1377412700319683e-06,1.6823001522963585e-06,4.514289669896713e-06,4.7687326110007385e-05,1.215551836893802e-06,2.1289894041135668e-06,8.395804785239728e-06,2.1392478619561282e-05,7.973454461865543e-07,1.2780779559827794e-06
234,2.2572739737866284e-06,1.6353773634599793e-06,2.665380440730579e-06,4.417841761250057e-06,5.339065467759048e-06,6.531206923230543e-06,3.2517082624064346e-06,1.6416166234867078e-06,4.450845569467864e-06,4.455758999323793e-05,1.2540286258922765e-06,2.0828293863192906e-06,8.612142615069265e-06,2.0287070122550508e-05,8.185104510180802e-07,1.3170944642133181e-06
235,2.2972366970774356e-06,1.6017301499576553e-06,2.6813099779064304e-06,4.537872813958553e-06,5.407512898004385e-06,6.876746979377762e-06,3.357675195346076e-06,1.604701249292722e-06,4.3772250059034125e-06,4.1398276599817194e-05,1.2895450619606806e-06,2.0405283127163773e-06,8.852594369096635e-06,1.9276467831058056e-05,8.412309388157226e-07,1.3564539303412001e-06
236,2.3346784335339724e-06,1.568018061702639e-06,2.6908245221006694e-06,4.636810124399782e-06,5.510965684268153e-06,7.213993768473776e-06,3.4540020023602255e-06,1.5721297132994425e-06,4.2947348297680545e-06,3.825157092407338e-05,1.3218363763047263e-06,2.002765299994823e-06,9.110948312593663e-06,1.8357495588541227e-05,8.654643103964665e-07,1.3954277068776434e-06
237,2.369027215749849e-06,1.5345382771135576e-06,2.6932420750110328e-06,4.7115317085438874e-06,5.651628588665805e-06,7.534144228287163e-06,3.539339185406739e-06,1.5444098398181504e-06,4.205396437341157e-06,3.51516220953686e-05,1.3507344527508478e-06,1.96990639211679e-06,9.380178354220383e-06,1.7530183421754083e-05,8.911837455792567e-07,1.4335626305778534e-06
238,2.3999557910189203e-06,1.5017524692507398e-06,2.687885676582204e-06,4.759975769888692e-06,5.830494887698411e-06,7.828976521563685e-06,3.612748038661648e-06,1.5220102588776574e-06,4.111750813476206e-06,3.2126240116511185e-05,1.3760944489899702e-06,1.9421756483495396e-06,9.652943975247365e-06,1.6797656726949096e-05,9.183377314000411e-07,1.470564917225228e-06
239,2.427300557038829e-06,1.4704161838365696e-06,2.6744934809439967e-06,4.781308866733953e-06,6.047304669759317e-06,8.091549808042306e-06,3.6738342676621623e-06,1.505329246475582e-06,4.01690641220129e-06,2.919900634855011e-05,1.3976911948838956e-06,1.9197539780158407e-06,9.921912609441392e-06,1.6164750859729234e-05,9.46823665627709e-07,1.5061621329266883e-06
240,2.450888101564127e-06,1.4415896205342719e-06,2.653528867930501e-06,4.775968193463459e-06,6.300562937800115e-06,8.31674395758583e-06,3.722714910656127e-06,1.4946590749490884e-06,3.9241789008332294e-06,2.638977401953802e-05,1.4151484314534557e-06,1.9026922439010437e-06,1.0179782311386446e-05,1.563641359624643e-05,9.765109860434834e-07,1.5401437245248753e-06
241,2.470572549069387e-06,1.416542917793058e-06,2.6262234601303545e-06,4.745292304812694e-06,6.587621794771779e-06,8.501631172135445e-06,3.7597644046226883e-06,1.4902414277584528e-06,3.836508957770364e-06,2.371445334023381e-05,1.4279912144262276e-06,1.8907788744297966e-06,1.0419161273521443e-05,1.5216710247896142e-05,1.007298353497267e-06,1.572518028458789e-06
242,2.486329469212499e-06,1.3965880337675861e-06,2.5943320479517133e-06,4.690854623218465e-06,6.904722036622126e-06,8.64558928930331e-06,3.785226005545666e-06,1.4922949459426529e-06,3.756108625001163e-06,2.118570358985813e-05,1.4358036192319813e-06,1.8835316161541557e-06,1.0632562964923645e-05,1.4908434679228105e-05,1.039107408008362e-06,1.6035151385606495e-06
243,2.498142266409467e-06,1.3829265813488765e-06,2.55973535476581e-06,4.614087802025481e-06,7.246894391724334e-06,8.750034737472438e-06,3.7988735258563085e-06,1.5009270253389982e-06,3.6843951735833673e-06,1.8813806289463514e-05,1.4383983173301792e-06,1.8802617792503122e-06,1.0812615118686654e-05,1.4712865480555217e-05,1.0718127633521725e-06,1.63337231771597e-06
244,2.5058465376918243e-06,1.3765864612282908e-06,2.5240930569426942e-06,4.516450273368105e-06,7.607832784364817e-06,8.817707683829962e-06,3.799974094344381e-06,1.5160515410660597e-06,3.6220779860817865e-06,1.6606420969744696e-05,1.4359326300801493e-06,1.8800596927872527e-06,1.0952375859814654e-05,1.4629356914086852e-05,1.1052086442874042e-06,1.6621252659370401e-06
245,2.5092351963028154e-06,1.3783963919831134e-06,2.4887122973335654e-06,4.3997605875791665e-06,7.980106915437481e-06,8.851642395929214e-06,3.787705952643944e-06,1.5373954030126306e-06,3.569275971111111e-06,1.4567890007208853e-05,1.4289463730152823e-06,1.8816958062670154e-06,1.104545015348021e-05,1.465484822493284e-05,1.1390181170790796e-06,1.689561996939805e-06
246,2.5083852042688094e-06,1.388953348341171e-06,2.4546189629348035e-06,4.266389870019627e-06,8.355845228702855e-06,8.854388706582513e-06,3.7618775542444847e-06,1.5645141317549568e-06,3.5255479197734747e-06,1.2699158350843766e-05,1.418287230376809e-06,1.8836070596385861e-06,1.108566251609193e-05,1.4783733528855049e-05,1.172883910983924e-06,1.7152620015500793e-06
247,2.503884467129542e-06,1.408605298731611e-06,2.4226395395393633e-06,4.119308933378171e-06,8.727224274314038e-06,8.827982339218125e-06,3.72350206704023e-06,1.5967592413358295e-06,3.4899123599800017e-06,1.0998193590926913e-05,1.4049083814185477e-06,1.884132210315939e-06,1.1066866315836652e-05,1.5008698672173351e-05,1.206329885763169e-06,1.7386464137377505e-06
248,2.4967224272156104e-06,1.4374383533512138e-06,2.3933497212540924e-06,3.961979896230512e-06,9.086228842319337e-06,8.774291810090238e-06,3.674829536583323e-06,1.6332433622687579e-06,3.461069904850859e-06,9.460564963033832e-06,1.3896439592393295e-06,1.8819470606628359e-06,1.098402324094257e-05,1.5322456432811285e-05,1.2387495415943437e-06,1.7591005155229603e-06
249,2.4879469715792974e-06,1.475257522579287e-06,2.3669438595926886e-06,3.7980655437206067e-06,9.42453758872515e-06,8.695065272364308e-06,3.618830526671019e-06,1.6728659646019642e-06,3.4378141770800925e-06,8.080089049842875e-06,1.373132488614126e-06,1.876415053080417e-06,1.0835326036883635e-05,1.571915096984658e-05,1.2695023946863066e-06,1.7761731548622013e-06
250,2.478442657567954e-06,1.5216010214074264e-06,2.3431928925921962e-06,3.6310533117440507e-06,9.734497422795813e-06,8.591645849968158e-06,3.558492831824921e-06,1.7144355315616168e-06,3.4193688545741127e-06,6.849352129278602e-06,1.3559058875980788e-06,1.8675950998223528e-06,1.0623575761017655e-05,1.619432765002089e-05,1.2981123996610316e-06,1.789726014371531e-06
251,2.468974583979066e-06,1.5758026178859023e-06,2.3215857564779175e-06,3.463975467950411e-06,1.0010488513754525e-05,8.464732739964157e-06,3.496325310490066e-06,1.7568583564588204e-06,3.405399803711461e-06,5.760039778860148e-06,1.338473088723518e-06,1.8559570863987576e-06,1.0355807232758075e-05,1.674375884554148e-05,1.3244279133377448e-06,1.799938771244152e-06
252,2.4602471565608977e-06,1.6370334582575755e-06,2.3015778717516566e-06,3.2993314046678087e-06,1.0249359996060678e-05,8.314453612198038e-06,3.434179955373295e-06,1.799288816786782e-06,3.3957125593078434e-06,4.80321602732088e-06,1.3212864353521457e-06,1.8420974131218422e-06,1.0041810413799828e-05,1.736217967510253e-05,1.3485827143311595e-06,1.8072036963565277e-06
253,2.452787839782148e-06,1.7042532115825254e-06,2.2827803804415205e-06,3.1391255734111816e-06,1.0449560325121579e-05,8.140791385303933e-06,3.373305959252749e-06,1.8411246887556642e-06,3.389893428371356e-06,3.969608639619141e-06,1.3046624404777762e-06,1.826650721868468e-06,9.692472429323134e-06,1.8042444372655427e-05,1.370775534311822e-06,1.8119850422676731e-06
254,2.44680017492513e-06,1.776110885601937e-06,2.2649497858719795e-06,2.9848750740819343e-06,1.0609614741921921e-05,7.944170516815215e-06,3.3146087430358685e-06,1.8818376664617653e-06,3.3871113403653386e-06,3.2498558332288287e-06,1.2887557310757227e-06,1.81029919853902e-06,9.318330428110791e-06,1.877485319208634e-05,1.3910604398570157e-06,1.8146574817314835e-06
255,2.4421250524373097e-06,1.8508974384147257e-06,2.247789584220518e-06,2.8376336651944857e-06,1.0727208526421937e-05,7.725904547069803e-06,3.259035103783112e-06,1.920825197578758e-06,3.3861301668208647e-06,2.6347254880910786e-06,1.2736232125267026e-06,1.7936861622770398e-06,8.928512693570915e-06,1.9546424844210978e-05,1.4092655509948476e-06,1.8153532122161765e-06
256,2.4382367832248567e-06,1.9266271128801426e-06,2.230801733750584e-06,2.6981579208033338e-06,1.079957919423615e-05,7.488376695530724e-06,3.207804459976832e-06,1.9574028365487272e-06,3.3854833976515397e-06,2.115329411296923e-06,1.2593370649909245e-06,1.7772513801173464e-06,8.53019390790132e-06,2.0340474334985317e-05,1.4250174887300567e-06,1.8139184779918014e-06
257,2.4342504571871167e-06,2.00128387630667e-06,2.213374755948206e-06,2.567106790681906e-06,1.082455930792014e-05,7.235061129035206e-06,3.1622660023829384e-06,1.9908031026805678e-06,3.3837382585044276e-06,1.6832863431039572e-06,1.2460194217624068e-06,1.761145885625859e-06,8.128472157691518e-06,2.1137234474116258e-05,1.437825945765621e-06,1.8099992498645006e-06
258,2.4290023860353746e-06,2.0731539997527146e-06,2.1949948404387682e-06,2.445062749898462e-06,1.0801369855944745e-05,6.970489548877453e-06,3.123527734237019e-06,2.0201895505831654e-06,3.379810195054976e-06,1.330759381475414e-06,1.2337503435190458e-06,1.7452575005567743e-06,7.726518497373891e-06,2.1915897620072827e-05,1.447186713785747e-06,1.8031469599159276e-06
259,2.4211592951352445e-06,2.1410452750011472e-06,2.1754107001643488e-06,2.332419207410066e-06,1.0730963508419141e-05,6.700066622714183e-06,3.0921733581236778e-06,2.0448745779624332e-06,3.3732766591236546e-06,1.0503410447810401e-06,1.2224523185811645e-06,1.7292458204780125e-06,7.326004650411606e-06,2.265751610078498e-05,1.4526803111657873e-06,1.7928669195630126e-06
260,2.409344720087198e-06,2.204269083897442e-06,2.1547413132277584e-06,2.2293727223153027e-06,1.0616018702955691e-05,6.429605676225257e-06,3.0681462982438654e-06,2.06464918033146e-06,3.364540981754508e-06,8.348862151823316e-07,1.211841404648615e-06,1.712565125218075e-06,6.927766090420584e-06,2.3347551925589913e-05,1.4540628247032769e-06,1.7786664952840187e-06
261,2.392362980512012e-06,2.2624628138680724e-06,2.1335504763763026e-06,2.136073216534026e-06,1.0460714815495993e-05,6.16468668621263e-06,3.0507081501274903e-06,2.079938822566084e-06,3.35465709825652e-06,6.774708586010658e-07,1.2014634787480846e-06,1.6945994033840698e-06,6.532499636756938e-06,2.397701378125589e-05,1.451300350687908e-06,1.760191407168341e-06
262,2.3694742698106665e-06,2.315414451271785e-06,2.1128324678211735e-06,2.0527376824868923e-06,1.027044475971053e-05,5.9100933185396854e-06,3.038484883449692e-06,2.0916729216061484e-06,3.3448602723719612e-06,5.714920057733978e-07,1.1908207270220544e-06,1.6749635565320756e-06,6.141311606623011e-06,2.454182125234003e-05,1.4444740722202543e-06,1.7373969884984333e-06
263,2.340557283774788e-06,2.3629858475051574e-06,2.09382653236792e-06,1.9795962826108085e-06,1.0051493003236155e-05,5.669521813998484e-06,3.029677780999425e-06,2.1009623780152063e-06,3.336232433799803e-06,5.107175337370035e-07,1.1795404512939054e-06,1.6537952956634554e-06,5.7559674301617285e-06,2.504078295746688e-05,1.4336032016817103e-06,1.710619169397786e-06
264,2.306086656997422e-06,2.4051440047690767e-06,2.077700980327146e-06,1.916732523392857e-06,9.81058710129671e-06,5.445578963752606e-06,3.022367698380893e-06,2.1087867147887854e-06,3.3297921190565515e-06,4.892158214701281e-07,1.1674807574370868e-06,1.6317900523366307e-06,5.378734953551651e-06,2.547284503530291e-05,1.4185758167908393e-06,1.6805302128752884e-06
265,2.26697949053386e-06,2.442028284528497e-06,2.0652924197027486e-06,1.8639331487495664e-06,9.554293021045222e-06,5.2398789161561e-06,3.0146618702399573e-06,2.1158642571606197e-06,3.3267546241647862e-06,5.013264310201525e-07,1.1547239870118665e-06,1.6099307971312935e-06,5.0119602493813916e-06,2.5834511381287346e-05,1.399295255758118e-06,1.6480329795637627e-06
266,2.224365658226727e-06,2.473908804841401e-06,2.05703256480904e-06,1.8206299324815663e-06,9.288327455241447e-06,5.053059660205169e-06,3.0045673085980133e-06,2.1227078282048008e-06,3.3286624214343423e-06,5.417336557998801e-07,1.1414955085564833e-06,1.5891260498939864e-06,4.657741289251625e-06,2.6119177097472075e-05,1.375862731534144e-06,1.6141041825959756e-06
267,2.179355748921825e-06,2.500979528082419e-06,2.053041216024243e-06,1.7859657519739133e-06,9.01697034888251e-06,4.88483424256287e-06,2.9898522855567086e-06,2.1297356058694624e-06,3.337357034294929e-06,6.055405477723549e-07,1.1280638030716776e-06,1.5699876669207752e-06,4.317914698249791e-06,2.631966661375743e-05,1.3485651904374396e-06,1.5796454390726037e-06
268,2.132981988315466e-06,2.523164786628859e-06,2.053297176324248e-06,1.7589418731748386e-06,8.7429188490336e-06,4.734313596802245e-06,2.96817774275544e-06,2.1373091938726727e-06,3.354804946417824e-06,6.883454779845769e-07,1.1146769553828149e-06,1.5527826218013172e-06,3.994204689498488e-06,2.6432709785466052e-05,1.3177970544383993e-06,1.545411143722838e-06
269,2.0863561275023115e-06,2.5401283518650833e-06,2.0577800992891283e-06,1.7385287522109265e-06,8.46775732712477e-06,4.60056700572995e-06,2.9374673688453605e-06,2.145639562827233e-06,3.3828267438536497e-06,7.863490964313071e-07,1.1015675930562678e-06,1.53749700565375e-06,3.6882612045275023e-06,2.6462547667996177e-05,1.28412450338374e-06,1.5120018271195649e-06
270,2.040811709566151e-06,2.551438840018433e-06,2.06650507982879e-06,1.723660357480897e-06,8.19275224059169e-06,4.483120745107399e-06,2.8963733383233688e-06,2.1546249528852405e-06,3.4228995003119467e-06,8.963526772341792e-07,1.0889764154127775e-06,1.5239752547268197e-06,3.4015024504722075e-06,2.6421777038439425e-05,1.2483309027010507e-06,1.4798876507071062e-06
271,1.9978591027955126e-06,2.556775351593419e-06,2.0794775985072334e-06,1.7132407685777752e-06,7.919575767775496e-06,4.382177518394858e-06,2.8446872231138996e-06,2.1638016389272835e-06,3.476158007400356e-06,1.0156010097337302e-06,1.0771312792266972e-06,1.5120342253395218e-06,3.1348901407184128e-06,2.6329314713152174e-05,1.211274778674044e-06,1.449428944935584e-06
272,1.9590301359876526e-06,2.556129827488582e-06,2.096650340070799e-06,1.7063430884291688e-06,7.650795411552561e-06,4.298589378847338e-06,2.783464611313835e-06,2.172533365867603e-06,3.5435311885107953e-06,1.1417091337344451e-06,1.0662177373823027e-06,1.5014247679234892e-06,2.888829396869591e-06,2.6206646129032493e-05,1.1737098512203077e-06,1.4209006493047819e-06
273,1.925727050847698e-06,2.5499288389450755e-06,2.117882850958034e-06,1.7024867034662429e-06,7.390053902999392e-06,4.233696338668956e-06,2.7147028551366365e-06,2.1803294021240855e-06,3.6258737800251353e-06,1.272874768854945e-06,1.0563905327288148e-06,1.4916867756994902e-06,2.6632339197966566e-06,2.6073957758031262e-05,1.1362119910385737e-06,1.3945407477386297e-06
274,1.8990992156922529e-06,2.5389606850267304e-06,2.14287232284639e-06,1.7017362375551282e-06,7.141814870542299e-06,4.1890644294253485e-06,2.640721658546247e-06,2.187024688333332e-06,3.724007507405389e-06,1.4082572997785899e-06,1.0477827459867416e-06,1.4820874883766102e-06,2.4576522351199787e-06,2.5947701157054645e-05,1.099177664999636e-06,1.3705738780314304e-06
275,1.8799389481214332e-06,2.5240997105801978e-06,2.171134979884499e-06,1.7046079840814017e-06,6.910662644072424e-06,4.166157268587059e-06,2.5636843320369057e-06,2.1927268349379517e-06,3.838612209118729e-06,1.5481534058087876e-06,1.0404608854368711e-06,1.4717832133884705e-06,2.2714358373597267e-06,2.58403748665318e-05,1.0628654881940707e-06,1.3491567102496179e-06
276,1.8686151374274043e-06,2.5059924540450954e-06,2.2020678841209157e-06,1.711934439023777e-06,6.700493155933392e-06,4.166053733183172e-06,2.485562784502053e-06,2.1977077803648107e-06,3.969961634753092e-06,1.693706278331448e-06,1.0343701591970318e-06,1.46018341251708e-06,2.103944671946374e-06,2.5761836966787366e-05,1.0274964151914808e-06,1.3303067016888183e-06
277,1.8650708470194173e-06,2.484921450153066e-06,2.2349382837247053e-06,1.7247136611554982e-06,6.5140615636753085e-06,4.189307693995342e-06,2.4084094251991945e-06,2.202361498476225e-06,4.117663275407843e-06,1.8463717047204778e-06,1.0293619427206523e-06,1.4472872115295015e-06,1.9546526888798826e-06,2.5720769472755513e-05,9.933330776196134e-07,1.3139699140233298e-06
278,1.8688659375229503e-06,2.4608801408052e-06,2.2687607329100243e-06,1.7439066320756382e-06,6.352937468656802e-06,4.23594946102735e-06,2.334573266879484e-06,2.2071197160498123e-06,4.280631964780127e-06,2.0075482390598946e-06,1.0253322212681076e-06,1.4337009604012296e-06,1.8230762990826089e-06,2.57255081762577e-05,9.606409787000498e-07,1.3002455477150654e-06
279,1.8792154318295306e-06,2.4336803087472557e-06,2.3022611307459957e-06,1.770255252640699e-06,6.217542549934523e-06,4.30558146247335e-06,2.266620333714728e-06,2.2122796902499105e-06,4.457324555310753e-06,2.1784653182471796e-06,1.022409335858395e-06,1.420323795474311e-06,1.7086392190263314e-06,2.5784237190821274e-05,9.296050284531327e-07,1.2895240431849263e-06
280,1.8950287531050447e-06,2.4029760613116433e-06,2.334068450470799e-06,1.8041938681842426e-06,6.1071607927615155e-06,4.397522346396348e-06,2.2070277271605544e-06,2.2179234685055325e-06,4.646010349215782e-06,2.3602357787465696e-06,1.021073993952528e-06,1.4080028695339402e-06,1.6105883872770914e-06,2.5904890317726744e-05,9.00326493647444e-07,1.2823600740949996e-06
281,1.915029008728498e-06,2.368297809830135e-06,2.363042780794128e-06,1.8458351336004613e-06,6.02016623735837e-06,4.510939824338499e-06,2.157916885412071e-06,2.224061039098498e-06,4.8448594838077625e-06,2.55396163298126e-06,1.0221191370633017e-06,1.397387851129759e-06,1.527978138114906e-06,2.6095007411801953e-05,8.728825653751927e-07,1.279244833236928e-06
282,1.9379903148925e-06,2.329198853805615e-06,2.388554475965225e-06,1.8949847035451874e-06,5.954557167222702e-06,4.644895244374101e-06,2.120960817598185e-06,2.230903379133479e-06,5.051858239166523e-06,2.7607951509837253e-06,1.026475163408254e-06,1.3889438366907928e-06,1.4597546604646245e-06,2.6361498427280813e-05,8.473787949303016e-07,1.2804928728738683e-06
283,1.9629951603758047e-06,2.2854229226584848e-06,2.4106110444145033e-06,1.9511580265124444e-06,5.908453602580696e-06,4.798252097477404e-06,2.097392115942315e-06,2.2390876815859503e-06,5.264695536535269e-06,2.981997274191617e-06,1.035016266621907e-06,1.3829790106299768e-06,1.4049393640156989e-06,2.6710144028904024e-05,8.239619826097254e-07,1.2862290007585938e-06
284,1.9895683896689396e-06,2.2368946288549655e-06,2.4298232505163715e-06,2.0136304026884396e-06,5.880205148695807e-06,4.969467298817214e-06,2.088025972708747e-06,2.249710628647484e-06,5.480682234557327e-06,3.2191008519237907e-06,1.048436497940152e-06,1.3796130459704068e-06,1.36279658768375e-06,2.7144682359614518e-05,8.027759819562657e-07,1.2963919079894185e-06
285,2.0176626540654736e-06,2.1835317065158477e-06,2.447239521891242e-06,2.0815458892616254e-06,5.868165296834948e-06,5.156325875507307e-06,2.0932811438173654e-06,2.2641167612593566e-06,5.696686937862773e-06,3.4740912405906012e-06,1.0672004726701737e-06,1.3787460139457394e-06,1.3328889478630078e-06,2.7665526439954858e-05,7.839083644551251e-07,1.3107318391124288e-06
286,2.04758588893894e-06,2.125179609632228e-06,2.464121524570125e-06,2.154038537316493e-06,5.8704071876134616e-06,5.355682594235629e-06,2.1131877992212033e-06,2.283568793167685e-06,5.909150783355194e-06,3.7493332418696327e-06,1.0915284157019958e-06,1.38011037704565e-06,1.315015429756786e-06,2.826888988639884e-05,7.673874524324433e-07,1.3287927406505798e-06
287,2.079917983817627e-06,2.0618820069990667e-06,2.4817594800561922e-06,2.2303454796618156e-06,5.8844689504140445e-06,5.563291312421599e-06,2.1473881800427043e-06,2.309014587776184e-06,6.1143146984795915e-06,4.047242352963644e-06,1.1214001665712057e-06,1.3833491498496577e-06,1.3090772573963514e-06,2.8947374874371202e-05,7.531908123387608e-07,1.34988387469078e-06
288,2.1153627939735807e-06,1.9942670969233445e-06,2.5013696919504694e-06,2.3099406662790893e-06,5.907093161086014e-06,5.773846779350123e-06,2.195155024965488e-06,2.341057299399069e-06,6.3086723209373705e-06,4.37011803738266e-06,1.1566058204866626e-06,1.3880142033089913e-06,1.314961794667771e-06,2.9691838879859218e-05,7.412334032271953e-07,1.3730719459258e-06
289,2.1545395130268848e-06,1.9236396546088047e-06,2.5240482460700587e-06,2.3926606977672713e-06,5.934194537163836e-06,5.9813866325897465e-06,2.2554136103075908e-06,2.380113963660921e-06,6.489400271362022e-06,4.720383534962307e-06,1.1968382542848133e-06,1.3935267944600192e-06,1.3324948826352476e-06,3.049326317149857e-05,7.313805264638851e-07,1.39720961797184e-06
290,2.197846381036119e-06,1.8516840367627255e-06,2.5507397930701485e-06,2.478703278340499e-06,5.961380292420196e-06,6.180118257625845e-06,2.3267910692679847e-06,2.4266543689380607e-06,6.65433628598957e-06,5.101002084183132e-06,1.2417410317409533e-06,1.3992658371325862e-06,1.3613962977956047e-06,3.13438249423858e-05,7.235004576071832e-07,1.421011983246867e-06
291,2.2454380133728765e-06,1.7801280911733458e-06,2.5821834719134745e-06,2.5684096587388054e-06,5.98489181992876e-06,6.365480714587619e-06,2.407782927096138e-06,2.4813258215217255e-06,6.801415806730549e-06,5.515785638007864e-06,1.2908596109648493e-06,1.4048219524203262e-06,1.4012071626118997e-06,3.2237326669808916e-05,7.175155681138273e-07,1.4432014531458052e-06
292,2.297200040549965e-06,1.7106236255262614e-06,2.618814329312034e-06,2.661925786652291e-06,6.002458616061655e-06,6.534998639829574e-06,2.4970005278630303e-06,2.544843102789646e-06,6.928229096155514e-06,5.9695271056629834e-06,1.3435813794451243e-06,1.4101970936488001e-06,1.4512491534161599e-06,3.316951739683354e-05,7.134055365364847e-07,1.4626746974465441e-06
293,2.3526836270230392e-06,1.644687815518718e-06,2.6606385669326687e-06,2.758952981326695e-06,6.013611252169978e-06,6.688524984101271e-06,2.593294055585749e-06,2.6177236249222673e-06,7.032277254375347e-06,6.468016553118295e-06,1.3991478674051636e-06,1.4157469072217599e-06,1.5106208153023226e-06,3.413849423622946e-05,7.111574923351196e-07,1.4786192686258292e-06
294,2.411073795304964e-06,1.5836071541126885e-06,2.707137498304183e-06,2.858730985232853e-06,6.01927803401682e-06,6.827774308125877e-06,2.695614360835027e-06,2.7000479528869666e-06,7.11159702819296e-06,7.01799715892699e-06,1.456683827066088e-06,1.4220004334865917e-06,1.5781909233542336e-06,3.51444792393031e-05,7.107199624984231e-07,1.4905826354206598e-06
295,2.47123796065891e-06,1.5284038929998461e-06,2.7572734079492343e-06,2.9602624629022322e-06,6.020875535721253e-06,6.95532961264785e-06,2.802730393926877e-06,2.7913367522865807e-06,7.16517268710833e-06,7.62704436669101e-06,1.5151867496856192e-06,1.4296135042408082e-06,1.6526379916047505e-06,3.6187898389095895e-05,7.120044497484542e-07,1.4984721237449506e-06
296,2.5318788977542547e-06,1.4798527863354499e-06,2.809613151460047e-06,3.062655372790902e-06,6.019448631203851e-06,7.073550910136245e-06,2.9130700341726237e-06,2.8905036771058717e-06,7.192964622404227e-06,8.303309747914373e-06,1.573542199230566e-06,1.4394342415653853e-06,1.7326442320895181e-06,3.726593942714617e-05,7.149354727426605e-07,1.5024200353810134e-06
297,2.5917844830561943e-06,1.4384742541792873e-06,2.8624526593829775e-06,3.1653999459303517e-06,6.015357247090129e-06,7.184015729244913e-06,3.024837475861139e-06,2.995845134152069e-06,7.195710946246896e-06,9.05499060520584e-06,1.6306196763868473e-06,1.4525122967701355e-06,1.8171916657371688e-06,3.836938469525412e-05,7.195137474017345e-07,1.502599344467147e-06
298,2.650060436932019e-06,1.4045139696950511e-06,2.913812890259109e-06,3.2684628825223038e-06,6.008466367973637e-06,7.2877513219878274e-06,3.1363672882519225e-06,3.1051110230127737e-06,7.174747205954733e-06,9.889464191915003e-06,1.685386052413461e-06,1.47004233964734e-06,1.905724577969194e-06,3.94813063809618e-05,7.258150543498754e-07,1.4991469673758857e-06
299,2.706205785097316e-06,1.3779564525917753e-06,2.9613681414187346e-06,3.372171278019718e-06,5.998413993237323e-06,7.385779460335486e-06,3.246579289065976e-06,3.215714879607525e-06,7.131927503411683e-06,1.0812415867056645e-05,1.7369614272498205e-06,1.4932988942676997e-06,1.9980371220841662e-06,4.0577956891402827e-05,7.339375742782485e-07,1.4921489646854492e-06
300,2.760049637584231e-06,1.3586232458475324e-06,3.002529523144793e-06,3.476924265748056e-06,5.984753770059009e-06,7.479425758862897e-06,3.3553233720350735e-06,3.3250811034105445e-06,7.069593315040149e-06,1.1827312368706732e-05,1.7846056366033635e-06,1.5235361909324714e-06,2.0939878228245657e-06,4.1631024481843685e-05,7.439811443434803e-07,1.4815695085107584e-06
301,2.8116987422832885e-06,1.346347276727381e-06,3.0348055481480647e-06,3.582910590719413e-06,5.967110168982268e-06,7.57032507236313e-06,3.4633996889737528e-06,3.4310710721014455e-06,6.99058455727939e-06,1.2935129426325259e-05,1.827645856924758e-06,1.5618564041992546e-06,2.1932664259785826e-06,4.2609406683591295e-05,7.560516784410026e-07,1.4671899331516216e-06
302,2.8615122774841564e-06,1.3410926446134208e-06,3.0562820058139797e-06,3.6900967903313343e-06,5.945436546373705e-06,7.66029206831942e-06,3.5722438733736585e-06,3.5323559627362867e-06,6.89831590161735e-06,1.413418545573168e-05,1.8654212227540193e-06,1.609126160041673e-06,2.2953031649704345e-06,4.3479416743638786e-05,7.702724790099782e-07,1.448693293557275e-06
303,2.9099502520550834e-06,1.3429162339792868e-06,3.065930780336537e-06,3.7984967051265556e-06,5.920190664168418e-06,7.75113620747461e-06,3.6834777864769554e-06,3.628518900359925e-06,6.796824562591614e-06,1.5420150976433684e-05,1.8973863586595872e-06,1.6659559469541749e-06,2.399222013363599e-06,4.4203766569026324e-05,7.867941618301521e-07,1.4259048815750062e-06
304,2.95729542283959e-06,1.3518451192037396e-06,3.0636129194473733e-06,3.908408559261272e-06,5.892192616784645e-06,7.844362481362273e-06,3.7985023986335643e-06,3.7197615006136818e-06,6.690553046709283e-06,1.6786175165758978e-05,1.923349339726475e-06,1.7326847053162277e-06,2.503792922850116e-06,4.474055233376105e-05,8.057612631066265e-07,1.3990282976459758e-06
305,3.003489373221544e-06,1.3678003821975655e-06,3.049837115374186e-06,4.02039261697684e-06,5.862245492001661e-06,7.940801075685458e-06,3.918226266331243e-06,3.806405643874382e-06,6.583770760096853e-06,1.82228486282277e-05,1.943571885326607e-06,1.8093534377854617e-06,2.6074312867184533e-06,4.5046280393090516e-05,8.272658759340735e-07,1.3686667686204303e-06
306,3.048222791641232e-06,1.390583489420872e-06,3.0253840803563295e-06,4.135087948515383e-06,5.830886247484073e-06,8.040486581297919e-06,4.042985290245109e-06,3.888572501582337e-06,6.4799642892349425e-06,1.97178585774265e-05,1.95856813831693e-06,1.8956837626506262e-06,2.708247371312985e-06,4.508622481981392e-05,8.513438614434157e-07,1.3356419929769073e-06
307,3.0911672220583128e-06,1.4198485636249863e-06,2.990981413428616e-06,4.253050312058137e-06,5.798489714496194e-06,8.143085193394834e-06,4.1725803430576135e-06,3.966190685381554e-06,6.381669151302125e-06,2.1255486999477128e-05,1.9688174800623234e-06,1.9910594504599384e-06,2.8041222060189043e-06,4.484650642604866e-05,8.780057342135398e-07,1.3008237412892526e-06
308,3.1321688265639855e-06,1.4550268269735646e-06,2.947273074543786e-06,4.374616848540732e-06,5.765519719073694e-06,8.248709884743505e-06,4.306303950376333e-06,4.039116873705428e-06,6.290827130774357e-06,2.2816139736075822e-05,1.9746833964687974e-06,2.094550079211629e-06,2.8929262779583896e-06,4.433798631237147e-05,9.072809174130299e-07,1.2650833813265614e-06
309,3.171293220865612e-06,1.49525702231576e-06,2.8950743965878806e-06,4.4998178686552246e-06,5.732502495636596e-06,8.358513589974904e-06,4.442978844224841e-06,4.107122356139022e-06,6.209342481991175e-06,2.4375931049730798e-05,1.9765103411762042e-06,2.2050577173598527e-06,2.972990397014618e-06,4.359007236851736e-05,9.392358764038227e-07,1.2293206516526457e-06
310,3.2087259141444573e-06,1.5393778074665387e-06,2.835609850828016e-06,4.628520566716396e-06,5.699653902514974e-06,8.474480726300024e-06,4.581146725625624e-06,4.169761078326507e-06,6.139444923693128e-06,2.5906272062369495e-05,1.9746723394373723e-06,2.3215421105093495e-06,3.043547480787767e-06,4.264087372916992e-05,9.739413222196345e-07,1.1944640158141464e-06
311,3.2446367497111587e-06,1.5859601861134947e-06,2.770529532258133e-06,4.760738598172281e-06,5.666685391222278e-06,8.598576004766173e-06,4.719495539601521e-06,4.226273792316523e-06,6.083663883364644e-06,2.73734111958448e-05,1.9695067316604247e-06,2.443125338181208e-06,3.1047619788270297e-06,4.15293832756265e-05,1.0114279023984561e-06,1.161397101229125e-06
312,3.279114158286132e-06,1.6333213285971275e-06,2.7017450771504227e-06,4.896727181795713e-06,5.633177779383482e-06,8.732245180048351e-06,4.857448605408055e-06,4.275572237523386e-06,6.044520734534404e-06,2.8738249689496403e-05,1.9612615773041547e-06,2.5689660005725377e-06,3.1573672553166543e-06,4.0290571288777124e-05,1.0516425978431932e-06,1.130882258337522e-06
313,3.31221845045786e-06,1.6795531749865407e-06,2.6311950172246682e-06,5.036768851383363e-06,5.599186917233057e-06,8.876803475060686e-06,4.995627590984658e-06,4.316200838915152e-06,6.0241938877222305e-06,2.9957979695639285e-05,1.950125495977743e-06,2.698006282019856e-06,3.202303058461055e-06,3.895267494136295e-05,1.0943986033998516e-06,1.1035515146960383e-06
314,3.3441467105176728e-06,1.722688020306412e-06,2.5606166503731355e-06,5.180889750495035e-06,5.565588487406644e-06,9.0340290638321e-06,5.135867280947153e-06,4.346221024246064e-06,6.0242621713746225e-06,3.0991332462362655e-05,1.936247426362292e-06,2.828756290816238e-06,3.2408427395921e-06,3.753667762952977e-05,1.1393807921749062e-06,1.0799085175202308e-06
315,3.375380950915754e-06,1.7610221704072798e-06,2.4913735401395035e-06,5.328624948594092e-06,5.534068039466497e-06,9.206281608551893e-06,5.280750842349892e-06,4.363230140375325e-06,6.0454695357938834e-06,3.180633806567316e-05,1.9196832882738034e-06,2.959227446161138e-06,3.2752620755557586e-06,3.60575045595687e-05,1.1862227845190146e-06,1.060298982247393e-06
316,3.4066128856953e-06,1.7934240286049052e-06,2.424372154084794e-06,5.4789113763238325e-06,5.506950032273839e-06,9.396293163978654e-06,5.432981048136574e-06,4.3647685111339285e-06,6.087520260893961e-06,3.238606470205464e-05,1.900369283344924e-06,3.0870081608668787e-06,3.3094058566601077e-06,3.4525832797773355e-05,1.2345428165230326e-06,1.044898060981191e-06
317,3.438455179338466e-06,1.819419580994877e-06,2.3600654251292715e-06,5.630336080187871e-06,5.487142066929111e-06,9.607014635216441e-06,5.594940934126954e-06,4.348940437313885e-06,6.1490227082924234e-06,3.272805196594544e-05,1.8782305665400305e-06,3.2093616297068627e-06,3.348506609854123e-06,3.295005095673299e-05,1.2838818272855733e-06,1.0337323267721592e-06
318,3.4712206074019347e-06,1.839039759404537e-06,2.2984892464077467e-06,5.781721262389784e-06,5.478322119442483e-06,9.841663942120976e-06,5.7685445052426215e-06,4.314820324409904e-06,6.227649966563442e-06,3.283786374345003e-05,1.8533530187666516e-06,3.323397631467027e-06,3.398356459733054e-06,3.13384243142172e-05,1.3336544637042803e-06,1.0267501553840507e-06
319,3.504891835619501e-06,1.8526167688796402e-06,2.2393116989771e-06,5.932617331838869e-06,5.485158713449809e-06,1.0103872355563105e-05,5.955228632609412e-06,4.262498850455599e-06,6.320463659901631e-06,3.272266824540907e-05,1.8260323060821438e-06,3.4265037049355217e-06,3.464497688638254e-06,2.9701148358053828e-05,1.3831955208484685e-06,1.0239586859780546e-06
320,3.5391416752539606e-06,1.8606893863710272e-06,2.1819648720575352e-06,6.083376041489996e-06,5.513200868726882e-06,1.0397691670018058e-05,6.155878038437999e-06,4.1929281182882655e-06,6.42428801369202e-06,3.2390200331126735e-05,1.7966484933886172e-06,3.5168673914955826e-06,3.551898091110297e-06,2.8051629163199085e-05,1.4318260115587296e-06,1.025532105394354e-06
321,3.5733739663309495e-06,1.8639760608602922e-06,2.1258681355860396e-06,6.234868262134621e-06,5.568328067516059e-06,1.0727307078871141e-05,6.370581692842475e-06,4.107722331759752e-06,6.5360243727675945e-06,3.185192015748241e-05,1.7655553633506293e-06,3.5937202285388884e-06,3.6650103922046475e-06,2.6406638497493796e-05,1.4788605652872684e-06,1.0317807293866946e-06
322,3.60687608994858e-06,1.8632730921321924e-06,2.0706305693909323e-06,6.388072088624309e-06,5.656025229575066e-06,1.1096510921191705e-05,6.5983055869128725e-06,4.008987363077588e-06,6.652853476798096e-06,3.1125742723988334e-05,1.7331259712349789e-06,3.6572614793116232e-06,3.8078655707521295e-06,2.4785421155271848e-05,1.5235668746030303e-06,1.0430107096686599e-06
323,3.639031901771208e-06,1.8592600126577113e-06,2.0161779447325313e-06,6.543703743401529e-06,5.7808442067143235e-06,1.150813853089681e-05,6.836711568416625e-06,3.899219544772483e-06,6.772350055111933e-06,3.0236086574346955e-05,1.6998019884754786e-06,3.708397890221119e-06,3.98402363304467e-06,2.3207843902434488e-05,1.5651102620289747e-06,1.0593891131919715e-06
324,3.669433738053434e-06,1.8523693139052104e-06,1.9628262080308132e-06,6.701998362152512e-06,5.946161143198393e-06,1.1963681598560952e-05,7.082277518248912e-06,3.7812106252413466e-06,6.892437174901129e-06,2.9211477211927037e-05,1.6660308975702338e-06,3.748355130704768e-06,4.19644823506263e-06,2.169210323209839e-05,1.6025509971227848e-06,1.080889993173792e-06
325,3.6978226412951913e-06,1.8428435936946191e-06,1.9112697377484854e-06,6.862690221688206e-06,6.15407195531353e-06,1.2463158858514834e-05,7.330629779983768e-06,3.657818152969553e-06,7.011030000613142e-06,2.808074553403143e-05,1.6322005376321072e-06,3.7783121688669175e-06,4.447374907978821e-06,2.0253187916752655e-05,1.6349654062240778e-06,1.1073150016120957e-06
326,3.7239562658446544e-06,1.8309206874749433e-06,1.86243126726239e-06,7.025134079606977e-06,6.405309663279754e-06,1.3005058048805913e-05,7.576881531529799e-06,3.5316088930156555e-06,7.125639698870897e-06,2.6869958580636346e-05,1.598606694391005e-06,3.7992617095307073e-06,4.738154285812533e-06,1.8902539247916167e-05,1.6616372189163577e-06,1.1383373835203028e-06
327,3.7475822521669353e-06,1.8170065822550311e-06,1.8172178013329056e-06,7.188373884804868e-06,6.699192248089085e-06,1.3586069746777903e-05,7.815897194396632e-06,3.4045764043072963e-06,7.233517637545745e-06,2.5602333206618767e-05,1.5654424966532094e-06,3.8120190632533496e-06,5.0691091346588e-06,1.7648417003270254e-05,1.6821811236571743e-06,1.1735495145300886e-06
328,3.7685822671528136e-06,1.8017216569607622e-06,1.7763371110836257e-06,7.3509447936636355e-06,7.033586113356796e-06,1.4200727741113525e-05,8.042591978506935e-06,3.2780876265415025e-06,7.332321218384184e-06,2.430057431700705e-05,1.532894783007771e-06,3.81713545320413e-06,5.439469202945255e-06,1.6496624337551157e-05,1.6965141088383709e-06,1.2125382334729403e-06
329,3.7871286318563917e-06,1.785772936175458e-06,1.7402685718401547e-06,7.510477704385645e-06,7.404886266523881e-06,1.4841436708951374e-05,8.252384992830588e-06,3.1530101774616864e-06,7.420518509446032e-06,2.2988479974476685e-05,1.5013211381807638e-06,3.814789260280525e-06,5.847392711886166e-06,1.5451003354456993e-05,1.704681776571791e-06,1.254968981269357e-06
