,EMG1,EMG2,EMG3,EMG4,EMG5,EMG6,EMG7,EMG8,EMG9,EMG10,EMG11,EMG12,EMG13,EMG14,EMG15,EMG16
0,4.102069067179781e-07,2.6228870992453935e-07,2.9510348496561976e-07,1.0347458647278957e-07,2.0438713893737757e-07,4.125806163836708e-07,2.4927552596486262e-08,1.3132179562724604e-07,-2.579058522224913e-07,9.675646127518042e-07,3.762974105720473e-08,1.869834344791382e-06,1.5576805765538795e-07,-7.40795117173579e-07,3.359140318040098e-08,4.145633202259236e-07
1,5.380224749923623e-07,3.253412888655359e-07,4.2698745880409397e-07,1.5818304450280226e-07,3.179671368439124e-07,5.317098629124204e-07,1.862805832849506e-07,3.1461519834357276e-07,1.648258969782839e-07,2.4949554653770414e-06,9.588292218591417e-08,2.0004212907042383e-06,2.577047342180381e-07,1.7719128661058321e-06,1.5544668018524018e-07,5.366245292317798e-07
2,6.629651626922333e-07,3.891523938534407e-07,5.596235977963238e-07,2.1333977659099957e-07,4.32320449896618e-07,6.525401992393825e-07,3.4525107619735755e-07,4.948427792790638e-07,5.742629423332443e-07,3.995324575823459e-06,1.5487778626766658e-07,2.137180057074527e-06,3.594473050821812e-07,4.152872657363332e-06,2.744312760699131e-07,6.595707908130076e-07
3,7.834109071023767e-07,4.527131006725173e-07,6.923094635055036e-07,2.683622347499068e-07,5.467778820910549e-07,7.7402752633926e-07,4.998475333780617e-07,6.700619175991643e-07,9.639621673907944e-07,5.427523659577353e-06,2.1377895344530233e-07,2.278403776213576e-06,4.5986415248382243e-07,6.361030944188753e-06,3.8884137868546523e-07,7.825705941249658e-07
4,8.980922565763645e-07,5.152859510071634e-07,8.243710505552742e-07,3.2286665561236514e-07,6.607733062557854e-07,8.955058591520116e-07,6.481634236156034e-07,8.38937858766576e-07,1.3278419389668035e-06,6.754409467466485e-06,2.7177420685460464e-07,2.422177538074692e-06,5.579514098566362e-07,8.35878602340076e-06,4.971395728676504e-07,9.04759081016265e-07
5,1.005981130335713e-06,5.763233568934895e-07,9.551436036109823e-07,3.7663326667992605e-07,7.7378940863569e-07,1.016551480197269e-06,7.885151516727819e-07,1.000684623994423e-06,1.6605117183077237e-06,7.948276434358721e-06,3.2805749191854544e-07,2.5666911303845078e-06,6.528339118378203e-07,1.0114381710815081e-05,5.979623251890803e-07,1.0252329730812273e-06
6,1.1062496227000927e-06,6.353916150364053e-07,1.0839574887744444e-06,4.294963259008173e-07,8.85276578856292e-07,1.1368816909547937e-06,9.196355863712715e-07,1.1548104475560276e-06,1.9578863878323727e-06,8.995549064776541e-06,3.818550580801015e-07,2.710623484850961e-06,7.438231863949622e-07,1.160477135291768e-05,6.902487247587996e-07,1.1430158510183568e-06
7,1.1983551804322857e-06,6.9214530886861e-07,1.2101607954718258e-06,4.812659405606352e-07,9.946513044292271e-07,1.256348978594253e-06,1.0408021419017353e-06,1.300930351443517e-06,2.217704532707118e-06,9.89704442358227e-06,4.3255042371400737e-07,2.853188145166224e-06,8.304271470743672e-07,1.2818015486709584e-05,7.733768800966182e-07,1.2570106968024968e-06
8,1.2820546652855955e-06,7.463548382753731e-07,1.3331039065378369e-06,5.31724988039766e-07,1.1013453333245665e-06,1.3749005638842914e-06,1.1518146088452114e-06,1.438717126578583e-06,2.4395752761949256e-06,1.0663957645061325e-05,4.798547784718787e-07,2.993748303922152e-06,9.123004069634804e-07,1.3754302723264785e-05,8.471377193993291e-07,1.3660054575899666e-06
9,1.3572721283487038e-06,7.979119280301899e-07,1.4520909762533703e-06,5.806534021047097e-07,1.2048140484628046e-06,1.4924743946984667e-06,1.2528485379430307e-06,1.5678662798660148e-06,2.6246344193158483e-06,1.1312653448381406e-05,5.238646719960168e-07,3.1313808563933517e-06,9.892376040439496e-07,1.4425281842819025e-05,9.115885596598897e-07,1.468739411325094e-06
10,1.4239818978831461e-06,8.467605191920647e-07,1.5663891982556667e-06,6.278330170262652e-07,1.304546566118517e-06,1.6089508692267526e-06,1.344311315914849e-06,1.6881126807043503e-06,2.7750986472195367e-06,1.1860714235010545e-05,5.649330156669624e-07,3.264705178001298e-06,1.061172152818987e-06,1.4851926443520699e-05,9.66946037271062e-07,1.5639599263504958e-06
11,1.4821945919094897e-06,8.928399579480282e-07,1.6752521673479627e-06,6.73024787024166e-07,1.4001915254656015e-06,1.724205779238621e-06,1.4267974782089997e-06,1.7993797931694237e-06,2.893925490201979e-06,1.2324679839238769e-05,6.034871482861807e-07,3.3918914218057064e-06,1.128116795313172e-06,1.506142049158796e-05,1.0135947425874081e-06,1.6504556014826585e-06
12,1.5319387113078785e-06,9.360866866492907e-07,1.7778782319749043e-06,7.159355238045207e-07,1.491731201166984e-06,1.8381331673437202e-06,1.5010924364815912e-06,1.9018956719893593e-06,2.9846742138867143e-06,1.2718867207622693e-05,6.39935043285242e-07,3.510688149307047e-06,1.1901182412924073e-06,1.5083779285581694e-05,1.052151830809802e-06,1.7271035680305217e-06
13,1.5732090835855565e-06,9.764302906696745e-07,1.8733860642513996e-06,7.562190638814237e-07,1.579488584580422e-06,1.950534510571161e-06,1.5681266172242892e-06,1.996113761189543e-06,3.0514411618377374e-06,1.305475809065543e-05,6.746515173621385e-07,3.6185131504239614e-06,1.2472825279290212e-06,1.4948937815980428e-05,1.0834576065629112e-06,1.7929247149971813e-06
14,1.6059740401783833e-06,1.0138016923401474e-06,1.960890258060525e-06,7.935286773138352e-07,1.6639129668218482e-06,2.060974925528134e-06,1.6288688689142526e-06,2.082532668181038e-06,3.0986176600874604e-06,1.3340720174273645e-05,7.080079560238443e-07,3.7127447439463715e-06,1.2998277088276073e-06,1.468474997690204e-05,1.1084365754958864e-06,1.847162440640054e-06
15,1.6302078666226768e-06,1.0482069216983863e-06,2.0395886181734558e-06,8.275684097031244e-07,1.7453259110647554e-06,2.1687733176461836e-06,1.684208905296153e-06,2.161550242037023e-06,3.1304731778912658e-06,1.3581901439769708e-05,7.404182520019452e-07,3.791228836807375e-06,1.3480945441042841e-06,1.4316038987287936e-05,1.127929156251375e-06,1.889444505861131e-06
16,1.6458590328534514e-06,1.0797843602300843e-06,2.1087652172281356e-06,8.581129169519573e-07,1.8238018319563226e-06,2.2731608049365887e-06,1.7349048086388866e-06,2.233358349546651e-06,3.1508128482920616e-06,1.3780250802594837e-05,7.723333858826887e-07,3.852812094583931e-06,1.3924774904308885e-06,1.3864527495677888e-05,1.1426184019195962e-06,1.9199374406313533e-06
17,1.6528962922769855e-06,1.1087804426113927e-06,2.167767929105355e-06,8.850171785625741e-07,1.8991957459649616e-06,2.3734760653356407e-06,1.7816524598913447e-06,2.2979208439423123e-06,3.1628244437774804e-06,1.3934794200171142e-05,8.041622689156779e-07,3.897661987415482e-06,1.4333242041193861e-06,1.334921924058114e-05,1.153054276946465e-06,1.9392821341302262e-06
18,1.651568299639548e-06,1.1355014937948074e-06,2.216056389640288e-06,9.082074401852915e-07,1.971202433354401e-06,2.4692423537567996e-06,1.8252025196375632e-06,2.355113715080079e-06,3.1690214085025563e-06,1.4042306461547264e-05,8.361827826653648e-07,3.927273330805135e-06,1.4709011459719404e-06,1.2786881122551211e-05,1.1597249583258322e-06,1.948374732795214e-06
19,1.6425995110684313e-06,1.1602848490853688e-06,2.2533098133135072e-06,9.27665306428431e-07,2.0393311311564348e-06,2.5601414309129126e-06,1.866416774254603e-06,2.404956972975791e-06,3.1712024638612885e-06,1.4098347909402284e-05,8.684976553501013e-07,3.944208103062253e-06,1.5054237426757033e-06,1.2192463132568972e-05,1.1631474930943465e-06,1.9482734250681494e-06
20,1.6270356384506128e-06,1.1834964427307097e-06,2.27951488191982e-06,9.435024038698461e-07,2.1028865284804393e-06,2.6460297542187347e-06,1.906315233822923e-06,2.447794966201682e-06,3.1704242015968387e-06,1.4098465243146638e-05,9.010349410884722e-07,3.951674965532664e-06,1.537047318388312e-06,1.1579398490534885e-05,1.1639050688777133e-06,1.9401963239140968e-06
21,1.6059341175202455e-06,1.2055621059030149e-06,2.29497995643968e-06,9.561308654166802e-07,2.161130249620296e-06,2.7270479325378343e-06,1.946175109225655e-06,2.484297903932177e-06,3.1669887977098897e-06,1.4039263987762405e-05,9.33585457412956e-07,3.953070882117392e-06,1.5657819340219435e-06,1.0959852149181245e-05,1.1625662065442088e-06,1.925416071950592e-06
22,1.5801995696307504e-06,1.2269761440797894e-06,2.300268238864937e-06,9.663529472306042e-07,2.21353705906694e-06,2.803717293950397e-06,1.987540467457631e-06,2.515226534795784e-06,3.1604458773477046e-06,1.3918982403454303e-05,9.658713524271451e-07,3.951613831327385e-06,1.5914180021790583e-06,1.034501364502075e-05,1.1595776934058867e-06,1.905169815579471e-06
23,1.5505974943757652e-06,1.2482144513444857e-06,2.296045570376464e-06,9.75248727155345e-07,2.2599006313639146e-06,2.87690383876155e-06,2.0320248101359054e-06,2.5411173787799283e-06,3.1496156729177204e-06,1.3737092713323368e-05,9.97594912224317e-07,3.950138574326823e-06,1.6135265394704441e-06,9.745386312072474e-06,1.1552741377629622e-06,1.8806934844310626e-06
24,1.5178933440122654e-06,1.2696131772657572e-06,2.2828896803267176e-06,9.839476942202902e-07,2.3001980019355795e-06,2.9476363144338462e-06,2.0810676483412923e-06,2.562115741082e-06,3.1327217373196114e-06,1.3493131555509704e-05,1.0284068070281348e-06,3.951041122752855e-06,1.6315243729177975e-06,9.170917046780192e-06,1.1499812765717301e-06,1.8531971787525676e-06
25,1.4830235914158165e-06,1.291337253216931e-06,2.2612341767515926e-06,9.934481739381587e-07,2.334368416897837e-06,3.0168362424882654e-06,2.135816121721319e-06,2.5780428326186204e-06,3.1078478184729355e-06,1.3186507676480987e-05,1.0578367483105512e-06,3.9563402990278855e-06,1.6448192823733977e-06,8.63089220338363e-06,1.1440676878966396e-06,1.8237242273080054e-06
26,1.447124127143258e-06,1.3134653688481088e-06,2.231524434929913e-06,1.004557441490302e-06,2.3622964103645936e-06,3.0850335908193305e-06,2.197078343181354e-06,2.588627148865516e-06,3.0737510647851856e-06,1.2818350277913835e-05,1.0852921633836833e-06,3.9677950934415865e-06,1.653003098637852e-06,8.133699101513565e-06,1.1379010661803414e-06,1.7930666402403097e-06
27,1.4113770657527403e-06,1.3361226741875203e-06,2.1943973316222226e-06,1.0179155428871767e-06,2.384079970901902e-06,3.1521654645495784e-06,2.2652890475673837e-06,2.5936538750979898e-06,3.0305148056281743e-06,1.2393422077184142e-05,1.1101298481074131e-06,3.986939749187561e-06,1.6559697508201046e-06,7.68667625036785e-06,1.1317980619763477e-06,1.76178201042554e-06
28,1.3768558915395664e-06,1.3595352958743026e-06,2.150732533896508e-06,1.0340615297211716e-06,2.400295433068974e-06,3.2175317174439785e-06,2.340498307270071e-06,2.5928974568241472e-06,2.9794203701047206e-06,1.1919864072786272e-05,1.131764479510168e-06,4.0149552418558805e-06,1.6539124668602192e-06,7.296219896173974e-06,1.1260173104281387e-06,1.7302115474189728e-06
29,1.3445158888454226e-06,1.383925141942669e-06,2.1016440967139147e-06,1.053499343293379e-06,2.4119661116279635e-06,3.279946192310226e-06,2.4223457288140198e-06,2.586070039762424e-06,2.9222095424460093e-06,1.1407321575817044e-05,1.1498369928826364e-06,4.052460112679873e-06,1.6472704940858061e-06,6.968040059025981e-06,1.1207739595578445e-06,1.6984897298507222e-06
30,1.3152459302841782e-06,1.409348757773175e-06,2.0484935152233912e-06,1.076705336777272e-06,2.420254681025269e-06,3.3381192541125614e-06,2.5099957487591884e-06,2.5729404350603505e-06,2.8605115260460422e-06,1.0865262405429913e-05,1.1643451709778466e-06,4.0993454107788545e-06,1.6366820734944532e-06,6.707304038840973e-06,1.1162459621653936e-06,1.6666309445838684e-06
31,1.2898460294343516e-06,1.4356565988070892e-06,1.992887623811536e-06,1.1041031536172558e-06,2.4261133963903905e-06,3.3911640272740366e-06,2.602094831031732e-06,2.553432270058654e-06,2.795759926379947e-06,1.0302308875509534e-05,1.1755676435408645e-06,4.154707038281773e-06,1.6229103450625512e-06,6.518581654839774e-06,1.1125516962966003e-06,1.6347121071823412e-06
32,1.2689831269000748e-06,1.462558695314762e-06,1.936594085436688e-06,1.1360476916441915e-06,2.430092497244941e-06,3.438927050209308e-06,2.696840020861122e-06,2.5276074194324273e-06,2.72930587385024e-06,9.726343325144676e-06,1.1838853597161417e-06,4.216851803821553e-06,1.6067264321148858e-06,6.405689806940229e-06,1.1097357282227785e-06,1.6030733398830493e-06
33,1.2532183307306916e-06,1.4896517870890497e-06,1.8813739230321454e-06,1.1727917412254486e-06,2.432374643493455e-06,3.481947340350458e-06,2.7921840867963217e-06,2.4956891834791046e-06,2.6624823709256623e-06,9.144856126979476e-06,1.1897098125137422e-06,4.28334890182718e-06,1.5888487850141442e-06,6.371551155382203e-06,1.1078065903266087e-06,1.5724299718942397e-06
34,1.2430348273640804e-06,1.5164333307337444e-06,1.828792719187389e-06,1.214451587324627e-06,2.4330048460000464e-06,3.521167663011605e-06,2.886102890964221e-06,2.4581652578974963e-06,2.5966163818574865e-06,8.565158338687417e-06,1.1934690587139514e-06,4.351174969165665e-06,1.5699653758830885e-06,6.41816054831959e-06,1.1067848055150525e-06,1.5438058694329536e-06
35,1.2387924985215879e-06,1.542420360138511e-06,1.780081960170847e-06,1.2610190320944972e-06,2.432120282666287e-06,3.5576517681802526e-06,2.976830650828108e-06,2.4158248272401374e-06,2.532970887304684e-06,7.994370911966378e-06,1.1955568884960804e-06,4.4169668895690264e-06,1.5507444877376697e-06,6.5466608097962e-06,1.1067173906511266e-06,1.51829818912593e-06
36,1.2406691417137201e-06,1.5672928463466892e-06,1.7360958431006254e-06,1.312407468880576e-06,2.429941129245307e-06,3.5923708935202894e-06,3.0630261155367035e-06,2.3696657437157444e-06,2.4726096193811188e-06,7.439251533555278e-06,1.1963160591542343e-06,4.4773253615289825e-06,1.5318377556284603e-06,6.757360771888177e-06,1.1076943476279709e-06,1.4968264338793666e-06
37,1.2486395991797973e-06,1.59088452478269e-06,1.6973599509076397e-06,1.368492828661403e-06,2.4266251495852035e-06,3.6259979342955184e-06,3.143861853963058e-06,2.320731192813734e-06,2.416282754415092e-06,6.905878572310989e-06,1.19607547945263e-06,4.52916007262591e-06,1.5139173487974488e-06,7.049581819169282e-06,1.1098889415315699e-06,1.4800193847379974e-06
38,1.2624854574896757e-06,1.6130223097912757e-06,1.664162677981034e-06,1.4291238207512132e-06,2.422284700868913e-06,3.6588273606442013e-06,3.218994091440571e-06,2.269935252490661e-06,2.364408829193444e-06,6.399274207207378e-06,1.1951398955576136e-06,4.570016236540662e-06,1.497704446848188e-06,7.421552694007507e-06,1.1135523841690183e-06,1.4682272028503588e-06
39,1.281836079059742e-06,1.6334062938333065e-06,1.636631675283167e-06,1.4940887659024499e-06,2.4171285873704344e-06,3.690914530241184e-06,3.2883433916650232e-06,2.2179858039291516e-06,2.3171115036030224e-06,5.92319242227465e-06,1.1937068951739063e-06,4.598231658192727e-06,1.483990082284534e-06,7.870663591590834e-06,1.1189107849570692e-06,1.461537092083691e-06
40,1.3062180193967883e-06,1.6516591261055138e-06,1.6147642324815766e-06,1.563049098898456e-06,2.4114440393571655e-06,3.7222215990511106e-06,3.351752383738255e-06,2.16549453019323e-06,2.2742138265179976e-06,5.480222131277078e-06,1.1918138157601418e-06,4.612911263850888e-06,1.4736702433504918e-06,8.394016531691529e-06,1.1260466119630465e-06,1.4597494814741064e-06
41,1.3350685873298435e-06,1.667469761569087e-06,1.5984040834974696e-06,1.635505627055188e-06,2.4053834938672694e-06,3.7526290566030343e-06,3.4087709599485105e-06,2.1131414536217887e-06,2.235224208174014e-06,5.072161088167092e-06,1.189389480981953e-06,4.613851278808759e-06,1.4677141516493991e-06,8.98884414379065e-06,1.1348911213984562e-06,1.4623781033831099e-06
42,1.3677112246460847e-06,1.6807304621887698e-06,1.5871743524377347e-06,1.7108672300874086e-06,2.398828217135596e-06,3.7819482699440185e-06,3.4586600640414784e-06,2.0617009275229736e-06,2.1995012900980158e-06,4.700502201168758e-06,1.186374232796478e-06,4.601480705116876e-06,1.4670222357893839e-06,9.65240057917209e-06,1.1453438447925927e-06,1.4687109422313394e-06
43,1.4033264963600415e-06,1.6916258099644954e-06,1.5804193417839086e-06,1.7885462947578907e-06,2.391532146072951e-06,3.8099679021741167e-06,3.5004339311650693e-06,2.0119453035641496e-06,2.166563031717087e-06,4.366766677602291e-06,1.1828355396700723e-06,4.576812011474602e-06,1.4722802838577327e-06,1.0381326628654009e-05,1.1573978282626809e-06,1.477908963889701e-06
44,1.4409386274137606e-06,1.7005977438636401e-06,1.5772275357590274e-06,1.8679238250779184e-06,2.383423574414327e-06,3.836368396974566e-06,3.5328719577881353e-06,1.964565001874531e-06,2.136194127270234e-06,4.072449806123118e-06,1.1790075821896698e-06,4.541356007837199e-06,1.4839027246995038e-06,1.1171011777669503e-05,1.1711336375237074e-06,1.4891289020135314e-06
45,1.4794042972145386e-06,1.7081480543124298e-06,1.5765536878303152e-06,1.94820294528255e-06,2.3747672530728425e-06,3.8605088771277584e-06,3.5546076094591217e-06,1.9201714816621473e-06,2.108221463015739e-06,3.8186843516347725e-06,1.1752108741126993e-06,4.4968787105874344e-06,1.5020325877444108e-06,1.2015489355598899e-05,1.186608068804304e-06,1.5016450694434057e-06
46,1.517424538199713e-06,1.7145991954994547e-06,1.5773957033848663e-06,2.0283118422962355e-06,2.3660363628029807e-06,3.881342574730656e-06,3.564319866210021e-06,1.879345209832683e-06,2.0822438509618637e-06,3.605991626169873e-06,1.1717287364628254e-06,4.4449909377369155e-06,1.5265469541105636e-06,1.2907563651239725e-05,1.2037921767196312e-06,1.5148823270329285e-06
47,1.5536568038782918e-06,1.7199642352877992e-06,1.5789716650862392e-06,2.106924780375823e-06,2.3576437287151744e-06,3.897578922656254e-06,3.5609817879409142e-06,1.8426472500536037e-06,2.057619060041322e-06,3.434257155544743e-06,1.168744013031368e-06,4.386819129750881e-06,1.5570956698264038e-06,1.3838579124010505e-05,1.2226040301983054e-06,1.5283310098231095e-06
48,1.5869205656951277e-06,1.7239380085555083e-06,1.5808627509861494e-06,2.1825799115277538e-06,2.349821008438232e-06,3.907956171042338e-06,3.544146620902911e-06,1.8105446160544288e-06,2.033729442108137e-06,3.3027605338321487e-06,1.1663215658816338e-06,4.3229014520038755e-06,1.5931969614919935e-06,1.479839065411054e-05,1.2429258278345631e-06,1.5414918958518692e-06
49,1.6163718712569549e-06,1.7259807245643461e-06,1.583086082516529e-06,2.253860133135346e-06,2.3427176143112005e-06,3.911483843031298e-06,3.5141938097619125e-06,1.783309129399257e-06,2.010263079334295e-06,3.2102089552923824e-06,1.1644263443818915e-06,4.253191235864931e-06,1.634314171503498e-06,1.5776373120077196e-05,1.2645349451559878e-06,1.5539368243475093e-06
50,1.6415681663540511e-06,1.725533685785936e-06,1.5860252245631676e-06,2.3195677230849186e-06,2.3365039771528373e-06,3.907559862450978e-06,3.4723712789431024e-06,1.761036325239149e-06,1.987214778122882e-06,3.154850051215099e-06,1.1630137389652597e-06,4.177180335682708e-06,1.6798322716871234e-06,1.6762882152850506e-05,1.2870133023978055e-06,1.5653458650455919e-06
51,1.6624454673786462e-06,1.7222989503437594e-06,1.5902088749970211e-06,2.378829200063911e-06,2.331301316967112e-06,3.895905222423537e-06,3.420563620219532e-06,1.7438409480977942e-06,1.9646600783010336e-06,3.1346095196220097e-06,1.1621308907996939e-06,4.094216536938757e-06,1.7289568221018512e-06,1.7750057227345863e-05,1.3097041838037303e-06,1.575455651228671e-06
52,1.6792400458453495e-06,1.7163335913013379e-06,1.5961095685144063e-06,2.4311143835768283e-06,2.3269839850523e-06,3.876414282492491e-06,3.3609127038971564e-06,1.732092346260187e-06,1.942635678385001e-06,3.1471493053695113e-06,1.1619378382813897e-06,4.00382439006996e-06,1.7806156943229615e-06,1.8731679191899876e-05,1.331711598094768e-06,1.5840485571267905e-06
53,1.6923464748527749e-06,1.707894672878953e-06,1.604101151828003e-06,2.4761553155647354e-06,2.3230138755241343e-06,3.849089236771656e-06,3.2954557443689904e-06,1.726493064532505e-06,1.9211927492093673e-06,3.189814993563331e-06,1.1626688393449258e-06,3.905862512209476e-06,1.8334299023453607e-06,1.9702258012471724e-05,1.3519628000802059e-06,1.5910687390304416e-06
54,1.7021302705996702e-06,1.6972979697946867e-06,1.614465105283082e-06,2.513753022826682e-06,2.318439153654974e-06,3.8140448135451268e-06,3.2258430724114772e-06,1.727938722265975e-06,1.9003631570196536e-06,3.2595157778460883e-06,1.1645737543756855e-06,3.8005705157114653e-06,1.8857739805089102e-06,2.0655569724027474e-05,1.3693634507192137e-06,1.5967810720041819e-06
55,1.7088111410594769e-06,1.6849263674948932e-06,1.6273268719804409e-06,2.5435380825644943e-06,2.31208730685716e-06,3.7714107239641167e-06,3.153168030465211e-06,1.7372729333392848e-06,1.880001301088815e-06,3.352651058625094e-06,1.1678340562830186e-06,3.688540765571395e-06,1.9358831042257297e-06,2.1583217713428218e-05,1.3829583534045331e-06,1.6017885740612427e-06
56,1.7124634143471727e-06,1.6712349358198254e-06,1.6425941983661987e-06,2.5648609830968966e-06,2.302870918067406e-06,3.721164890847313e-06,3.077961706677533e-06,1.7550992995930489e-06,1.8597459373235956e-06,3.4652203420407132e-06,1.1725003680007999e-06,3.57062359633021e-06,1.9819908249208082e-06,2.2473825547432677e-05,1.391984504082821e-06,1.606827398828243e-06
57,1.713038533308059e-06,1.6566791958864098e-06,1.6599616338695999e-06,2.5769608144991387e-06,2.290033593861456e-06,3.663170344651382e-06,3.00033513955279e-06,1.7817115955281558e-06,1.8391778083612287e-06,3.5931642684654134e-06,1.1785167916677985e-06,3.4478752441446034e-06,2.022533933320402e-06,2.331261406685147e-05,1.3958468360122198e-06,1.6125170702084215e-06
58,1.7104242199943322e-06,1.6416488961724487e-06,1.6789320103037411e-06,2.5793296914338967e-06,2.2731473140472435e-06,3.597416661748282e-06,2.9201885189535627e-06,1.8171045193893852e-06,1.8180298856121406e-06,3.732747030207497e-06,1.185789638376661e-06,3.3216215914069428e-06,2.0562944822132835e-06,2.4081146859945512e-05,1.3941470554817178e-06,1.6193089880251468e-06
59,1.7045890720556447e-06,1.626417215088788e-06,1.69887652281991e-06,2.572035808086774e-06,2.2518814291459186e-06,3.5241706358501136e-06,2.837467343870855e-06,1.8610226342834274e-06,1.7963325170333515e-06,3.880647552388086e-06,1.1941936186315851e-06,3.193524104727201e-06,2.082311573643924e-06,2.4758281730639024e-05,1.3868218374533588e-06,1.6276136004826935e-06
60,1.6956454781473614e-06,1.6110639250075562e-06,1.7191753113919593e-06,2.5558792070501795e-06,2.225825434328211e-06,3.4439908278621553e-06,2.7524945755982977e-06,1.9130050028827704e-06,1.7744308648152851e-06,4.033657075063772e-06,1.2034872088789343e-06,3.065501495206144e-06,2.0997973582298396e-06,2.5323076759755075e-05,1.3742799180954154e-06,1.6378695654713332e-06
61,1.6837159590779063e-06,1.5954305372009936e-06,1.7392965514014035e-06,2.532368783305094e-06,2.1945363362802082e-06,3.357764970102395e-06,2.66630931934759e-06,1.9724131892494735e-06,1.7528394001553636e-06,4.188255482886629e-06,1.2132399903754381e-06,2.939544168771699e-06,2.1083680407861886e-06,2.5758449305627422e-05,1.357365327988401e-06,1.6504640041247264e-06
62,1.668806661388127e-06,1.5791965108885474e-06,1.7586941080720755e-06,2.503478746335602e-06,2.1577155517003187e-06,3.2667762794265758e-06,2.5808221761279976e-06,2.0384653009735123e-06,1.7320204775376675e-06,4.340467009097907e-06,1.222891312755439e-06,2.8175780866090813e-06,2.10839979299247e-06,2.6053612646522556e-05,1.3371502013714832e-06,1.6656442334008785e-06
63,1.6509046858607906e-06,1.5620584728640259e-06,1.776661642795475e-06,2.47122433097504e-06,2.1154326823940044e-06,3.1727678589627127e-06,2.4986695929780263e-06,2.1102419298362342e-06,1.7122644660430235e-06,4.486148413991719e-06,1.2319348833504919e-06,2.70143735801604e-06,2.1010902955242826e-06,2.6204409598744172e-05,1.3147529985824693e-06,1.683493054688389e-06
64,1.6302242035848116e-06,1.5439164415413032e-06,1.7923585471152228e-06,2.4372884734426606e-06,2.0683512252266304e-06,3.078042148376635e-06,2.4228614992270454e-06,2.1866785826021474e-06,1.693731297645174e-06,4.6215109020064464e-06,1.2401169121848206e-06,2.592851880753321e-06,2.088135934313633e-06,2.6212059972284628e-05,1.291266108472152e-06,1.7038854966940938e-06
65,1.6073700352470675e-06,1.5249765951494962e-06,1.805035537020267e-06,2.402859624386267e-06,2.0177923855160334e-06,2.9855310118868786e-06,2.356407703979864e-06,2.266600487462177e-06,1.6765624369172775e-06,4.743583912393844e-06,1.2475114706152754e-06,2.4933399478857954e-06,2.0713730637166297e-06,2.6081314147910654e-05,1.2677024287933595e-06,1.7264243091273479e-06
66,1.5832775986163027e-06,1.505719648738259e-06,1.8142803969980375e-06,2.3686336462568347e-06,1.965508629509698e-06,2.8986859592526787e-06,2.302028636918612e-06,2.348757675383298e-06,1.6609512042622603e-06,4.850442517366791e-06,1.2544146699365387e-06,2.4040246193768545e-06,2.0526802424689276e-06,2.581837707539141e-05,1.2449323295286106e-06,1.7504666013822862e-06
67,1.5590299953364788e-06,1.4867401318018993e-06,1.8201051435501253e-06,2.3349603960056247e-06,1.9132945317385697e-06,2.8211612500173303e-06,2.2619825648131783e-06,2.4318924908684566e-06,1.6470958092808245e-06,4.9412008967010994e-06,1.261203456559285e-06,2.325504061306862e-06,2.0339789092271005e-06,2.542865611628509e-05,1.2236494541854814e-06,1.775280206259034e-06
68,1.5357717451337656e-06,1.4685305694496627e-06,1.822863851541825e-06,2.302092859647324e-06,1.8627022257599612e-06,2.756436602854205e-06,2.238027907420336e-06,2.5148662830037134e-06,1.6350857108653103e-06,5.015934869903693e-06,1.2683341876094898e-06,2.25787509022165e-06,2.017153762407535e-06,2.491569401989077e-05,1.2043559749906502e-06,1.8002361020465534e-06
69,1.5147027327379078e-06,1.4513254442410016e-06,1.8231047823292112e-06,2.2703028851251926e-06,1.8150004764949148e-06,2.7075638244103597e-06,2.231501569296535e-06,2.596658817924805e-06,1.6248776224156344e-06,5.075594339818185e-06,1.2764011881340184e-06,2.200905641566551e-06,2.0039990989668137e-06,2.4282967643137674e-05,1.1873388833053155e-06,1.8249259248499354e-06
70,1.4969844005113908e-06,1.4350738911001435e-06,1.8214463659977461e-06,2.2397501437998645e-06,1.7713309898760465e-06,2.6770951142282042e-06,2.243427576131291e-06,2.676206404977999e-06,1.6163877209915243e-06,5.121745971702486e-06,1.2860935507219924e-06,2.1542718947476868e-06,1.996205443056381e-06,2.3537544463527955e-05,1.1726448582516502e-06,1.8491644372706125e-06
71,1.4836006885787607e-06,1.419533462464826e-06,1.8185098100353645e-06,2.2103437095755715e-06,1.732892490916275e-06,2.667106932326359e-06,2.2745519407696933e-06,2.752353870401378e-06,1.6095533791761104e-06,5.156292566617256e-06,1.2980619116227163e-06,2.117749216457716e-06,1.9952936375026872e-06,2.2692644285508393e-05,1.1600891650882025e-06,1.872890235192085e-06
72,1.4752933244193586e-06,1.4044025798396241e-06,1.8148878524748528e-06,2.181839322483589e-06,1.7009726660509637e-06,2.679259528161876e-06,2.325285620828483e-06,2.8239648991235146e-06,1.6042814029415888e-06,5.181771877911195e-06,1.3128057177399166e-06,2.091290219084358e-06,2.002527408659046e-06,2.17674863368155e-05,1.1493281622893285e-06,1.896033475031301e-06
73,1.472534127536678e-06,1.3893874731743155e-06,1.8110883651118542e-06,2.154102913506882e-06,1.676866217203329e-06,2.7149228882098715e-06,2.3956438265985075e-06,2.8899294334862206e-06,1.6004107766405834e-06,5.202226457148837e-06,1.330654666750305e-06,2.0749983780189594e-06,2.0188428406144157e-06,2.078498882101794e-05,1.1399919141097547e-06,1.9184578055895274e-06
74,1.4754981866940695e-06,1.3742691571372587e-06,1.8074381745037149e-06,2.1273099206138197e-06,1.6619004040976348e-06,2.7753722731568525e-06,2.485254489670468e-06,2.949149769874928e-06,1.597771604914965e-06,5.223705519608323e-06,1.3518116970285415e-06,2.0690269580903502e-06,2.0448067725571748e-06,1.9768805475507237e-05,1.1318163395894295e-06,1.939988750782209e-06
75,1.4840829674793328e-06,1.359068516920964e-06,1.8040350645655581e-06,2.1019560833458838e-06,1.6576179338347297e-06,2.861996119192048e-06,2.593444846481196e-06,3.0007929223720826e-06,1.5961953612607848e-06,5.253864051194979e-06,1.3763601477824802e-06,2.073442207984789e-06,2.080653052345526e-06,1.8740847813973018e-05,1.1246810253588778e-06,1.960410742949285e-06
76,1.4979535811377955e-06,1.3441314641784258e-06,1.8008113290692503e-06,2.0786931866433213e-06,1.6659450867149046e-06,2.976467206330496e-06,2.719397250300884e-06,3.0446162218232045e-06,1.5954485616843587e-06,5.301114664571499e-06,1.4042226954448178e-06,2.0881775456485388e-06,2.1263787056012196e-06,1.7719746917307806e-05,1.1185448812409671e-06,1.97937342051524e-06
77,1.5165394509295127e-06,1.3299674073350329e-06,1.7976719383045981e-06,2.0580913537353768e-06,1.6892178376489984e-06,3.1208523418075767e-06,2.862310319265964e-06,3.0810091873631194e-06,1.595217744056701e-06,5.373881763361175e-06,1.4351564949131703e-06,2.1131587856386707e-06,2.1818363621700965e-06,1.6720273960335618e-05,1.1134183040313973e-06,1.9963450746302574e-06
78,1.5389906356078057e-06,1.3169916636192622e-06,1.7946611672764116e-06,2.0405073901142327e-06,1.7300501479206143e-06,3.297625776195111e-06,3.0214520799553394e-06,3.1108045608603406e-06,1.5951626747189945e-06,5.480080527371794e-06,1.4688155314646903e-06,2.1484045055585464e-06,2.2468565589001163e-06,1.5753512614341528e-05,1.1094263471550524e-06,2.010754758557288e-06
79,1.5641656492314731e-06,1.3053775907532294e-06,1.7920936291698104e-06,2.026133131259644e-06,1.7910938521873807e-06,3.509524166919371e-06,3.1960440740559186e-06,3.135102215564815e-06,1.595036014699055e-06,5.6268582623167716e-06,1.504790533579344e-06,2.1938850572812554e-06,2.3215019064669587e-06,1.4827557096296815e-05,1.1068142489469163e-06,2.022201157526767e-06
80,1.5906967030246022e-06,1.295040391235589e-06,1.7905313613621036e-06,2.0150577417203663e-06,1.874828517333642e-06,3.7592380428949272e-06,3.385031931101843e-06,3.15515621362093e-06,1.594808977130468e-06,5.8206066990032895e-06,1.5425500551710507e-06,2.2492752171073864e-06,2.4063941455658517e-06,1.3948493558962273e-05,1.1058424139507128e-06,2.030503344711126e-06
81,1.6171155909954883e-06,1.2856620663346535e-06,1.7905808725333846e-06,2.0072174570568085e-06,1.983475029876729e-06,4.049128068424464e-06,3.586933181501918e-06,3.1722042242248326e-06,1.5946351518073925e-06,6.066970974724978e-06,1.581364723940133e-06,2.313861195405308e-06,2.502804959444418e-06,1.3121265584738253e-05,1.1066996997622507e-06,2.0356103205805845e-06
82,1.6419542061574169e-06,1.2767094124494541e-06,1.7926639508118069e-06,2.0023442912644133e-06,2.1189846662483035e-06,4.3812041480675575e-06,3.7999511967493053e-06,3.1872469689686235e-06,1.5946634675331074e-06,6.370632877179925e-06,1.6203423706847153e-06,2.386640223891175e-06,2.6123681552270594e-06,1.2350142698871749e-05,1.1094980050861062e-06,2.0375687564868715e-06
83,1.663838478345535e-06,1.2674966466766076e-06,1.7969069787392292e-06,1.9999831196148623e-06,2.2830761889191195e-06,4.757314981433929e-06,4.022329619085768e-06,3.2009654087525526e-06,1.5948820105247567e-06,6.735051567632019e-06,1.6585718943923186e-06,2.4664880132382975e-06,2.7366900089604673e-06,1.1638842409907318e-05,1.1142916942453471e-06,2.036589033801658e-06
84,1.681726313496038e-06,1.2573448818931737e-06,1.8031253734897568e-06,1.9994989640931115e-06,2.477303919650601e-06,5.179259294689481e-06,4.252730875660722e-06,3.2138099771176344e-06,1.5950770881478486e-06,7.16239868581651e-06,1.6952703093064642e-06,2.5522343749060532e-06,2.877082227616331e-06,1.0990429810749339e-05,1.1210707632655741e-06,2.033050937862231e-06
85,1.6951916497577497e-06,1.2457913566230812e-06,1.8108508680686749e-06,2.0001255238360377e-06,2.7030337314558594e-06,5.648675319042393e-06,4.490389912999527e-06,3.2260819852770082e-06,1.5948514941278613e-06,7.653711355137605e-06,1.7298312120671279e-06,2.6425730153717475e-06,3.034379140698815e-06,1.0406975804508145e-05,1.1297418695505347e-06,2.027424556820833e-06
86,1.704413996249309e-06,1.2327478546201465e-06,1.819430904935109e-06,2.001159749148773e-06,2.9612832517469025e-06,6.1668327476594705e-06,4.734913663349625e-06,3.2379335458330836e-06,1.593638214313717e-06,8.209131158775356e-06,1.7617707889236324e-06,2.735929462230799e-06,3.208825400674461e-06,9.88901482923113e-06,1.1401411465087922e-06,2.0202049632186802e-06
87,1.7098561212316153e-06,1.2185541581558634e-06,1.8281924179687563e-06,2.0021888380916833e-06,3.252545398630269e-06,6.734485283561337e-06,4.985864524584929e-06,3.2493758486792567e-06,1.59073983985068e-06,8.827938703184662e-06,1.7906302415912167e-06,2.8304207950248792e-06,3.400043510265169e-06,9.435141398576111e-06,1.1520801354435075e-06,2.01180016413329e-06
88,1.7120300413582957e-06,1.2039213372347264e-06,1.8365856534382316e-06,2.0031693137497814e-06,3.5766845200269134e-06,7.35176107979031e-06,5.2424256785783255e-06,3.260313780228083e-06,1.5854563114877081e-06,9.508259147102878e-06,1.8158682437870098e-06,2.923898095501415e-06,3.6070559671028863e-06,9.042098391805729e-06,1.1653757880594462e-06,2.002362767229884e-06
89,1.7115376722080193e-06,1.1897651528088168e-06,1.844246136381765e-06,2.0043541074615227e-06,3.932917702879007e-06,8.017994859528467e-06,5.503260453017072e-06,3.270517854279822e-06,1.5772688424869552e-06,1.0246769071101535e-05,1.8368287195651277e-06,3.014024538574528e-06,3.8283244304853865e-06,8.705358514429695e-06,1.1798235384178472e-06,1.991765715043449e-06
90,1.709109763331796e-06,1.1769845854805392e-06,1.850982630770231e-06,2.0061981026864872e-06,4.319875586639797e-06,8.731553128749277e-06,5.7664055212684014e-06,3.2795421099854244e-06,1.565955111914307e-06,1.1038663913962116e-05,1.852855534009348e-06,3.0983386921397268e-06,4.061709277505953e-06,8.41991086257556e-06,1.1951493761802554e-06,1.979812384900696e-06
91,1.7054608126774417e-06,1.1663005340136357e-06,1.8567505457509508e-06,2.00932015958363e-06,4.735717218404888e-06,9.489807091199086e-06,6.0291240663732996e-06,3.2867418824471376e-06,1.5515492155622838e-06,1.1877625934225067e-05,1.8634423301632258e-06,3.1742996582490765e-06,4.304353431671897e-06,8.180844371383247e-06,1.211052023077038e-06,1.9665235457229484e-06
92,1.7011510497652228e-06,1.158207776462197e-06,1.861654606770512e-06,2.0144415033918315e-06,5.178260608042203e-06,1.0289300675608586e-05,6.287953266911199e-06,3.2914673524641884e-06,1.5342140445937358e-06,1.275549554961039e-05,1.868302663921583e-06,3.2394301761295724e-06,4.552587229676001e-06,7.98347997147938e-06,1.2273267707709658e-06,1.9522864519765074e-06
93,1.696638600090895e-06,1.1530056974824581e-06,1.8659511300743144e-06,2.0222185643268364e-06,5.645054484552724e-06,1.112597186407069e-05,6.539090726172533e-06,3.2933051720638176e-06,1.5141707342829202e-06,1.3661828204845159e-05,1.867402696960623e-06,3.2916636828060433e-06,4.801862792163173e-06,7.823297892821705e-06,1.2438874591051564e-06,1.937809729782217e-06
94,1.692416547624852e-06,1.150837815296355e-06,1.869993962076532e-06,2.033085286679932e-06,6.133287843058207e-06,1.1995197118568118e-05,6.778882716368246e-06,3.2921941097817014e-06,1.4916836221082622e-06,1.4583720669306092e-05,1.8609895190478479e-06,3.3298274096241236e-06,5.046808461588834e-06,7.696111954340937e-06,1.2606350499679762e-06,1.923983418258327e-06
95,1.6890251282334935e-06,1.151691585474479e-06,1.8741081410738079e-06,2.0472281660097404e-06,6.639550161885227e-06,1.2891517693345377e-05,7.004163925035861e-06,3.2883637650055577e-06,1.4669990258442007e-06,1.5505947469495237e-05,1.8495613145255692e-06,3.354018319861618e-06,5.281586658301754e-06,7.598518785450426e-06,1.2773178195108483e-06,1.9117170154872856e-06
96,1.6869412482693006e-06,1.1554130935382394e-06,1.878431130262342e-06,2.0645956423756936e-06,7.159616409905584e-06,1.3808054044277162e-05,7.212437651721061e-06,3.2821657397042774e-06,1.440307770372207e-06,1.6411076688506297e-05,1.8337383139318765e-06,3.365613832548148e-06,5.5004810230595655e-06,7.528278624955976e-06,1.2934622588281262e-06,1.9017807333599825e-06
97,1.6865054590837087e-06,1.1618026274579926e-06,1.8828115559006538e-06,2.0848266098533393e-06,7.688352125573669e-06,1.4735762691268054e-05,7.401936162445986e-06,3.2739027430866e-06,1.4118389092795837e-06,1.7279227688098534e-05,1.8140628830151541e-06,3.3668778723932864e-06,5.6983894727583235e-06,7.484476055632517e-06,1.308371430787992e-06,1.8946887718400022e-06
98,1.6879108897818262e-06,1.1707169351603736e-06,1.8867969996170706e-06,2.107161490365785e-06,8.219595472373734e-06,1.5662899534875075e-05,7.571567331752243e-06,3.263702528135141e-06,1.3819610117333558e-06,1.808764755117453e-05,1.7908184277133882e-06,3.360405842100662e-06,5.8710817671799835e-06,7.467635768624959e-06,1.3212050017900018e-06,1.890630667357915e-06
99,1.6911659889085784e-06,1.1820595459747744e-06,1.8896399078597574e-06,2.130460704030186e-06,8.745869945501876e-06,1.657498334175583e-05,7.720816776893187e-06,3.2513894647711835e-06,1.3511467355039777e-06,1.881126302453677e-05,1.7639765245158807e-06,3.348695485347942e-06,6.015409981870359e-06,7.479884470302453e-06,1.3311263037752012e-06,1.8894590140767565e-06
100,1.6960357524294368e-06,1.1956685611280102e-06,1.8903194875584069e-06,2.1533690473650624e-06,9.258074615163396e-06,1.7455156576896652e-05,7.849715541546794e-06,3.2363442290893197e-06,1.3198790031102337e-06,1.9425389768378198e-05,1.733325836063303e-06,3.333906187812092e-06,6.129487433753036e-06,7.5248862515703004e-06,1.3374735196084827e-06,1.8907695084325311e-06
101,1.702026450051165e-06,1.2112212060668601e-06,1.88760114512346e-06,2.1745391276699262e-06,9.745533301684202e-06,1.828480713316635e-05,7.95887549572826e-06,3.2174850665771805e-06,1.2886447743783273e-06,1.990989155319689e-05,1.6987043017807666e-06,3.3177214474082847e-06,6.212485648973181e-06,7.607211443776499e-06,1.3399079999421566e-06,1.894010880812972e-06
102,1.7084391184639875e-06,1.2282474355830483e-06,1.8800566338956576e-06,2.19277225737148e-06,1.0196714953303044e-05,1.9044601143609537e-05,8.049460403813539e-06,3.193468608250022e-06,1.257985025167145e-06,2.025235712672222e-05,1.660162462909998e-06,3.3013504050986453e-06,6.264203343282508e-06,7.731351911966369e-06,1.3384359301242702e-06,1.89851267633088e-06
103,1.714450395476841e-06,1.2462501000516636e-06,1.8661084587098841e-06,2.207016560271879e-06,1.060061180139137e-05,1.9716008373303392e-05,8.12297518726476e-06,3.1630307715310286e-06,1.2284643283904008e-06,2.04483050656188e-05,1.6179861939603941e-06,3.2857309915129128e-06,6.28516641395719e-06,7.901118001919098e-06,1.3332370552237146e-06,1.903477223752464e-06
104,1.7191718973138814e-06,1.264859127293434e-06,1.8442819939804945e-06,2.2163095541497846e-06,1.0948336059074287e-05,2.028302237106826e-05,8.180854564917825e-06,3.125339498143857e-06,1.2005749984295056e-06,2.049836148900502e-05,1.5726825489038689e-06,3.2717369667454136e-06,6.2772167697872425e-06,8.11964347581146e-06,1.3244494197514681e-06,1.9080706655340926e-06
105,1.721777055896698e-06,1.2839129486360077e-06,1.8136232284240347e-06,2.219808309416156e-06,1.1234263604134626e-05,2.073357983929173e-05,8.223887954150745e-06,3.0802418162435214e-06,1.174707283674475e-06,2.0404525167414272e-05,1.5250060962903344e-06,3.2601529684419854e-06,6.243658197876642e-06,8.389410700318857e-06,1.312114379498942e-06,1.9115881207011787e-06
106,1.721759819420625e-06,1.3033910823734144e-06,1.7740550105290781e-06,2.2169309253500653e-06,1.1456273603485898e-05,2.1060311604506492e-05,8.251603751033735e-06,3.0282874864316395e-06,1.1512423721322996e-06,2.0168436581584257e-05,1.475958926390182e-06,3.2515385391998132e-06,6.188642841285689e-06,8.71192774390801e-06,1.2962702530725848e-06,1.9135789048848334e-06
107,1.7191259765759337e-06,1.32324927766323e-06,1.7264778645202157e-06,2.2074569376320225e-06,1.1615094613444571e-05,2.1260404969895623e-05,8.26186717438182e-06,2.9705371601456006e-06,1.130714545518985e-06,1.9792608578936184e-05,1.426692223108714e-06,3.2462611376568627e-06,6.1163951430367564e-06,9.087278576144459e-06,1.2770563238068708e-06,1.9139486822366193e-06
108,1.7142989535216414e-06,1.3433050235747174e-06,1.6725557901444877e-06,2.19141828082248e-06,1.1713029152242482e-05,2.1334296636156562e-05,8.2509255319021e-06,2.9083275353619937e-06,1.1138859799831066e-06,1.928328142350805e-05,1.3783477418668741e-06,3.244704368038881e-06,6.0308097048283495e-06,9.513858235370058e-06,1.2547666160451224e-06,1.913039628092145e-06
109,1.707814947457982e-06,1.3632314138854682e-06,1.6143202409802559e-06,2.1688412092476294e-06,1.1752443465799593e-05,2.128341056080249e-05,8.213966989224461e-06,2.8431541236088433e-06,1.1016192880026409e-06,1.8653207102421905e-05,1.3319318904553179e-06,3.2474478115377295e-06,5.935357910584053e-06,9.988538563408874e-06,1.2298713392438362e-06,1.9115332132076903e-06
110,1.7000606378156852e-06,1.3826017009665784e-06,1.5538050043589177e-06,2.1396426240864586e-06,1.1734727715953464e-05,2.1108700134657178e-05,8.146131057960148e-06,2.7766533658038903e-06,1.0946723012076864e-06,1.792258242403386e-05,1.2882535717424975e-06,3.25533193718745e-06,5.832992252170523e-06,1.0507220067789124e-05,1.203020677139863e-06,1.910151538634378e-06
111,1.6911857322794244e-06,1.4009819557281757e-06,1.4928267312886978e-06,2.103845574236114e-06,1.1660479985667137e-05,2.081176374128956e-05,8.043747659237666e-06,2.710529350294095e-06,1.0936301922742852e-06,1.711699374351562e-05,1.2479013149034371e-06,3.26944868279169e-06,5.726059631095578e-06,1.1065291726424694e-05,1.1750268712653766e-06,1.9093956053304592e-06
112,1.681121138484726e-06,1.4180704029039197e-06,1.4329088955024632e-06,2.0618951957868955e-06,1.1530766262880514e-05,2.0397361347268423e-05,7.905341942420952e-06,2.646392225534476e-06,1.0990096218216104e-06,1.6263632112824598e-05,1.2112444498297394e-06,3.2910434507512566e-06,5.61639697858527e-06,1.1657659973530736e-05,1.1468004937737432e-06,1.9095060591030777e-06
113,1.669598745227632e-06,1.4337819092365202e-06,1.3752887897684159e-06,2.0147906147326227e-06,1.1348422240179995e-05,1.987472712421761e-05,7.731987992910584e-06,2.5856882294653544e-06,1.111385813237727e-06,1.5388187942315626e-05,1.178446613261519e-06,3.3212789521330026e-06,5.505432583787885e-06,1.2278382474869134e-05,1.1192314973089678e-06,1.9105599524549994e-06
114,1.6561616670034295e-06,1.4482455183028927e-06,1.320947433994385e-06,1.9639690502474136e-06,1.11186184863886e-05,1.925723790236648e-05,7.527019462815703e-06,2.5297530100715424e-06,1.1314185407363077e-06,1.4513422273360208e-05,1.14949228405331e-06,3.3609475978101557e-06,5.39402802623735e-06,1.2920192860012108e-05,1.093099054466639e-06,1.9125068596666673e-06
115,1.6401903799539716e-06,1.4617700800812445e-06,1.2706507370238913e-06,1.911030267244398e-06,1.0848608918291573e-05,1.8561468455751157e-05,7.295395047028798e-06,2.479775121227559e-06,1.1598137129368067e-06,1.3658860076443783e-05,1.124235822498397e-06,3.410301878192534e-06,5.282261382107769e-06,1.3574655979413864e-05,1.0690825090030483e-06,1.9151132597224103e-06
116,1.6209993273527825e-06,1.4747728749689086e-06,1.225008270740407e-06,1.857476036844157e-06,1.0546966080014852e-05,1.7805972070381166e-05,7.042969993617176e-06,2.4366404934077662e-06,1.1972853450089492e-06,1.2840903882464323e-05,1.1024441250221873e-06,3.4690249041662093e-06,5.16954348200389e-06,1.4233381526485807e-05,1.0477998603282652e-06,1.917933876758029e-06
117,1.5980770095334918e-06,1.4876511866211228e-06,1.1845265872357117e-06,1.804606483588169e-06,1.0222738956277722e-05,1.7009772215584838e-05,6.775815462200703e-06,2.400846484208622e-06,1.2444986997879936e-06,1.207321128191441e-05,1.0838070987535157e-06,3.536287832415627e-06,5.05509157318426e-06,1.4889491031018794e-05,1.0297939388323705e-06,1.920340249211011e-06
118,1.5713658575466497e-06,1.500636172899542e-06,1.1496320946226212e-06,1.7535205627686147e-06,9.884744405641487e-06,1.619084515039071e-05,6.4996346638874945e-06,2.372608983276492e-06,1.3019831126911142e-06,1.1367278986695133e-05,1.0679529516749676e-06,3.610947743131767e-06,4.938497731371323e-06,1.5538288937612093e-05,1.0154914065925286e-06,1.921530758117244e-06
119,1.5413436635704028e-06,1.5137047908385391e-06,1.1206688282454171e-06,1.705089818913008e-06,9.540884818991473e-06,1.5364907139369254e-05,6.219343648932213e-06,2.3521315903960645e-06,1.3700572712068665e-06,1.0732907912672372e-05,1.0544725961402576e-06,3.691857026505439e-06,4.820131725766225e-06,1.617700603165677e-05,1.0051681068150732e-06,1.9205289036261615e-06
120,1.508841557229209e-06,1.526626452538425e-06,1.097886800551109e-06,1.6598871888515903e-06,9.197501746479522e-06,1.4544768120158965e-05,5.9390064720887775e-06,2.339804228309251e-06,1.4488176916842867e-06,1.0178313584918774e-05,1.0429008015666467e-06,3.7780374532412535e-06,4.701117137052555e-06,1.6804140533897718e-05,9.98927123031296e-07,1.9162839023100806e-06
121,1.4747904803952637e-06,1.5391531185306782e-06,1.0814238368969607e-06,1.6181552106163706e-06,8.859024558121622e-06,1.3740357516403742e-05,5.6620629564556015e-06,2.3361123950766003e-06,1.5382118462300981e-06,9.709997157015211e-06,1.0326865716994796e-06,3.868578839806785e-06,4.582877123734864e-06,1.741885696285075e-05,9.966965262499476e-07,1.9078988148581173e-06
122,1.4401080781637377e-06,1.5512153638541474e-06,1.0712839111384507e-06,1.5799043619846059e-06,8.528140875750063e-06,1.2959148571407971e-05,5.39142508890606e-06,2.3413510074260427e-06,1.6381291448855993e-06,9.332618464022113e-06,1.023238945008139e-06,3.962435125334482e-06,4.466863882677596e-06,1.8020341298322856e-05,9.98232075836563e-07,1.89485460373809e-06
123,1.4056888047369242e-06,1.562932043824175e-06,1.0673240425354334e-06,1.545142994475948e-06,8.206464456911191e-06,1.2206575789165792e-05,5.129342323523313e-06,2.3553883242032984e-06,1.7484056042400719e-06,9.049019443293552e-06,1.014052376890564e-06,4.058327351459374e-06,4.354885420724805e-06,1.860676425865123e-05,1.0031095493070342e-06,1.8771108380674e-06
124,1.3723346309039714e-06,1.5744226994744212e-06,1.06924772186389e-06,1.5140969499490118e-06,7.895290662809419e-06,1.1486306572336844e-05,4.877363107942421e-06,2.3775835868394023e-06,1.8687626834819442e-06,8.860426703913495e-06,1.0048213384108876e-06,4.154731902029036e-06,4.2494415031009534e-06,1.917427898074227e-05,1.0107416495792245e-06,1.8550779468938765e-06
125,1.3406431031070123e-06,1.5856157085107104e-06,1.0765883701700632e-06,1.4872287861025534e-06,7.595890559014104e-06,1.0800425281509085e-05,4.636464533125728e-06,2.406819365689556e-06,1.9987452377657086e-06,8.766744066945155e-06,9.954357562606148e-07,4.249796360580637e-06,4.153476608626937e-06,1.97169084055755e-05,1.0204784937034084e-06,1.8295096232654731e-06
126,1.31098403475394e-06,1.59623097867146e-06,1.0886817299863048e-06,1.4650515686196984e-06,7.309176993622063e-06,1.0149466809666043e-05,4.407127650810399e-06,2.4416061099357237e-06,2.137647428047404e-06,8.766759648947035e-06,9.858530887506372e-07,4.341184576222473e-06,4.069801372578427e-06,2.0226924333444555e-05,1.0317656389579806e-06,1.8013463053120414e-06
127,1.283614450471396e-06,1.605955030916442e-06,1.104652106153424e-06,1.4479672182595557e-06,7.035092965769069e-06,9.532266621768283e-06,4.18927227224015e-06,2.480256520963166e-06,2.2844294922131892e-06,8.85813594682953e-06,9.759783347555663e-07,4.426080979659026e-06,4.0006497787757486e-06,2.069461242264386e-05,1.0442230112572018e-06,1.7715372912775845e-06
128,1.258857607845802e-06,1.6146752841409942e-06,1.123458962929492e-06,1.4362868156388482e-06,6.7722781120825295e-06,8.946045806182361e-06,3.982132072790809e-06,2.5211151824223722e-06,2.4376749863356636e-06,9.037208237242718e-06,9.656853251954219e-07,4.50143089707635e-06,3.947508546971834e-06,2.1107922125204207e-05,1.0576069892888108e-06,1.7409226507943786e-06
129,1.2371751485337818e-06,1.6226055992151674e-06,1.1440306611427226e-06,1.4303220810986402e-06,6.518291080193023e-06,8.387093300708245e-06,3.7842265419959284e-06,2.562761837004418e-06,2.5956418148390306e-06,9.298732342076557e-06,9.549399802802558e-07,4.564183744939764e-06,3.911136466668797e-06,2.145344901298896e-05,1.0717975900076726e-06,1.710252644970009e-06
130,1.2190561664413801e-06,1.6302159978262033e-06,1.1654189236221373e-06,1.4303834239820921e-06,6.270203626783323e-06,7.851641370798571e-06,3.5936138718977577e-06,2.6040415590739405e-06,2.756358567786742e-06,9.635714409495552e-06,9.438467505810575e-07,4.611448354328421e-06,3.8916366660458736e-06,2.1718554791407223e-05,1.0868510483411218e-06,1.680277219754089e-06
131,1.2048755104965434e-06,1.6380213966123025e-06,1.1868515477398853e-06,1.4366837956759763e-06,6.025239384260891e-06,7.336393468108801e-06,3.4084135195285543e-06,2.64385461081334e-06,2.9176440116603523e-06,1.0039476343334363e-05,9.325702438676374e-07,4.640752273042188e-06,3.8885115045826235e-06,2.1893006550477434e-05,1.102975912232119e-06,1.6517445549718929e-06
132,1.194873953416176e-06,1.646400235261347e-06,1.2076900982649555e-06,1.44925342315883e-06,5.781246659453651e-06,6.838757777585754e-06,3.2272980017219747e-06,2.6808869536657552e-06,3.0771441041589017e-06,1.0500084850725527e-05,9.212461337644332e-07,4.650447383625075e-06,3.900736698379607e-06,2.1968973293834752e-05,1.1204049489060062e-06,1.625276486981795e-06
133,1.1892064927202571e-06,1.6555453328139762e-06,1.227445700362504e-06,1.467942956868276e-06,5.536923364332685e-06,6.357087672049673e-06,3.0496672272711187e-06,2.7135649572069784e-06,3.2325643049486044e-06,1.1006774698738542e-05,9.099288458173481e-07,4.640021561528778e-06,3.926838176020536e-06,2.193948431092548e-05,1.1393142486947613e-06,1.601237047185733e-06
134,1.1879698414112308e-06,1.66552366388279e-06,1.2458653418544893e-06,1.4925392939755734e-06,5.291848578677155e-06,5.890966160432888e-06,2.8755438032182774e-06,2.7403052026473965e-06,3.3819213445160503e-06,1.1547794716885559e-05,8.985589713483287e-07,4.6101320085878e-06,3.964915826292606e-06,2.179718077015372e-05,1.1598357806498465e-06,1.579685775647771e-06
135,1.191250972808083e-06,1.6764376649341319e-06,1.2629225281542364e-06,1.522949084347319e-06,5.04642243624599e-06,5.441288032702962e-06,2.7054413947899975e-06,2.7598813504567396e-06,3.5234934832006977e-06,1.21100352322469e-05,8.869858231660556e-07,4.562425235645262e-06,4.012693470709305e-06,2.1535701752337314e-05,1.182040400358798e-06,1.560425948627987e-06
136,1.1991991713511392e-06,1.6886379744143172e-06,1.2786969843663659e-06,1.5593327301159321e-06,4.801656867912904e-06,5.0099281700097235e-06,2.5403304714916774e-06,2.7716635953227787e-06,3.655531116833712e-06,1.2679024020923607e-05,8.750869190316951e-07,4.499281572839768e-06,4.067690436118894e-06,2.115322654938059e-05,1.205861727350083e-06,1.5431212899721259e-06
137,1.212012192267128e-06,1.7027958734971683e-06,1.29328919478641e-06,1.6021088432319346e-06,4.558746166133462e-06,4.599085486600647e-06,2.381597619792974e-06,2.7755971320076444e-06,3.776137601622679e-06,1.3238932482015515e-05,8.629110873282886e-07,4.4235626186083204e-06,4.127435555480398e-06,2.0654984627054036e-05,1.231066661086572e-06,1.5274108659933616e-06
138,1.2298336296526647e-06,1.7197293487786719e-06,1.306791677446853e-06,1.6518321868981494e-06,4.31874880836236e-06,4.2106772679531365e-06,2.2308589162497233e-06,2.772011586694385e-06,3.883496470226687e-06,1.3772600058509574e-05,8.507127104062728e-07,4.3383991979256505e-06,4.189575351678244e-06,2.005305121402152e-05,1.257271905834718e-06,1.5129257585900116e-06
139,1.2526648285105283e-06,1.7401602478999888e-06,1.3192429012886605e-06,1.7089961464336013e-06,4.08271425268302e-06,3.84616086470336e-06,2.089669600222109e-06,2.7614744710266498e-06,3.9761494835445464e-06,1.4262351777275725e-05,8.388931074531768e-07,4.246951071559609e-06,4.251864469099999e-06,1.9364616919427018e-05,1.2839248369217734e-06,1.4992052840517405e-06
140,1.280308990289265e-06,1.7646204380649054e-06,1.3306043894001258e-06,1.7738750938526564e-06,3.851976668537004e-06,3.5067813056012556e-06,1.959334011683456e-06,2.7447387765975015e-06,4.053043837613395e-06,1.4691163524552788e-05,8.279371666736826e-07,4.152110397994092e-06,4.312145211648837e-06,1.8610193550907072e-05,1.3103109540781849e-06,1.485609102162621e-06
141,1.3123341399984428e-06,1.7934836006954548e-06,1.3408382624982686e-06,1.8465055999942235e-06,3.628257585988119e-06,3.193878595437982e-06,1.8408888769501951e-06,2.7226258476690487e-06,4.1133854887952015e-06,1.5042888713016646e-05,8.183436109364191e-07,4.056342870150886e-06,4.368355875858486e-06,1.781191191121399e-05,1.3356610897334644e-06,1.4712742325665885e-06
142,1.3481130252879704e-06,1.8269910306349407e-06,1.3500364894115518e-06,1.926735937063504e-06,3.4135890556572247e-06,2.9089470447262136e-06,1.7351093774045738e-06,2.6957813905542257e-06,4.1564470737542605e-06,1.5302275610639878e-05,8.105542948490542e-07,3.961716886537823e-06,4.418444398770402e-06,1.699158533102972e-05,1.359261461799426e-06,1.4551284023300726e-06
143,1.3869679958089547e-06,1.8652404175437716e-06,1.3584895382143488e-06,2.01420572247094e-06,3.2100979575076765e-06,2.6534240692454323e-06,1.6424551219299845e-06,2.6645032227394107e-06,4.18141367685851e-06,1.5456824156139024e-05,8.049152470610162e-07,3.8699008481583915e-06,4.4601360637519644e-06,1.6168790564474377e-05,1.380548422775366e-06,1.4360466993979212e-06
144,1.4283547129442552e-06,1.908160263032458e-06,1.3666207850111617e-06,2.10827139445791e-06,3.0197251475723926e-06,2.4283948082719396e-06,1.563055096839395e-06,2.6288326739079075e-06,4.187257244305505e-06,1.5499819034105787e-05,8.016621490770061e-07,3.7820926754776194e-06,4.490933690253591e-06,1.5359620998366458e-05,1.3992947500788737e-06,1.4131962046109844e-06
145,1.4719967758756844e-06,1.9554528438453633e-06,1.374821577824217e-06,2.2079906850701304e-06,2.8441027330621223e-06,2.2344350286166694e-06,1.4967926253471377e-06,2.588819747228079e-06,4.1727041097123795e-06,1.5431469719558302e-05,8.009242580030573e-07,3.6990332702451494e-06,4.508715176969415e-06,1.4576369103441261e-05,1.4157710432664545e-06,1.3863710517696684e-06
146,1.51789879234876e-06,2.0064977403889305e-06,1.3833264854313225e-06,2.3122325873583206e-06,2.6846089600858455e-06,2.071669696660841e-06,1.4434057100355315e-06,2.5447090486900906e-06,4.136602402136273e-06,1.525712417094177e-05,8.027506833586058e-07,3.621124966160307e-06,4.512550219140044e-06,1.3827942243748157e-05,1.430660044326119e-06,1.3560247048437361e-06
147,1.566209250056386e-06,2.060265487814025e-06,1.3921913663695647e-06,2.419856324576844e-06,2.5423657341408417e-06,1.939942351124814e-06,1.4025470029667758e-06,2.496917767836632e-06,4.07871323896382e-06,1.4984326963009609e-05,8.071341092701226e-07,3.5485804148514554e-06,4.503082297854671e-06,1.312074166950567e-05,1.4447826318778058e-06,1.3229856604675393e-06
148,1.6170282583895938e-06,2.1152771631730253e-06,1.4012910670997338e-06,2.5297627879370324e-06,2.418120086796164e-06,1.8389286316936227e-06,1.373863726952106e-06,2.4458998902525183e-06,4.000214804331354e-06,1.4620483109078555e-05,8.140112959857568e-07,3.481551587298245e-06,4.482345093839217e-06,1.245961585432577e-05,1.4588552815463426e-06,1.28818104329657e-06
149,1.6703039942251225e-06,2.1696047640239866e-06,1.4102796151534683e-06,2.640726853590335e-06,2.3121925162694836e-06,1.7681165817152342e-06,1.3570757926335802e-06,2.3920863328931237e-06,3.903361400783638e-06,1.4172072784742237e-05,8.232604246463869e-07,3.4202071218300777e-06,4.453261929608681e-06,1.1848477698209132e-05,1.4733704243478248e-06,1.2525780739767574e-06
150,1.7258184482947807e-06,2.220952633714533e-06,1.4185535120265992e-06,2.751172111330085e-06,2.2246343929037288e-06,1.7267291084314998e-06,1.351928959954772e-06,2.3359900262938664e-06,3.790760594724163e-06,1.3645956786320445e-05,8.347087203331524e-07,3.3647448309466706e-06,4.419023891537762e-06,1.1290509275544977e-05,1.4885630791560584e-06,1.2171826180927588e-06
151,1.7831713899317928e-06,2.2669162576929986e-06,1.4252699761184623e-06,2.8591012841573396e-06,2.155520751453511e-06,1.7137148393058064e-06,1.3580396981646566e-06,2.278377210016949e-06,3.6650546026841728e-06,1.305178286425653e-05,8.481403578046119e-07,3.315370419369977e-06,4.382498865948595e-06,1.0788143625745122e-05,1.5044228713837618e-06,1.1829625178860302e-06
152,1.8417649026534207e-06,2.305406817801613e-06,1.4294601317430789e-06,2.9622878357193576e-06,2.1051154535472667e-06,1.7278037343925748e-06,1.3747792034779635e-06,2.220303383597914e-06,3.529080626353338e-06,1.240306507008202e-05,8.632943645749604e-07,3.2722907164955746e-06,4.345927864583896e-06,1.0342986498517125e-05,1.5207318535648832e-06,1.1507762562172202e-06
153,1.9008254155029047e-06,2.3349913977916862e-06,1.430239494410142e-06,3.0586679667025597e-06,2.073774759623258e-06,1.7675333903877067e-06,1.4012531447775592e-06,2.1629350803047784e-06,3.386046482002097e-06,1.1715777508245624e-05,8.79831383884048e-07,3.235718201561763e-06,4.311024878079482e-06,9.955761729047448e-06,1.537081928392973e-06,1.1213359659021111e-06
154,1.959415852113509e-06,2.354857787066605e-06,1.4270225920286795e-06,3.146728300206051e-06,2.0617695422540647e-06,1.831280277446301e-06,1.4363305005607002e-06,2.107356314414178e-06,3.239413528990242e-06,1.1005859709559278e-05,8.972901829388253e-07,3.205858095243552e-06,4.279193218139775e-06,9.626329743605956e-06,1.5528388451913403e-06,1.0951764790978433e-06
155,2.016430084706399e-06,2.3644847236407137e-06,1.4196205615456236e-06,3.2257227341705035e-06,2.0692157245507695e-06,1.9173566763857583e-06,1.4787268698355026e-06,2.054574977226445e-06,3.0925276023584135e-06,1.0287562088426195e-05,9.151220677540203e-07,3.182886473524822e-06,4.251506826157252e-06,9.35374369596016e-06,1.567115392309648e-06,1.0726452876010812e-06
156,2.070660672262964e-06,2.363463151481221e-06,1.4081614916158746e-06,3.295698711514885e-06,2.0960529837533134e-06,2.024059669500961e-06,1.5271398948625362e-06,2.0056099275280416e-06,2.9482672809536758e-06,9.57314378989141e-06,9.328071332043652e-07,3.1669016541636307e-06,4.228466713705946e-06,9.136264210840088e-06,1.5788603087186442e-06,1.0539201153306285e-06
157,2.120948555510744e-06,2.351671348914751e-06,1.3928773182922674e-06,3.3573945596136107e-06,2.141958297616922e-06,2.1495954457745816e-06,1.5803126725084107e-06,1.961430693130027e-06,2.8089028349861164e-06,8.87334032768895e-06,9.499295905381841e-07,3.1577791466326214e-06,4.2098169225970855e-06,8.971388679199471e-06,1.58707186703498e-06,1.0390433212029354e-06
158,2.1663348183071314e-06,2.3295171486124466e-06,1.3739271677899733e-06,3.4120557836866487e-06,2.2062767777301063e-06,2.2919847071101007e-06,1.6370084048793235e-06,1.922795194464156e-06,2.6761059552928076e-06,8.197836023181882e-06,9.661759395335355e-07,3.154952012850082e-06,4.194690671785818e-06,8.856035009406715e-06,1.5910046912113509e-06,1.0279434150403941e-06
159,2.206189469427768e-06,2.2979584268656368e-06,1.3513847793470225e-06,3.461159702632505e-06,2.288108249278303e-06,2.449017951917542e-06,1.6960656086131059e-06,1.890172706017877e-06,2.5510215012841933e-06,7.555308754806623e-06,9.813513108494851e-07,3.157263888099783e-06,4.182069409264693e-06,8.786882646792613e-06,1.590233180031344e-06,1.0204139195845739e-06
160,2.2402793859551614e-06,2.2583009637772606e-06,1.3253325487091296e-06,3.50604567621224e-06,2.386492101294981e-06,2.6182675116283493e-06,1.7565034657122239e-06,1.8638150493624061e-06,2.4343760045663077e-06,6.953169760267078e-06,9.954167220135817e-07,3.162967705196778e-06,4.171166952929863e-06,8.760753361434262e-06,1.5846038850181206e-06,1.0160918801451549e-06
161,2.2686641044742374e-06,2.2119104403776083e-06,1.295974566567955e-06,3.547557919850871e-06,2.5005090319564267e-06,2.7972860287528438e-06,1.8174836039639333e-06,1.8438713028048434e-06,2.326569770944318e-06,6.397347505476021e-06,1.0084446880313917e-06,3.169786374640734e-06,4.161450519873471e-06,8.775000648595239e-06,1.574214172173389e-06,1.0145096777655203e-06
162,2.2914181824337083e-06,2.1599961927078767e-06,1.2637431036238836e-06,3.5858524346786575e-06,2.6292377814813624e-06,2.9840369364905798e-06,1.8782712282363443e-06,1.8304189789885816e-06,2.227743920892627e-06,5.892278654855413e-06,1.0205087373896928e-06,3.1749959437475823e-06,4.152492202458917e-06,8.828032635961265e-06,1.5594092507311118e-06,1.0152071361386814e-06
163,2.308405347122494e-06,2.1035745179930706e-06,1.2293444887437483e-06,3.6204082021089682e-06,2.771641328223966e-06,3.177224383932943e-06,1.9384155807439513e-06,1.82347792575616e-06,2.137892213511584e-06,5.441067837904264e-06,1.0316236753423303e-06,3.175650906407915e-06,4.1439048120953254e-06,8.91994281969244e-06,1.540682413944297e-06,1.0178096067618023e-06
164,2.3193284395389335e-06,2.0435734047515883e-06,1.193682062685731e-06,3.6501925581086143e-06,2.926434122743175e-06,3.3761610575840534e-06,1.9979135893630362e-06,1.8230902698034966e-06,2.0570217141226035e-06,5.045739555439663e-06,1.0417426962995354e-06,3.1690423576780654e-06,4.135277551952615e-06,9.052794019264256e-06,1.5185187314990356e-06,1.0220130778484632e-06
165,2.323990256583e-06,1.9809029678808133e-06,1.15768110904381e-06,3.673942755083736e-06,3.0919671925049055e-06,3.580313962300512e-06,2.057093759672254e-06,1.8293344205980782e-06,1.9852634451183078e-06,4.707495740887918e-06,1.0507413100350222e-06,3.153243767868441e-06,4.126034957336403e-06,9.230045274974006e-06,1.4933057461776243e-06,1.0275267503026457e-06
166,2.322501130953397e-06,1.9163861485968234e-06,1.1221216119268342e-06,3.6904871752153245e-06,3.2661644133209066e-06,3.7889671838704082e-06,2.116405631521111e-06,1.8422099424535518e-06,1.9228453669325617e-06,4.426837194019012e-06,1.0584072772972128e-06,3.127434062353252e-06,4.115403314553304e-06,9.45529771418284e-06,1.465345637921083e-06,1.0340875416286596e-06
167,2.3153047604604556e-06,1.8506698658535995e-06,1.0875708624401257e-06,3.6989773445251164e-06,3.446471274603669e-06,4.001092996247372e-06,2.1763937392377027e-06,1.861546596036384e-06,1.8699269804262879e-06,4.203493579759795e-06,1.064477627689862e-06,3.0918019668117624e-06,4.102536552080493e-06,9.731364632873226e-06,1.4349786745633664e-06,1.0415568457600022e-06
168,2.3030980299985214e-06,1.7842582563073328e-06,1.054432453636181e-06,3.699002225602451e-06,3.6298511449151403e-06,4.2152458115762875e-06,2.2378182436378414e-06,1.8870256654433401e-06,1.826407358514849e-06,4.0363062423059205e-06,1.0687034889595591e-06,3.0470970866151105e-06,4.086530191864749e-06,1.0060359729493306e-05,1.402759267825245e-06,1.049942989109947e-06
169,2.286712175624253e-06,1.717643334880719e-06,1.0230636285255945e-06,3.6906477089264445e-06,3.8128631154344636e-06,4.42954323655086e-06,2.3016827628220326e-06,1.918218247732839e-06,1.7918617123576016e-06,3.923207902558024e-06,1.0709475594779729e-06,2.9941155257922495e-06,4.066159459884429e-06,1.0444266079612404e-05,1.369530540292428e-06,1.0592937759683166e-06
170,2.266982221100381e-06,1.6514409242576517e-06,9.938722889962558e-07,3.6744335709321923e-06,3.991681154605066e-06,4.641760886272045e-06,2.3690544726860475e-06,1.9545493325498018e-06,1.7656548496674619e-06,3.861294032312094e-06,1.0713025585254446e-06,2.9334813414383602e-06,4.039576007486108e-06,1.0885155979037434e-05,1.3363407727423353e-06,1.0696121468796716e-06
171,2.2447030607506503e-06,1.586426870058201e-06,9.67314395296026e-07,3.651024835822144e-06,4.162125045992508e-06,4.849255899149334e-06,2.440781003149921e-06,1.9952448100019987e-06,1.7470985493468948e-06,3.846922300062233e-06,1.070118442358146e-06,2.8657814032578137e-06,4.0043578251190276e-06,1.1384927710343092e-05,1.3042818885707754e-06,1.080859378134582e-06
172,2.2207161164239436e-06,1.5234176718426931e-06,9.438063037479028e-07,3.6209510116813846e-06,4.319996701898268e-06,5.048747878776634e-06,2.5172728669535796e-06,2.039337382333746e-06,1.7354883577566179e-06,3.875765868013663e-06,1.0678791980650868e-06,2.7917098165920527e-06,3.958067185096852e-06,1.1944785590533934e-05,1.2743424946421092e-06,1.0929987531684583e-06
173,2.1959634464030504e-06,1.4631152524533402e-06,9.236662658516167e-07,3.5846759565465203e-06,4.4616890270119e-06,5.236440755886378e-06,2.598417542497743e-06,2.085689589251793e-06,1.7300692543404755e-06,3.9428129374017244e-06,1.0650287366520813e-06,2.7120027139886137e-06,3.899045562156909e-06,1.256465563614732e-05,1.2473277531502574e-06,1.1060962266854677e-06
174,2.1713651618650144e-06,1.406074030612006e-06,9.071609111751376e-07,3.5429179894119057e-06,4.5847805417678745e-06,5.408774406338054e-06,2.6835877404597297e-06,2.133031819401772e-06,1.730105761652691e-06,4.042381664940397e-06,1.0618494264037985e-06,2.6273390893081252e-06,3.827007668760785e-06,1.3242740814340537e-05,1.2238538471381382e-06,1.12041188404156e-06
175,2.1476638836276588e-06,1.3527575020504878e-06,8.945922652028842e-07,3.4968754413711017e-06,4.688377777172644e-06,5.5634299530190765e-06,2.771671917779111e-06,2.1800905892938935e-06,1.7350526432065305e-06,4.168173501838443e-06,1.0584109460795173e-06,2.5384130910677405e-06,3.743206057115314e-06,1.3975409087313442e-05,1.2043903949037657e-06,1.136333143937212e-06
176,2.1254008776077962e-06,1.3035502697274901e-06,8.863130212678611e-07,3.448243837191665e-06,4.772950012928515e-06,5.699721569226501e-06,2.861080347479381e-06,2.225727243061381e-06,1.7446636524459093e-06,4.313465021024651e-06,1.0545915273904607e-06,2.446105786791595e-06,3.6501509333638146e-06,1.4757461368685235e-05,1.1892948188434587e-06,1.1541878936634361e-06
177,2.104929635983157e-06,1.2587190734970452e-06,8.826576841902826e-07,3.3990955913477193e-06,4.839611607248604e-06,5.817970644626023e-06,2.949820082682727e-06,2.268945650310413e-06,1.7589608979627228e-06,4.471564189654243e-06,1.0501629279332387e-06,2.351544337277638e-06,3.550984892769256e-06,1.5582619319697493e-05,1.1787851380867907e-06,1.174107098577612e-06
178,2.086409074682575e-06,1.2184111214217323e-06,8.838942550887806e-07,3.351682366969523e-06,4.88936079482362e-06,5.918481208098551e-06,3.035779767049814e-06,2.3088379315689413e-06,1.77809165051138e-06,4.636362630704212e-06,1.0448844425049765e-06,2.2559878756329753e-06,3.448775741261081e-06,1.6443954691654814e-05,1.1728820620799484e-06,1.1959966232178018e-06
179,2.0698367286836495e-06,1.1826915450832384e-06,8.902594538646308e-07,3.3081914416381014e-06,4.922799183551851e-06,6.000949464301958e-06,3.117152688829483e-06,2.344632329200654e-06,1.8021153295788855e-06,4.8026832637776175e-06,1.038553028080602e-06,2.1606821168235784e-06,3.34605128864033e-06,1.7334093857557584e-05,1.1714086025431762e-06,1.2195586571039727e-06
180,2.055081859466401e-06,1.1515471193263879e-06,9.019973399515124e-07,3.2704975599974207e-06,4.940205058811865e-06,6.064427170030082e-06,3.1927629715983273e-06,2.3758597788099392e-06,1.8308125943563195e-06,4.9663400908595256e-06,1.0310220750610966e-06,2.0668451987042246e-06,3.2446796453788713e-06,1.8245272009646733e-05,1.1740643909700894e-06,1.2442901437156285e-06
181,2.041938376871856e-06,1.1248515633189977e-06,9.193288008703309e-07,3.239982017664724e-06,4.941609147193836e-06,6.107497627416497e-06,3.262148272579232e-06,2.4025143492684774e-06,1.8636105055846742e-06,5.1240347590812e-06,1.0222343559204465e-06,1.9757755673817287e-06,3.1459182803317604e-06,1.9169403718625173e-05,1.1805005291865415e-06,1.269448025173108e-06
182,2.030250282094147e-06,1.102375078108922e-06,9.423933465182136e-07,3.217485044741269e-06,4.92687029519214e-06,6.128539297093201e-06,3.3254207149016593e-06,2.4250855611669205e-06,1.8995976773181533e-06,5.273213554029806e-06,1.0122597435506964e-06,1.8889023957777198e-06,3.0504498099428e-06,2.009820081321054e-05,1.1903306977968451e-06,1.2940498277386485e-06
183,2.019979987913847e-06,1.0838465153841535e-06,9.712169103316414e-07,3.2033675083954606e-06,4.895896351483158e-06,6.126130621926327e-06,3.3830117860830273e-06,2.4444180787944555e-06,1.9375559235026067e-06,5.411821961698112e-06,1.001270197259327e-06,1.8076753078275986e-06,2.958409354552184e-06,2.10231462104089e-05,1.2031043711923193e-06,1.3169847629871505e-06
184,2.011173168341051e-06,1.0689694381075236e-06,1.0057010929482152e-06,3.197553897579531e-06,4.8489546386800265e-06,6.099514274690692e-06,3.4354135189265675e-06,2.4614369073317138e-06,1.9760254808750845e-06,5.537854327501302e-06,9.894388462435898e-07,1.7333941103046498e-06,2.8694875931844838e-06,2.1935067344354274e-05,1.2183071627969909e-06,1.3372184287736672e-06
185,2.0039591273535425e-06,1.0574137189617932e-06,1.045611294908745e-06,3.1994925946236276e-06,4.786883852728836e-06,6.0489694615567345e-06,3.4830081350468027e-06,2.4768684216221153e-06,2.0134498286190396e-06,5.648929732403804e-06,9.768613856753825e-07,1.667094715899715e-06,2.783163047251187e-06,2.282316166787715e-05,1.2353902288686075e-06,1.3539823801591815e-06
186,1.998572926057112e-06,1.0488912704586843e-06,1.090581787844884e-06,3.2081795401623342e-06,4.711177001532561e-06,5.976018558385124e-06,3.5260248779828523e-06,2.4910795827165255e-06,2.04832802915548e-06,5.742276385154411e-06,9.635622728312048e-07,1.6095059587088268e-06,2.699050940317519e-06,2.3673734413037077e-05,1.2537922518139226e-06,1.3668499880495498e-06
187,1.995263088598049e-06,1.0432617116472722e-06,1.1401911481432436e-06,3.2223856054196337e-06,4.624031022711807e-06,5.8834323497003715e-06,3.564600204937518e-06,2.5040366565259444e-06,2.0792302380852214e-06,5.81512045911582e-06,9.495182587087544e-07,1.5610613119959207e-06,2.6171967056116327e-06,2.446976961195936e-05,1.272971707281873e-06,1.3756663072287794e-06
188,1.994158987717327e-06,1.0405371050397606e-06,1.1941045831919437e-06,3.2409583123897838e-06,4.528323895698926e-06,5.775012292382594e-06,3.5989004891503877e-06,2.51536574666308e-06,2.104700209569426e-06,5.86518485389969e-06,9.346648353855537e-07,1.5219281798522187e-06,2.5380757585733323e-06,2.5192285403414337e-05,1.292483327626212e-06,1.3803919592241826e-06
189,1.995236569697809e-06,1.0407756927224164e-06,1.2521915143304296e-06,3.2629579155859484e-06,4.427427414362903e-06,5.655234830240922e-06,3.629271750893775e-06,2.524515889447077e-06,2.1232623129922154e-06,5.891111398093736e-06,9.18934559700522e-07,1.492013026041345e-06,2.462363145476008e-06,2.5822597292781628e-05,1.3120232525215544e-06,1.3810435062847569e-06
190,1.998311932256354e-06,1.043959741782242e-06,1.3145375564027643e-06,3.287560031089559e-06,4.324908069860263e-06,5.528905728753155e-06,3.6563510756869254e-06,2.5309237640019537e-06,2.1336310384112387e-06,5.892722671113429e-06,9.023193170356804e-07,1.4709586229682078e-06,2.390804517100957e-06,2.6343878151760742e-05,1.3313345027268842e-06,1.37784342779917e-06
191,2.003029464407964e-06,1.0499297040500987e-06,1.3813457603077108e-06,3.3138708609203567e-06,4.224199470284606e-06,5.400815462095731e-06,3.681013636685567e-06,2.5340291794720234e-06,2.134976729897619e-06,5.871035807467602e-06,8.849393318779935e-07,1.458180246071075e-06,2.3242294499776743e-06,2.6741948440738663e-05,1.350057308506927e-06,1.3713961747172904e-06
192,2.008963740630666e-06,1.0583752233818288e-06,1.4527806572305521e-06,3.340861103977648e-06,4.1282766284476775e-06,5.275319928963253e-06,3.7041096734778393e-06,2.5331535698241497e-06,2.1270783498859305e-06,5.8279996052743236e-06,8.671406578880153e-07,1.452950090674884e-06,2.263494404838653e-06,2.700648022612309e-05,1.3677178318157582e-06,1.362649106581015e-06
193,2.015822446833375e-06,1.0688890773703583e-06,1.5288337931770133e-06,3.367482643397458e-06,4.039406008034427e-06,5.156036641470046e-06,3.7262410902529433e-06,2.5274713130916748e-06,2.1103360081897245e-06,5.766027961291071e-06,8.495416993830301e-07,1.4544971512892863e-06,2.2093680506390994e-06,2.7132875228435185e-05,1.3838569310391085e-06,1.35268005191528e-06
194,2.023602678180738e-06,1.0810502532137276e-06,1.6092504466044122e-06,3.3928268775398725e-06,3.95908354381198e-06,5.04588180127246e-06,3.7478513667433884e-06,2.5162058108246106e-06,2.085685747786987e-06,5.687484268332135e-06,8.329324364528279e-07,1.4621153884652592e-06,2.16243057533021e-06,2.7123256785780557e-05,1.3981389944599772e-06,1.342498058166423e-06
195,2.0326391267105777e-06,1.09444630377484e-06,1.693507790700014e-06,3.4161242985668015e-06,3.888223371372243e-06,4.947318256477315e-06,3.7694565097397865e-06,2.498881558050894e-06,2.054401200153043e-06,5.594256291353096e-06,8.181006923820907e-07,1.4752710000633269e-06,2.1229665070868255e-06,2.6984751575426895e-05,1.4103755938199473e-06,1.33293302167923e-06
196,2.043570147729226e-06,1.1086961042848929e-06,1.7808699171895738e-06,3.436542629654017e-06,3.827506180252303e-06,4.8625810411146705e-06,3.7916488887066704e-06,2.4754547964702377e-06,2.017814518427173e-06,5.487502784945401e-06,8.05720683513098e-07,1.4936151508794248e-06,2.0909739496113624e-06,2.672544113872742e-05,1.4205240586984884e-06,1.324599356920893e-06
197,2.0572270157944007e-06,1.1235748566502909e-06,1.8705547570597004e-06,3.4529725795184265e-06,3.777637599557321e-06,4.793760515315788e-06,3.814828806060593e-06,2.4463117951127285e-06,1.977172668713019e-06,5.3677719888981574e-06,7.963384721603195e-07,1.5168700478456507e-06,2.0663683254635816e-06,2.6350893927437726e-05,1.428712651925238e-06,1.317898299469538e-06
198,2.074437822921214e-06,1.1391027601891758e-06,1.961944869484555e-06,3.464065982415244e-06,3.7393236705465417e-06,4.742643857564439e-06,3.838877038561441e-06,2.412164767334542e-06,1.9337412973685724e-06,5.235588788152361e-06,7.903938648138405e-07,1.5447277691393094e-06,2.049168985387214e-06,2.5863456308515685e-05,1.4352620893936603e-06,1.3130112303534519e-06
199,2.0957926798805582e-06,1.1554634555438677e-06,2.0547158818357466e-06,3.468617624973511e-06,3.713002317075338e-06,4.710357867280728e-06,3.8629228537618745e-06,2.3739076428038066e-06,1.8889261672382329e-06,5.092089447377481e-06,7.882177310986723e-07,1.576831160053107e-06,2.039470670819671e-06,2.5263627831518303e-05,1.440632999382163e-06,1.3098868520291681e-06
200,2.1214655093466805e-06,1.1729032123835457e-06,2.1488318247805048e-06,3.4660851980756164e-06,3.698553778890914e-06,4.69706623363245e-06,3.885264611446724e-06,2.3325445641104857e-06,1.8441891243382673e-06,4.939211703801927e-06,7.900114716341849e-07,1.612752602181403e-06,2.0373158080156533e-06,2.4552290818541478e-05,1.4453092440279233e-06,1.3082846421597845e-06
201,2.151152407280885e-06,1.1917703150987142e-06,2.2444744169428246e-06,3.4568793214041784e-06,3.6951549922436694e-06,4.701944183090858e-06,3.9035270346144474e-06,2.2892270620344215e-06,1.8008431475008014e-06,4.779460711665153e-06,7.958350996432393e-07,1.6519778113976107e-06,2.042684992871029e-06,2.373348852426747e-05,1.4497054304237186e-06,1.3078576628856015e-06
202,2.184132159698207e-06,1.2125724274914969e-06,2.342000674436831e-06,3.4421856971133562e-06,3.7012620981376606e-06,4.723432263511786e-06,3.915100673687474e-06,2.2452705700969748e-06,1.7599120762467492e-06,4.615586537284216e-06,8.056027456602152e-07,1.6939533343671118e-06,2.0555706823370624e-06,2.2816891356616097e-05,1.454126287503266e-06,1.3081956349581976e-06
203,2.219445904178047e-06,1.2358886320697163e-06,2.4418960824432835e-06,3.4234351423410785e-06,3.7147342183713515e-06,4.759584550166108e-06,3.917709767501044e-06,2.202022937918052e-06,1.7220978048662473e-06,4.450387651140406e-06,8.190864753418006e-07,1.7381109434240085e-06,2.0759522562892657e-06,2.1818334442363747e-05,1.4587350022889162e-06,1.3088807853705108e-06
204,2.2561420753046643e-06,1.2622129519380352e-06,2.544618892417951e-06,3.4018409857559215e-06,3.7331610932489713e-06,4.80831594813322e-06,3.9098627127427275e-06,2.1606937038953808e-06,1.6877967790506018e-06,4.286585957842667e-06,8.359340520035965e-07,1.783791592574827e-06,2.1037168117049093e-06,2.075788127397287e-05,1.4635319251904472e-06,1.3095999219305033e-06
205,2.2934673714062667e-06,1.2918511666511102e-06,2.650408355115461e-06,3.3783088417475317e-06,3.75429593220073e-06,4.867539658226858e-06,3.8910740979318305e-06,2.122332568790852e-06,1.6571225491071007e-06,4.126622766997684e-06,8.557009138232398e-07,1.8301677854339187e-06,2.1386713339956403e-06,1.9656715593742736e-05,1.468369591638771e-06,1.3101744408709273e-06
206,2.3309517761567233e-06,1.3248599058185506e-06,2.7592355254921463e-06,3.3536255532269644e-06,3.776433687819097e-06,4.935339575916513e-06,3.86187009182872e-06,2.087917506843494e-06,1.6299531063761934e-06,3.9724032146830434e-06,8.778808798466301e-07,1.8762815333451202e-06,2.1805497770764068e-06,1.8534542771913642e-05,1.4729730756688447e-06,1.3104841371042568e-06
207,2.3684323530592915e-06,1.3610111680304553e-06,2.870882645881856e-06,3.3286909026399938e-06,3.7986809141842154e-06,5.01022831439376e-06,3.823585193429695e-06,2.058404493957335e-06,1.60606912850486e-06,3.82520363849934e-06,9.019010853565914e-07,1.921215457462131e-06,2.2289044871687178e-06,1.7408130454160048e-05,1.4769726901375806e-06,1.3104338760792444e-06
208,2.4060246835460396e-06,1.3998200511707236e-06,2.984999712675039e-06,3.3046306040659065e-06,3.821050248506313e-06,5.0913672926000225e-06,3.7779817246364384e-06,2.0347206339710093e-06,1.5853368193970462e-06,3.6858331003232732e-06,9.271048281049055e-07,1.9643851653785785e-06,2.282981926588584e-06,1.629096694771078e-05,1.480023229120983e-06,1.3099584249089887e-06
209,2.4440008807089704e-06,1.4406705956630066e-06,3.1010806457927646e-06,3.2826861921131465e-06,3.844260376113686e-06,5.178605652681383e-06,3.726822999825391e-06,2.0177455892201107e-06,1.5677442220330543e-06,3.5548786352812147e-06,9.527698996884156e-07,2.005876181768967e-06,2.3416797150335406e-06,1.5193900032318288e-05,1.4819487391986816e-06,1.308966365410411e-06
210,2.4826068908271065e-06,1.4830112306092743e-06,3.2184197187257803e-06,3.2639634648821954e-06,3.8692829835218165e-06,5.272281122816103e-06,3.6715451220883607e-06,2.0082736593036945e-06,1.5532402768636166e-06,3.4328392829841366e-06,9.78131921721631e-07,2.0466228599738503e-06,2.4036188382225546e-06,1.4126151034497913e-05,1.4827329178330847e-06,1.3072760586164472e-06
211,2.521937313135621e-06,1.5264984419245736e-06,3.336143527691306e-06,3.2493100308713387e-06,3.896859398310951e-06,5.372802736486342e-06,3.6130611201024293e-06,2.0069243767586943e-06,1.5415621229821303e-06,3.3201186912681375e-06,1.0024279797229793e-06,2.0882462148098362e-06,2.4673189462609073e-06,1.3095908917134923e-05,1.4823680105319723e-06,1.3046643063288932e-06
212,2.561942317853577e-06,1.5709632151073125e-06,3.4533739545316182e-06,3.2394253863805493e-06,3.92719759383966e-06,5.480219729891987e-06,3.551704270741826e-06,2.0140208438531917e-06,1.532196091159585e-06,3.21695302840541e-06,1.0250324865033396e-06,2.132608955429544e-06,2.5313418977663273e-06,1.2110226548605455e-05,1.4807837474926834e-06,1.3009760534830857e-06
213,2.60252287757103e-06,1.6162294965811986e-06,3.569487695099346e-06,3.234952648288602e-06,3.960027736431175e-06,5.594192931302732e-06,3.487417874033674e-06,2.029517558989951e-06,1.5244499701482631e-06,3.123337666996349e-06,1.0456235779444234e-06,2.1813916965494452e-06,2.594315934706563e-06,1.117456678978653e-05,1.4779234093385127e-06,1.296120884871136e-06
214,2.64359882536772e-06,1.6619736696942445e-06,3.6843454251914883e-06,3.2363248346543375e-06,3.995029986605053e-06,5.714452147338872e-06,3.420222219898723e-06,2.053027985894458e-06,1.5175899184639588e-06,3.0389739930804754e-06,1.0642598355032473e-06,2.2359070590285924e-06,2.6549284045665146e-06,1.0292710822964333e-05,1.4737845364141146e-06,1.2899883132205123e-06
215,2.685074624959452e-06,1.7077411914921444e-06,3.7983474536359843e-06,3.2435155299978186e-06,4.032236714164143e-06,5.841159121111226e-06,3.3507067534587494e-06,2.0839254654960217e-06,1.5109715329832239e-06,2.9632451942755916e-06,1.0813253423227136e-06,2.297102078437843e-06,2.7119389515201026e-06,9.467194511692299e-06,1.4683291308298144e-06,1.282471531162948e-06
216,2.7267538089840893e-06,1.7530450279024706e-06,3.912281012206541e-06,3.2559179171897427e-06,4.071970241704696e-06,5.974676944585339e-06,3.280207343004367e-06,2.1214893245435353e-06,1.5040648747736307e-06,2.895225036165666e-06,1.0973731380698235e-06,2.365685703916406e-06,2.7641694275473776e-06,8.699599624520395e-06,1.461385188535917e-06,1.2736133809926095e-06
217,2.7682836347756378e-06,1.797440279970541e-06,4.027042224844614e-06,3.2723607697684864e-06,4.114462122510592e-06,6.1150718610494765e-06,3.2105627641792053e-06,2.1650794766038683e-06,1.4964419758237545e-06,2.8337090880670537e-06,1.1129838836083044e-06,2.4423398569479087e-06,2.8104926136514376e-06,7.990594042441922e-06,1.452624008950805e-06,1.2637298405942668e-06
218,2.8091114479983736e-06,1.840527323339652e-06,4.143306973035471e-06,3.2912149986995682e-06,4.159662931200539e-06,6.262104933177956e-06,3.1436297448536726e-06,2.2142668102917836e-06,1.4878227520459832e-06,2.7772206439098585e-06,1.1287099353635684e-06,2.5278098323677786e-06,2.8498197707161652e-06,7.3403517308601375e-06,1.4415713743789945e-06,1.2534073348037382e-06
219,2.848480164920484e-06,1.8818712304963107e-06,4.261208197958806e-06,3.310565864913174e-06,4.207351574057651e-06,6.4158212295703686e-06,3.080853491521519e-06,2.2687984106491065e-06,1.4780547486396363e-06,2.7239877286967156e-06,1.1450494872523816e-06,2.6227413316251027e-06,2.8809728206065896e-06,6.7493419091523094e-06,1.4276359941270067e-06,1.2433948150125318e-06
220,2.8855973142140716e-06,1.9208985473495227e-06,4.380144309417901e-06,3.328456094007307e-06,4.2571750069031555e-06,6.576900280453649e-06,3.023127251150444e-06,2.328370813956301e-06,1.4669691207785886e-06,2.672053764847042e-06,1.1624193442516206e-06,2.7274484048024237e-06,2.902477538859104e-06,6.218889940710389e-06,1.410229398422069e-06,1.2344720416062894e-06
221,2.919922965458024e-06,1.9568723755680403e-06,4.49877988555791e-06,3.3432416767799086e-06,4.308443475177523e-06,6.7462033555562045e-06,2.9709876043047027e-06,2.3923788690164473e-06,1.4542705961229477e-06,2.619645846308679e-06,1.1811270683804789e-06,2.841802545305253e-06,2.912597222457482e-06,5.7511396925777776e-06,1.3890462750428944e-06,1.2273480477474329e-06
222,2.951333693656069e-06,1.9889701410587124e-06,4.6151326310283624e-06,3.3540175053529767e-06,4.36004929983811e-06,6.924166696566083e-06,2.9249799262247464e-06,2.45983963457079e-06,1.4395410360149202e-06,2.565676187145007e-06,1.2013459628599008e-06,2.9651851974493344e-06,2.909850510152333e-06,5.348452550775015e-06,1.364343944856203e-06,1.2226235121635512e-06
223,2.9800937168682123e-06,2.016385588258881e-06,4.726674011893025e-06,3.3609587665613493e-06,4.410876063072579e-06,7.1108604668784235e-06,2.8859576287743304e-06,2.529533345793253e-06,1.4223256803242488e-06,2.5101544208525174e-06,1.2231117668056587e-06,3.096445304199188e-06,2.8937864408399184e-06,5.01266814938615e-06,1.336915488627342e-06,1.220794479852254e-06
224,3.006766326233474e-06,2.0383387272977414e-06,4.83051997747479e-06,3.365396995127769e-06,4.460494019656904e-06,7.306490458953855e-06,2.8551641284402497e-06,2.600246886635649e-06,1.4023222282712073e-06,2.454281458077871e-06,1.246320901496376e-06,3.2339034401390373e-06,2.865401590720563e-06,4.744678012124741e-06,1.3077977730408842e-06,1.2222463426361282e-06
225,3.0321715718510164e-06,2.0539898745648037e-06,4.923778706532683e-06,3.369531875648294e-06,4.509643961462229e-06,7.511679874538427e-06,2.834054924814481e-06,2.6709543536366476e-06,1.3796129948788412e-06,2.400119783922787e-06,1.270733446505045e-06,3.3753667899387107e-06,2.8268181205690976e-06,4.54435801879441e-06,1.278042471543328e-06,1.2272440877187037e-06
226,3.057387851678215e-06,2.062479719933361e-06,5.00397351296497e-06,3.375870585143565e-06,4.56023564113708e-06,7.727380434069649e-06,2.8239596675652546e-06,2.740895247364458e-06,1.354721357178621e-06,2.3500597817286155e-06,1.296034959384324e-06,3.518133445480669e-06,2.7806118635668514e-06,4.410661860385236e-06,1.248628492922061e-06,1.2359177708257046e-06
227,3.083706823435665e-06,2.063227799206424e-06,5.0693738053208805e-06,3.3866508783213563e-06,4.6149355180050245e-06,7.954640429187118e-06,2.8258037737150433e-06,2.8096150930853947e-06,1.3284330326351077e-06,2.306392824985307e-06,1.3219509164496663e-06,3.659105095046123e-06,2.7294455650472137e-06,4.341730965617726e-06,1.2203903147443927e-06,1.2482321720530749e-06
228,3.1124417431477293e-06,2.0562107190989296e-06,5.1191420337641645e-06,3.4034791410458517e-06,4.676616338389293e-06,8.194396540584626e-06,2.840019487401684e-06,2.876906125862974e-06,1.3015893703741916e-06,2.2711015502690254e-06,1.3483234254560589e-06,3.795079510667284e-06,2.6760346939864176e-06,4.334998367440749e-06,1.1939550319445092e-06,1.263985777219399e-06
229,3.1446231534424302e-06,2.0419199429734344e-06,5.153317631227968e-06,3.427225938012637e-06,4.747887246663325e-06,8.447325294847564e-06,2.866607216127835e-06,2.942570257272931e-06,1.2750093274742247e-06,2.2458287830523243e-06,1.3750625843114028e-06,3.923126513709338e-06,2.6230684768159756e-06,4.387345115078949e-06,1.1697412623795052e-06,1.282863693485951e-06
230,3.180764794659808e-06,2.0211057723045814e-06,5.172689453595314e-06,3.458088321156178e-06,4.830774066657935e-06,8.713729321566142e-06,2.9052212494848498e-06,3.006214108851935e-06,1.2495068053455258e-06,2.231923431946284e-06,1.4020012676791262e-06,4.0408972738682675e-06,2.573003595885411e-06,4.495271519294517e-06,1.147993209533134e-06,1.3045012055236643e-06
231,3.220835280915915e-06,1.9945765525513515e-06,5.178592243831564e-06,3.4957019389437843e-06,4.926556120339653e-06,8.993389239166926e-06,2.955163677437862e-06,3.0673037490617756e-06,1.2259274957253182e-06,2.230454353762174e-06,1.4287774418799387e-06,4.146776123799091e-06,2.5278794612679495e-06,4.654964598097265e-06,1.128796320716859e-06,1.3285113272205045e-06
232,3.2643675740419048e-06,1.9631133934141344e-06,5.172648689986779e-06,3.539177021319099e-06,5.035729502258421e-06,9.28535902885615e-06,3.0153525708472664e-06,3.125318262112022e-06,1.2052056390126885e-06,2.242166074503988e-06,1.4548228578450977e-06,4.239875578572633e-06,2.489213961718124e-06,4.8623079775402855e-06,1.11209300275066e-06,1.3544566843406522e-06
233,3.310521942326084e-06,1.927455818718638e-06,5.156461724533653e-06,3.587044116622768e-06,5.158007948834449e-06,9.587821798975277e-06,3.0843749829081093e-06,3.1797459337239386e-06,1.1884208401257538e-06,2.2674379266741974e-06,1.4794803416597312e-06,4.319907487669976e-06,2.4579576426292065e-06,5.113002592435309e-06,1.0977230107970946e-06,1.381803139744628e-06
234,3.35801873201416e-06,1.8884079405442737e-06,5.13126207281821e-06,3.637248838126128e-06,5.292258940915182e-06,9.89812706872846e-06,3.160503402583085e-06,3.2299623142176357e-06,1.1767561981562848e-06,2.306310435068765e-06,1.5021952057369892e-06,4.38697824611378e-06,2.434506110751724e-06,5.402833001187363e-06,1.0854585626165657e-06,1.4099354686454566e-06
235,3.405079791625217e-06,1.8469748844058944e-06,5.097558598226184e-06,3.687271992092715e-06,5.436366826925109e-06,1.0212914050542874e-05,3.241568398497643e-06,3.275200343398833e-06,1.1713671056051025e-06,2.358572708912023e-06,1.522592766704695e-06,4.441443314902983e-06,2.418839237565902e-06,5.727906114072164e-06,1.0750228549186504e-06,1.4382233249082192e-06
236,3.449593163417717e-06,1.8043059998528966e-06,5.054906306894812e-06,3.7343196372203695e-06,5.587155840884566e-06,1.0528003388467612e-05,3.3248533193095832e-06,3.3146988755560022e-06,1.173267093424889e-06,2.423815353589931e-06,1.5403426108415534e-06,4.483937464065324e-06,2.410831075675647e-06,6.084652215587503e-06,1.0661089242629688e-06,1.466054340286634e-06
237,3.4894897874811474e-06,1.7615441813254812e-06,5.0019392854995415e-06,3.775547221228352e-06,5.740480598444045e-06,1.0837929330542921e-05,3.4072542243551494e-06,3.3478801176841955e-06,1.1832640381102468e-06,2.50136821787324e-06,1.5549934194739095e-06,4.515500061636386e-06,2.4105541091984417e-06,6.469535406825984e-06,1.0584463131772445e-06,1.4928528974288924e-06
238,3.5230716599206054e-06,1.7197919374984e-06,4.936712521584166e-06,3.8083370500743364e-06,5.891442535964342e-06,1.1135571283497426e-05,3.4857268386648036e-06,3.374357963066943e-06,1.2019547883089159e-06,2.590193130134533e-06,1.5659929295794713e-06,4.537630075198971e-06,2.418294130621708e-06,6.878564096162813e-06,1.051900043035476e-06,1.5181403347742992e-06
239,3.5491201142331106e-06,1.6800807814158107e-06,4.857219951579279e-06,3.830621426951652e-06,6.034679954005151e-06,1.1412376204122842e-05,3.5577326902700816e-06,3.3937822453667016e-06,1.2297855482369826e-06,2.6888118372300224e-06,1.5728680301626764e-06,4.552213851653989e-06,2.434269487554214e-06,7.306800342936601e-06,1.046463418268096e-06,1.5415682338887648e-06
240,3.5668830122929767e-06,1.643243164939442e-06,4.761924547981046e-06,3.841172583720648e-06,6.164725159430516e-06,1.1659002309135872e-05,3.6213860001579714e-06,3.405692580194722e-06,1.2671109956409298e-06,2.7952310114334067e-06,1.5754122938295402e-06,4.5613401072717525e-06,2.4583387486667163e-06,7.748216744487195e-06,1.0421503060886427e-06,1.5628544203975254e-06
241,3.5760453626644026e-06,1.60982016259537e-06,4.6502182402353024e-06,3.839739315554035e-06,6.2764002165633715e-06,1.1866061186937884e-05,3.675321686453468e-06,3.409516875624183e-06,1.3141888033331779e-06,2.9068950742059165e-06,1.5737705580662918e-06,4.567019686997697e-06,2.489893008848991e-06,8.196185538885709e-06,1.038938480032318e-06,1.5817256424178882e-06
242,3.576566101010317e-06,1.5800833132893505e-06,4.522736348189918e-06,3.826962710473147e-06,6.365216929310409e-06,1.2025024963380414e-05,3.7185260110495252e-06,3.4047083067825844e-06,1.3711627101518132e-06,3.0208338484442094e-06,1.5683546911816798e-06,4.570888169991928e-06,2.5279510190003706e-06,8.644522431466867e-06,1.0367934375633e-06,1.597985030404591e-06
243,3.568314455628255e-06,1.5541018274780455e-06,4.381415247753703e-06,3.8041284397364203e-06,6.427718877313994e-06,1.2129354499607819e-05,3.750292111836916e-06,3.390904742543513e-06,1.4381086687490771e-06,3.134126836282236e-06,1.5596119624522864e-06,4.574026876065861e-06,2.5714546255625776e-06,9.088739734343833e-06,1.0357212487522062e-06,1.6116179587537163e-06
244,3.5507987910278e-06,1.5317707085789542e-06,4.229229866448262e-06,3.7728966748010695e-06,6.461659379285043e-06,1.217550381369528e-05,3.770226432935194e-06,3.3680002811313814e-06,1.515147234475895e-06,3.2445224366674803e-06,1.547825018067502e-06,4.576929846908739e-06,2.6196555502357246e-06,9.527114156068283e-06,1.0357931407774714e-06,1.6227808783153637e-06
245,3.523321266467955e-06,1.5127974417258059e-06,4.069679361650758e-06,3.7351026087043784e-06,6.4659832473796295e-06,1.2163247056473182e-05,3.7781031949743473e-06,3.3361300097431186e-06,1.6025968442967331e-06,3.3507783509043828e-06,1.5331254926616303e-06,4.579470510155122e-06,2.6723900168206384e-06,9.961169296642655e-06,1.0371111142544786e-06,1.6316801504013763e-06
246,3.4854284347510304e-06,1.496704186044741e-06,3.90624552854321e-06,3.6925821242125176e-06,6.4407000464071725e-06,1.2095043121251722e-05,3.773579864542993e-06,3.295646996183259e-06,1.7010673556453057e-06,3.452508921375324e-06,1.5156569567490826e-06,4.5808031545084735e-06,2.730163621687318e-06,1.0395304055667369e-05,1.0397461365009438e-06,1.638504043902112e-06
247,3.4372136226002977e-06,1.4828452881224149e-06,3.7421079679443383e-06,3.646930859778645e-06,6.386686420607914e-06,1.1974670774149393e-05,3.7560958788814924e-06,3.2471413133327116e-06,1.8113616005617107e-06,3.549862171651431e-06,1.4956397961561904e-06,4.579382807601612e-06,2.7940352120522303e-06,1.0835661265792974e-05,1.0436662072528867e-06,1.6434772613301576e-06
248,3.379292357880962e-06,1.4704295177978677e-06,3.5801843749432753e-06,3.599268372686792e-06,6.3052804496131e-06,1.1805689026438981e-05,3.725115116961763e-06,3.1914696834638455e-06,1.934243495097603e-06,3.6434583154132784e-06,1.47325156921752e-06,4.573228084593698e-06,2.8653017762615506e-06,1.1288664135296092e-05,1.0487005167080283e-06,1.646896978299373e-06
249,3.3126826383245737e-06,1.4586309396248789e-06,3.4232290996413703e-06,3.55024015543348e-06,6.197719568909721e-06,1.1590398386676798e-05,3.6804852793237117e-06,3.129680463607323e-06,2.070270854713888e-06,3.7345372321161853e-06,1.4485096179615211e-06,4.560242346939593e-06,2.9451266479408988e-06,1.1759746782932197e-05,1.0546216244012636e-06,1.6491426573931286e-06
250,3.2387685921471692e-06,1.4468217100274047e-06,3.2737279846355703e-06,3.5003413435189596e-06,6.064997813714909e-06,1.1329880042717659e-05,3.6226971726240557e-06,3.062775969088813e-06,2.2197608804675337e-06,3.824881910898814e-06,1.4213299351038648e-06,4.538372106516276e-06,3.0343012012704287e-06,1.2252869573445884e-05,1.0613179878300152e-06,1.650812900745705e-06
251,3.1591862591594836e-06,1.4347886773566842e-06,3.133651360876874e-06,3.4503158505330195e-06,5.908470966908288e-06,1.1025011983076913e-05,3.5530122254926863e-06,2.991519439750956e-06,2.3827868103026407e-06,3.916364020575804e-06,1.3917143868397568e-06,4.5056420289195255e-06,3.133192627418211e-06,1.2771309199429403e-05,1.0689136094332916e-06,1.6528527499974786e-06
252,3.0754937361802725e-06,1.4227771502751399e-06,3.0042810772866606e-06,3.401302348961347e-06,5.73061375580277e-06,1.0677666387444964e-05,3.4734274034594595e-06,2.9165519663027183e-06,2.5591194485423235e-06,4.010460058724992e-06,1.359913950631374e-06,4.460250205595788e-06,3.2417746301528273e-06,1.3319421485518912e-05,1.0777152084239686e-06,1.6564205509634883e-06
253,2.9888287618459938e-06,1.4113486516459887e-06,2.88618566662645e-06,3.3546777737137832e-06,5.535250699069999e-06,1.0291467327801806e-05,3.386444879328994e-06,2.838719989036236e-06,2.7481573226695687e-06,4.108080076904353e-06,1.3264747114798105e-06,4.400803760902794e-06,3.3596681456252604e-06,1.3904130535703321e-05,1.0880329099063492e-06,1.6625940483467304e-06
254,2.899824962436651e-06,1.4011503218737618e-06,2.7792936933939594e-06,3.311846579400859e-06,5.327252267192524e-06,9.872025943614607e-06,3.294743351906274e-06,2.7592494499867886e-06,2.948897149536932e-06,4.2096686310953115e-06,1.2921619157450084e-06,4.326620520057556e-06,3.4862378309273613e-06,1.4534975346792652e-05,1.100046864731812e-06,1.672178436703914e-06
255,2.808817539984947e-06,1.3927023252566598e-06,2.6830881455391245e-06,3.2741738156720973e-06,5.112002838258426e-06,9.426761470701309e-06,3.2009235272492153e-06,2.6795871202170365e-06,3.1599151143057645e-06,4.315374464212151e-06,1.2578143341225353e-06,4.2379700617487225e-06,3.6207014188885585e-06,1.5222590518982565e-05,1.1138035992456574e-06,1.6856832182174938e-06
256,2.7161043686099407e-06,1.3862858907598926e-06,2.5969610070778626e-06,3.2429805939756417e-06,4.894869944061731e-06,8.96444073895527e-06,3.1073807725365456e-06,2.6010884897348757e-06,3.3793697794768177e-06,4.425177772070222e-06,1.2242282723124968e-06,4.136166093033296e-06,3.7621266204488567e-06,1.5976593524727854e-05,1.1292620468682603e-06,1.7033630202296003e-06
257,2.6219943084857613e-06,1.381942731403731e-06,2.520574525213293e-06,3.2194569061181437e-06,4.680807338353744e-06,8.494594851733003e-06,3.0162332838909518e-06,2.5248429675562186e-06,3.605046757412029e-06,4.538948904366122e-06,1.192141658372144e-06,4.023493067334122e-06,3.909303058609789e-06,1.68041542627948e-05,1.146285142184314e-06,1.7252434857930235e-06
258,2.5267711283397995e-06,1.3795109145738228e-06,2.454011412757094e-06,3.204516133180969e-06,4.474129326804692e-06,8.026918501975923e-06,2.9292795963932424e-06,2.451692156904531e-06,3.834349290512516e-06,4.656440159192421e-06,1.16226018031932e-06,3.903005301113681e-06,4.0605595717352395e-06,1.7709630856268526e-05,1.1645807655896705e-06,1.7511507080869598e-06
259,2.430856940180693e-06,1.3786839623559038e-06,2.397675001090902e-06,3.19867693038971e-06,4.278382919914091e-06,7.5706849838639275e-06,2.848006769270586e-06,2.382279405784624e-06,4.064214605874023e-06,4.777228010365938e-06,1.1352454573061706e-06,3.778247806906362e-06,4.213656036549465e-06,1.8694726292360083e-05,1.1836679976281504e-06,1.7807409697725737e-06
260,2.335015874427529e-06,1.3791547302550246e-06,2.352063997382868e-06,3.2020427511162012e-06,4.0962487182171045e-06,7.134220042514335e-06,2.7735897415770886e-06,2.3170418484794852e-06,4.291197906408578e-06,4.900659698812806e-06,1.1116834732038126e-06,3.652930931199526e-06,4.365906736330159e-06,1.9758885065076268e-05,1.202905731224356e-06,1.813474816099149e-06
261,2.2403129242231896e-06,1.3808036109699645e-06,2.3175805015195115e-06,3.214442972776785e-06,3.929494913672537e-06,6.7245160807808674e-06,2.7068185925751224e-06,2.256209999854433e-06,4.511895527924675e-06,5.0258802875126885e-06,1.0920701253537824e-06,3.530585656712161e-06,4.514495172576698e-06,2.0900018683008448e-05,1.2215576869831407e-06,1.8485838859908164e-06
262,2.14787159096661e-06,1.3838123797411713e-06,2.2944250215599053e-06,3.2356297841195253e-06,3.7790434469098396e-06,6.347038250756994e-06,2.6480575141785803e-06,2.1998635203811014e-06,4.723478161787653e-06,5.151974122375311e-06,1.0768034550480616e-06,3.4142578030434375e-06,4.656771614969742e-06,2.211509757183005e-05,1.2388591788903534e-06,1.8851252349641787e-06
263,2.058609464280216e-06,1.3886310351801154e-06,2.2825192452384737e-06,3.265312240726601e-06,3.645152451748607e-06,6.005722154920677e-06,2.5973448463124357e-06,2.1479924431038427e-06,4.9240111978615406e-06,5.278196251270949e-06,1.0661756906986016e-06,3.3063392921053334e-06,4.7904833283391255e-06,2.3399753273194445e-05,1.2541038905138122e-06,1.9221071900084007e-06
264,1.973080350322544e-06,1.3958043234397536e-06,2.2814578701318237e-06,3.3030281742037126e-06,3.5276322297320527e-06,5.703166693486206e-06,2.5545440170287968e-06,2.100515169041327e-06,5.112518843273953e-06,5.404210446819836e-06,1.0603785383383313e-06,3.208598147179186e-06,4.914029768451431e-06,2.474699799314962e-05,1.2668029561213868e-06,1.9586617058713478e-06
265,1.8914912228396277e-06,1.405770801965051e-06,2.2905291282318818e-06,3.3480429214508127e-06,3.4260313030965487e-06,5.4409987847336134e-06,2.519464487371766e-06,2.0572845987469154e-06,5.288914774036244e-06,5.530169935087207e-06,1.059512571690276e-06,3.122341178450524e-06,5.02671328608361e-06,2.614653654492746e-05,1.2768676827926844e-06,1.994255054472162e-06
266,1.8138711017873775e-06,1.4187479873044232e-06,2.3087188724593717e-06,3.399328334498146e-06,3.3398216354471987e-06,5.220279187597795e-06,2.4920216253924075e-06,2.018155359918855e-06,5.453863169391678e-06,5.656527015466125e-06,1.0635999642434366e-06,3.0485360148948095e-06,5.1288292633279516e-06,2.7585711833265588e-05,1.2846376765331372e-06,2.0288389329501907e-06
267,1.7402411456749213e-06,1.4346993688441476e-06,2.3346292389787123e-06,3.4555083644859136e-06,3.2685900039318266e-06,5.041777611942375e-06,2.472438857920142e-06,1.9831440816136024e-06,5.6085909687986236e-06,5.783727348702201e-06,1.0726055676483983e-06,2.9877779501175168e-06,5.2214595390485144e-06,2.9051408156281488e-05,1.2906922993850687e-06,2.0628417838723427e-06
268,1.6706184292294817e-06,1.4533534583268623e-06,2.3664258751299e-06,3.5147666533139064e-06,3.2121395715817352e-06,4.906035123834435e-06,2.461354088277529e-06,1.952591303030864e-06,5.754676163145698e-06,5.912076205364201e-06,1.086426203470916e-06,2.9402002037387345e-06,5.3059508799496475e-06,3.053159315374671e-05,1.2956463548654055e-06,2.0970228985313796e-06
269,1.604922389024173e-06,1.4742990128452656e-06,2.4019469119696607e-06,3.5749210551725136e-06,3.17039833576363e-06,4.813236017675069e-06,2.459730282695509e-06,1.92714429302849e-06,5.89377793491968e-06,6.041771813363869e-06,1.1048518453434686e-06,2.905498934200514e-06,5.383314010464602e-06,3.201573864658112e-05,1.3001115401652548e-06,2.1322673730888644e-06
270,1.5429900067034901e-06,1.497140917635711e-06,2.4389290143767396e-06,3.633780589755462e-06,3.143154419008835e-06,4.762959492191805e-06,2.4686026660274795e-06,1.907515862496268e-06,6.027260596449086e-06,6.172821889456553e-06,1.1275427700116242e-06,2.883060334986513e-06,5.4540129163784065e-06,3.349435918182922e-05,1.3047339360240535e-06,2.1693603519650647e-06
271,1.4847220607045784e-06,1.5215884931551263e-06,2.4751383347152704e-06,3.6896033212112495e-06,3.129771812601182e-06,4.753921453874719e-06,2.488776910342352e-06,1.894209485998286e-06,6.155780542545817e-06,6.304720998786397e-06,1.1540115086515713e-06,2.8720286855295357e-06,5.518284655618033e-06,3.4958657924882584e-05,1.3101437250193414e-06,2.2088110256434105e-06
272,1.4302716755009617e-06,1.5473938427831704e-06,2.508300843788599e-06,3.7413866180970474e-06,3.1290766004351196e-06,4.783850620350589e-06,2.520603146208658e-06,1.8873826614910547e-06,6.279045746489696e-06,6.4361149857983325e-06,1.1836433887271264e-06,2.87124437653154e-06,5.576468109994898e-06,3.640066829429699e-05,1.3168232542129126e-06,2.2508421614249556e-06
273,1.3802339529661244e-06,1.5742728972662504e-06,2.536101534844933e-06,3.7888308969036417e-06,3.1394866508636325e-06,4.849575149303757e-06,2.5638748547490573e-06,1.8868343768445042e-06,6.395901798950832e-06,6.564838237312878e-06,1.2158262652765007e-06,2.8791591824871933e-06,5.628888486980634e-06,3.781292078523069e-05,1.3250121478046205e-06,2.295503485667281e-06
274,1.3357424825387273e-06,1.6019815522590924e-06,2.5565033900211413e-06,3.831965084155497e-06,3.1592365815260543e-06,4.947234615416023e-06,2.617800972312659e-06,1.8920625212432058e-06,6.50462206069785e-06,6.688439626407e-06,1.2500905955810144e-06,2.8938148314157156e-06,5.675557101900747e-06,3.9186610367400726e-05,1.3347141742426174e-06,2.342705698802155e-06
275,1.2983443750820206e-06,1.6304798878895676e-06,2.568144677550426e-06,3.870676775744405e-06,3.1864569696771096e-06,5.0724138709822605e-06,2.6809899750712084e-06,1.9023720797903601e-06,6.603182291123143e-06,6.80483964859554e-06,1.2860842199031128e-06,2.9128782767743894e-06,5.716218571325196e-06,4.050931428332591e-05,1.345750599145801e-06,2.3921045454579456e-06
276,1.26970719089359e-06,1.659968059343388e-06,2.570487955240549e-06,3.904543664721569e-06,3.2190264037328133e-06,5.220060920711327e-06,2.751444742567762e-06,1.9170045833478754e-06,6.689485444778745e-06,6.9127318792919985e-06,1.323430201642682e-06,2.9337650346168003e-06,5.7507725493635604e-06,4.176506013682851e-05,1.3577993842700617e-06,2.4429794424985538e-06
277,1.2513665908202194e-06,1.6907327815293678e-06,2.5637168323800092e-06,3.933083730099688e-06,3.254328849352716e-06,5.384325890429318e-06,2.8266449797089627e-06,1.9352285497981242e-06,6.761605811235469e-06,7.011649540444817e-06,1.3616400139481956e-06,2.9538105301113313e-06,5.779564406415834e-06,4.293784886482427e-05,1.3704629460030388e-06,2.494220717942612e-06
278,1.2446145023139947e-06,1.722954793124975e-06,2.5484953235661817e-06,3.956163470725349e-06,3.2891146897519533e-06,5.55861779662781e-06,2.9038356163438595e-06,1.9563059136691687e-06,6.818072027207431e-06,7.101775644173623e-06,1.400088258215212e-06,2.9703912393177056e-06,5.80323048505453e-06,4.40168551627038e-05,1.3833884486497609e-06,2.5443474883628022e-06
279,1.250474546154553e-06,1.7566546543381318e-06,2.5257035190007576e-06,3.974320027512862e-06,3.319630008456875e-06,5.735921803272069e-06,2.9805067511775878e-06,1.9793446605009938e-06,6.858171529669697e-06,7.183647048244725e-06,1.4379950296729407e-06,2.9810589882772157e-06,5.822256197875358e-06,4.500114889966496e-05,1.3963696907661735e-06,2.591478196928752e-06
280,1.269705996201239e-06,1.7917952044570197e-06,2.496284550809374e-06,3.988952521592408e-06,3.3420709847932776e-06,5.9091361529610145e-06,3.054816801572726e-06,2.003203271174368e-06,6.8822344427056625e-06,7.257913813050244e-06,1.4744553228991375e-06,2.9837668429481313e-06,5.8365148667508645e-06,4.590236190530165e-05,1.4093902171139266e-06,2.6334015353482057e-06
281,1.302812675148535e-06,1.828366247177072e-06,2.4612277963719926e-06,4.0023507649244404e-06,3.3532166663686076e-06,6.07137203446771e-06,3.1256979955658367e-06,2.0265920181247924e-06,6.891829341229521e-06,7.325163804825819e-06,1.5085324602300737e-06,2.9770936059427297e-06,5.8450505638157635e-06,4.674375397272085e-05,1.4226169917320258e-06,2.6679049548869272e-06
282,1.3500513779176297e-06,1.866323868880035e-06,2.4215640160018132e-06,4.017475753882423e-06,3.35098272411636e-06,6.216506695299138e-06,3.1926363273249078e-06,2.0482967018286406e-06,6.88982528136363e-06,7.385756905574709e-06,1.539385959503545e-06,2.960354225937604e-06,5.846233718906108e-06,4.755524078028576e-05,1.4363258599132453e-06,2.693221559866996e-06
283,1.4114383936074077e-06,1.9055036275636985e-06,2.378289319712583e-06,4.037507779912402e-06,3.3346908495341468e-06,6.340126197214666e-06,3.2552935089588804e-06,2.0672833549289877e-06,6.880295802538257e-06,7.439768795544115e-06,1.5664054547172758e-06,2.9335794735740416e-06,5.838078213770144e-06,4.8366225799102144e-05,1.4507614184160452e-06,2.708317821292653e-06
284,1.486735845674171e-06,1.9456242012039347e-06,2.3322598259797503e-06,4.065347806457538e-06,3.3048976035355482e-06,6.440367442477089e-06,3.3131628646705374e-06,2.0825648326760175e-06,6.868243016036218e-06,7.487136921375146e-06,1.5892678432470417e-06,2.897389998715582e-06,5.818563629137022e-06,4.91994771897378e-05,1.4660168561103936e-06,2.712917483695289e-06
285,1.5754168800852825e-06,1.9862882947866675e-06,2.284112594705783e-06,4.1033171584483285e-06,3.2628236861815607e-06,6.517856863644239e-06,3.3655073250940812e-06,2.0929572730602156e-06,6.859172397827757e-06,7.5277854965448676e-06,1.6078268006717328e-06,2.8528128462333125e-06,5.786119353917966e-06,5.00685608716936e-05,1.482021888460984e-06,2.707355100564077e-06
286,1.6766333632166784e-06,2.0269265272100085e-06,2.2342972783377006e-06,4.153173330651178e-06,3.209865319909921e-06,6.574610695885591e-06,3.4116550147417226e-06,2.0969331363137975e-06,6.858602237584847e-06,7.56142043298022e-06,1.621903682839743e-06,2.8011306819401337e-06,5.740233920190385e-06,5.097912790030504e-05,1.4985944512919215e-06,2.6923870812341964e-06
287,1.7891908118848373e-06,2.0668076243089324e-06,2.1833377119444934e-06,4.2163202936341155e-06,3.1476477069836236e-06,6.612865268125811e-06,3.451328260413251e-06,2.0927032009310587e-06,6.871557627564716e-06,7.587050993712673e-06,1.6311846884074911e-06,2.743824582982229e-06,5.681632280921276e-06,5.193235019763243e-05,1.515447223556806e-06,2.669016213305544e-06
288,1.911523154026745e-06,2.1052230633284985e-06,2.1322253280996366e-06,4.2940033698281015e-06,3.078390797707124e-06,6.63475426833709e-06,3.484677856832123e-06,2.078530406210863e-06,6.9020720229050326e-06,7.602554198325607e-06,1.6352926403070065e-06,2.6825281299159065e-06,5.6117381537001335e-06,5.2928221916429005e-05,1.5321954233516173e-06,2.638301347653502e-06
289,2.0416773272346682e-06,2.1417836779461163e-06,2.082612319129962e-06,4.387409251353684e-06,3.005001705808935e-06,6.642530319381131e-06,3.512039526401019e-06,2.0531314752433486e-06,6.9527854412276e-06,7.604557439652993e-06,1.633887816543907e-06,2.6188618513824166e-06,5.532283499980686e-06,5.3967376379690395e-05,1.5484519847486414e-06,2.601147378063941e-06
290,2.177359409229417e-06,2.1766208168833674e-06,2.0366460046185942e-06,4.497691735901961e-06,2.9307259373187937e-06,6.638598773753501e-06,3.5336351980393535e-06,2.0159732379313153e-06,7.024727984828156e-06,7.588861867698622e-06,1.6267026649010607e-06,2.5541940069656596e-06,5.445817927433744e-06,5.505174871180143e-05,1.5639027339846993e-06,2.5582479773918122e-06
291,2.3161117286735804e-06,2.210312811361134e-06,1.9966256304246736e-06,4.625917299347907e-06,2.8587375884454138e-06,6.62536223631225e-06,3.5494661389857725e-06,1.9673833886016605e-06,7.117287469644823e-06,7.551343640434031e-06,1.6135768038279028e-06,2.4894793744350446e-06,5.356271292395734e-06,5.618529688544523e-05,1.5782445491526875e-06,2.5102978141137665e-06
292,2.4556126702467e-06,2.2435734196724805e-06,1.9647186008508697e-06,4.7729022656020335e-06,2.791989608453436e-06,6.605313329353036e-06,3.5594888588668616e-06,1.9085082371186e-06,7.228414609619572e-06,7.488834537355896e-06,1.5945292782320267e-06,2.4252310709566716e-06,5.268530563735632e-06,5.737492391087011e-05,1.5910649246859065e-06,2.458242847182013e-06
293,2.5940029441945505e-06,2.2769530639320412e-06,1.9428012684987934e-06,4.9389489626808745e-06,2.733178376448522e-06,6.58149145353303e-06,3.5638730728743053e-06,1.8411506384783904e-06,7.355192760406502e-06,7.3996343936232434e-06,1.5697866408377554e-06,2.361666065077073e-06,5.187437186821355e-06,5.86301405270935e-05,1.6018248566773267e-06,2.4033057347794674e-06
294,2.7301662618803756e-06,2.3107768678851715e-06,1.93239446548742e-06,5.123571222922603e-06,2.6846640670948072e-06,6.557970822394189e-06,3.5630607206458813e-06,1.7675257607417557e-06,7.494723229119577e-06,7.283812901079719e-06,1.5397120474200435e-06,2.2990573415756447e-06,5.117232173499303e-06,5.99604798407515e-05,1.609994589633295e-06,2.3468398464060422e-06
295,2.863950195775439e-06,2.3452880514050827e-06,1.934683716457793e-06,5.325387718315861e-06,2.648425949972001e-06,6.539973229305107e-06,3.5576161773270506e-06,1.6900101990069528e-06,7.645058470041872e-06,7.1434186692780554e-06,1.5047266013161836e-06,2.2380761653812432e-06,5.061770638656761e-06,6.13716091117829e-05,1.6151918571009858e-06,2.290214068648043e-06
296,2.9962689148127214e-06,2.3807943408336256e-06,1.950586137418792e-06,5.54226016524214e-06,2.6260512039844656e-06,6.533510734050169e-06,3.548111159423841e-06,1.6109385334513193e-06,7.805855880438754e-06,6.982257326064569e-06,1.4653425853253877e-06,2.179789409702318e-06,5.0249522423446835e-06,6.286145990130418e-05,1.6171674788984967e-06,2.234777401797361e-06
297,3.1289598188304677e-06,2.417711792127286e-06,1.980775942445001e-06,5.771490541916085e-06,2.618717145906889e-06,6.544818370596086e-06,3.5351831751623763e-06,1.5324593327678119e-06,7.978495825711467e-06,6.804964279346163e-06,1.422230913221536e-06,2.1253383905323703e-06,5.010710817404847e-06,6.44169688544393e-05,1.615746498704279e-06,2.1817920593722503e-06
298,3.2643460180015273e-06,2.4565699203830864e-06,2.025676219162376e-06,6.009818061533881e-06,2.6272001467139674e-06,6.579890124892111e-06,3.5196142106781966e-06,1.4564638188264517e-06,8.165649194698737e-06,6.615798150828951e-06,1.376161469625385e-06,2.075665039177473e-06,5.022633536225382e-06,6.601232636402862e-05,1.6108809684119419e-06,2.1323179867401104e-06
299,3.4046854003574e-06,2.4980377252500276e-06,2.0855698762890504e-06,6.253218309741579e-06,2.651876691873267e-06,6.644199656812204e-06,3.502215627705969e-06,1.384593172083768e-06,8.370518468335721e-06,6.417833630548745e-06,1.3279076183458776e-06,2.031452518662939e-06,5.063730415748784e-06,6.760922126762985e-05,1.6026979749656442e-06,2.0871890016095236e-06
300,3.5518045115848504e-06,2.5428860555222443e-06,2.160861119123736e-06,6.49683839842424e-06,2.6927086139056085e-06,6.742512874585232e-06,3.48360124210478e-06,1.3182804596722004e-06,8.595982957586252e-06,6.212714592799578e-06,1.2782819558838617e-06,1.9931615652908678e-06,5.136485413573077e-06,6.915830053740433e-05,1.5913936591696777e-06,2.0471180978854613e-06
301,3.706971812345891e-06,2.591787992987135e-06,2.2522230929807732e-06,6.735289854738763e-06,2.749249408721738e-06,6.878749383661402e-06,3.464170211825888e-06,1.25877125824472e-06,8.843914923184943e-06,6.000839450730081e-06,1.2281877580079693e-06,1.9611522859673696e-06,5.2429724237639365e-06,7.06019870400688e-05,1.577063725459245e-06,2.012763384484763e-06
302,3.870798482500548e-06,2.6450579272414474e-06,2.36042085235254e-06,6.9631075090107e-06,2.8205996043690095e-06,7.055899091514097e-06,3.4443863266025968e-06,1.207142585500497e-06,9.115024680723065e-06,5.782026986194306e-06,1.1785328023992985e-06,1.9358930925162495e-06,5.384868244135721e-06,7.188001027918425e-05,1.5596537459988307e-06,1.9846523732964985e-06
303,4.0430989780309936e-06,2.702523670204767e-06,2.48598096336701e-06,7.175159470362302e-06,2.9053204260306932e-06,7.275908139950457e-06,3.425049101432783e-06,1.1643463405354773e-06,9.409173398759245e-06,5.556504067781417e-06,1.1301003838968002e-06,1.918013058003452e-06,5.56327261124249e-06,7.293738514014063e-05,1.5390822736617e-06,1.963066643884546e-06
304,4.222813698352437e-06,2.763578879520192e-06,2.6289742682868807e-06,7.366999002122088e-06,3.0015102243665423e-06,7.5394506403160535e-06,3.4072424242653664e-06,1.1312270199575167e-06,9.725498733504635e-06,5.325517201827708e-06,1.0834992335028478e-06,1.9080986973100486e-06,5.778425838065697e-06,7.373230611381589e-05,1.515439506838112e-06,1.9480191125356197e-06
305,4.4079990689276785e-06,2.8273314819117464e-06,2.7889503343566504e-06,7.53514288175772e-06,3.1071412968601808e-06,7.84571585084966e-06,3.3919738644599617e-06,1.1085080487011087e-06,1.0061958019263277e-05,5.091087909339882e-06,1.0391625238265384e-06,1.9064877838759573e-06,6.0295849810939735e-06,7.424087405981913e-05,1.4891378591507709e-06,1.9393536615568987e-06
306,4.595885195632191e-06,2.892755680494567e-06,2.964947493741563e-06,7.677161527290544e-06,3.220502361671909e-06,8.192426393498779e-06,3.379801923598356e-06,1.0967977870179668e-06,1.0414708431921438e-05,4.855318163869925e-06,9.973624728360158e-07,1.9132460476386874e-06,6.315119226892448e-06,7.445556741663431e-05,1.4609059028437449e-06,1.936858785832449e-06
307,4.7830316650998455e-06,2.9587968375268026e-06,3.155499066778905e-06,7.791389753551092e-06,3.3405414680933868e-06,8.5760374981762e-06,3.37069403457605e-06,1.0966381742757785e-06,1.0778003102932417e-05,4.619948797472774e-06,9.582781007005045e-07,1.928246561897807e-06,6.6325902943760805e-06,7.437716064186751e-05,1.4316149639575288e-06,1.9402709138088323e-06
308,4.965437867167703e-06,3.024415081626556e-06,3.3585688512860897e-06,7.87622215635316e-06,3.467013394457595e-06,8.99180983145767e-06,3.3640536133582258e-06,1.1086228928119693e-06,1.1144759033537097e-05,4.386358150387124e-06,9.221016641856818e-07,1.9512127026384246e-06,6.978687904387811e-06,7.400732943924642e-05,1.402108534298012e-06,1.9492106263046974e-06
309,5.138510449196696e-06,3.0885272308750766e-06,3.571478258811042e-06,7.929483432726172e-06,3.6004047074111757e-06,9.43360167005823e-06,3.358725564264374e-06,1.1335534947557778e-06,1.1507192257181909e-05,4.155683426574802e-06,8.890906827143059e-07,1.981707129006315e-06,7.349111479764695e-06,7.334860500973402e-05,1.3731390667816832e-06,1.9631760836115246e-06
310,5.297151449199869e-06,3.149855101616634e-06,3.791005488739412e-06,7.948543398731874e-06,3.7416152397017217e-06,9.893551490950798e-06,3.352974523706515e-06,1.1725084819560215e-06,1.1856819542662764e-05,3.928802580632522e-06,8.595321542819339e-07,2.0191147086532346e-06,7.738467333614852e-06,7.24069974188342e-05,1.3453383205498874e-06,1.98159580750498e-06
311,5.436229808847196e-06,3.206901822342381e-06,4.013730739622233e-06,7.93117862114365e-06,3.891485674482397e-06,1.0361871489244788e-05,3.344604532362579e-06,1.2267561777295078e-06,1.2184147992728461e-05,3.7063976460973054e-06,8.336800474245875e-07,2.0626418179955525e-06,8.140309112237485e-06,7.119177097205156e-05,1.3191869299432395e-06,2.0038248569191342e-06
312,5.551332808051515e-06,3.258229851727767e-06,4.2364681311305e-06,7.876573134536025e-06,4.050483447210179e-06,1.0826952515394661e-05,3.331309963684334e-06,1.2975864167137419e-06,1.2479099036501366e-05,3.489395117681704e-06,8.117231422575707e-07,2.1113742286875124e-06,8.547294681859302e-06,6.971617453501125e-05,1.2950011947454794e-06,2.0290427782593068e-06
313,5.6395467020851405e-06,3.302859276254103e-06,4.456524327755907e-06,7.785971916459439e-06,4.218768901308583e-06,1.1276120851875682e-05,3.311168109628187e-06,1.3861821953461418e-06,1.2732388612615923e-05,3.2794090861936068e-06,7.938112741792857e-07,2.164414558823855e-06,8.951124577602462e-06,6.800226074410777e-05,1.2729454512022962e-06,2.0561472998402493e-06
314,5.700023601572968e-06,3.340544132190956e-06,4.67162222845194e-06,7.662811108722338e-06,4.396422854682721e-06,1.1697147860291536e-05,3.2831036013621775e-06,1.493547763946861e-06,1.2937027466308118e-05,3.0786172518761493e-06,7.801051686345387e-07,2.2210154339951747e-06,9.342491056881757e-06,6.608505394993825e-05,1.2530730661468849e-06,2.083721598328192e-06
315,5.734055183936824e-06,3.371854909270688e-06,4.879514494605422e-06,7.512302288197509e-06,4.583471181745956e-06,1.2079942449829277e-05,3.247150049203086e-06,1.620444426259296e-06,1.3089081888733336e-05,2.88928597500635e-06,7.707605904978332e-07,2.280624836989275e-06,9.711628486963656e-06,6.401057296585277e-05,1.2353478209076666e-06,2.110116935470799e-06
316,5.74448744784752e-06,3.3980119533529616e-06,5.0775513241835575e-06,7.34062694928086e-06,4.779630158336343e-06,1.2417635552076512e-05,3.2043662629981406e-06,1.7673475578627918e-06,1.3187424135325534e-05,2.713486374195785e-06,7.658683022341477e-07,2.3428808854668084e-06,1.0049236763209639e-05,6.182827509281674e-05,1.219640613855032e-06,2.133678454062734e-06
317,5.7346884873791715e-06,3.4204635149521007e-06,5.262629355484327e-06,7.154042140047021e-06,4.983959467851281e-06,1.270675885480467e-05,3.1563945746103825e-06,1.934448501700285e-06,1.3232810633989979e-05,2.552998172168394e-06,7.654593827153133e-07,2.407644121282247e-06,1.0347174207313005e-05,5.958258354086459e-05,1.2057849241164796e-06,2.153001373012916e-06
318,5.707675449107484e-06,3.440404173886315e-06,5.431696900052294e-06,6.958126612418217e-06,5.1946378968954e-06,1.294677110264706e-05,3.1049018424834104e-06,2.1216693701272265e-06,1.322681239357659e-05,2.4092026663867797e-06,7.695776270137012e-07,2.4750716831446797e-06,1.0598787997553447e-05,5.730718180914753e-05,1.1936970186875287e-06,2.1670403948546037e-06
319,5.665865886742859e-06,3.4585083186787105e-06,5.5824895146227354e-06,6.75726659260202e-06,5.408939566940342e-06,1.313925347769403e-05,3.0512995984764585e-06,2.3286718888312514e-06,1.3170755919537492e-05,2.2830352658402197e-06,7.783162918082358e-07,2.545642444066433e-06,1.0799016433438296e-05,5.502322507539739e-05,1.1834511653754814e-06,2.1750586372493952e-06
320,5.611308545232717e-06,3.474962120273794e-06,5.714046674135518e-06,6.554495942388648e-06,5.623331826597955e-06,1.3286831687946154e-05,2.9968965341719337e-06,2.5548864889273655e-06,1.3064761915584946e-05,2.1750592989254043e-06,7.917665039102708e-07,2.620050352890532e-06,1.0944263009117693e-05,5.274140493835844e-05,1.1752281947577485e-06,2.1765395605205066e-06
321,5.5459842192252154e-06,3.489632536059284e-06,5.826846104971457e-06,6.3517476720615884e-06,5.833600108210501e-06,1.3391821745169607e-05,2.9432373898041227e-06,2.799594098782612e-06,1.2907562103849767e-05,2.0855392192981817e-06,8.099329806533309e-07,2.6989810363131406e-06,1.1031809418945272e-05,5.046722438011378e-05,1.1691815248564099e-06,2.171158358256792e-06
322,5.471950577626035e-06,3.502137822902904e-06,5.9226230875118e-06,6.15032093448671e-06,6.035056402197358e-06,1.3454964503316908e-05,2.892313771194784e-06,3.0620922972128905e-06,1.2697557682095382e-05,2.0144377131951056e-06,8.326888278121904e-07,2.782912978449738e-06,1.1058964712349916e-05,4.820774102650138e-05,1.1653390956930984e-06,2.158828767275299e-06
323,5.391242495614014e-06,3.511743160810293e-06,6.003971397509322e-06,5.951278476854215e-06,6.22298726472945e-06,1.3474929132027911e-05,2.8465155901225e-06,3.3419280951504658e-06,1.2434393296593838e-05,1.9614151690604704e-06,8.59787214183843e-07,2.872097652190059e-06,1.1023069862485848e-05,4.5976991987703516e-05,1.1635777806414977e-06,2.1397620734625094e-06
324,5.305536013031961e-06,3.5172998147554604e-06,6.073827968514689e-06,5.755692857445736e-06,6.393330153742053e-06,1.3448790815334767e-05,2.8083577910118783e-06,3.6390289685730905e-06,1.2120145371010494e-05,1.925877809947454e-06,8.908923919069357e-07,2.9666435215996226e-06,1.092287403416353e-05,4.379751382230277e-05,1.1636139972842598e-06,2.1144081438337947e-06
325,5.215794810850512e-06,3.5174597394762154e-06,6.135002008029191e-06,5.5648567574048695e-06,6.54329942369365e-06,1.3372963827144803e-05,2.780128340012768e-06,3.953527852895748e-06,1.1759943562145889e-05,1.9070590852641992e-06,9.255784187711419e-07,3.0664934259424474e-06,1.0760070177550825e-05,4.169714806521185e-05,1.1650190391769928e-06,2.083243861388373e-06
326,5.122247206891894e-06,3.511048408675505e-06,6.189876423658605e-06,5.380543974932064e-06,6.671637170883755e-06,1.3244211334748259e-05,2.763617472924553e-06,4.285365920450252e-06,1.1361958886279974e-05,1.904195088935414e-06,9.633164647582217e-07,3.1713233560790045e-06,1.0539751530594001e-05,3.970312098580007e-05,1.1673170322119467e-06,2.046629648304586e-06
327,5.024813944602367e-06,3.4973268939907545e-06,6.240230129527693e-06,5.2051967458783495e-06,6.778346352741939e-06,1.306070131962877e-05,2.7599892409541235e-06,4.634006502738387e-06,1.0936544369061093e-05,1.9167572774396134e-06,1.0034814873520969e-06,3.280489168916496e-06,1.0269844843985324e-05,3.783732958914009e-05,1.1700921992394522e-06,2.004929517940364e-06
328,4.923671200631603e-06,3.476057884443385e-06,6.287033012847756e-06,5.041803634703608e-06,6.86396513024389e-06,1.2822800913421847e-05,2.76975587457148e-06,4.99833951253342e-06,1.04946997160423e-05,1.944491129378266e-06,1.0453463116133577e-06,3.3929436188582902e-06,9.960087721224884e-06,3.611527413161289e-05,1.1729819295014463e-06,1.958734116173882e-06
