,EMG1,EMG2,EMG3,EMG4,EMG5,EMG6,EMG7,EMG8,EMG9,EMG10,EMG11,EMG12,EMG13,EMG14,EMG15,EMG16
0,2.9662184840879896e-07,1.773605030635273e-07,3.2428373647458164e-07,2.9682275568866613e-07,2.810750316924524e-07,3.9183789798688363e-07,-9.328596591628321e-09,4.503806316399457e-07,1.1362612549140628e-06,4.774289463837381e-06,1.745157650398974e-07,5.5329297243542616e-08,-1.801380949605696e-07,-2.440409081328529e-07,5.112979826885188e-07,9.827636084715374e-07
1,5.351711630745506e-07,2.987098115607142e-07,4.4483655307646436e-07,4.818508575393088e-07,4.87125875976846e-07,6.393502869234302e-07,1.4892681456866084e-07,6.47716313695859e-07,1.3781694140315045e-06,5.307587105156231e-06,2.5041550420033154e-07,3.2867380841894545e-07,6.879672090959517e-07,3.982249707905762e-06,5.752045706867032e-07,1.0371776577829627e-06
2,7.650786688931902e-07,4.1709096210597577e-07,5.652146708997534e-07,6.609828141657494e-07,7.062788806624021e-07,9.101967893759229e-07,3.118748477810968e-07,8.424651692323361e-07,1.6269838837600204e-06,5.827784860236297e-06,3.2387611385416125e-07,5.921068561603848e-07,1.5169337226028566e-06,8.013372718510966e-06,6.397156153212338e-07,1.096360228621807e-06
3,9.813982713296259e-07,5.322531405076543e-07,6.834088193249046e-07,8.317851560172674e-07,9.373267171935928e-07,1.2036876090377701e-06,4.780056158854061e-07,1.0320237843379502e-06,1.8790991886088263e-06,6.324619809567258e-06,3.9421304507935536e-07,8.42459872895977e-07,2.2961491713981716e-06,1.1795728305140366e-05,7.031282700235133e-07,1.1600972042487132e-06
4,1.1798520245442868e-06,6.43982235141749e-07,7.977069925142907e-07,9.923950481986094e-07,1.1798857725377175e-06,1.519145685650878e-06,6.461121959790505e-07,1.2142406680770701e-06,2.1311227419676242e-06,6.788447128662946e-06,4.6088599822746163e-07,1.0770216440404094e-06,3.0159943181365344e-06,1.528618238972109e-05,7.638162161651459e-07,1.2280352908523462e-06
5,1.357157315159661e-06,7.520458333571907e-07,9.067487177399409e-07,1.1415157418661185e-06,1.4343059004221258e-06,1.855988178701052e-06,8.153723262853045e-07,1.3873685006962477e-06,2.380041308011495e-06,7.210791844604021e-06,5.235585516497116e-07,1.293829841293822e-06,3.668459477927659e-06,1.8455526938681666e-05,8.203701353205296e-07,1.2997357064071647e-06
6,1.5113115523218414e-06,8.561409588300031e-07,1.00957681147402e-06,1.2781822796353517e-06,1.701328552797351e-06,2.213895432881243e-06,9.853639630164474e-07,1.5499475412450047e-06,2.6233825077355807e-06,7.584346543975106e-06,5.820264297554147e-07,1.491675668187702e-06,4.2475859717645885e-06,2.1287497035424437e-05,8.717538823492065e-07,1.3747058546644923e-06
7,1.6417250133937887e-06,9.55863052268701e-07,1.1056639991914265e-06,1.4014939545051318e-06,1.981749455953605e-06,2.5930282551173358e-06,1.1561010647620024e-06,1.7008995110695676e-06,2.8592505600946527e-06,7.90252556799976e-06,6.360960660191912e-07,1.6698612145435031e-06,4.749652800256725e-06,2.3774000865579723e-05,9.174375332163752e-07,1.4523353654296936e-06
8,1.7491000347012643e-06,1.0507017640798807e-06,1.1948231147132286e-06,1.5104979861894015e-06,2.2761738503117637e-06,2.99407965734443e-06,1.3280854624791515e-06,1.839699309068149e-06,3.086168380069189e-06,8.159205578702503e-06,6.855732211623641e-07,1.8280107335924157e-06,5.173268081696747e-06,2.5910563088569446e-05,9.574033029749093e-07,1.5317929913625633e-06
9,1.8350963461780627e-06,1.1401128511495316e-06,1.2770220292013111e-06,1.6042377683508904e-06,2.584857882000895e-06,3.4179986838007304e-06,1.5022636889096784e-06,1.966336730584806e-06,3.3027755779805408e-06,8.34886016669165e-06,7.303735787439988e-07,1.966112348294674e-06,5.519455977288855e-06,2.769602428535815e-05,9.9194042381621e-07,1.6119729714249722e-06
10,1.9019510314639023e-06,1.223696543675227e-06,1.3522377316135366e-06,1.6818944865263686e-06,2.9076621374829578e-06,3.8655191326845255e-06,1.6798269193870944e-06,2.081130873857304e-06,3.5074653421630112e-06,8.46665271908745e-06,7.706152212557399e-07,2.0846741498950193e-06,5.791664393664884e-06,2.9136254779146074e-05,1.0213785187488528e-06,1.6915112131358755e-06
11,1.9521738384121636e-06,1.3014086606949084e-06,1.4204497105952235e-06,1.7429971634947315e-06,3.2441139609585116e-06,4.336792483000724e-06,1.8619416966100195e-06,2.184623842021687e-06,3.6981382254806208e-06,8.508682607021386e-06,8.06588238141814e-07,2.1847686156036194e-06,5.995521295388721e-06,3.0247997164966376e-05,1.0460081462457367e-06,1.7688872402297422e-06
12,1.9883052953801996e-06,1.3736661828625658e-06,1.481766228959631e-06,1.7876630872986343e-06,3.5934785910225077e-06,4.831270446658605e-06,2.0495735823057013e-06,2.277541765057299e-06,3.8723834779367825e-06,8.473237515560478e-06,8.386410108195981e-07,2.267900189744238e-06,6.138247047585481e-06,3.1059291636523337e-05,1.066184788887718e-06,1.8425905358187355e-06
13,2.012696446161449e-06,1.4412516731593928e-06,1.5365727320146306e-06,1.8167437580792518e-06,3.954760608839143e-06,5.3477218807337984e-06,2.2434446214127684e-06,2.3606673412966137e-06,4.028180327067895e-06,8.362440013610142e-06,8.671062412074219e-07,2.335840037364226e-06,6.227857844857774e-06,3.160550315772777e-05,1.082403314827274e-06,1.9112717027493576e-06
14,2.0273368593059153e-06,1.505049615483724e-06,1.5855490052019933e-06,1.8317510049516906e-06,4.326729927148103e-06,5.88420330996496e-06,2.4440121195029887e-06,2.4346919586579057e-06,4.164626717724349e-06,8.182511956405504e-06,8.923493890002961e-07,2.390584515390045e-06,6.272394139338234e-06,3.192372603184406e-05,1.0952611562535134e-06,1.973861566330206e-06
15,2.0337718304322824e-06,1.5657803026801158e-06,1.6294996076561822e-06,1.8345602710490317e-06,4.708101186569767e-06,6.437970204382794e-06,2.6513905404332257e-06,2.5002241145740205e-06,4.282050668195298e-06,7.942363720157668e-06,9.148584402257867e-07,2.4344004601285893e-06,6.279292020357963e-06,3.2049147637324327e-05,1.1053915493007062e-06,2.0296784983136846e-06
16,2.033090704347542e-06,1.6238758740784293e-06,1.6691143044914386e-06,1.8270428183253e-06,5.097764410990687e-06,7.00546998734385e-06,2.865239146162736e-06,2.5578628187286683e-06,4.381470147271058e-06,7.651749639598021e-06,9.35224451912031e-07,2.4697825728493834e-06,6.254946177094966e-06,3.201346738430841e-05,1.113405710846544e-06,2.0784885812584506e-06
17,2.025946824712376e-06,1.6794745683049275e-06,1.7048062538947155e-06,1.8108381794075482e-06,5.494801978944859e-06,7.58249030737886e-06,3.08465847357494e-06,2.6081454873996403e-06,4.463886697299066e-06,7.320069529085035e-06,9.54038393348003e-07,2.499262464846869e-06,6.204593484351983e-06,3.18445654139248e-05,1.1198459226857047e-06,2.120515084829619e-06
18,2.0126266130446343e-06,1.7324384823350792e-06,1.7366584580257613e-06,1.787339835836019e-06,5.8982163147716735e-06,8.164342334239857e-06,3.3081457913413245e-06,2.6514041658634234e-06,4.529778180725601e-06,6.9562289143887424e-06,9.718107319559887e-07,2.525172745263256e-06,6.132580306049277e-06,3.156760360207027e-05,1.1251815676161125e-06,2.1564525731295726e-06
19,1.993191939448815e-06,1.7824010311090963e-06,1.764475007164962e-06,1.757759602557518e-06,6.3065973597805495e-06,8.745876657406272e-06,3.533652723487762e-06,2.687671255034378e-06,4.578895852066157e-06,6.569286350188403e-06,9.88914386502595e-07,2.549468279130258e-06,6.0427941281415255e-06,3.120643542591078e-05,1.1298331780930763e-06,2.187459771002223e-06
20,1.9676186871439055e-06,1.828850227783318e-06,1.7879501285486783e-06,1.7231662434745283e-06,6.717948821599822e-06,9.321210753465402e-06,3.758747290820009e-06,2.716720712027092e-06,4.610407030532562e-06,6.1690975095079006e-06,1.005550386926982e-06,2.5736400732769707e-06,5.938929999348635e-06,3.078417719204561e-05,1.1341717031112892e-06,2.2150353131132806e-06
21,1.9358543986996834e-06,1.8711398558296296e-06,1.8068451114812128e-06,1.6845858781218018e-06,7.129573281547465e-06,9.883237974541179e-06,3.980863807508816e-06,2.7382897738254113e-06,4.6233201056901165e-06,5.766354209555117e-06,1.0217796144236434e-06,2.5987051143832925e-06,5.8245019540715395e-06,3.0322870282853692e-05,1.1385012064474372e-06,2.240779682524057e-06
22,1.8978740428983447e-06,1.908398334823087e-06,1.8210132578342416e-06,1.643160871097809e-06,7.5378283307958765e-06,1.042327119834883e-05,4.197588564908616e-06,2.752407711806276e-06,4.616959978528759e-06,5.372022731065956e-06,1.0376026367303536e-06,2.625212088198384e-06,5.7028046820203e-06,2.9842531781463106e-05,1.1430587890262532e-06,2.266161237716298e-06
23,1.85386302238328e-06,1.9394758544736465e-06,1.8303575442673126e-06,1.6001606390981692e-06,7.937945801351316e-06,1.093126196800848e-05,4.406878279678459e-06,2.759597901719704e-06,4.591230805067033e-06,4.996670758543253e-06,1.0530001752852038e-06,2.6532163485875134e-06,5.577010430150341e-06,2.9361440867064232e-05,1.148011136148141e-06,2.292365598005963e-06
24,1.8044871141524806e-06,1.9630975481310194e-06,1.8349319648432616e-06,1.5568364527718191e-06,8.32425915214672e-06,1.1396688652347858e-05,4.607158514752321e-06,2.7607812385005133e-06,4.54662158447488e-06,4.650178518768329e-06,1.0679109723138928e-06,2.682240188586905e-06,5.450348410340471e-06,2.889870388717937e-05,1.1534164400377685e-06,2.3201957396673647e-06
25,1.7510284461168756e-06,1.9782470601948667e-06,1.8351262735353372e-06,1.5143196183281773e-06,8.690795951611964e-06,1.1809810272362395e-05,4.79734769155318e-06,2.756955400751812e-06,4.4842433956119595e-06,4.3417785609638666e-06,1.0822418568595652e-06,2.711277354835556e-06,5.326231236448608e-06,2.84763883815521e-05,1.1591725713533997e-06,2.3499847903965347e-06
26,1.695224841530781e-06,1.98455364730228e-06,1.8317118054600741e-06,1.473581125747349e-06,9.031975091999587e-06,1.2162899940957008e-05,4.976832697932355e-06,2.748879403985931e-06,4.406168502647226e-06,4.080032197095186e-06,1.095947914953937e-06,2.7389110200002786e-06,5.208243042382287e-06,2.8118930766008403e-05,1.165005072210634e-06,2.381564384785153e-06
27,1.6389099997654896e-06,1.982405803840432e-06,1.8257152185871962e-06,1.4353667805387683e-06,9.343278635972883e-06,1.2451173455049885e-05,5.145319767365695e-06,2.7369335142325476e-06,4.315851710752655e-06,3.872686855607477e-06,1.1090763279927636e-06,2.7635714115449343e-06,5.09994795225405e-06,2.7850955799084775e-05,1.1705248709541052e-06,2.414311266184624e-06
28,1.583699704400437e-06,1.972749084372994e-06,1.8182267842519955e-06,1.4001393457218106e-06,9.62183039548274e-06,1.2673211097932595e-05,5.302489067872682e-06,2.7211501920810433e-06,4.218057543196283e-06,3.726682773551541e-06,1.1217228723000114e-06,2.78380902308625e-06,5.004555635850497e-06,2.7695023633734386e-05,1.1753071256951935e-06,2.447205929664994e-06
29,1.5308534533013862e-06,1.9567191389889178e-06,1.8102109788855412e-06,1.3680808550411164e-06,9.866775115904523e-06,1.2830631864570221e-05,5.4476201246864295e-06,2.7013565633878443e-06,4.118108307102708e-06,3.648439380635952e-06,1.1339921745816777e-06,2.7983859857122226e-06,4.924573166670071e-06,2.76696356713018e-05,1.1789481090816552e-06,2.4788910761858635e-06
30,1.4812731559998263e-06,1.9352952900430432e-06,1.8023606596452348e-06,1.3391215216867727e-06,1.0079264188224399e-05,1.2926810942188285e-05,5.579580707412526e-06,2.6774049910666873e-06,4.021016536026546e-06,3.6442852746509644e-06,1.1459993792677557e-06,2.8061833940338775e-06,4.861659987700255e-06,2.778793040434304e-05,1.1811789584841671e-06,2.5078211922961834e-06
31,1.4355507125516577e-06,1.909108671089479e-06,1.7950273774235932e-06,1.3129447508691306e-06,1.0261792673225356e-05,1.2965141998004435e-05,5.697287966526088e-06,2.6493746237439735e-06,3.93105087853693e-06,3.720762261351664e-06,1.1578499308707844e-06,2.8061359170572606e-06,4.8168928203267305e-06,2.8057455957673215e-05,1.1820371659458168e-06,2.5325132027791506e-06
32,1.3940186199838123e-06,1.8784569234390074e-06,1.7882092650487772e-06,1.2890154797590726e-06,1.0416946124586533e-05,1.294825849999049e-05,5.800271527433546e-06,2.6175718286698925e-06,3.8516490123142e-06,3.884609425651531e-06,1.1695922381939036e-06,2.7973507469199823e-06,4.791410695361765e-06,2.848055934956499e-05,1.1818896490900236e-06,2.5517687712748323e-06
33,1.3568563978344763e-06,1.843529657676887e-06,1.7815604285902376e-06,1.2667228294373472e-06,1.0546224945247368e-05,1.2878907086700692e-05,5.889018908370325e-06,2.582351627260117e-06,3.7854005686058163e-06,4.1425015544880605e-06,1.181201052828912e-06,2.7793611801719704e-06,4.787132163227296e-06,2.905473073708514e-05,1.1812306925266342e-06,2.564766047593095e-06
34,1.3242924860627556e-06,1.8047445663390727e-06,1.7744254824442826e-06,1.2456056524383948e-06,1.0649663574221485e-05,1.2761420828686953e-05,5.965073900728314e-06,2.543969021570746e-06,3.7340220020036987e-06,4.500734459195883e-06,1.19259496331504e-06,2.75234230902976e-06,4.807150556910961e-06,2.977258859627366e-05,1.1804669278365193e-06,2.5710486074599455e-06
35,1.2967611473159382e-06,1.7629441300021088e-06,1.7659347340822688e-06,1.2255237347226424e-06,1.0726260735189729e-05,1.2602554100059586e-05,6.03093121586324e-06,2.5025891037479186e-06,3.6983558728786697e-06,4.964927733477562e-06,1.2036408579452556e-06,2.7171587901498425e-06,4.855540352420023e-06,3.062178039179705e-05,1.179874219231666e-06,2.5704848296732596e-06
36,1.274851629563635e-06,1.7192905707876935e-06,1.7551747986556592e-06,1.2066876948075625e-06,1.0774758132420134e-05,1.2411474138093032e-05,6.089812488781687e-06,2.458355154225482e-06,3.678415389518368e-06,5.5398107936210975e-06,1.2141290265518246e-06,2.6752531959168096e-06,4.936680996831552e-06,3.158587419082466e-05,1.1796829789205232e-06,2.5632274863192012e-06
37,1.2591057286132372e-06,1.6749717587295608e-06,1.7413358174065303e-06,1.1895458184749582e-06,1.079440568823769e-05,1.2199217428678021e-05,6.145430758197183e-06,2.4113589021306524e-06,3.673434003964662e-06,6.229217259566789e-06,1.2237682370574573e-06,2.6284515002550303e-06,5.0546049204702345e-06,3.264672707640088e-05,1.1801608889307992e-06,2.5497031043751477e-06
38,1.249846316261039e-06,1.6309450126119895e-06,1.723708127394855e-06,1.1745894603785045e-06,1.0785520949348378e-05,1.197790455386765e-05,6.201738516823471e-06,2.3616064493133738e-06,3.6819264953879122e-06,7.036229683325864e-06,1.2322678394571055e-06,2.5787302776167666e-06,5.212753733864608e-06,3.378715807173992e-05,1.1816371146751174e-06,2.530654329322433e-06
39,1.2471218659544436e-06,1.5878563364991619e-06,1.7016433360684521e-06,1.1622033952130032e-06,1.0749768431745574e-05,1.1759924948417214e-05,6.262614412088868e-06,2.309187273151836e-06,3.7018197875308497e-06,7.963221281061603e-06,1.2394694117033163e-06,2.5279684650183404e-06,5.413958358264826e-06,3.49924366689031e-05,1.1844850483124573e-06,2.5071685498646454e-06
40,1.250724843935142e-06,1.546143077076232e-06,1.6746822885309346e-06,1.152622040114369e-06,1.0690243189322219e-05,1.1557234229781312e-05,6.331564545318943e-06,2.2545429552029765e-06,3.730608140053524e-06,9.011661837649452e-06,1.245384621570165e-06,2.477725842553715e-06,5.660281445062502e-06,3.6250103856638994e-05,1.1890737756479286e-06,2.480596973016511e-06
41,1.260241882068079e-06,1.506213019935117e-06,1.6427752251495165e-06,1.1459171343718428e-06,1.0611460565577239e-05,1.1380853186402954e-05,6.411527761675827e-06,2.198543868694621e-06,3.7654790098013577e-06,1.0181796478630573e-05,1.2500817671779838e-06,2.429114410905831e-06,5.952735715517069e-06,3.754851534466793e-05,1.1956923372771203e-06,2.45235239863375e-06
42,1.2751289771351037e-06,1.468537759394044e-06,1.606411704578403e-06,1.1419717846316248e-06,1.0519188414701291e-05,1.124056087808e-05,6.504695291767927e-06,2.1423164365599634e-06,3.8034942414102577e-06,1.147236137171192e-05,1.2535494374139512e-06,2.3827936818495797e-06,6.2910755958254195e-06,3.8874662693910226e-05,1.2045088689656297e-06,2.423660503462567e-06
43,1.2947583852789498e-06,1.4335978499267536e-06,1.5665927863275286e-06,1.1404885319634313e-06,1.0419982033917096e-05,1.1144666040851839e-05,6.6122623411806584e-06,2.0869738454892564e-06,3.8419020063295935e-06,1.2880367281305223e-05,1.2556845405950183e-06,2.33905315154797e-06,6.673667550462821e-06,4.021187558569427e-05,1.2156041963181077e-06,2.3953848348068914e-06
44,1.3184038639522576e-06,1.4017628671299968e-06,1.5246281527355368e-06,1.1410988521242096e-06,1.0320437393483696e-05,1.1099768932284385e-05,6.734314203189758e-06,2.0333778715807776e-06,3.878525975695748e-06,1.4400862949347562e-05,1.2563760190936853e-06,2.2979316262729875e-06,7.097386145911712e-06,4.153927778782679e-05,1.2289979097612858e-06,2.3679819852231307e-06
45,1.3452751516226935e-06,1.3732059610301569e-06,1.4818584339011758e-06,1.1435887021654972e-06,1.0226341264701534e-05,1.111051319815449e-05,6.870042417729958e-06,1.9819964899827112e-06,3.912133519743888e-06,1.6026624223412793e-05,1.2555395650776875e-06,2.2593266971700566e-06,7.5576247002576425e-06,4.283557174412392e-05,1.2446178487063415e-06,2.3415084534309327e-06
46,1.374702372405966e-06,1.3479155017272892e-06,1.4395073240173634e-06,1.1481076139546886e-06,1.0141947091686528e-05,1.1179381807371729e-05,7.018124888724453e-06,1.9329081223472803e-06,3.942652413162952e-06,1.7747747192532766e-05,1.2530376864962163e-06,2.2230365342944366e-06,8.04848758537714e-06,4.4086540840239704e-05,1.262310694211314e-06,2.315624938754086e-06
47,1.4063645079107212e-06,1.3258013819855005e-06,1.3987013552675946e-06,1.1551743541884427e-06,1.0069676807558858e-05,1.1306758141199127e-05,7.176998516103367e-06,1.8859720704611598e-06,3.971009628745748e-06,1.955115124574178e-05,1.2485722803845426e-06,2.1887012436651062e-06,8.56296692631584e-06,4.529140365355604e-05,1.2819465177389348e-06,2.289685695711994e-06
48,1.4403544629462866e-06,1.306776027497164e-06,1.3604909399966355e-06,1.1654912794759102e-06,1.001042868847324e-05,1.1491370934917807e-05,7.3449413966895174e-06,1.8411039405072067e-06,3.998557474611319e-06,2.142034053678998e-05,1.2417014193590688e-06,2.1557132526964976e-06,9.092867635528233e-06,4.646326537823334e-05,1.3035059612096396e-06,2.2629875684916603e-06
49,1.4770246794341783e-06,1.2907252246285632e-06,1.3257813456024457e-06,1.179779349335846e-06,9.964222534822743e-06,1.17306421954388e-05,7.520040105760283e-06,1.7985225535640329e-06,4.026556800656023e-06,2.3335932004785352e-05,1.2320365265932222e-06,2.1232840339006684e-06,9.628756314161345e-06,4.7623085723865975e-05,1.3270472847267197e-06,2.2350753241292156e-06
50,1.5167995403252107e-06,1.277448633451546e-06,1.2952477844257584e-06,1.1987269629748011e-06,9.9306815616629e-06,1.2020466743590482e-05,7.700150620610506e-06,1.7588312185784604e-06,4.05604981796317e-06,2.527666237517542e-05,1.219473055354152e-06,2.0907492565909394e-06,1.0160468373765624e-05,4.879133447513652e-05,1.3525955409278483e-06,2.2058823590747917e-06
51,1.560101872508066e-06,1.266651498981526e-06,1.2692998659004836e-06,1.222945818927942e-06,9.909095931494405e-06,1.2354868651121708e-05,7.882854376050016e-06,1.7228777031032918e-06,4.0878259638009555e-06,2.7219817963756974e-05,1.2042269017577812e-06,2.057860982714313e-06,1.0678092216704586e-05,4.9983553340358775e-05,1.3800818389420846e-06,2.175590071323538e-06
52,1.6073119020874022e-06,1.2579638700846943e-06,1.248097917709594e-06,1.2528970384172285e-06,9.89817111836343e-06,1.2726148611794984e-05,8.065366483823266e-06,1.6914884520885705e-06,4.1223692766752e-06,2.9140628507285688e-05,1.186674054641903e-06,2.0247650056080346e-06,1.1172774821587149e-05,5.121226543994971e-05,1.409382145000934e-06,2.144368062987931e-06
53,1.658744454091671e-06,1.2509719293122156e-06,1.2316278761722968e-06,1.288844224184931e-06,9.895744613146303e-06,1.312522420134801e-05,8.24449838104125e-06,1.6652664137126598e-06,4.160046326029654e-06,3.10113883881113e-05,1.1672164785949094e-06,1.9917825167943045e-06,1.1636933239320793e-05,5.249141619586751e-05,1.440346145130216e-06,2.112293477201616e-06
54,1.7147375090065826e-06,1.24527059801508e-06,1.2198186824213478e-06,1.3308422580884862e-06,9.89868025054145e-06,1.3541517417282332e-05,8.41682755498569e-06,1.6445732440275756e-06,4.201409439799026e-06,3.280158099737479e-05,1.1462717218349648e-06,1.9593251079177087e-06,1.206403480424037e-05,5.383850733776844e-05,1.4727440732927371e-06,2.07947209465597e-06
55,1.7757562920918426e-06,1.2404983832068499e-06,1.212650359307839e-06,1.3787394264383604e-06,9.90297075038081e-06,1.3962485190921424e-05,8.579072907406712e-06,1.6296816631167134e-06,4.247282662662444e-06,3.447985095571939e-05,1.1242883922823413e-06,1.927931210564202e-06,1.2448333345938443e-05,5.5273290193211675e-05,1.506218937809353e-06,2.0460933673953704e-06
56,1.8423576695278413e-06,1.2363680756460158e-06,1.2102183620965198e-06,1.4321576982426598e-06,9.904028452841478e-06,1.4373719394383204e-05,8.728538957173663e-06,1.6209778055464352e-06,4.298642436595215e-06,3.601722223484823e-05,1.1017291373670072e-06,1.8981941470179395e-06,1.2784751634946617e-05,5.681448471285078e-05,1.540294486536903e-06,2.0123228657755137e-06
57,1.915093443012362e-06,1.232759710573602e-06,1.2127234855583607e-06,1.49044761066625e-06,9.897148772089002e-06,1.4760215637178054e-05,8.863380125837026e-06,1.6190595940340923e-06,4.356523760890737e-06,3.738917492392425e-05,1.0790373750540582e-06,1.8705729684948275e-06,1.3068741763776356e-05,5.8475916279771876e-05,1.5743614233332086e-06,1.978183893023345e-06
58,1.994516072372227e-06,1.2297788576087657e-06,1.220380010295266e-06,1.552676223959519e-06,9.878036711285803e-06,1.510810260267218e-05,8.982357463999283e-06,1.6246692060015795e-06,4.422025036728111e-06,3.857430878098207e-05,1.0565849423935207e-06,1.8452661624512776e-06,1.329583347738421e-05,6.02632779625951e-05,1.6076152149212163e-06,1.9435380110511308e-06
59,2.0812145130322217e-06,1.2276442009839896e-06,1.233316818851249e-06,1.6176937590132788e-06,9.843237091570718e-06,1.5405806295397564e-05,9.084027615176437e-06,1.6385258743256593e-06,4.496255621738145e-06,3.955089471217102e-05,1.0346443831799771e-06,1.8222530016700575e-06,1.3461341551271849e-05,6.21737540509531e-05,1.6390751014002255e-06,1.908178411358425e-06
60,2.1757029257358723e-06,1.226516356672369e-06,1.2515320645064199e-06,1.6842738575214147e-06,9.790382900449202e-06,1.5644624010990176e-05,9.165856518079318e-06,1.6611602359486336e-06,4.580241028689616e-06,4.0296663785968616e-05,1.0134578906413679e-06,1.8014575089620133e-06,1.3561389995405786e-05,6.419951688973257e-05,1.6677886777117633e-06,1.871988808165024e-06
61,2.2782203814294467e-06,1.2264766991117538e-06,1.2748935734170925e-06,1.7512762492787454e-06,9.718167022155356e-06,1.581909711028967e-05,9.223946377917952e-06,1.6928186579279832e-06,4.675060847357824e-06,4.0795008391640706e-05,9.933394673356233e-07,1.7829037694231615e-06,1.3595111618325042e-05,6.633235939220408e-05,1.693129215649733e-06,1.835069854904929e-06
62,2.388612080648908e-06,1.2276586146788665e-06,1.3031610845391745e-06,1.8177431723957828e-06,9.62582425419335e-06,1.5926818022953455e-05,9.253608916673312e-06,1.7334659538501401e-06,4.7821453469784885e-06,4.104339484651158e-05,9.74706846728393e-07,1.766737722520692e-06,1.3566214471384552e-05,6.856601483150266e-05,1.7150191919985984e-06,1.797767703017527e-06
63,2.5062928435766457e-06,1.2303283030500615e-06,1.3359754330422548e-06,1.8828837616574838e-06,9.512223126371413e-06,1.596710028236517e-05,9.25046714080917e-06,1.7828812755704662e-06,4.903295088004333e-06,4.105689358410369e-05,9.580575526702177e-07,1.7531031060878761e-06,1.3482776039539068e-05,7.089531818466475e-05,1.7339786604280256e-06,1.7606286311680947e-06
64,2.630210743376602e-06,1.234800766505577e-06,1.3728195025836832e-06,1.946035018974106e-06,9.375456147839267e-06,1.5939392040183626e-05,9.211622192372643e-06,1.8408215967042626e-06,5.040371874744026e-06,4.0863801671327905e-05,9.439174034717914e-07,1.7419974031895656e-06,1.3355741067364939e-05,7.331291633497396e-05,1.7509615128941769e-06,1.7243560362950209e-06
65,2.758799413949952e-06,1.2413390430260127e-06,1.4130685019118954e-06,2.0067243970761687e-06,9.213608863729027e-06,1.5843199254322752e-05,9.13647155284954e-06,1.9071916795508644e-06,5.194994252454617e-06,4.049660713214347e-05,9.327607410177846e-07,1.733267527166865e-06,1.3197028249049834e-05,7.580444901167305e-05,1.7670738642943025e-06,1.6897742577580644e-06
66,2.889930688331552e-06,1.2501830168855824e-06,1.4561461018961168e-06,2.064763243050024e-06,9.026072905267025e-06,1.5679598865054785e-05,9.026874647362217e-06,1.98212504225646e-06,5.368344092745076e-06,3.998540044148001e-05,9.249394965548411e-07,1.7267324153635737e-06,1.3017848892590847e-05,7.834431156761602e-05,1.783383199779648e-06,1.6577427115454116e-06
67,3.020898626709343e-06,1.261609627051716e-06,1.5016183753013417e-06,2.1201791511600133e-06,8.814450633462499e-06,1.545276704609436e-05,8.886684014908458e-06,2.0659361825904397e-06,5.5610378608306356e-06,3.9357194065806945e-05,9.206545548715118e-07,1.722225359973395e-06,1.2827555235739838e-05,8.089505809552595e-05,1.8008627845139634e-06,1.6290332293934018e-06
68,3.148531640628989e-06,1.2758826764391832e-06,1.5491542788864277e-06,2.1730449329467877e-06,8.582872072155757e-06,1.5170565838160844e-05,8.720953840810963e-06,2.159007934799215e-06,5.773235835644673e-06,3.863762517024122e-05,9.19964802044823e-07,1.7194697555845382e-06,1.2633079130017593e-05,8.341128964660961e-05,1.8203147860556524e-06,1.6042145733093892e-06
69,3.2694950004028153e-06,1.2931503128096071e-06,1.5985218557065189e-06,2.2234542818011738e-06,8.337868079692008e-06,1.484422681680152e-05,8.53505690040777e-06,2.2616972858559205e-06,6.005062250087597e-06,3.7851222327554317e-05,9.228098399489848e-07,1.7179479580974935e-06,1.2438972621099684e-05,8.58456907417973e-05,1.8422449338631621e-06,1.5835678080627116e-06
70,3.380711887104822e-06,1.313461955673041e-06,1.6496985497364553e-06,2.271666729549765e-06,8.08776976531578e-06,1.4487251089827877e-05,8.333822339580506e-06,2.3742786747587893e-06,6.257031581862121e-06,3.7020250229324045e-05,9.290214251562296e-07,1.716880344307717e-06,1.224808170702497e-05,8.815408434711673e-05,1.866808503237309e-06,1.567079893479583e-06
71,3.479746245742405e-06,1.3369379184221879e-06,1.702938188282662e-06,2.3182336010435785e-06,7.841628027354298e-06,1.4113682379790911e-05,8.121040112376649e-06,2.4968855025641624e-06,6.530174651860251e-06,3.616330928249225e-05,9.383201991118318e-07,1.7152420672984134e-06,1.206244971986817e-05,9.029692370485595e-05,1.8938627024912537e-06,1.5545258302248512e-06
72,3.5649931565012956e-06,1.3638954761789784e-06,1.7587309210216589e-06,2.363959248155062e-06,7.608017987750543e-06,1.373625939431528e-05,7.899612478889839e-06,2.629436973307808e-06,6.825752562324531e-06,3.52943991980848e-05,9.503119332369793e-07,1.7117927689822176e-06,1.1883697208059606e-05,9.223564576867386e-05,1.9230721394001076e-06,1.545548028785807e-06
73,3.6355681325309092e-06,1.3947743363588951e-06,1.8177407316684469e-06,2.4096973433411033e-06,7.394272540679422e-06,1.336510836218585e-05,7.671975546790163e-06,2.771637897615437e-06,7.144635726365052e-06,3.4422783289390994e-05,9.645217767753787e-07,1.7052381146515934e-06,1.171268489179337e-05,9.3925458068631e-05,1.9540004189625592e-06,1.5396472733301653e-06
74,3.6909144863484367e-06,1.4300143178148588e-06,1.8807156259194959e-06,2.4562019790717017e-06,7.206235336998159e-06,1.3007240702799109e-05,7.440231357965736e-06,2.923127998639713e-06,7.48672172215358e-06,3.355345321134648e-05,9.804898355348743e-07,1.6945154045737083e-06,1.1549035898621263e-05,9.53109847502074e-05,1.9861356572947306e-06,1.5361070954272369e-06
75,3.7304012890975767e-06,1.4700817321815521e-06,1.948356070419647e-06,2.5041970430593898e-06,7.048202176029347e-06,1.2666586833571107e-05,7.205989080107852e-06,3.0836530093298125e-06,7.85068319364036e-06,3.268745163174851e-05,9.978663822497824e-07,1.6789903520209118e-06,1.1391051659861576e-05,9.633119312971484e-05,2.0188471828301654e-06,1.5339386141212989e-06
76,3.753249843282883e-06,1.515544647464071e-06,2.0212525783219934e-06,2.5544432296983254e-06,6.922946002587489e-06,1.2344161530160957e-05,6.970253075132386e-06,3.2530157953559646e-06,8.23388152458807e-06,3.182159852856827e-05,1.0164327092302685e-06,1.658461003647743e-06,1.1235991496745983e-05,9.693219126510362e-05,2.0513246655603734e-06,1.5319439233164704e-06
77,3.7587777828034353e-06,1.5670216773903026e-06,2.0999244991232704e-06,2.607595008504964e-06,6.8319823298179794e-06,1.2038204045361345e-05,6.7335062441066975e-06,3.430799921501631e-06,8.632311516225177e-06,3.094881420730205e-05,1.0360520696541398e-06,1.6330713628820666e-06,1.1080461401188895e-05,9.707954605294601e-05,2.082547224696208e-06,1.5289308808978264e-06
78,3.7466883447300854e-06,1.6250295669839463e-06,2.184817989117038e-06,2.6640144655701994e-06,6.775976933517637e-06,1.1744583034378163e-05,6.495899942913525e-06,3.616186589284997e-06,9.040816592869961e-06,3.006069940052803e-05,1.056590477157269e-06,1.603186036896843e-06,1.0920861303237396e-05,9.676160600050316e-05,2.1112825621392824e-06,1.5239386839328598e-06
79,3.7172551027930803e-06,1.6898515035049768e-06,2.276189710979635e-06,2.7237002087436638e-06,6.754935069174776e-06,1.1457890361435735e-05,6.2574753584680225e-06,3.8081122449242993e-06,9.453694921894972e-06,2.9151214421924324e-05,1.0778261834374738e-06,1.5692317367614353e-06,1.0753919859638874e-05,9.598129441565244e-05,2.1361373576265245e-06,1.5162746936353882e-06
80,3.6713854791219084e-06,1.7614930787748923e-06,2.373974059397277e-06,2.786275568548725e-06,6.768169547796679e-06,1.1173129140090854e-05,6.018436459448248e-06,4.005610389764626e-06,9.865348060097003e-06,2.821804759774223e-05,1.099377428635992e-06,1.531592941244834e-06,1.057723570471331e-05,9.474519183785749e-05,2.155682454748236e-06,1.5054032059409205e-06
81,3.610586707193482e-06,1.8397248464997836e-06,2.47771953102129e-06,2.8510141750320494e-06,6.814466266036342e-06,1.0887360256133753e-05,5.7794398627013865e-06,4.207999940961343e-06,1.027056302338808e-05,2.7260492498859176e-05,1.120717538859208e-06,1.4906117477923044e-06,1.0389715842078205e-05,9.306260801064431e-05,2.168551945009033e-06,1.4909554610573226e-06
82,3.5369195494088734e-06,1.9241589472102475e-06,2.586588569215398e-06,2.9168733393448618e-06,6.892485204826311e-06,1.0600674721408865e-05,5.5417319767708624e-06,4.414798467850581e-06,1.0664478969657323e-05,2.6276618635130855e-05,1.141299657120784e-06,1.446713173562975e-06,1.0191665678558968e-05,9.095412252807309e-05,2.1734800430073706e-06,1.4729270643340393e-06
83,3.4529905167859023e-06,2.0142760677021438e-06,2.6994488041381777e-06,2.9824548749293127e-06,7.000938365542788e-06,1.0316193245579274e-05,5.306947271965031e-06,4.625550632148989e-06,1.1042626726440009e-05,2.526287034131907e-05,1.1607085618956636e-06,1.4006106967383578e-06,9.984178684383836e-06,8.845784958187234e-05,2.169459345739125e-06,1.4517868033176398e-06
84,3.3619068174506673e-06,2.1093700048688183e-06,2.8150757248529334e-06,3.0460233733552e-06,7.138379191789865e-06,1.003908695058442e-05,5.076602216732342e-06,4.8397861687434514e-06,1.1401216226879891e-05,2.4216283666893943e-05,1.1787401133176812e-06,1.3533629674523987e-06,9.768107663223865e-06,8.56273705738133e-05,2.1560365856253757e-06,1.4283205892659868e-06
85,3.26707176579303e-06,2.2084846343222283e-06,2.9323498126175833e-06,3.1057592181850687e-06,7.3028859993728424e-06,9.775010553046991e-06,4.8516744386001985e-06,5.057050885332817e-06,1.1737439029419117e-05,2.313779616901844e-05,1.1953684622595874e-06,1.3061869945922036e-06,9.543626291926365e-06,8.2524806917057e-05,2.1334644045210596e-06,1.403362379238172e-06
86,3.1718131201541863e-06,2.3104345295367886e-06,3.0503590405041105e-06,3.1600791584490656e-06,7.4918159456140766e-06,9.528889593799731e-06,4.632681799890747e-06,5.2768226452954475e-06,1.2049500751288318e-05,2.203475912881869e-05,1.210621341156882e-06,1.2602474209420206e-06,9.31072414032992e-06,7.921411635927251e-05,2.1025307401638406e-06,1.3776116166589103e-06
87,3.0790124337565704e-06,2.4139034724011207e-06,3.1684412759348994e-06,3.2077355321576116e-06,7.701542725258477e-06,9.304695097670047e-06,4.420219731261694e-06,5.498248606169314e-06,1.2336419339562308e-05,2.092066457353203e-05,1.2244481429232911e-06,1.216575064260629e-06,9.06986845676262e-06,7.575583410206075e-05,2.0641673949062306e-06,1.3515989467135783e-06
88,2.9908988628551517e-06,2.5175252508187636e-06,3.2861044605784357e-06,3.247695885533511e-06,7.92715721891053e-06,9.105630202501187e-06,4.215539145135928e-06,5.719802068008545e-06,1.259786283313637e-05,1.981189175650324e-05,1.2367011176072274e-06,1.1760449147524436e-06,8.822273058579021e-06,7.220244505572374e-05,2.0191223123682657e-06,1.325764729988293e-06
89,2.9090350754406302e-06,2.6198502175134373e-06,3.4027475036206982e-06,3.2790433874346467e-06,8.162327838617299e-06,8.933956515021935e-06,4.0208074036838135e-06,5.939136960966861e-06,1.2834122792635358e-05,1.8723731548743925e-05,1.247272686697904e-06,1.139386417032863e-06,8.56987734278701e-06,6.859667371008555e-05,1.9679443321063214e-06,1.3005404755553288e-06
90,2.8345015375624063e-06,2.719248763681629e-06,3.5174059638319042e-06,3.3010830861254603e-06,8.399571474584411e-06,8.790776296701093e-06,3.838990668218576e-06,6.153415250600611e-06,1.3045969901982851e-05,1.7668043034896834e-05,1.2562779377624873e-06,1.1072602417126436e-06,8.315140094745564e-06,6.497479355839347e-05,1.911251291645598e-06,1.2763362413795343e-06
91,2.7682095856584537e-06,2.813981764200446e-06,3.628780963887661e-06,3.313598866241061e-06,8.631030152153062e-06,8.676362303903519e-06,3.673538946091528e-06,6.359999556577724e-06,1.3234135591935973e-05,1.6652903303599396e-05,1.2641229845023238e-06,1.0803069045792487e-06,8.060617535678463e-06,6.13706451202046e-05,1.850028134939974e-06,1.2534684760014551e-06
92,2.71108685414988e-06,2.9025535246709402e-06,3.735469739279557e-06,3.3170209128579307e-06,8.849518407887201e-06,8.59068509905946e-06,3.52807032613714e-06,6.557054978278793e-06,1.339850259011157e-05,1.568323700390835e-05,1.2714123536323711e-06,1.0590776740816259e-06,7.80840118600674e-06,5.781522972206656e-05,1.7857183243160808e-06,1.232142377555007e-06
93,2.6640203013840812e-06,2.9841478337722557e-06,3.836237487156164e-06,3.312319468797959e-06,9.049358518475232e-06,8.53342210181033e-06,3.406108528113075e-06,6.743689456590486e-06,1.3537260663130484e-05,1.4761774857022847e-05,1.2787812338909581e-06,1.0439394760746462e-06,7.559680126356159e-06,5.433278436574411e-05,1.7200419792109158e-06,1.2125107318340247e-06
94,2.627776831974619e-06,3.0588727554113755e-06,3.930287524278679e-06,3.3006490614499822e-06,9.226703432284655e-06,8.503414339446101e-06,3.3108398786017286e-06,6.919659186355072e-06,1.364632307267977e-05,1.3890316693402628e-05,1.286775726656566e-06,1.0350695147455603e-06,7.314789097320529e-06,5.09374114237165e-05,1.6546779183834173e-06,1.1947108261489716e-06
95,2.603001164991929e-06,3.127715199229019e-06,4.0174212064424e-06,3.282955113454675e-06,9.379425220448106e-06,8.498141948645921e-06,3.2449044131615257e-06,7.084987734309153e-06,1.3719533520807974e-05,1.3071124998052066e-05,1.295806504782993e-06,1.0325193985010748e-06,7.073833429625429e-06,4.7633092132566614e-05,1.591031897313957e-06,1.178834168478942e-06
96,2.590154071301377e-06,3.1922567566074566e-06,4.097951555190861e-06,3.259848758216404e-06,9.506678419167506e-06,8.513738728109921e-06,3.210329763871403e-06,7.239791855496837e-06,1.3749986313095087e-05,1.230782186262453e-05,1.3061049636166512e-06,1.0362616662418944e-06,6.837376784790744e-06,4.441731722224104e-05,1.5301871481190168e-06,1.164886711034461e-06
97,2.5895033750938606e-06,3.254252821638883e-06,4.172439401566805e-06,3.231854137153355e-06,9.60809557291058e-06,8.545614814416671e-06,3.20865771737838e-06,7.384296149489963e-06,1.3731853752152351e-05,1.1605209368974177e-05,1.317666099948184e-06,1.0462074504533434e-06,6.606495819210833e-06,4.1286352867456166e-05,1.4729549805345367e-06,1.152793752482721e-06
98,2.6013606385014295e-06,3.3152135971261343e-06,4.2415015841333854e-06,3.1997450865479786e-06,9.682930255623666e-06,8.589427900538756e-06,3.2410900240223833e-06,7.518813069049622e-06,1.366168618080062e-05,1.0968202240913299e-05,1.3302245928766463e-06,1.0622562548073765e-06,6.382240309673741e-06,3.823959614173084e-05,1.4199120043112697e-06,1.1424584260732413e-06
99,2.626320742155543e-06,3.3761587982187003e-06,4.3058395715085315e-06,3.1646601716978908e-06,9.729960480595373e-06,8.642143920705099e-06,3.308460897609828e-06,7.64352324148089e-06,1.3538745783107617e-05,1.0400685992532207e-05,1.3432891395126108e-06,1.084363830956296e-06,6.165261536417772e-06,3.528090881370065e-05,1.3714076004879877e-06,1.1338056899877747e-06
100,2.665165933032905e-06,3.4376109868133115e-06,4.366371916157195e-06,3.1279836362820098e-06,9.748405183913716e-06,8.7029314647065e-06,3.411130374741527e-06,7.758096688394656e-06,1.3364674416949139e-05,9.904828964944276e-06,1.3562377246159006e-06,1.1125561966978637e-06,5.955992510615374e-06,3.241661752211369e-05,1.327592101070274e-06,1.1267355604157561e-06
101,2.7185300361053967e-06,3.4996695051256675e-06,4.424216496734974e-06,3.0911518882515494e-06,9.739056100083103e-06,8.773480515866006e-06,3.548944652558522e-06,7.861312605474926e-06,1.3143044992215023e-05,9.48080654388096e-06,1.3684570550081847e-06,1.1468960874054606e-06,5.754906415263706e-06,2.9653874172880807e-05,1.2884633063655137e-06,1.121042620578116e-06
102,2.7866739312276358e-06,3.561958212974197e-06,4.48040935509161e-06,3.0555246855921653e-06,9.704785801690203e-06,8.857383679851813e-06,3.721192670141513e-06,7.950753156442964e-06,1.2879177859493917e-05,9.12680677979468e-06,1.3794769271843452e-06,1.1874305812336192e-06,5.5623342691679495e-06,2.700271247920803e-05,1.2538987338818245e-06,1.1163983663206448e-06
103,2.869511378092139e-06,3.6234507461865454e-06,4.5355700207774106e-06,3.022372461241064e-06,9.6502275643319e-06,8.958751565277245e-06,3.926557122392881e-06,8.022569886575934e-06,1.2580239033132323e-05,8.839383007113436e-06,1.3890283023057811e-06,1.2341143221099525e-06,5.377998627179534e-06,2.447861123722977e-05,1.2236804223112924e-06,1.1124290228514392e-06
104,2.9667069120867023e-06,3.6823757127045977e-06,4.5898069815903755e-06,2.9929561415089618e-06,9.58083689021231e-06,9.080832095829344e-06,4.163129251851958e-06,8.071497523579062e-06,1.2255245281778216e-05,8.614455268314517e-06,1.3970099660486507e-06,1.2867563191262142e-06,5.200801534589974e-06,2.210108563735437e-05,1.197490467893643e-06,1.1088769635920183e-06
105,3.0776605491383913e-06,3.736405716905402e-06,4.64281811226416e-06,2.9686507923601375e-06,9.50175528284497e-06,9.22530124448084e-06,4.428390184840314e-06,8.091443903013474e-06,1.1914535426139845e-05,8.448913036799387e-06,1.4034123861200104e-06,1.3450560567885325e-06,5.029122080527308e-06,1.988952786206593e-05,1.1748685029072414e-06,1.1057219913591855e-06
106,3.2014136061158355e-06,3.783135339856047e-06,4.693939253214308e-06,2.9510434145381695e-06,9.416949767890829e-06,9.392200736413527e-06,4.719188981086356e-06,8.07667348789505e-06,1.1568706487280046e-05,8.341650747417829e-06,1.4082117418076242e-06,1.408674539506052e-06,4.861424731902623e-06,1.7860134890278223e-05,1.1552178849595876e-06,1.1031325773290126e-06
107,3.3365881279997413e-06,3.820567436089416e-06,4.74211265527509e-06,2.941911829490756e-06,9.32889795590344e-06,9.580065328651193e-06,5.0318906747279595e-06,8.023095409628683e-06,1.1227436355350698e-05,8.293018252526845e-06,1.4112741361861424e-06,1.4772470642682658e-06,4.696795708637307e-06,1.602520396313166e-05,1.1379285925848323e-06,1.101323412300482e-06
108,3.481362158150116e-06,3.847298413991776e-06,4.785885242698959e-06,2.9430507684495746e-06,9.238773086002631e-06,9.785919453209348e-06,5.362605403253654e-06,7.929073134254068e-06,1.0898576750033411e-05,8.30351460328761e-06,1.412354309685203e-06,1.5504092230312493e-06,4.535110917195171e-06,1.4393549192351205e-05,1.122571819107557e-06,1.1004661325074651e-06
109,3.633409417604458e-06,3.862417283682535e-06,4.823461116324213e-06,2.9560307890530564e-06,9.146917033673604e-06,1.0005337062380543e-05,5.707306207095852e-06,7.795542211834085e-06,1.0587725619654954e-05,8.373099192763637e-06,1.4111556353684503e-06,1.6279226793437396e-06,4.376854424178173e-06,1.2970923312576007e-05,1.109026765649184e-06,1.1006461432384013e-06
110,3.7898045568424472e-06,3.865370950849146e-06,4.852847493027891e-06,2.982013488731786e-06,9.053432127322652e-06,1.0233090435367796e-05,6.061825055349135e-06,7.625622889007946e-06,1.029838448731632e-05,8.50116744823041e-06,1.407354603665413e-06,1.709759778457059e-06,4.222896787864719e-06,1.1760419055001307e-05,1.0974122901993335e-06,1.101812092990247e-06
111,3.947030220367622e-06,3.855945245399862e-06,4.872163277195151e-06,3.02167754452858e-06,8.958753161185433e-06,1.0464381033363202e-05,6.421702578571029e-06,7.42402417774879e-06,1.0032442902064772e-05,8.686624386295315e-06,1.4005693676135034e-06,1.796014919729885e-06,4.074362653700896e-06,1.0763037224555573e-05,1.087883468172194e-06,1.1037814371698354e-06
112,4.101221705813492e-06,3.834323932102756e-06,4.880030663072775e-06,3.075227433335305e-06,8.863972007423568e-06,1.0695818085485573e-05,6.781848737510529e-06,7.196396025185921e-06,9.790437249167387e-06,8.927991463420523e-06,1.3903252700097462e-06,1.886727781858326e-06,3.93238960296825e-06,9.978298026050338e-06,1.0805082219490976e-06,1.1063630641631031e-06
113,4.248574243718524e-06,3.801151900814986e-06,4.8758730819118185e-06,3.142416752165174e-06,8.770707936127745e-06,1.0925418942865374e-05,7.136301051627182e-06,6.948608619932393e-06,9.571524270895033e-06,9.223647976075103e-06,1.376119091754179e-06,1.981736604025928e-06,3.7977556412552553e-06,9.404693523940323e-06,1.0753331528472048e-06,1.1095071248233407e-06
114,4.385697075454822e-06,3.7575560229746213e-06,4.860038435062937e-06,3.2225446787481462e-06,8.680528945743623e-06,1.1151765066832929e-05,7.47845686215854e-06,6.685983767551708e-06,9.373640795278706e-06,9.571988957040153e-06,1.3576240132601025e-06,2.0806458612668512e-06,3.6706858260851475e-06,9.03995601053186e-06,1.0725029881120836e-06,1.113337218193869e-06
115,4.509830279001538e-06,3.7050357275812313e-06,4.83374067694507e-06,3.314453208180411e-06,8.594170961764367e-06,1.1372876037935121e-05,7.801679861270464e-06,6.4127618262336736e-06,9.193964617236798e-06,9.971162257689523e-06,1.3349064751744735e-06,2.1829524505545874e-06,3.551019013039244e-06,8.881198929326593e-06,1.072248104363665e-06,1.1180387143137749e-06
116,4.618949255458373e-06,3.6451575819906876e-06,4.79880303348e-06,3.416554298494265e-06,8.51097394404139e-06,1.1585228280513223e-05,8.099882853109923e-06,6.13204142800923e-06,9.029383388695402e-06,1.0418373707221318e-05,1.3084581462168593e-06,2.2882234291600834e-06,3.4385554626338225e-06,8.924959817405384e-06,1.0747713797937075e-06,1.1237243151903886e-06
117,4.711663721287864e-06,3.5792075695870906e-06,4.757224971990209e-06,3.5268234196566256e-06,8.428803606329087e-06,1.1783335870145232e-05,8.367835883257924e-06,5.8460564927338464e-06,8.876840127002679e-06,1.0909142494676256e-05,1.2790051775845336e-06,2.3961894431904574e-06,3.3333091010898183e-06,9.167209068303599e-06,1.0801642345294239e-06,1.130402422575295e-06
118,4.78680323156418e-06,3.5080639739010004e-06,4.710694047293712e-06,3.6427113162265227e-06,8.344285757979667e-06,1.1960139676820173e-05,8.601181537710175e-06,5.5565398961377605e-06,8.733603679340128e-06,1.1436865413588717e-05,1.2472875824239291e-06,2.506751522291885e-06,3.2355823597339554e-06,9.60332167500322e-06,1.0883582995571364e-06,1.1380336541488305e-06
119,4.842908531748658e-06,3.4323140602331788e-06,4.660270370084221e-06,3.7611227313725173e-06,8.25304714877468e-06,1.2107846773248014e-05,8.796342550892e-06,5.2650228293343435e-06,8.597531236311504e-06,1.1992797987209756e-05,1.2140091891814568e-06,2.619935120279808e-06,3.1459504444725972e-06,1.0227853129358535e-05,1.0990990926578853e-06,1.1465812125763913e-06
120,4.878119408843134e-06,3.3524462732914652e-06,4.606452288635427e-06,3.878643979186116e-06,8.149942546843515e-06,1.2218716707505026e-05,8.950556012703685e-06,4.972979133423339e-06,8.46739856941993e-06,1.2566448281391496e-05,1.179916589527509e-06,2.735779982660143e-06,3.0651892960557297e-06,1.1034045706744135e-05,1.1119830300963385e-06,1.156036252717185e-06
121,4.890675616975017e-06,3.2690403847197526e-06,4.549562872994481e-06,3.991972516227406e-06,8.029519633997836e-06,1.2285809768416406e-05,9.062057243177352e-06,4.681854859133824e-06,8.343248697514845e-06,1.3146147401594424e-05,1.14581815205819e-06,2.854190992374555e-06,2.9940923043780696e-06,1.2013317859582845e-05,1.1265632752953888e-06,1.166464465296303e-06
122,4.879701083226391e-06,3.1829193562778767e-06,4.490143880867757e-06,4.098376147787804e-06,7.886964736677238e-06,1.2304035846621877e-05,9.130175655315748e-06,4.393114094015306e-06,8.226461706170252e-06,1.3719299987383967e-05,1.1124919642445933e-06,2.9748260316759234e-06,2.933255216290617e-06,1.3155176204081684e-05,1.1424810271354405e-06,1.178038083390845e-06
123,4.845762349718976e-06,3.09515291118808e-06,4.429132895632263e-06,4.196043057178609e-06,7.71939603618438e-06,1.2271530795335274e-05,9.155072927298004e-06,4.108340543313547e-06,8.119224525253344e-06,1.4272078756221815e-05,1.0805891109051186e-06,3.0970154740782e-06,2.8830835820740505e-06,1.4447714179199534e-05,1.1595405545531784e-06,1.1909652955199451e-06
124,4.7909525266589335e-06,3.0068815965297794e-06,4.3678734846887065e-06,4.2841958432930995e-06,7.526872922128987e-06,1.2190738258665995e-05,9.137043205755143e-06,3.82933976778588e-06,8.023507556985133e-06,1.4788817769512275e-05,1.050593419328012e-06,3.219641281017117e-06,2.8440837168617093e-06,1.587835742518882e-05,1.1776677409525231e-06,1.2053649780685607e-06
125,4.7185884879864515e-06,2.919123378010979e-06,4.3081306746362035e-06,4.362858160113526e-06,7.312427299902253e-06,1.2068252517056177e-05,9.075701660355142e-06,3.558182339418338e-06,7.940117606629256e-06,1.5251752269256337e-05,1.0228188405005282e-06,3.340999507704535e-06,2.817119489850476e-06,1.7434315258618564e-05,1.196817105966038e-06,1.2211955067012968e-06
126,4.632744284790653e-06,2.832749974222859e-06,4.2521539599854e-06,4.432321994573407e-06,7.080986936291979e-06,1.1913121628712174e-05,8.969875969569816e-06,3.297113741888189e-06,7.868278183376794e-06,1.56420754998947e-05,9.97448448660155e-07,3.458715936828306e-06,2.8033283060200407e-06,1.910227540678613e-05,1.21691853029282e-06,1.238247414731364e-06
127,4.537773742644945e-06,2.748631039870443e-06,4.202612971374055e-06,4.492677717685777e-06,6.837831473750172e-06,1.1734691861623681e-05,8.818664350214196e-06,3.0482866300805445e-06,7.805720505152513e-06,1.5942592051051892e-05,9.746021689508495e-07,3.5697086526548072e-06,2.8037937829707707e-06,2.0867273264761864e-05,1.237859057141608e-06,1.2561633805659396e-06
128,4.437898147231204e-06,2.667794684822233e-06,4.162254450294197e-06,4.5438074175318195e-06,6.58753788773798e-06,1.154147138930555e-05,8.622954402920508e-06,2.8134517662165596e-06,7.74899685944368e-06,1.6140361890516873e-05,9.543561917469496e-07,3.6702051404512983e-06,2.819296166294698e-06,2.271154840012415e-05,1.2594802007899213e-06,1.2744480028121988e-06
129,4.3369152399038975e-06,2.591501540409961e-06,4.1334428115291555e-06,4.585783011829584e-06,6.333819297945922e-06,1.1341114562651136e-05,8.386300287706641e-06,2.5938653275811463e-06,7.693774870294215e-06,1.6227152881119808e-05,9.366944231040639e-07,3.7559459748423235e-06,2.850253642610062e-06,2.46143591818245e-05,1.281567189521099e-06,1.292466819453718e-06
130,4.2380277364868455e-06,2.5212276060420493e-06,4.117861087753488e-06,4.619280470552035e-06,6.0798446510796415e-06,1.1140639982919005e-05,8.114748376340406e-06,2.390463216349629e-06,7.635222948662484e-06,1.6198355315806244e-05,9.214657362244072e-07,3.822697617372467e-06,2.896749000105894e-06,2.6552281767260307e-05,1.3038048902962642e-06,1.3094601637099575e-06
131,4.143784998048485e-06,2.4585511121793687e-06,4.11640921308752e-06,4.6457830319418486e-06,5.828557286847217e-06,1.0946627999673992e-05,7.815985930201927e-06,2.2040494809722523e-06,7.5686856791241076e-06,1.6053553320369622e-05,9.084044679556237e-07,3.86696162564596e-06,2.9585770075637543e-06,2.8499184903172566e-05,1.3257773061937572e-06,1.3245705558258988e-06
132,4.056220097231307e-06,2.404939641190183e-06,4.129227287122884e-06,4.667562913813479e-06,5.582934199176707e-06,1.0765636567822986e-05,7.498523660784139e-06,2.0352964706163384e-06,7.490208927371726e-06,1.579860515934907e-05,8.97187980083996e-07,3.886596682610282e-06,3.03531002774334e-06,3.0427637015998512e-05,1.347054365978614e-06,1.3369563937433226e-06
133,3.977162797013977e-06,2.361515791828008e-06,4.155832038851894e-06,4.687444580018797e-06,5.346222243588716e-06,1.060459409132727e-05,7.171316666067195e-06,1.8846501771144923e-06,7.396325967776192e-06,1.5445295003200266e-05,8.874503613199805e-07,3.881120749111391e-06,3.1263347652129473e-06,3.23133631425208e-05,1.3672384715348178e-06,1.346056751498948e-06
134,3.908490598950308e-06,2.328907974802396e-06,4.195324056183972e-06,4.708346428210382e-06,5.1219826233953395e-06,1.0470616052005295e-05,6.84361227762663e-06,1.7523133155957721e-06,7.28367050279324e-06,1.5008196738438077e-05,8.78741763112352e-07,3.8515878416171964e-06,3.2307978895890758e-06,3.413895131304722e-05,1.385912990444853e-06,1.3518163441162723e-06
135,3.852132286607572e-06,2.307206236081544e-06,4.246614691145736e-06,4.732735878693688e-06,4.913782744290066e-06,1.0370177678371916e-05,6.524657911428378e-06,1.638313311192625e-06,7.149336384302103e-06,1.450202430917787e-05,8.705333135697257e-07,3.8000661670234192e-06,3.3475314634129777e-06,3.589214248778398e-05,1.402644884331541e-06,1.3546252344461888e-06
136,3.8098686764437843e-06,2.295981578905477e-06,4.308633238555728e-06,4.7622973933967895e-06,4.724724325699318e-06,1.0308265985695144e-05,6.223258283773719e-06,1.5425438763459672e-06,6.991646648018966e-06,1.3940236000013618e-05,8.623365289973029e-07,3.728918124644193e-06,3.4751189524964093e-06,3.7561436058917024e-05,1.4171419177295815e-06,1.3550496663867435e-06
137,3.783145404982041e-06,2.294347304346647e-06,4.380406164680384e-06,4.7979985510070016e-06,4.557179066684846e-06,1.0288112126186071e-05,5.947383849743363e-06,1.4647240176503599e-06,6.810627181106418e-06,1.3334101527586254e-05,8.538678428314635e-07,3.640278601832861e-06,3.6120108411035508e-06,3.91351501024395e-05,1.4294419382134132e-06,1.3536355294654976e-06
138,3.7730833836544082e-06,2.3010531097211473e-06,4.4608901899275475e-06,4.8404096921090685e-06,4.412817447300974e-06,1.0311434614273595e-05,5.703914544579333e-06,1.404362779430683e-06,6.608184026804678e-06,1.2692889530051834e-05,8.451158604999658e-07,3.5360500153081145e-06,3.7564344857446874e-06,4.060461028454918e-05,1.4399452834240004e-06,1.3508994617703501e-06
139,3.7805651776880343e-06,2.3145599913640743e-06,4.548621901389344e-06,4.889979396848776e-06,4.292749211075843e-06,1.0378822717561532e-05,5.498528623908659e-06,1.3608385820093819e-06,6.3879111430870374e-06,1.2025301278025342e-05,8.36250256331409e-07,3.418248377640404e-06,3.906167800855818e-06,4.19677743446167e-05,1.4492345754338174e-06,1.3473777037348548e-06
140,3.8061412028971587e-06,2.3330392754043526e-06,4.641480997234982e-06,4.947085385620021e-06,4.197645220598415e-06,1.0490137797102372e-05,5.335764999287191e-06,1.3335777915623537e-06,6.154329789547337e-06,1.1340530406502024e-05,8.274547808487308e-07,3.289220307373998e-06,4.0584726855651625e-06,4.323061559496734e-05,1.457831038150912e-06,1.3435826774752015e-06
141,3.849802415002727e-06,2.3543708128181337e-06,4.736779969546279e-06,5.011919857114575e-06,4.127807688596024e-06,1.0644819342215053e-05,5.219159155944744e-06,1.322232043310629e-06,5.912138994913209e-06,1.0647888676340566e-05,8.188135816206717e-07,3.151523021162211e-06,4.210413734776938e-06,4.440556661630185e-05,1.4661052867495784e-06,1.3398747460206159e-06
142,3.91088054861214e-06,2.3763005962299945e-06,4.831559830946804e-06,5.084416385798519e-06,4.083160983646014e-06,1.0841771038895764e-05,5.151277336246233e-06,1.326731088274882e-06,5.666190667785412e-06,9.956028456988421e-06,8.103184586849421e-07,3.00767885235847e-06,4.359569290031644e-06,4.550746466691623e-05,1.4743612428896504e-06,1.336355398632403e-06
143,3.988178038450071e-06,2.3967665877195296e-06,4.922921356285904e-06,5.164310891042922e-06,4.063144218619241e-06,1.1078923404375289e-05,5.1337016040302424e-06,1.3471540179498271e-06,5.421845828687503e-06,9.273030216939271e-06,8.019655681103039e-07,2.860075155192343e-06,4.504707076486269e-06,4.654850043929448e-05,1.4828981374655775e-06,1.3328608097471436e-06
144,4.080160974194837e-06,2.414218852600422e-06,5.008392749375623e-06,5.251217952783678e-06,4.066587611975775e-06,1.1353206631744248e-05,5.167110548833354e-06,1.3835230452358703e-06,5.184956050784581e-06,8.606852422906082e-06,7.938249919266849e-07,2.711059584784016e-06,4.645962261908334e-06,4.7534720085979345e-05,1.491953611588402e-06,1.3290775132285275e-06
145,4.1850068567758365e-06,2.427749551784987e-06,5.086303942448024e-06,5.344575571689203e-06,4.091730346383987e-06,1.1661199711591923e-05,5.251363636384345e-06,1.4356795855134248e-06,4.961360009158062e-06,7.965135186198442e-06,7.860236033732996e-07,2.563099516947139e-06,4.784529530202983e-06,4.846639962398323e-05,1.501670450072375e-06,1.3247071672442096e-06
146,4.30057700833363e-06,2.4369613642479394e-06,5.155997665566274e-06,5.443477445372301e-06,4.136398965561094e-06,1.1999783656916638e-05,5.385438461378043e-06,1.5033024947993463e-06,4.756309898643957e-06,7.354561163016095e-06,7.787256635616131e-07,2.4188539336697577e-06,4.92210971337769e-06,4.9341933602587214e-05,1.5121951054608376e-06,1.3195217008431861e-06
147,4.424564589409048e-06,2.4416828720764544e-06,5.217729328083455e-06,5.546577229915237e-06,4.198220825340619e-06,1.2366189036554774e-05,5.567267528986066e-06,1.5860060458019538e-06,4.574207035210132e-06,6.780494054867051e-06,7.721511759147494e-07,2.281125139843852e-06,5.060280571629158e-06,5.0161957072120086e-05,1.5237774112163325e-06,1.3132604540517343e-06
148,4.55483492869157e-06,2.441770167984815e-06,5.272285268335114e-06,5.6522100124054435e-06,4.274820296865171e-06,1.2757479407114604e-05,5.793638525170309e-06,1.683380887459741e-06,4.418632770485687e-06,6.247103995799591e-06,7.665650910476095e-07,2.1528113466133283e-06,5.199923998218158e-06,5.0930486944786815e-05,1.5367171283457094e-06,1.3055131398126467e-06
149,4.689680411819018e-06,2.4371330382490752e-06,5.320519829834481e-06,5.7586274139676365e-06,4.364017146942249e-06,1.3169863519443239e-05,6.060224544415185e-06,1.7949106640129944e-06,4.29247176777597e-06,5.757795217519896e-06,7.622468422563239e-07,2.036964364219817e-06,5.3408433478966305e-06,5.165247681426029e-05,1.5512286567972518e-06,1.2957586167576614e-06
150,4.827767454525696e-06,2.4278684697592125e-06,5.3630015384395055e-06,5.864081881300557e-06,4.463982128781415e-06,1.3598264120569084e-05,6.3616445488898695e-06,1.919870689051404e-06,4.198117913192291e-06,5.315566506978975e-06,7.59482636779291e-07,1.9368748041557153e-06,5.481667743593815e-06,5.232937669734765e-05,1.5674118740896454e-06,1.283602879347353e-06
151,4.967842804592738e-06,2.4142832304842194e-06,5.399759287935412e-06,5.966622931238712e-06,4.573266597139806e-06,1.4036385953717952e-05,6.691506534521719e-06,2.0572980301704087e-06,4.137691784678022e-06,4.9230669118288025e-06,7.585448214117126e-07,1.8560270430545856e-06,5.620141485539231e-06,5.295514487831542e-05,1.5853393196020925e-06,1.2690494609289443e-06
152,5.108444013395661e-06,2.39672649101657e-06,5.430023826001085e-06,6.063731412381918e-06,4.6906761081589915e-06,1.4477226076111227e-05,7.0425492903732525e-06,2.205952474569902e-06,4.113003018724879e-06,4.582662140099613e-06,7.59656893678659e-07,1.797908281644316e-06,5.753860321235085e-06,5.3515744013323395e-05,1.6050814273486114e-06,1.2525351538965416e-06
153,5.24776540998075e-06,2.375359714354528e-06,5.452042490850139e-06,6.152144846177373e-06,4.815026044536366e-06,1.4913742572887789e-05,7.406953259447864e-06,2.364224611323238e-06,4.1252826433262525e-06,4.296782835882162e-06,7.629831963254735e-07,1.765818347684516e-06,5.881201990330767e-06,5.3993562376466145e-05,1.6266053355856536e-06,1.2346966011150917e-06
154,5.383565649570364e-06,2.3501000809969633e-06,5.463187951097952e-06,6.228170014595309e-06,4.944871456634784e-06,1.5339326553071e-05,7.776713715028295e-06,2.5301244386170733e-06,4.174976450789402e-06,4.068222048179291e-06,7.686235909150741e-07,1.7628175265371016e-06,6.001909061843288e-06,5.4373387601047276e-05,1.6496634695415636e-06,1.2161383836822218e-06
155,5.51297325517161e-06,2.3208333764406014e-06,5.4604238438563576e-06,6.288339619025862e-06,5.078340584252448e-06,1.5747877974705304e-05,8.14390538103441e-06,2.7014824333804436e-06,4.261708983313761e-06,3.900127002968876e-06,7.765934489993276e-07,1.7919209581102447e-06,6.117025391610614e-06,5.464405965467328e-05,1.673751796939009e-06,1.1974293420166898e-06
156,5.632425511005386e-06,2.2876945855851455e-06,5.4409433515092905e-06,6.329991986708785e-06,5.213150863289164e-06,1.613353328595895e-05,8.500771563108793e-06,2.876290171265872e-06,4.384355170855407e-06,3.7959403968868456e-06,7.868268285268892e-07,1.8565958779756211e-06,6.2283811188005154e-06,5.479455308949415e-05,1.6981354279765572e-06,1.1792467652141335e-06
157,5.738037598738018e-06,2.251145726963066e-06,5.402715710748422e-06,6.351549259098324e-06,5.34669885989896e-06,1.6490033110409796e-05,8.839746777150297e-06,3.052935080707129e-06,4.541132977969522e-06,3.759536136947399e-06,7.992151051210099e-07,1.9613665562417015e-06,6.337988774321485e-06,5.481090299874973e-05,1.7219287268057647e-06,1.1624298523944458e-06
158,5.826194028291871e-06,2.2118394320327607e-06,5.34478864136649e-06,6.352551881677961e-06,5.476013392097214e-06,1.6809735361554796e-05,9.153609715687847e-06,3.2301583397611618e-06,4.7297498033347476e-06,3.795386450580369e-06,8.136211170102014e-07,2.112200149833354e-06,6.447561194494823e-06,5.468010949988359e-05,1.7442256949123714e-06,1.1478569989845832e-06
159,5.893991450502258e-06,2.1705060535282157e-06,5.267369042022344e-06,6.333615640876832e-06,5.5976698066920206e-06,1.7083052786170128e-05,9.435856122283934e-06,3.4068077004346767e-06,4.947762647485053e-06,3.908440444752705e-06,8.298346647021202e-07,2.3165633246928835e-06,6.558151776774406e-06,5.439783841342251e-05,1.7642837904657648e-06,1.1362867138606e-06
160,5.9395008727559585e-06,2.128007519574537e-06,5.171755232579463e-06,6.296418585977699e-06,5.708115674048526e-06,1.729940366657644e-05,9.681170572441862e-06,3.581603799569239e-06,5.193083744591173e-06,4.103667151818383e-06,8.475175771069334e-07,2.5832766172565312e-06,6.6698887237154796e-06,5.397178828368737e-05,1.7817002754723402e-06,1.128307795453661e-06
161,5.961985663813286e-06,2.0853974305695786e-06,5.0601208521313645e-06,6.243656030007856e-06,5.804527770717671e-06,1.74496048963158e-05,9.885767863762318e-06,3.7530877109639944e-06,5.464321364830172e-06,4.385536346457942e-06,8.661856472350766e-07,2.9222846319619027e-06,6.78192840428057e-06,5.341745249303465e-05,1.7964498468267563e-06,1.124377112867455e-06
162,5.962085035158781e-06,2.0437898389047574e-06,4.935127387477944e-06,6.1788159545243355e-06,5.88569647419624e-06,1.752861105352115e-05,1.0047431749428393e-05,3.919747077045892e-06,5.760756720192807e-06,4.757715567822542e-06,8.852199425053526e-07,3.3443647232463423e-06,6.892599039209699e-06,5.274989856378351e-05,1.808725953434278e-06,1.1248384298807018e-06
163,5.9418148751641316e-06,2.0041151263124946e-06,4.799410096458703e-06,6.105723731067067e-06,5.95241373684434e-06,1.7537521431455033e-05,1.016512842530355e-05,4.08009648602906e-06,6.081931790915631e-06,5.222992204355664e-06,9.039148905811355e-07,3.860860828179214e-06,6.999518618310714e-06,5.197764425825562e-05,1.8186911665966286e-06,1.1298848910926933e-06
164,5.904210209173975e-06,1.9669904715148756e-06,4.6550919553022665e-06,6.027943235621442e-06,6.007240384119193e-06,1.748405197050583e-05,1.0238172416233967e-05,4.232523994337978e-06,6.42704715425918e-06,5.783263906030633e-06,9.216166736611589e-07,4.4835821809286716e-06,7.099741054118626e-06,5.110222227312175e-05,1.8263276004604077e-06,1.139520774933724e-06
165,5.852597498022704e-06,1.9327466074500196e-06,4.50356876950852e-06,5.948220797908708e-06,6.053762336172139e-06,1.7381140892200073e-05,1.026543407408279e-05,4.375161324471983e-06,6.794573139619598e-06,6.439569565193276e-06,9.37903285506184e-07,5.224865794601863e-06,7.1899685190378256e-06,5.012239508241394e-05,1.8314735748312943e-06,1.1535800844202148e-06
166,5.789792547949004e-06,1.9014798411024522e-06,4.345635924758412e-06,5.868186352773362e-06,6.095625407189801e-06,1.7244158297971183e-05,1.0245387729575593e-05,4.506028097979548e-06,7.1821333129892065e-06,7.192217160114143e-06,9.526265124320476e-07,6.097697845047637e-06,7.266830452985969e-06,4.9039081828150764e-05,1.8339387769480405e-06,1.171772210769578e-06
167,5.717659610646277e-06,1.8731385436722243e-06,4.181744941359879e-06,5.788368287060798e-06,6.13589629773752e-06,1.7087918702978087e-05,1.017703985297607e-05,4.623149000635312e-06,7.58630414840592e-06,8.0408477666541e-06,9.657954580801943e-07,7.115785599012943e-06,7.3275936698003154e-06,4.785813072184651e-05,1.8335592884280382e-06,1.1937078034157688e-06
168,5.637156819972655e-06,1.8477390929024067e-06,4.012252566698568e-06,5.708380015651219e-06,6.177099081004608e-06,1.6924875410149805e-05,1.0060961500424508e-05,4.72445651117401e-06,8.002292626169085e-06,8.984313714525746e-06,9.775138831810501e-07,8.293432987887752e-06,7.371142757044265e-06,4.659084603957543e-05,1.830203513306558e-06,1.2189559169273487e-06
169,5.548596183951424e-06,1.8256028916991966e-06,3.837705956877996e-06,5.627149212300783e-06,6.221594430297068e-06,1.6764836455047544e-05,9.899838513035583e-06,4.807806406030046e-06,8.42381891461899e-06,1.0020799453204014e-05,9.880510907366217e-07,9.645121104201982e-06,7.398313794849039e-06,4.525333234814967e-05,1.8238131094926295e-06,1.2471305299200376e-06
170,5.451867397096991e-06,1.8073956341288677e-06,3.6591308941048304e-06,5.543201915762773e-06,6.27170787512351e-06,1.6615119358624143e-05,9.698476646747475e-06,4.871336323441669e-06,8.84342007345591e-06,1.1148520832497831e-05,9.978868501695402e-07,1.1184859015197661e-05,7.411276042745899e-06,4.386523297300943e-05,1.8144447436332227e-06,1.2778776224975868e-06
171,5.3466170207437865e-06,1.7939543443984933e-06,3.4781893599435588e-06,5.4550761545855405e-06,6.329425129453072e-06,1.64802196541873e-05,9.46345784864026e-06,4.913968791171576e-06,9.253200498868621e-06,1.2366485233878948e-05,1.0076268046462414e-06,1.292549117721018e-05,7.41247722657669e-06,4.2447504693042006e-05,1.8022088488107969e-06,1.310774705937105e-06
172,5.232455005938188e-06,1.7861648422852986e-06,3.2971178539539476e-06,5.3618196657535295e-06,6.395985107824582e-06,1.6361217594760726e-05,9.202636214642676e-06,4.9356811990533064e-06,9.645796208454895e-06,1.367469370556217e-05,1.017849376068051e-06,1.4878171548565594e-05,7.403737679635953e-06,4.101917711366532e-05,1.7871375302039547e-06,1.3452866289897775e-06
173,5.109207979025262e-06,1.7850240102788764e-06,3.11847854947841e-06,5.263346659184849e-06,6.4717986017533536e-06,1.625553793808302e-05,8.924431821132676e-06,4.937382146263773e-06,1.0015077768131097e-05,1.507376610039713e-05,1.0289989064173758e-06,1.7052081054107645e-05,7.3860237733834694e-06,3.959546354989466e-05,1.769133213411504e-06,1.3807951464386014e-06
174,4.977169228917925e-06,1.7916492690047923e-06,2.9448473576395597e-06,5.160474068758195e-06,6.556646146299778e-06,1.6157364621371417e-05,8.636901380478763e-06,4.920585403150676e-06,1.035622797942998e-05,1.6564187394081466e-05,1.0413778165501687e-06,1.945421386193709e-05,7.360034271388577e-06,3.818981881463262e-05,1.7480614751924719e-06,1.4166585793147872e-06
175,4.8372256716121224e-06,1.8071031424399506e-06,2.7785378141857424e-06,5.0547232825318635e-06,6.649743639814767e-06,1.60586482287552e-05,8.346996706847215e-06,4.887080915787005e-06,1.0665134013643978e-05,1.81452212389799e-05,1.0551722056082325e-06,2.2088947487992418e-05,7.326964546010236e-06,3.681842830335607e-05,1.7238775927138253e-06,1.45230658284757e-06
176,4.69076859625383e-06,1.832234060630985e-06,2.6213950491705625e-06,4.948142179386808e-06,6.749700827821612e-06,1.5950443110206623e-05,8.060348470504845e-06,4.838580771497976e-06,1.0937404307882235e-05,1.9813701212207035e-05,1.0704464790795043e-06,2.495724917376941e-05,7.288771532193496e-06,3.550333888828715e-05,1.696649209430219e-06,1.4873514684808012e-06
177,4.539464521471616e-06,1.867648285116749e-06,2.4746883533618823e-06,4.84327934088633e-06,6.8548220599020415e-06,1.582426337950592e-05,7.78126849720995e-06,4.7764119377892925e-06,1.116791360352604e-05,2.1563528505020106e-05,1.0871635797495264e-06,2.805561250684224e-05,7.247888701874328e-06,3.427263849212803e-05,1.6664948177600488e-06,1.5216784857826614e-06
178,4.385066243321475e-06,1.9137076461990803e-06,2.3391164874142618e-06,4.743172766793517e-06,6.963695405538286e-06,1.5673153390498474e-05,7.512677246143289e-06,4.701515815104512e-06,1.1351709848526349e-05,2.338640326223491e-05,1.105290455472138e-06,3.137507140367199e-05,7.206653066911757e-06,3.315841885081431e-05,1.6335557124887357e-06,1.5554861726086717e-06
179,4.229307066002367e-06,1.9705092654663705e-06,2.214873065807788e-06,4.6511314033136655e-06,7.075487168551153e-06,1.549224404798445e-05,7.256133210045427e-06,4.614760262442064e-06,1.1485826699854986e-05,2.527279243046809e-05,1.1248958542344128e-06,3.490070124304599e-05,7.166793350579981e-06,3.219375639993576e-05,1.598004532140027e-06,1.5892332542702424e-06
180,4.073754420766045e-06,2.0378994670984035e-06,2.101711083732116e-06,4.570315803334092e-06,7.189722450138954e-06,1.527875802642912e-05,7.012051952708464e-06,4.517279784243729e-06,1.1570668098496662e-05,2.7211660466282814e-05,1.1461068102366179e-06,3.861170250939899e-05,7.1294235768419845e-06,3.140965717531651e-05,1.5599987824849119e-06,1.623485524327565e-06
181,3.919650425521051e-06,2.1154811789362387e-06,1.9990531333143405e-06,4.503383283589556e-06,7.305866330029815e-06,1.5031584004310776e-05,6.779940976844142e-06,4.410688504939291e-06,1.161010894212344e-05,2.918887506614044e-05,1.1689640579803975e-06,4.248185702630923e-05,7.0955979603680795e-06,3.083251695160305e-05,1.5196143980593433e-06,1.6587410629604945e-06
182,3.7680185304770463e-06,2.202550476820536e-06,1.9061996792272965e-06,4.45240370725841e-06,7.422961204148576e-06,1.475047940085434e-05,6.558514186644426e-06,4.297193649733666e-06,1.1610338888122905e-05,3.1185711997949396e-05,1.1933249343784502e-06,4.648017518109398e-05,7.066895323256084e-06,3.0482403848035404e-05,1.4769028894565173e-06,1.6953278869826432e-06
183,3.6200692951082737e-06,2.2980232667461392e-06,1.8224956616175844e-06,4.418935837158987e-06,7.539312658309173e-06,1.4434931177872583e-05,6.345670495334578e-06,4.179621230545049e-06,1.1578089991874997e-05,3.317883277390961e-05,1.2188751074085703e-06,5.057167718709111e-05,7.04557095371802e-06,3.0372311280006267e-05,1.432063887526581e-06,1.7334114636993673e-06
184,3.4774641573455666e-06,2.400418237784673e-06,1.7473087517398785e-06,4.403999309214246e-06,7.65238289838579e-06,1.4083237893773696e-05,6.138583006890964e-06,4.061309079256992e-06,1.1519033522171016e-05,3.514168998521122e-05,1.245195576785284e-06,5.471831930331588e-05,7.034277001930609e-06,3.0508175431217984e-05,1.38557168434179e-06,1.773075733763232e-06
185,3.3421136515683077e-06,2.507863876384822e-06,1.679965120747417e-06,4.407878381733417e-06,7.75927872535358e-06,1.369289121343919e-05,5.934260500011618e-06,3.94583392307249e-06,1.1436791395718168e-05,3.704640380976006e-05,1.271778735450091e-06,5.8880112915330845e-05,7.035533107802089e-06,3.0889082382421186e-05,1.3381846882995662e-06,1.8143932178773171e-06
186,3.2157393392161345e-06,2.6181489006255956e-06,1.6198399591382347e-06,4.429949161810262e-06,7.85775875794414e-06,1.3262453086707304e-05,5.7304113590490394e-06,3.8366342755198425e-06,1.1332648667127092e-05,3.886533357639043e-05,1.2979718890876017e-06,6.30164796373004e-05,7.051122546552415e-06,3.150745792057004e-05,1.2908775676424608e-06,1.8574380023468892e-06
187,3.0996253402969036e-06,2.728955066959942e-06,1.5665027019965782e-06,4.468701708781388e-06,7.947081650578384e-06,1.279361942453849e-05,5.525972618645355e-06,3.7366857213036777e-06,1.1205946933533835e-05,4.057185798216284e-05,1.3229784929981879e-06,6.70878736290078e-05,7.081661611176852e-06,3.235010608650368e-05,1.2447244974270314e-06,1.9022400920849158e-06
188,2.994647628660564e-06,2.838266596723794e-06,1.5197458696367937e-06,4.521878161753686e-06,8.028173729366373e-06,1.2292018581062326e-05,5.3209777089653656e-06,3.648348077250704e-06,1.1055026840136005e-05,4.214000972541796e-05,1.3459949750861386e-06,7.105766596087809e-05,7.126554986954198e-06,3.340111576431156e-05,1.2007556115626446e-06,1.9486711233693238e-06
189,2.9013432871683216e-06,2.9446645367788473e-06,1.4795379487185433e-06,4.586508366848942e-06,8.103106600860279e-06,1.1766288156026647e-05,5.115942587631024e-06,3.573358863045992e-06,1.0878401152014747e-05,4.354267301427036e-05,1.3663903907037495e-06,7.489413734461271e-05,7.184350402979225e-06,3.464605056887685e-05,1.1598302401237777e-06,1.9962982639011024e-06
190,2.8199218219118582e-06,3.047300972716934e-06,1.445996062461766e-06,4.658818756294194e-06,8.17418271448959e-06,1.1226108086082226e-05,4.911218419985186e-06,3.512849864910812e-06,1.0675757498767498e-05,4.474910772655392e-05,1.3838189857603806e-06,7.857220690658496e-05,7.253349928720196e-06,3.607521697184044e-05,1.1225768333233158e-06,2.0443164413016084e-06
191,2.750364366341439e-06,3.1457381242496736e-06,1.4193424234161875e-06,4.734228187555639e-06,8.24320327605644e-06,1.0680731911361587e-05,4.70683485488479e-06,3.467343703309391e-06,1.0448512474151594e-05,4.572479818571204e-05,1.3982133190186095e-06,8.207450400797834e-05,7.332071167753252e-06,3.7684010719380076e-05,1.0894509068675778e-06,2.091691436067508e-06
192,2.6925897909921927e-06,3.2399169174727604e-06,1.3997819570495288e-06,4.807615572711352e-06,8.31145391669351e-06,1.0138919196869084e-05,4.502935612593768e-06,3.43686297860199e-06,1.0199924890234486e-05,4.643561047437514e-05,1.4096645496187983e-06,8.539169475363138e-05,7.41911297448394e-06,3.947000224605726e-05,1.0609107605674754e-06,2.1375366903455354e-06
193,2.6464640654161206e-06,3.330190574495994e-06,1.387372327419008e-06,4.8738860252124575e-06,8.380151312068402e-06,9.609332812474537e-06,4.300277029409238e-06,3.421224038115045e-06,9.934909093055306e-06,4.6854105470141385e-05,1.4183291437673201e-06,8.852216647601202e-05,7.512713832023016e-06,4.142882435672981e-05,1.0375656512959582e-06,2.1814538304579215e-06
194,2.611654342546172e-06,3.4171666311737305e-06,1.3819754888865679e-06,4.928686686031659e-06,8.450551311835704e-06,9.100186621825904e-06,4.100288948947185e-06,3.4203072043385607e-06,9.659563960694691e-06,4.69649519465241e-05,1.424466988165489e-06,9.147089584250835e-05,7.610607491159763e-06,4.3552883903617846e-05,1.0201420099472272e-06,2.2235185976915943e-06
195,2.5875154460109603e-06,3.5013289232481665e-06,1.3832688289144137e-06,4.968975529762883e-06,8.523473511358524e-06,8.618388566245073e-06,3.904706830920974e-06,3.4340586303545523e-06,9.380344271359804e-06,4.676764519683655e-05,1.4284582448418342e-06,9.424701536983059e-05,7.71000291468397e-06,4.583457098314729e-05,1.0093605180957102e-06,2.2640060136149687e-06
196,2.573057651308316e-06,3.582693563866936e-06,1.3907891313824025e-06,4.993225197747255e-06,8.598631917166561e-06,8.169072926553787e-06,3.715109907472677e-06,3.462239317145809e-06,9.10302959379593e-06,4.627475942084514e-05,1.4306595950230662e-06,9.685967851880608e-05,7.80740865040121e-06,4.827024703248876e-05,1.0058897337346472e-06,2.3031913994447597e-06
197,2.567041678883935e-06,3.660687040370441e-06,1.4039878597240157e-06,5.001311950097231e-06,8.674123799452772e-06,7.7557267112525e-06,3.532743452475036e-06,3.5041325685239488e-06,8.832040507939496e-06,4.550560128059906e-05,1.4312462504540611e-06,9.931207153827284e-05,7.898810437066494e-06,5.086059195968069e-05,1.0103436608278412e-06,2.3413192723578197e-06
198,2.56829688123056e-06,3.7341465834974147e-06,1.42225183701801e-06,4.994269534789065e-06,8.746185478713213e-06,7.380464404436422e-06,3.358705689044659e-06,3.5583741742894708e-06,8.570374513795643e-06,4.447907628531862e-05,1.4302215809010176e-06,0.0001015945422201782,7.980563245690487e-06,5.360700402457574e-05,1.0232618758616797e-06,2.3785879855600395e-06
199,2.576138546277883e-06,3.80127974486447e-06,1.4449261480278736e-06,4.973974618955438e-06,8.809267623444972e-06,7.044095208106704e-06,3.1941919123590964e-06,3.6229052337681732e-06,8.319750975254887e-06,4.321074269727625e-05,1.4275363414246145e-06,0.00010368020130228865,8.050447542454425e-06,5.650645377163791e-05,1.0451072981219905e-06,2.4150844334014137e-06
200,2.5906162249728773e-06,3.85966401768988e-06,1.4714062088198145e-06,4.942727128313999e-06,8.856596699420317e-06,6.746124315746275e-06,3.0405204250018506e-06,3.6950334788458084e-06,8.080798177023538e-06,4.171488317879134e-05,1.4231373034144285e-06,0.00010552620335062955,8.108101946179647e-06,5.954708099004635e-05,1.0763042912973488e-06,2.4507904784529342e-06
201,2.6124396623783745e-06,3.906476953557695e-06,1.5012216321853472e-06,4.902755795243693e-06,8.881308868539152e-06,6.485068577037717e-06,2.898945952355109e-06,3.77167705515579e-06,7.853640827423848e-06,4.0008641616521876e-05,1.4169390443502357e-06,0.00010707981012782108,8.15457530316478e-06,6.270582172406075e-05,1.1173187629949086e-06,2.485739679502561e-06
202,2.6426287802388744e-06,3.938963795088671e-06,1.533987150577814e-06,4.855765294250746e-06,8.87778248725731e-06,6.259125438379633e-06,2.7704458007002433e-06,3.849758734593776e-06,7.638792255327958e-06,3.8115745108634965e-05,1.408878442581738e-06,0.00010828586661449558,8.19136642930544e-06,6.594839056392201e-05,1.1687639719542739e-06,2.5201746163001875e-06
203,2.6821536460444698e-06,3.9549848954561994e-06,1.5692949168912266e-06,4.802657976137273e-06,8.842444023734025e-06,6.066748577043425e-06,2.6556329786056866e-06,3.926527745262461e-06,7.437593963600165e-06,3.6068189410845645e-05,1.3990590183603505e-06,0.00010909355650966223,8.219524439445798e-06,6.923083549425311e-05,1.2314505510300824e-06,2.554496534390526e-06
204,2.731835328151492e-06,3.953455721620366e-06,1.6066930019942324e-06,4.743559691684698e-06,8.773525085509507e-06,5.906685177632126e-06,2.554755119809438e-06,3.999612423517049e-06,7.251746131016264e-06,3.3904587409363365e-05,1.3878169212929626e-06,0.000109461808185524,8.239077398525655e-06,7.25008149598267e-05,1.306307922353513e-06,2.589053125268154e-06
205,2.7924525381948743e-06,3.934556390061174e-06,1.6456838542538893e-06,4.678150459467311e-06,8.66996626297101e-06,5.777516594508447e-06,2.4677467840913296e-06,4.066771686324736e-06,7.082399192140543e-06,3.1665981012130534e-05,1.3756450684607872e-06,0.000109363211865961,8.248834008430008e-06,7.569677423085306e-05,1.3942215505240654e-06,2.624024840413747e-06
206,2.864774889014476e-06,3.899703832812556e-06,1.6856264547000903e-06,4.606100432502541e-06,8.530480030979352e-06,5.677222180477143e-06,2.3944270454346707e-06,4.125511071406653e-06,6.9295367375915755e-06,2.939164808832463e-05,1.3630548678992326e-06,0.00010878642200090519,8.246845489537728e-06,7.874510558568588e-05,1.4958908032915368e-06,2.659473807087615e-06
207,2.9494060047516573e-06,3.851326714715324e-06,1.725630233645605e-06,4.527431655949668e-06,8.353744075739302e-06,5.603169276468633e-06,2.3347821784317734e-06,4.172958331218038e-06,6.79185811173115e-06,2.7116485303156056e-05,1.350469993312369e-06,0.00010773706335440458,8.23165680081895e-06,8.155832454921867e-05,1.6117585015037427e-06,2.6953813896447803e-06
208,3.0465736319656874e-06,3.792475476120326e-06,1.7646361933642344e-06,4.442787739834947e-06,8.139533082307324e-06,5.552279988348989e-06,2.2891213498223403e-06,4.206246599843772e-06,6.6671852553509536e-06,2.486993995389904e-05,1.3382221372825106e-06,0.00010623730675776468,8.203510284787137e-06,8.403832949717951e-05,1.7420013837346537e-06,2.7316909112951823e-06
209,3.1560222517015354e-06,3.7263262962593135e-06,1.801763514191186e-06,4.353619655833396e-06,7.88977420518938e-06,5.520964661397112e-06,2.25800192736478e-06,4.223132164618257e-06,6.553446938999077e-06,2.2676173108131126e-05,1.3266085211146023e-06,0.00010432443287441246,8.16432238515666e-06,8.608638126033694e-05,1.8865366609003529e-06,2.7685392809904183e-06
210,3.276986853756635e-06,3.65572438446689e-06,1.8367441810104537e-06,4.26222469508534e-06,7.608878816358821e-06,5.50504192493895e-06,2.241982442820532e-06,4.222444238667782e-06,6.449796821322344e-06,2.0555050356168697e-05,1.3158818839058945e-06,0.00010204871708706057,8.116414235620052e-06,8.761751230206957e-05,2.044990882012903e-06,2.8065788749511386e-06
211,3.4081749245662076e-06,3.583004205742778e-06,1.8701169695491365e-06,4.171571759573365e-06,7.303269430496941e-06,5.50011889792334e-06,2.241353961634179e-06,4.204234811793291e-06,6.35707018647219e-06,1.8523112091040597e-05,1.3061694082201346e-06,9.94708982056802e-05,8.061345959737989e-06,8.857393220741164e-05,2.2166279530939768e-06,2.847041414690864e-06
212,3.5478446813095845e-06,3.510194163409911e-06,1.9030296098464377e-06,4.0849446799347504e-06,6.980297341022019e-06,5.502347979605726e-06,2.255978997585804e-06,4.169642136685063e-06,6.277265257713631e-06,1.6594049983744974e-05,1.297429353165279e-06,9.6659358491401e-05,8.000049917734088e-06,8.893116887311583e-05,2.4003060370270033e-06,2.8914346036070747e-06
213,3.6940618631402248e-06,3.4393932550981832e-06,1.9368217420922344e-06,4.005543180130277e-06,6.647161065925141e-06,5.509092597977751e-06,2.2852585678293953e-06,4.120543459280484e-06,6.212502220655958e-06,1.4778928080240812e-05,1.2895010300089587e-06,9.368699176704086e-05,7.933932868105693e-06,8.86924333986709e-05,2.5945089821267276e-06,2.941128548476537e-06
214,3.844944938387586e-06,3.3729916305021047e-06,1.972677841158089e-06,3.936170818019134e-06,6.310522308637106e-06,5.519202938893704e-06,2.3282353207650145e-06,4.059136057929276e-06,6.164149001040964e-06,1.3086322015768686e-05,1.2822145596843316e-06,9.062773158102383e-05,7.865595846730063e-06,8.787370062711106e-05,2.7974047703383022e-06,2.997066226183873e-06
215,3.998619446082729e-06,3.313578492534922e-06,2.0114956682790932e-06,3.879028048688136e-06,5.976757107620801e-06,5.532828457038067e-06,2.3838290751013086e-06,3.987532343890148e-06,6.132408046121428e-06,1.1522331815502645e-05,1.2754438635091863e-06,8.755285243652098e-05,7.798363269090841e-06,8.649283624090581e-05,3.0069100680589218e-06,3.0596057512838197e-06
216,4.152915710888505e-06,3.263629476194458e-06,2.0539252479850647e-06,3.83558544558179e-06,5.652155340150162e-06,5.550799388513821e-06,2.451037645079445e-06,3.907424254049687e-06,6.116211343968351e-06,1.0090609539892444e-05,1.2690291186784967e-06,8.45272418200605e-05,7.735119548890911e-06,8.45725518053311e-05,3.220798078828667e-06,3.1284470808318004e-06
217,4.305172225626125e-06,3.2252193534551064e-06,2.100464784323225e-06,3.8065439699150307e-06,5.342707439896186e-06,5.573836424213564e-06,2.528920727513281e-06,3.819976783807602e-06,6.11321565524269e-06,8.792592758851167e-06,1.2626700464204788e-06,8.160568137928672e-05,7.677522832831162e-06,8.214949579701927e-05,3.4367592463815024e-06,3.202621971898769e-06
218,4.4523819571657995e-06,3.199954680111428e-06,2.1515389965371354e-06,3.791859007898347e-06,5.0537370449173135e-06,5.60215650576998e-06,2.616444760839676e-06,3.726025574807462e-06,6.119925501334358e-06,7.627908229045578e-06,1.2559372923052509e-06,7.882925097339892e-05,7.625960922675687e-06,7.927810965872291e-05,3.652260067955264e-06,3.2805184761690295e-06
219,4.591549624050132e-06,3.1891230399865583e-06,2.207531200425907e-06,3.790817540913682e-06,4.789782139677208e-06,5.6357238014185735e-06,2.7124238167184072e-06,3.6263600044160434e-06,6.132034738213412e-06,6.594855437806121e-06,1.2483878257527817e-06,7.622289266467902e-05,7.579764893721681e-06,7.602744648946042e-05,3.864271598772388e-06,3.3599046214648245e-06
220,4.7200431370368745e-06,3.1938605158570818e-06,2.268741968436162e-06,3.802271129307636e-06,4.554798192372714e-06,5.6745888262422325e-06,2.815632803209339e-06,3.5218332030659828e-06,6.1448454760708994e-06,5.690886234139237e-06,1.2396561051313217e-06,7.379553154509176e-05,7.537258257989916e-06,7.24740885131671e-05,4.0691050334100695e-06,3.4379241968687643e-06
221,4.835871884345578e-06,3.2151188976142875e-06,2.3352562077497753e-06,3.825067211154484e-06,4.352389280500119e-06,5.7188038807632824e-06,2.924916895653812e-06,3.413251217253668e-06,6.1535602206390795e-06,4.912865787992085e-06,1.2294849377747467e-06,7.154258120314007e-05,7.495855668496862e-06,6.869535956135135e-05,4.2624539819063e-06,3.5111268969344606e-06
222,4.937891682400828e-06,3.2534426326058802e-06,2.406783499013491e-06,3.85849622105322e-06,4.185772585267609e-06,5.768214066210152e-06,3.0390994651588055e-06,3.3011571508426356e-06,6.153499317340258e-06,4.257025999556463e-06,1.217750776899413e-06,6.944929469053324e-05,7.452765206029025e-06,6.476625986646858e-05,4.4395091816496935e-06,3.575669752455425e-06
223,5.025899024578714e-06,3.3087527952415212e-06,2.482623396323622e-06,3.902528099349088e-06,4.057526350355502e-06,5.822614938926192e-06,3.1567601468283754e-06,3.1856929528500066e-06,6.140501934559224e-06,3.7188960443796462e-06,1.2044732252603752e-06,6.74939414953908e-05,7.406291061053065e-06,6.075966430707326e-05,4.594993175466755e-06,3.6277096467867446e-06
224,5.1005649977736705e-06,3.38024776466121e-06,2.561861268444952e-06,3.957768620845363e-06,3.969417183176746e-06,5.882205100116459e-06,3.2761786504326923e-06,3.066701509164526e-06,6.111604517581147e-06,3.2934816329048795e-06,1.1897429817311614e-06,6.565057460030669e-05,7.356862828925583e-06,5.674641932360855e-05,4.723305235679444e-06,3.663848028882612e-06
225,5.163173559243888e-06,3.4663938844515793e-06,2.6437263363583792e-06,4.025201590217868e-06,3.922448118136304e-06,5.947865678366795e-06,3.3955650635029827e-06,2.9441081880181324e-06,6.065661992144084e-06,2.975567825351515e-06,1.1735859514011311e-06,6.38912904968951e-05,7.3069882971707575e-06,5.279306778120276e-05,4.819142759381833e-06,3.681507763837724e-06
226,5.215151195623185e-06,3.564980550589483e-06,2.727908559434233e-06,4.105846988863069e-06,3.916982830560004e-06,6.020941592948689e-06,3.513362762603562e-06,2.8184241551863494e-06,6.00345014479595e-06,2.759928630658452e-06,1.155855886321274e-06,6.218802929549792e-05,7.260205393267827e-06,4.8958146569996145e-05,4.878486002014142e-06,3.6791857574012316e-06
227,5.257563579313514e-06,3.6732473740047226e-06,2.8146814030607106e-06,4.200478886488228e-06,3.9527945951735686e-06,6.102612583470452e-06,3.6284077650203372e-06,2.691078311463581e-06,5.9271901665576135e-06,2.6414874960224904e-06,1.1362025776383756e-06,6.051406988518518e-05,7.219773218478612e-06,4.528972071190996e-05,4.899315851813507e-06,3.6564157016159343e-06
228,5.290926873380042e-06,3.7880576270471674e-06,2.9048563730288846e-06,4.3094746725682655e-06,4.029103037471185e-06,6.1933424761766775e-06,3.7399631712013686e-06,2.5643553077544486e-06,5.839840953725011e-06,2.6155089906840646e-06,1.1141410762802482e-06,5.884525378317348e-05,7.187823365725857e-06,4.1825190454994325e-05,4.881475638673416e-06,3.6133672378551984e-06
229,5.315403096529145e-06,3.906040502833038e-06,2.9996875670900986e-06,4.432740507885672e-06,4.14475010817837e-06,6.293024327383114e-06,3.847737955259199e-06,2.4409746074763064e-06,5.744454124511108e-06,2.6776731196010857e-06,1.0892493368202052e-06,5.7160921729071616e-05,7.16518379293849e-06,3.859215824807863e-05,4.825802881106115e-06,3.550582521130782e-06
230,5.331067751541653e-06,4.023640787645716e-06,3.100748624851574e-06,4.5696001780251525e-06,4.298497224450576e-06,6.40205311476608e-06,3.951923764147315e-06,2.3235996795764744e-06,5.643684397139047e-06,2.823894879986313e-06,1.0614021131043814e-06,5.5444600396540556e-05,7.151686178882187e-06,3.560944664800968e-05,4.733637735217481e-06,3.469320867534026e-06
231,5.337985754323565e-06,4.137038910038553e-06,3.209698061996694e-06,4.718612761220115e-06,4.489209590709987e-06,6.522795888138746e-06,4.053178877151071e-06,2.2145507998775273e-06,5.539677852269773e-06,3.0501186850874885e-06,1.0308761107361279e-06,5.368440285665225e-05,7.146658972240067e-06,3.288837789166737e-05,4.607395226072034e-06,3.3720287645163744e-06
232,5.336037280477352e-06,4.241983680461161e-06,3.327936724381106e-06,4.877392738379325e-06,4.715707875768955e-06,6.660425299524564e-06,4.152417658585906e-06,2.1157235279150745e-06,5.434571348933499e-06,3.3524878638737795e-06,9.983001006596423e-07,5.187301494857658e-05,7.149272265438958e-06,3.043423895135275e-05,4.451264206477241e-06,3.262227157078992e-06
233,5.32463661162112e-06,4.3338272288883995e-06,3.456317058720075e-06,5.042517648625972e-06,4.976348772861257e-06,6.822430733301952e-06,4.2503825133553316e-06,2.02857246157508e-06,5.331263218312233e-06,3.727892762207767e-06,9.645305084605347e-07,5.000726110691511e-05,7.158511578479423e-06,2.8247573634200632e-05,4.270949185952924e-06,3.143881919016439e-06
234,5.302741484751376e-06,4.408006634788449e-06,3.595021626170772e-06,5.20961641703084e-06,5.2686468300655515e-06,7.017151120509979e-06,4.347257016182353e-06,1.954121001255412e-06,5.233770651955108e-06,4.174429616353356e-06,9.304965586690579e-07,4.808746500306179e-05,7.172866985488856e-06,2.6325106721042542e-05,4.0726738124575954e-06,3.0207631209380572e-06
235,5.269333356751577e-06,4.460740617185676e-06,3.7435387584816217e-06,5.373777725890683e-06,5.589111270868993e-06,7.2523653635329515e-06,4.442574218549986e-06,1.8930029150353761e-06,5.1469021768262434e-06,4.691373760181037e-06,8.97068109730791e-07,4.611688548897868e-05,7.1901087669730645e-06,2.466033658275804e-05,3.862276679172309e-06,2.896094280523283e-06
236,5.223932163150709e-06,4.4895659130655355e-06,3.90061767545865e-06,5.5302927448672204e-06,5.9332163185687414e-06,7.534557629477778e-06,4.535391231367099e-06,1.8454897285276661e-06,5.0755240129748166e-06,5.278676853297248e-06,8.650027023794725e-07,4.4101367086140724e-05,7.2074173462728656e-06,2.3244082042841138e-05,3.644841405853255e-06,2.7724684779559686e-06
237,5.166623961815917e-06,4.493570796188126e-06,4.064242959869863e-06,5.6754805612661244e-06,6.295501685132449e-06,7.868649814385203e-06,4.624644636258773e-06,1.811502286942079e-06,5.023894280185534e-06,5.936247601886164e-06,8.349543571445212e-07,4.204914279489824e-05,7.221643998424731e-06,2.2065489434242527e-05,3.4247493716140384e-06,2.6518993918956365e-06
238,5.097602168697122e-06,4.473205175193472e-06,4.231775368718897e-06,5.807251342429459e-06,6.6698128868222975e-06,8.257843933787016e-06,4.709662482026401e-06,1.7906381501541604e-06,4.995357261280271e-06,6.6633611629980775e-06,8.074979383988445e-07,3.9970642537983234e-05,7.229534280695952e-06,2.111383934051777e-05,3.2058197482188614e-06,2.535940162182353e-06
239,5.016718955236918e-06,4.429641006977747e-06,4.400304162585962e-06,5.925208308385707e-06,7.049445082200892e-06,8.703502146685745e-06,4.790682134538045e-06,1.7821972283132175e-06,4.992315816879007e-06,7.458423737308794e-06,7.831546469448227e-07,3.787824355396673e-05,7.22837065200668e-06,2.0380748445440465e-05,2.991343158975265e-06,2.4258167145366707e-06
240,4.923530718419556e-06,4.364168932137882e-06,4.567090157103484e-06,6.030273805211509e-06,7.427188208296975e-06,9.205128670445652e-06,4.86911247661925e-06,1.7851924730015238e-06,5.016251313861946e-06,8.318932316962426e-06,7.624321122676621e-07,3.578596822903763e-05,7.217029050379747e-06,1.9861644515979942e-05,2.7840639418526023e-06,2.3224906117438395e-06
241,4.817793640142256e-06,4.278217747777531e-06,4.7299400448887775e-06,6.123948815818538e-06,7.795811538869233e-06,9.760488897196776e-06,4.947368745322344e-06,1.7983708196692813e-06,5.067736141319611e-06,9.241294769449638e-06,7.45847690465338e-07,3.3709069425445304e-05,7.196455738102802e-06,1.955556142059925e-05,2.586212299126486e-06,2.2266493669513075e-06
242,4.700002389083707e-06,4.173865853391479e-06,4.887448143971228e-06,6.20753755577879e-06,8.149167879121431e-06,1.0365702155031829e-05,5.028329598065373e-06,1.8203330883417487e-06,5.146445963473579e-06,1.0220437829307588e-05,7.338831496756806e-07,3.166347000559376e-05,7.169213286894323e-06,1.9463374194473716e-05,2.399545903697233e-06,2.1387165575814235e-06
243,4.5716885310454685e-06,4.054247704163891e-06,5.039139435628324e-06,6.281853683733697e-06,8.483209663765907e-06,1.1015119778363191e-05,5.114683043239676e-06,1.8498311816567682e-06,5.251129109066107e-06,1.1249376813999688e-05,7.269141800009007e-07,2.9665193150643413e-05,7.138863342462013e-06,1.958550370911249e-05,2.2253469623095185e-06,2.0588947488739706e-06
244,4.435413958844e-06,3.923528649691015e-06,5.18553037942025e-06,6.34753593796699e-06,8.79613530353851e-06,1.1701320984031227e-05,5.208469208915393e-06,1.8861313071052428e-06,5.379627922386069e-06,1.2318928054026168e-05,7.25176470674667e-07,2.7729926056115345e-05,7.109590298267647e-06,1.9920076526647828e-05,2.0644358631967944e-06,1.987164280525502e-06
245,4.294539961609076e-06,3.786508145339516e-06,5.328057158338625e-06,6.405458688276676e-06,9.087524285905219e-06,1.2415827482591275e-05,5.310958667781698e-06,1.929219658831108e-06,5.5290910976564695e-06,1.3417686935673333e-05,7.287573266376339e-07,2.5872709288050384e-05,7.085703866325278e-06,2.0462124190815135e-05,1.917257888562042e-06,1.9232630670874246e-06
246,4.152971586144555e-06,3.648093560287394e-06,5.468884977656047e-06,6.456685514655553e-06,9.35710370591055e-06,1.315050837885963e-05,5.4228140057650536e-06,1.97970617973829e-06,5.696367178443838e-06,1.4532295214428541e-05,7.375996058346876e-07,2.410766897835917e-05,7.070862672780451e-06,2.1203856981698062e-05,1.7839828467743825e-06,1.8667276320980978e-06
247,4.015025569692768e-06,3.5128793391217123e-06,5.6107279541391225e-06,6.501998412304966e-06,9.604202967735826e-06,1.389898277169883e-05,5.5443888550479155e-06,2.0384845308885063e-06,5.878520973992699e-06,1.5647915338926137e-05,7.515249926238255e-07,2.244774762935971e-05,7.067424820322473e-06,2.2135072229829117e-05,1.6645199701752125e-06,1.8169591037862178e-06
248,3.885315940019478e-06,3.3849060921743537e-06,5.756713124542887e-06,6.541605504745909e-06,9.828271322830844e-06,1.4657417336049076e-05,5.675974920061051e-06,2.1063986219458515e-06,6.07330504488602e-06,1.6748837946851497e-05,7.702744641935888e-07,2.0904502322292047e-05,7.076285052270195e-06,2.3242680750124418e-05,1.558461264412782e-06,1.7733155844678386e-06
249,3.7684547992816427e-06,3.2675410270781887e-06,5.910125257079118e-06,6.575350037154705e-06,1.0029806372169877e-05,1.5424626146852432e-05,5.817823871298795e-06,2.1840708939271e-06,6.279174943300646e-06,1.781903015553708e-05,7.935556859114841e-07,1.9488028684946464e-05,7.097096626152861e-06,2.4509676080333944e-05,1.465052527777857e-06,1.7352725720815042e-06
250,3.6686412825250384e-06,3.163427896421177e-06,6.073949225080894e-06,6.602897901536265e-06,1.0210907498821194e-05,1.6201671345144396e-05,5.969876476434072e-06,2.271878511070138e-06,6.494698064829144e-06,1.88420816164399e-05,8.210686654428835e-07,1.820681808245988e-05,7.128543826268051e-06,2.5914549076151546e-05,1.3832173289377914e-06,1.7024867838791832e-06
251,3.589443623443255e-06,3.0745031716631257e-06,6.250472063473096e-06,6.623486624498537e-06,1.0375125273983695e-05,1.699116498518014e-05,6.131343533640234e-06,2.3700308868872676e-06,6.7179025666689196e-06,1.9800267696513533e-05,8.524814927286874e-07,1.7067261431133917e-05,7.1684444856766745e-06,2.743138556646606e-05,1.3116003002252662e-06,1.674630743268287e-06
252,3.5338825715186134e-06,3.00204950104806e-06,6.441325023632311e-06,6.635766549488308e-06,1.0526747335845434e-05,1.7796476174649892e-05,6.3005299763867785e-06,2.478600870024501e-06,6.945985753673623e-06,2.0673792728429737e-05,8.873857105189131e-07,1.6072880505128656e-05,7.213816871825296e-06,2.9030324517693257e-05,1.2486740293981429e-06,1.6511767827520615e-06
253,3.504615782588127e-06,2.9467265032133322e-06,6.647959763146751e-06,6.6383177639476035e-06,1.066997943361607e-05,1.8621003858004892e-05,6.4751562239521755e-06,2.5973956946134998e-06,7.175141409106378e-06,2.1441968722764484e-05,9.252991515992817e-07,1.5223777898737736e-05,7.261277906949153e-06,3.0678175609816483e-05,1.1929671728241414e-06,1.6313377138528473e-06
254,3.5040404847932554e-06,2.908622296625711e-06,6.872141414182793e-06,6.630478994386455e-06,1.0808469619545268e-05,1.9467509123846738e-05,6.652916912146548e-06,2.725819589504068e-06,7.40043394353161e-06,2.2086677405017752e-05,9.65713449122332e-07,1.451669315148685e-05,7.307742590842357e-06,3.233864424141594e-05,1.14333556448912e-06,1.6141831391074284e-06
255,3.53431755857753e-06,2.887446274426172e-06,7.116105810144374e-06,6.612749681701145e-06,1.0945316921935409e-05,2.0337399440757955e-05,6.831857034065892e-06,2.8629761442604027e-06,7.6158972068596745e-06,2.2596475725966184e-05,1.0081176769275003e-06,1.3945534605700406e-05,7.350893624047544e-06,3.397192197515196e-05,1.0991198359847616e-06,1.598852135277289e-06
256,3.5973380952348412e-06,2.882817165533614e-06,7.382332448644876e-06,6.586558227597473e-06,1.1083303714326948e-05,2.1229901676861254e-05,7.0104565219434916e-06,3.0080531438469017e-06,7.814640165299482e-06,2.2968885688440728e-05,1.052011491587383e-06,1.3501967766819578e-05,7.389067345223473e-06,3.553602750847898e-05,1.0601130656104542e-06,1.584700942383038e-06
257,3.69460127964104e-06,2.8943995852329606e-06,7.673066579391805e-06,6.5536772785725515e-06,1.1224915843687885e-05,2.2141202803696573e-05,7.187562760050595e-06,3.1607558352978217e-06,7.988847408460545e-06,2.3209053879465838e-05,1.0969683900994507e-06,1.3175885861926539e-05,7.420645248860622e-06,3.6992412357259064e-05,1.0263835828474698e-06,1.571233368081429e-06
258,3.827052833922176e-06,2.921788059723263e-06,7.989792810380355e-06,6.515649384173966e-06,1.1371964751732234e-05,2.3063684215674135e-05,7.362315646632187e-06,3.321470323426692e-06,8.130356852841258e-06,2.332581541921375e-05,1.1426770989872228e-06,1.2955895641887275e-05,7.443297455217599e-06,3.831276687864541e-05,9.980550572167004e-07,1.557913314278163e-06
259,3.9950086805512685e-06,2.964390683536783e-06,8.33287388192844e-06,6.473464042847166e-06,1.1524981673720816e-05,2.398531006134264e-05,7.534110177669389e-06,3.4910298745642165e-06,8.232400816278781e-06,2.3329178521308277e-05,1.1888643713955676e-06,1.2829896194837107e-05,7.453616284504995e-06,3.9480448359169746e-05,9.751462393521632e-07,1.5441411733631757e-06
260,4.198195605266881e-06,3.021480231925659e-06,8.701460615690137e-06,6.427537366313664e-06,1.1682628101843815e-05,2.4889478941686883e-05,7.702563379319828e-06,3.6702600891449356e-06,8.291646057421718e-06,2.3230755484521848e-05,1.2351949513306512e-06,1.2785656055037743e-05,7.447539837160477e-06,4.048583280068864e-05,9.575111514129528e-07,1.5294670983765061e-06
261,4.435827218793201e-06,3.0922074322486995e-06,9.09354968731999e-06,6.37787114747139e-06,1.1841321296095773e-05,2.5755931398248207e-05,7.867446545593238e-06,3.8596247383595e-06,8.308694147287253e-06,2.30439185764368e-05,1.2812645351351535e-06,1.2811313066176768e-05,7.421291626489934e-06,4.132374197578802e-05,9.448341333864003e-07,1.5138002949424534e-06
262,4.706662009309678e-06,3.1754847702815994e-06,9.505910389004386e-06,6.3241882745376186e-06,1.1995355257003234e-05,2.656287828864649e-05,8.028592234673373e-06,4.059129222821125e-06,8.286558008438379e-06,2.2781711037451934e-05,1.3266141871036292e-06,1.2895832653059164e-05,7.371946661242777e-06,4.199794379120115e-05,9.366378834690434e-07,1.4973853129589221e-06
263,5.009031333404973e-06,3.2699005861463694e-06,9.933830460082818e-06,6.2658541096566e-06,1.2137681850204717e-05,2.7289824887007217e-05,8.185813471611707e-06,4.268320628092463e-06,8.229054422593085e-06,2.2454334054042846e-05,1.370723255260682e-06,1.3029510783697761e-05,7.297264968004169e-06,4.2525961053470025e-05,9.323163365459994e-07,1.4805863816402268e-06
264,5.3407640920818585e-06,3.3736849625223435e-06,1.037110194171949e-05,6.201572811726977e-06,1.2261081179394756e-05,2.7920310388066944e-05,8.338817959723898e-06,4.486191420331158e-06,8.140598794363853e-06,2.2068234262609575e-05,1.4130924840677153e-06,1.3204563546999618e-05,7.195808030578503e-06,4.2936528302312396e-05,9.312096531435532e-07,1.4637078728412433e-06
265,5.699006421982766e-06,3.4847461784917084e-06,1.0810644353250562e-05,6.129210473273158e-06,1.235925352536593e-05,2.8443862818723683e-05,8.487013911263682e-06,4.7111455173706594e-06,8.026261600514238e-06,2.1626690896305864e-05,1.4534160287905234e-06,1.3415613180687233e-05,7.0679547851720465e-06,4.3261928237640606e-05,9.326787349339882e-07,1.446975374543139e-06
266,6.080157566698817e-06,3.6009054895757707e-06,1.124560321503365e-05,6.046108027597507e-06,1.2427594534904882e-05,2.8856761691755868e-05,8.629101213848949e-06,4.941258800871669e-06,7.891055726834037e-06,2.1130383783239037e-05,1.4916533137703921e-06,1.3659616439970926e-05,6.916492086414824e-06,4.353277494039145e-05,9.360940474127325e-07,1.4305538737950982e-06
267,6.480033546576204e-06,3.720227080984269e-06,1.1670446277814928e-05,5.949743977929107e-06,1.2463658709130714e-05,2.9161532850186457e-05,8.762564011721494e-06,5.17465818218157e-06,7.739279922609189e-06,2.0577739548702727e-05,1.5279448440033249e-06,1.3934954135361092e-05,6.745738796652782e-06,4.377755248433575e-05,9.407536696132789e-07,1.4144860671782733e-06
268,6.894035747698617e-06,3.841208245937133e-06,1.2081650789730126e-05,5.838340451503898e-06,1.2467313825033546e-05,2.9365145966186208e-05,8.883527556270676e-06,5.409688397297752e-06,7.574513119675588e-06,1.9966441508544546e-05,1.5625333894387059e-06,1.423992600580233e-05,6.560237450925825e-06,4.402238895454787e-05,9.458795219932593e-07,1.3986660127420045e-06
269,7.317181719187866e-06,3.9627793239510885e-06,1.247776257085987e-05,5.711201329636516e-06,1.2440449768697988e-05,2.9475899413773034e-05,8.98735601214573e-06,5.644817084282872e-06,7.399716043862969e-06,1.9296082540831927e-05,1.5957480660086576e-06,1.4571188935623885e-05,6.364251269847033e-06,4.4288741869619495e-05,9.507831085493217e-07,1.3829884788737669e-06
270,7.744173295825446e-06,4.084183781686812e-06,1.285889200383774e-05,5.5688077696489455e-06,1.238610008351975e-05,2.9499872707376705e-05,9.069801927307036e-06,5.878466366854223e-06,7.2171421957846225e-06,1.8570347600717412e-05,1.6279656663626583e-06,1.4922645007911908e-05,6.161784538426192e-06,4.459149374596714e-05,9.55080033820279e-07,1.3675887006864738e-06
271,8.169681775928592e-06,4.204801427431641e-06,1.3225909735946974e-05,5.4128070017750245e-06,1.2307139118923659e-05,2.94391016027327e-05,9.128155528184476e-06,6.108935165528332e-06,7.028534837031906e-06,1.7797775826970304e-05,1.6595717783288469e-06,1.5285112543822918e-05,5.956388013385814e-06,4.4938514688747075e-05,9.587616086676349e-07,1.3529403853822218e-06
272,8.588791610916008e-06,4.323946887264567e-06,1.357951869624868e-05,5.245963576483039e-06,1.2205224440748292e-05,2.929281297036911e-05,9.161881826537273e-06,6.334400866481743e-06,6.8358349965609155e-06,1.6991018523400486e-05,1.6909690375205905e-06,1.564683836822305e-05,5.750901965371115e-06,4.533004359417419e-05,9.620882923376605e-07,1.3397316954142808e-06
273,8.9973706354078e-06,4.440654171294771e-06,1.3919232471829959e-05,5.071944799947378e-06,1.2080706798656308e-05,2.906050518556209e-05,9.172509339904095e-06,6.552926954553951e-06,6.641891141519792e-06,1.6164783871979523e-05,1.7225460065222875e-06,1.5994615427569583e-05,5.547485270897702e-06,4.575738993156531e-05,9.65410470850482e-07,1.3286971766079274e-06
274,9.392125820940881e-06,4.553457857871172e-06,1.4242403872058657e-05,4.8947888340496e-06,1.1933418557926839e-05,2.8744690743827324e-05,9.162948439333406e-06,6.762505665207362e-06,6.450656289587018e-06,1.5333494436061115e-05,1.7545670434857244e-06,1.6315072178179146e-05,5.34774885568107e-06,4.620257280709133e-05,9.690304073157043e-07,1.3205376389121165e-06
275,9.770219523907122e-06,4.660251169127517e-06,1.454370546897588e-05,4.718205450797172e-06,1.176363428946014e-05,2.835220524786531e-05,9.136650635880695e-06,6.961187029623321e-06,6.266843287334608e-06,1.4509922295850626e-05,1.7870727200234399e-06,1.6595830968471437e-05,5.15299904340912e-06,4.664057901150761e-05,9.73153077628055e-07,1.3158791568020603e-06
276,1.0128513416818071e-05,4.758427072165647e-06,1.481541373477508e-05,4.545114032560266e-06,1.1572817000787117e-05,2.789428462207729e-05,9.096908828122657e-06,7.1472512003342106e-06,6.095296077563729e-06,1.3704672994612339e-05,1.8198311976394268e-06,1.682657359611589e-05,4.964717335227035e-06,4.704420266939858e-05,9.779284535261087e-07,1.3152582214184202e-06
277,1.0462833438732493e-05,4.845386457865807e-06,1.504841812615601e-05,4.377633211815751e-06,1.1364074651016154e-05,2.7386004518657775e-05,9.046350167242136e-06,7.319349998804968e-06,5.940354399213989e-06,1.2925765613740133e-05,1.8523061941397347e-06,1.6999971713902608e-05,4.784854061520696e-06,4.738904047624773e-05,9.835593264928398e-07,1.319127713790146e-06
278,1.0767871428579269e-05,4.919170949606031e-06,1.5233576288619523e-05,4.217339563106728e-06,1.1142197548207885e-05,2.684523316240117e-05,8.986519413174315e-06,7.476580680733749e-06,5.805435279336374e-06,1.2178498257445623e-05,1.88364438220797e-06,1.7112068609365695e-05,4.615590374786693e-06,4.765536757516572e-05,9.903639228308689e-07,1.327804757915495e-06
279,1.1037895896300425e-05,4.978973745640915e-06,1.5363079998916076e-05,4.065507270437732e-06,1.0913257799533752e-05,2.6290935275642334e-05,8.917593842196442e-06,7.618470043811466e-06,5.693025746621639e-06,1.1466055606759946e-05,1.9127386505014555e-06,1.7161873885197635e-05,4.458833092694219e-06,4.7825635735033495e-05,9.987054282355728e-07,1.3413776234794791e-06
280,1.1267769635595759e-05,5.025505516156539e-06,1.5431539595543915e-05,3.9232573541534835e-06,1.0683893703390537e-05,2.574087656630618e-05,8.838548933048157e-06,7.744832183358355e-06,5.605093060610801e-06,1.079052487329988e-05,1.9384090613348936e-06,1.715051359317524e-05,4.315810088443513e-06,4.78802327776477e-05,1.0088661156107906e-06,1.359661597188476e-06
281,1.1453809352595066e-05,5.061179711050716e-06,1.543648053068403e-05,3.791716442731647e-06,1.046043299193057e-05,2.520934336447116e-05,8.747867126431969e-06,7.855438995736893e-06,5.543582219469929e-06,1.0153560852760729e-05,1.959647085181339e-06,1.7080275842572903e-05,4.186890584755265e-06,4.779754504773424e-05,1.0209870924649885e-06,1.3822100757217056e-06
282,1.1594408259265334e-05,5.089985961565202e-06,1.537813309008106e-05,3.672192941575625e-06,1.0248067668186136e-05,2.47059030242655e-05,8.64432719792238e-06,7.949501549776118e-06,5.5105815916632014e-06,9.556444771288983e-06,1.97576363193106e-06,1.6953430115257926e-05,4.071666329169412e-06,4.756131413932409e-05,1.035072071137318e-06,1.4083815587183032e-06
283,1.1690390446587156e-05,5.1170536641652105e-06,1.5258759012327687e-05,3.566200906539333e-06,1.0050253033608513e-05,2.423545039696529e-05,8.527420518955108e-06,8.025105482341632e-06,5.508042576831722e-06,8.999936237293394e-06,1.98633238896742e-06,1.677110206716184e-05,3.969343109065734e-06,4.716951872271274e-05,1.0509760123282289e-06,1.4374905735170209e-06
284,1.1744991446592874e-05,5.1480935266608326e-06,1.508201874450317e-05,3.4752218517541523e-06,9.86841632076036e-06,2.379858006699226e-05,8.397366077886993e-06,8.078818682557025e-06,5.5373577943913365e-06,8.484265482782724e-06,1.9910871906379177e-06,1.6533229983245812e-05,3.879348515622128e-06,4.663670797516401e-05,1.068370452881247e-06,1.4689627411814602e-06
285,1.176344544879916e-05,5.188880881400003e-06,1.4852743473779888e-05,3.4003655447813697e-06,9.702055808021713e-06,2.3391614121735307e-05,8.254923515838414e-06,8.105707444279808e-06,5.599112754136437e-06,8.009175709074161e-06,1.9900034505567827e-06,1.6239564412148215e-05,3.80181285188549e-06,4.598865991166329e-05,1.0867573736194286e-06,1.5023431978096204e-06
286,1.1752265155192252e-05,5.244831900831202e-06,1.4576931703750276e-05,3.3421744674694098e-06,9.549226614223046e-06,2.3006796595047747e-05,8.101259803325816e-06,8.099917724284676e-06,5.6929953680252455e-06,7.573822579688034e-06,1.983406881842564e-06,1.5890079425918427e-05,3.737549727295012e-06,4.525434607761628e-05,1.105561950697847e-06,1.5371369041984807e-06
287,1.1718264195845995e-05,5.320695094481696e-06,1.4261406168282616e-05,3.3006660389514605e-06,9.407268313927022e-06,2.2633471373243764e-05,7.938028925709947e-06,8.055694062457408e-06,5.817821799642225e-06,7.1765851492518376e-06,1.9718325920590327e-06,1.5484318917691724e-05,3.6875542585599904e-06,4.445982873570746e-05,1.1242638064704904e-06,1.5726358205739626e-06
288,1.166741212579619e-05,5.4203515639994756e-06,1.391280876160014e-05,3.2755878044484665e-06,9.273552584363786e-06,2.2260293952778084e-05,7.767508876426485e-06,7.968503898788947e-06,5.971666303152667e-06,6.815010599351932e-06,1.955805039136987e-06,1.5021460728713097e-05,3.6525045666807223e-06,4.362486157535747e-05,1.1425238244756908e-06,1.6078544779934168e-06
289,1.1603902784918476e-05,5.546700913909887e-06,1.3536299561721842e-05,3.266717967843079e-06,9.145956923824263e-06,2.187758874510803e-05,7.592425100012083e-06,7.83598909254536e-06,6.151885817540654e-06,6.486101426283634e-06,1.9357880417918025e-06,1.4502064188753604e-05,3.6326303084806696e-06,4.2760930477395346e-05,1.1602671200263337e-06,1.6415638959717866e-06
290,1.1529840946957479e-05,5.70168244537452e-06,1.3134865673804145e-05,3.2739247299112685e-06,9.022847266501298e-06,2.147882245224102e-05,7.415344323590937e-06,7.658567231884766e-06,6.355015102752071e-06,6.187051577367027e-06,1.912174668373165e-06,1.3929908940737909e-05,3.6277948614015585e-06,4.1870480920610536e-05,1.177675582884034e-06,1.672456949903808e-06
291,1.1445481571067655e-05,5.8863825832062425e-06,1.2709730384331383e-05,3.296919750165551e-06,8.902711004621753e-06,2.1060918086593323e-05,7.2380561372809284e-06,7.4395432036936605e-06,6.576843373305675e-06,5.916097013913624e-06,1.8852004220755276e-06,1.331219122139167e-05,3.637642976797496e-06,4.09476251442023e-05,1.1951028357796642e-06,1.699408831273876e-06
292,1.1349699221427448e-05,6.101007665971299e-06,1.2261318925509316e-05,3.334997854895187e-06,8.783870526563287e-06,2.0623847921457283e-05,7.061385916865242e-06,7.184624723055835e-06,6.812762084933082e-06,5.6727133489703834e-06,1.8548936776479375e-06,1.2658062666485634e-05,3.66196587707896e-06,3.997968768868172e-05,1.2129714425039067e-06,1.7215892314609748e-06
293,1.1240572461126152e-05,6.34471795036833e-06,1.1790038095730493e-05,3.386960769549151e-06,8.664551202754962e-06,2.016989353042371e-05,6.885297125670457e-06,6.900874807088727e-06,7.058126145829006e-06,5.457034424668873e-06,1.82109984607517e-06,1.1976583776841273e-05,3.7011612759737817e-06,3.8949238872722285e-05,1.2316743232520954e-06,1.7384246412854699e-06
294,1.1116127322103373e-05,6.615500599969953e-06,1.1296755281714588e-05,3.4511107833462634e-06,8.543117882470174e-06,1.970246126652852e-05,6.708932735192007e-06,6.595455683937227e-06,7.3084539515111225e-06,5.269298779973428e-06,1.7834963520304143e-06,1.1275381124636453e-05,3.756300035423273e-06,3.7837439896210824e-05,1.2515206090721745e-06,1.7496713815378827e-06
295,1.097516196389015e-05,6.910086541198338e-06,1.078320370358851e-05,3.525269118333108e-06,8.418000481270693e-06,1.9224394723036155e-05,6.530618939479749e-06,6.274777778598298e-06,7.55949568035263e-06,5.109699538361746e-06,1.741641281714413e-06,1.0560671970059032e-05,3.8286614853449925e-06,3.662887525668579e-05,1.272768458355755e-06,1.7555407945592003e-06
296,1.081788201993377e-05,7.223948254948298e-06,1.0252394908595609e-05,3.606867815422676e-06,8.287244624339142e-06,1.873670672147269e-05,6.348048916758994e-06,5.9444174043321684e-06,7.80715535657245e-06,4.978405820819026e-06,1.6951950234620897e-06,9.838208647151888e-06,3.919210497719748e-06,3.531603357518589e-05,1.2956514606360979e-06,1.7566448045252739e-06
297,1.0646115000415912e-05,7.551530711652311e-06,9.708896428222189e-06,3.6930051355262376e-06,8.148444636122741e-06,1.8238983289012618e-05,6.158747757037131e-06,5.6095524461400045e-06,8.047142964613524e-06,4.875865350411831e-06,1.644230962266497e-06,9.114253952780647e-06,4.028482193611331e-06,3.390101145939589e-05,1.3202996279087292e-06,1.753795970140938e-06
298,1.0463141058837504e-05,7.886710697389353e-06,9.158760158656234e-06,3.7803830877421406e-06,7.999593312416027e-06,1.7731327695822843e-05,5.960780756529944e-06,5.275354076753854e-06,8.274414631331779e-06,4.803225111454902e-06,1.5893421996350607e-06,8.395955694983326e-06,4.156751483008248e-06,3.239346223412333e-05,1.3466295159656082e-06,1.7478056860281131e-06
299,1.0273319065642357e-05,8.223355424604076e-06,8.608933433625195e-06,3.865321373846606e-06,7.840246271774603e-06,1.721652570771352e-05,5.753530006748669e-06,4.946952894060075e-06,8.48287507850947e-06,4.762189936919789e-06,1.5314472934877305e-06,7.690946330087412e-06,4.304062391497569e-06,3.080618548633548e-05,1.3743285319859656e-06,1.7393362230493947e-06
300,1.0081540000772512e-05,8.555731227404272e-06,8.066267645186098e-06,3.944151844334783e-06,7.67208858729081e-06,1.670128361534701e-05,5.538230568517788e-06,4.629027605910002e-06,8.665874013659733e-06,4.754492488384938e-06,1.471508081242625e-06,7.0065642236005365e-06,4.470005867384642e-06,2.9152270185538427e-05,1.4029603532381103e-06,1.728835159637382e-06
301,9.89242553068916e-06,8.87841221492669e-06,7.536716712702018e-06,4.013948875476937e-06,7.498514550874502e-06,1.619585084250518e-05,5.317949733554272e-06,4.32540021222189e-06,8.817396231436576e-06,4.781716469774855e-06,1.410380635077266e-06,6.3492931753155425e-06,4.653436430356297e-06,2.7446469943447452e-05,1.4321037956589623e-06,1.7165715952690318e-06
302,9.709464826940268e-06,9.185742985062125e-06,7.025132335458972e-06,4.073092498526123e-06,7.323462996074304e-06,1.5712057733246946e-05,5.096929041428844e-06,4.0388985759242646e-06,8.933279930643643e-06,4.845455930052948e-06,1.3488059220882913e-06,5.724617680879817e-06,4.852318254402452e-06,2.5707724842596826e-05,1.4613977340801896e-06,1.7027130090416152e-06
303,9.534596574378238e-06,9.471463785562477e-06,6.535299902478796e-06,4.121229388545883e-06,7.150374552950359e-06,1.5260878735790292e-05,4.879631655572838e-06,3.7714194282346965e-06,9.011971653479143e-06,4.947476588718404e-06,1.287430474810834e-06,5.137092802215264e-06,5.063840829593042e-06,2.3958340375769043e-05,1.490501695403596e-06,1.6873416984743194e-06
304,9.368413433697488e-06,9.728945659799568e-06,6.0698814180766025e-06,4.158685727881218e-06,6.9819753312442045e-06,1.4850773158945537e-05,4.670090232239074e-06,3.5240590012459636e-06,9.05466431011155e-06,5.089797357960453e-06,1.2268049362445936e-06,4.590397960380954e-06,5.28467594882337e-06,2.222090962271226e-05,1.5190833860708254e-06,1.6703956433367167e-06
305,9.210600676487701e-06,9.951905023318555e-06,5.630477658671282e-06,4.18575403410408e-06,6.820653255373006e-06,1.4487084745416155e-05,4.471829239356091e-06,3.2972437654606277e-06,9.064680491568683e-06,5.274547781622957e-06,1.1673753832829196e-06,4.087308023203087e-06,5.51105258288963e-06,2.0516764706375447e-05,1.5468121498687596e-06,1.651602576037703e-06
306,9.060247020992204e-06,1.0135265861347908e-05,5.217939284255371e-06,4.202277151382082e-06,6.668809450148413e-06,1.417210863767685e-05,4.288043394901119e-06,3.0908105143370136e-06,9.046140877431438e-06,5.503638123052954e-06,1.109510418476333e-06,3.62966448965735e-06,5.738820516400287e-06,1.886603407653967e-05,1.573289907397518e-06,1.6304605848772227e-06
307,8.915994654934976e-06,1.0275847841304478e-05,4.8327322754932635e-06,4.207616331098345e-06,6.528911235027094e-06,1.390557668742012e-05,4.121614381634098e-06,2.9040316257929096e-06,9.002531495732675e-06,5.7786034930150805e-06,1.0535863902724623e-06,3.218419587083841e-06,5.963885498846469e-06,1.728718991136298e-05,1.597997739103475e-06,1.6062817833331618e-06
308,8.776153843311708e-06,1.037239479290517e-05,4.475212648900771e-06,4.200722386884173e-06,6.403249180381441e-06,1.3685559196798941e-05,3.974916407526193e-06,2.7356831416345205e-06,8.93600271252037e-06,6.100619785405374e-06,1.0000731248024874e-06,2.853730670604683e-06,6.1827473631349e-06,1.5796391150950523e-05,1.6203456101092743e-06,1.5783735360946474e-06
309,8.638938420528731e-06,1.0424675134104401e-05,4.145791741976908e-06,4.18010761843144e-06,6.293502364871288e-06,1.3509629715724863e-05,3.849612820226537e-06,2.584266961687749e-06,8.847709339507735e-06,6.470414694206363e-06,9.495452914637289e-07,2.535062768039906e-06,6.392656266512118e-06,1.4407901526056586e-05,1.6397411933301298e-06,1.5463946704902735e-06
310,8.502845076439054e-06,1.0432418210149916e-05,3.8449426983054036e-06,4.143967305726851e-06,6.200358171081627e-06,1.3375804342640649e-05,3.7465808962819277e-06,2.4483020087243474e-06,8.738870478604915e-06,6.888214313207038e-06,9.026094122996851e-07,2.2612847512890776e-06,6.59137647050567e-06,1.3134890153982571e-05,1.655555749772493e-06,1.5106624528756783e-06
311,8.36698468397907e-06,1.0395327917003495e-05,3.5729995293571114e-06,4.0906948369054265e-06,6.123459299014175e-06,1.3282791796102258e-05,3.6659523106701248e-06,2.326448537371345e-06,8.611866205521877e-06,7.353915685656231e-06,8.59798710455086e-07,2.030788650207097e-06,6.77672276556095e-06,1.1989580895684009e-05,1.667074664144716e-06,1.4721184545886118e-06
312,8.231181121303439e-06,1.0314186640277121e-05,3.3298397809466493e-06,4.019506668446258e-06,6.061697427126955e-06,1.3229569964780974e-05,3.6072288268454326e-06,2.217399308817103e-06,8.470707369978817e-06,7.867568682543084e-06,8.214987204752844e-07,1.8416285259187147e-06,6.9460251386880936e-06,1.098305486817145e-05,1.6735934448072348e-06,1.4319877004331823e-06
313,8.095858905394546e-06,1.0191759256852295e-05,3.1146545803204656e-06,3.930785537360615e-06,6.013637919844862e-06,1.3214660381561657e-05,3.569401353031311e-06,2.119738450155315e-06,8.320751578471215e-06,8.430253036123994e-06,7.879201649397468e-07,1.6916004744134656e-06,7.096010085272073e-06,1.012518653148063e-05,1.6746008484497513e-06,1.3914492010249227e-06
314,7.961787954873345e-06,1.0032443813882737e-05,2.925927309739291e-06,3.8261252976762654e-06,5.977924912634706e-06,1.3235350671556601e-05,3.551027276602425e-06,2.031964332101901e-06,8.168017751417009e-06,9.044565338880038e-06,7.590990602446334e-07,1.5782846210395852e-06,7.223449548195177e-06,9.424587265211024e-06,1.6698831199214007e-06,1.3515233227685844e-06
315,7.829617429064003e-06,9.84087549810005e-06,2.7615719328912622e-06,3.708224756007438e-06,5.953644589748333e-06,1.3287005278875136e-05,3.5504206148042925e-06,1.9526176212156974e-06,8.018372379431534e-06,9.713848150487592e-06,7.349085206561204e-07,1.4991528783737109e-06,7.326050864774634e-06,8.888499910988453e-06,1.6594760338833668e-06,1.3131107215297638e-06
316,7.699301949782425e-06,9.620712771444466e-06,2.619148976162791e-06,3.58063264822504e-06,5.940552063714959e-06,1.3362971100323107e-05,3.566066224961034e-06,1.8803175175440231e-06,7.876710022760972e-06,1.0440867411584485e-05,7.15090221885429e-07,1.4517155202302993e-06,7.402873480675516e-06,8.522879490174233e-06,1.643500713152442e-06,1.2770316530840324e-06
317,7.569924731925406e-06,9.374294105923841e-06,2.496156679991237e-06,3.447296416863385e-06,5.938968023875196e-06,1.3455700064139932e-05,3.59704985967847e-06,1.8136834804152445e-06,7.746371259732487e-06,1.122690619447323e-05,6.993335186653283e-07,1.433597071859264e-06,7.45423909050907e-06,8.332560486280125e-06,1.622009628524635e-06,1.2439898379307945e-06
318,7.4401540765112236e-06,9.102734263551669e-06,2.3903528497353025e-06,3.3121075852335324e-06,5.949294245126432e-06,1.3558791062693638e-05,3.6432223217563726e-06,1.751344489920496e-06,7.629011780318146e-06,1.2071203479957376e-05,6.873754437888455e-07,1.4424953720051865e-06,7.481511310400486e-06,8.321295676997904e-06,1.594927818105279e-06,1.214499415631778e-06
319,7.308836528343915e-06,8.806451485419927e-06,2.2998891604318596e-06,3.1786930986419996e-06,5.9714319380106825e-06,1.3668606312482231e-05,3.70501154213304e-06,1.692171994798731e-06,7.52479363576978e-06,1.2970631945800076e-05,6.7902931983478e-07,1.4760567721140247e-06,7.486996746372122e-06,8.491932881773221e-06,1.5620845338143186e-06,1.1888619230670522e-06
320,7.175220457623497e-06,8.486488137821186e-06,2.2231342365813624e-06,3.050360897291529e-06,6.004527873588992e-06,1.3784332107719084e-05,3.7830104724013504e-06,1.6355838247991464e-06,7.432577156913961e-06,1.3919829585314462e-05,6.741429748128684e-07,1.5317584157319308e-06,7.473909068723787e-06,8.846881463337828e-06,1.5233711039701568e-06,1.1672192211106873e-06
321,7.038884161593941e-06,8.145883302002402e-06,2.158484155026232e-06,2.930029323432799e-06,6.047099038063732e-06,1.3906716454842883e-05,3.87762008934255e-06,1.5816326012876672e-06,7.350106241279116e-06,1.4911793199983004e-05,6.725667203861836e-07,1.6068808685801905e-06,7.4461478086669575e-06,9.38845369772447e-06,1.479002585240004e-06,1.149614086741592e-06
322,6.8996888501125285e-06,7.789934690825407e-06,2.1044581416570143e-06,2.8201775839458493e-06,6.097208857164479e-06,1.4036749048931111e-05,3.988968058510414e-06,1.5307831060251712e-06,7.274556854487112e-06,1.5938600057656476e-05,6.741291357251938e-07,1.6986373015244314e-06,7.40775901059212e-06,1.0118687902079263e-05,1.429677707864177e-06,1.1359778342128e-06
323,6.7578609547404454e-06,7.42521373004971e-06,2.059892647880001e-06,2.7228190820109475e-06,6.152596784699658e-06,1.4175243228891662e-05,4.117037273174959e-06,1.4835619166042187e-06,7.20353705809342e-06,1.6991631465871146e-05,6.78601811182653e-07,1.804475029374921e-06,7.362407930928581e-06,1.103869027535953e-05,1.3764936131213865e-06,1.1260708234455862e-06
324,6.614050933329655e-06,7.058151549095229e-06,2.02398097435033e-06,2.6394563997302638e-06,6.210937363645403e-06,1.4323276440311262e-05,4.26172349609845e-06,1.4403179197957336e-06,7.135967345729478e-06,1.8061003970296672e-05,6.85698392263862e-07,1.9223492396352546e-06,7.313470154530903e-06,1.2147827307877362e-05,1.320720564347781e-06,1.119447520693147e-06
325,6.4692719419978385e-06,6.6940908457500686e-06,1.996196388568304e-06,2.571070053353222e-06,6.270237542959082e-06,1.4482788785512512e-05,4.42266977790482e-06,1.4011581119265848e-06,7.072114596176182e-06,1.9135131778525164e-05,6.951143014589999e-07,2.0506894930720334e-06,7.264699388982891e-06,1.3443149660921781e-05,1.2636106706419163e-06,1.115455848122277e-06
326,6.324833119237e-06,6.3371008671439614e-06,1.976171853329081e-06,2.5181591316434625e-06,6.329184384270397e-06,1.4656543948772596e-05,4.599091600715122e-06,1.3659979030161002e-06,7.012833320829122e-06,2.0201380831483277e-05,7.065404755532157e-07,2.1881104250125965e-06,7.220635755545169e-06,1.4919343210902236e-05,1.2062977874258002e-06,1.1132863224989961e-06
327,6.1822524540195315e-06,5.990232977423845e-06,1.9635564480639545e-06,2.480791751531171e-06,6.387172798740253e-06,1.4847151453875846e-05,4.7898984031638584e-06,1.3346856078551116e-06,6.959034768314423e-06,2.124687016994737e-05,7.196445254497845e-07,2.3332267291897737e-06,7.186210583083848e-06,1.6569154080282773e-05,1.1497530342728321e-06,1.1120693218784277e-06
328,6.042947596543659e-06,5.655786070648703e-06,1.957940968714892e-06,2.458641962890501e-06,6.4438586920539474e-06,1.5055896901666579e-05,4.994013144865049e-06,1.307126725872513e-06,6.911908102697073e-06,2.225860256533991e-05,7.340988695912058e-07,2.4847445408486625e-06,7.165880707253159e-06,1.8383613288044613e-05,1.0947674291013297e-06,1.1109462726299394e-06
329,5.907896804989368e-06,5.335433649919652e-06,1.9589263875971897e-06,2.451004559061002e-06,6.498638164469446e-06,1.5282644869512363e-05,5.2105210786295944e-06,1.283295047661691e-06,6.873126521493897e-06,2.322448006085755e-05,7.4966977945423e-07,2.6416400595348623e-06,7.162980602250141e-06,2.035143357649006e-05,1.0419960329160104e-06,1.1091567229871297e-06
330,5.777704453111776e-06,5.030312555817826e-06,1.9662380983032423e-06,2.4567862868632794e-06,6.550637608307648e-06,1.5527054603562285e-05,5.438544377242037e-06,1.2631646416284178e-06,6.844416294315407e-06,2.4135655503871437e-05,7.662739470793903e-07,2.8032240549746723e-06,7.179530171400286e-06,2.2457890995474733e-05,9.920734530722823e-07,1.1062425757405764e-06
