,EMG1,EMG2,EMG3,EMG4,EMG5,EMG6,EMG7,EMG8,EMG9,EMG10,EMG11,EMG12,EMG13,EMG14,EMG15,EMG16
0,-1.820204618836285e-07,8.438391930446857e-07,2.423012021727126e-08,4.802692444607329e-07,3.290021933606711e-09,9.01291018242524e-08,3.6296796098363203e-07,2.319449443232278e-07,6.204171840789446e-07,2.7250968121012e-06,3.818552559615998e-06,2.9874151519600007e-05,7.060519764528941e-07,3.488790925617182e-08,5.578901292697202e-07,5.419044544976349e-07
1,6.270976136755701e-08,1.0745552218141813e-06,2.45769162248869e-07,6.47807736913552e-07,2.6412633091228614e-07,3.4064241134350545e-07,5.57570305043198e-07,4.170266397478615e-07,1.0971664445179682e-06,4.021527514313535e-06,4.536659453652409e-06,4.018207737035446e-05,9.710794219852682e-07,2.783954252454286e-07,6.92627349266984e-07,6.673121134850575e-07
2,3.0008985532100647e-07,1.3027363760540768e-06,4.6127922074842284e-07,8.128731066375352e-07,5.220231602412504e-07,5.797806553412207e-07,7.496836328903669e-07,5.980907002884986e-07,1.5575336457756963e-06,5.308843310705531e-06,5.331321206272857e-06,5.023357730643014e-05,1.2313859754349078e-06,5.318063097091164e-07,8.268552198469051e-07,7.917497432639422e-07
3,5.274546439182008e-07,1.5235134491297225e-06,6.687859639325914e-07,9.72722336943098e-07,7.742688551834671e-07,8.043558219610338e-07,9.348178581748663e-07,7.742640352122777e-07,1.9879455238299247e-06,6.55602124887665e-06,6.205556352466713e-06,5.9982155131950474e-05,1.4823928645846814e-06,7.958918247295289e-07,9.590825959820167e-07,9.14518097305256e-07
4,7.427503719173435e-07,1.7340667875292147e-06,8.666333684204387e-07,1.1248907926652805e-06,1.0187088621097745e-06,1.01172219193217e-06,1.1097785502957823e-06,9.447079819004094e-07,2.3768034869180096e-06,7.73516109293106e-06,7.161277194819377e-06,6.937335150186145e-05,1.7199512919831245e-06,1.0719500102892166e-06,1.087918974625277e-06,1.035003481761955e-06
5,9.446453884603208e-07,1.933250648656297e-06,1.0533357432337755e-06,1.2673406328520958e-06,1.253643518683049e-06,1.199774335268639e-06,1.272611247449996e-06,1.1085326495431874e-06,2.71590434875919e-06,8.82408688570488e-06,8.199116190994027e-06,7.834104265939328e-05,1.9407546889172355e-06,1.36183366323818e-06,1.2119661588643961e-06,1.1525993287959517e-06
6,1.1324162413265965e-06,2.1207412192086543e-06,1.2274689933967292e-06,1.398602638179849e-06,1.4776005501160299e-06,1.3668232483163723e-06,1.422296927821174e-06,1.2647913197530636e-06,3.0012706679463535e-06,9.808547216566026e-06,9.318383918186829e-06,8.680542795604386e-05,2.1426034208595243e-06,1.6680658447599666e-06,1.3297810135913673e-06,1.2666529368429602e-06
7,1.3056598950452398e-06,2.296526158317549e-06,1.3877692674083733e-06,1.5178988266748903e-06,1.689241786466832e-06,1.5116830938717399e-06,1.558537833906981e-06,1.4126528348525995e-06,3.2329342158745705e-06,1.068309493229673e-05,1.051706204292912e-05,9.467438747029418e-05,2.3245912183940527e-06,1.993774301260274e-06,1.4399723367603489e-06,1.376452103568335e-06
8,1.4640538817095652e-06,2.460688615802762e-06,1.5333586620080728e-06,1.6251625604369505e-06,1.8875417037395255e-06,1.6339487503780917e-06,1.6816628999876069e-06,1.5516156769217902e-06,3.4138986025563353e-06,1.1450273831547886e-05,1.1791751063930917e-05,0.00010184898085731558,2.48724080616025e-06,2.3423560364750144e-06,1.54142091931971e-06,1.48130411994629e-06
9,1.6073599511550428e-06,2.6132065318747922e-06,1.6639120519102015e-06,1.7208904139169146e-06,2.0720192920277915e-06,1.7341532166022563e-06,1.7924966560324917e-06,1.6815108880904231e-06,3.548820939610367e-06,1.2118235157666448e-05,1.3137495407349378e-05,0.00010823248687489557,2.632359133107846e-06,2.7172307439961504e-06,1.633435291713497e-06,1.580715194243679e-06
10,1.7356251031724824e-06,2.7538377380147846e-06,1.7796839868973268e-06,1.8059050414053636e-06,2.2427256244844774e-06,1.813696919089761e-06,1.892124782048492e-06,1.8023968124761254e-06,3.6429959754712726e-06,1.2697831396788446e-05,1.4547483223242544e-05,0.00011374096122389467,2.762537504265778e-06,3.1219243208467253e-06,1.7156516105483644e-06,1.6744870557441152e-06
11,1.8493914494869809e-06,2.88208263545659e-06,1.8814455969748957e-06,1.8811899695799908e-06,2.3999987075826604e-06,1.8746425558647854e-06,1.981678120301995e-06,1.914559547756092e-06,3.7019874560152077e-06,1.320132038261474e-05,1.6012776088540064e-05,0.00011831240922933294,2.880543493949119e-06,3.5601792916415086e-06,1.787782048178468e-06,1.7626196417676745e-06
12,1.949726390252086e-06,2.9970748697947675e-06,1.9703654821644368e-06,1.9478410097589367e-06,2.5442191089202196e-06,1.919437231189246e-06,2.0622854671016775e-06,2.0185140558667185e-06,3.731587470562516e-06,1.3643351699178974e-05,1.7522184618036302e-05,0.00012191181996912304,2.98895178339093e-06,4.035733241974181e-06,1.84950693359845e-06,1.8451409005439168e-06
13,2.037987588370973e-06,3.097459451681058e-06,2.0477995593765382e-06,2.0070092906853907e-06,2.675730485417083e-06,1.9505984337545015e-06,2.1350969619156854e-06,2.1149897363643607e-06,3.7375615931882462e-06,1.4042055904893477e-05,1.9062181374532507e-05,0.00012452988849231573,3.0901022654838353e-06,4.55195893853906e-06,1.9005574122798397e-06,1.9219731304897296e-06
14,2.1154714005442364e-06,3.181536321010142e-06,2.115050067044406e-06,2.059762122876629e-06,2.7948705237629815e-06,1.9704458064294306e-06,2.2011906506083145e-06,2.204969652816032e-06,3.7252956464556154e-06,1.4418501980506619e-05,2.0616686253289652e-05,0.00012617358084526036,3.1861006264138415e-06,5.111749266280316e-06,1.9407540933730227e-06,1.9928371211490957e-06
15,2.183177762309489e-06,3.247819475507512e-06,2.17322775444966e-06,2.1069978924997904e-06,2.9019161097920995e-06,1.9809536028629506e-06,2.2614222199129926e-06,2.28960144624931e-06,3.699768488039241e-06,1.479517124090951e-05,2.2166669307067683e-05,0.00012685118025535037,3.2786751538686704e-06,5.717649360165033e-06,1.9700124004302744e-06,2.057254149030763e-06
16,2.241792266004403e-06,3.295735985240486e-06,2.2232614511284203e-06,2.1495079206343077e-06,2.99686833366831e-06,1.9837277896073274e-06,2.316357724265237e-06,2.3699611905143796e-06,3.665813190376519e-06,1.5194524482961579e-05,2.3689509403373328e-05,0.0001265643077629422,3.369022114285664e-06,6.372090808450192e-06,1.9884530098485663e-06,2.1147181213514025e-06
17,2.2918882551545025e-06,3.325927452073087e-06,2.266014148714114e-06,2.18802148939105e-06,3.0792491546955893e-06,1.980046450868083e-06,2.3663342996033794e-06,2.4468963968835526e-06,3.6283361853769304e-06,1.5637865635106357e-05,2.5158214737880877e-05,0.0001253175129368999,3.4577868373788234e-06,7.077676091551574e-06,1.9964226644187037e-06,2.1649118709146493e-06
18,2.3342413251793867e-06,3.3399133440978163e-06,2.3023510539846004e-06,2.223090270143913e-06,3.148159051807173e-06,1.9708836616316075e-06,2.411660287647299e-06,2.5209647529016616e-06,3.5922727656182727e-06,1.6144343184150663e-05,2.654127374441324e-05,0.00012313767850250472,3.545174566347119e-06,7.837307090486368e-06,1.9943154412722145e-06,2.2077874333856112e-06
19,2.369981027645816e-06,3.3394802336630757e-06,2.3330227417433355e-06,2.2549217414843565e-06,3.2026905888596423e-06,1.95687974972792e-06,2.4528311856046824e-06,2.5923661726380996e-06,3.562299481736695e-06,1.6730156545953867e-05,2.7804091432059796e-05,0.00012008672643909037,3.631038297536217e-06,8.653825804219337e-06,1.98245676849213e-06,2.2435444477555697e-06
20,2.400427971625703e-06,3.326365908493205e-06,2.358519401234476e-06,2.2833447625936513e-06,3.2424555268034418e-06,1.938296660541385e-06,2.49057014347364e-06,2.6608921049669757e-06,3.5425475123783988e-06,1.7408139250542056e-05,2.891207768901174e-05,0.00011626073147384497,3.7148566307292786e-06,9.529206175771275e-06,1.9612519669902304e-06,2.2726360342855455e-06
21,2.4269069937628924e-06,3.30233390254526e-06,2.379125691927682e-06,2.3079843907032848e-06,3.267731794507176e-06,1.9150631435126852e-06,2.5256638285868887e-06,2.7259557099506695e-06,3.5364853690692963e-06,1.818765549788639e-05,2.9834568106812037e-05,0.00011177914350155604,3.795792497406149e-06,1.0463789777363059e-05,1.9314926733273533e-06,2.295763095561356e-06
22,2.450800309063206e-06,3.269292660947423e-06,2.3951049593512053e-06,2.3285653703033072e-06,3.279082267327896e-06,1.8870013046050314e-06,2.558746906103299e-06,2.786739173279915e-06,3.5468831575533786e-06,1.9074647210389903e-05,3.0548436855697416e-05,0.00010677098067151399,3.87299641230198e-06,1.1455911615313296e-05,1.8944961092668507e-06,2.3137281508930224e-06
23,2.473581675145632e-06,3.229271523321285e-06,2.406769984944773e-06,2.3451099293861375e-06,3.2769470446110384e-06,1.854167079053693e-06,2.5902662250757173e-06,2.8424306482055913e-06,3.5757556947997153e-06,2.007176323098925e-05,3.104013554177846e-05,0.00010136325680715188,3.945921042032421e-06,1.250193359911899e-05,1.8518874068423028e-06,2.327211993540591e-06
24,2.4966004076146916e-06,3.1843094082471417e-06,2.4143470976600995e-06,2.357874070570159e-06,3.2616445577260284e-06,1.8170779138516012e-06,2.6206509538099922e-06,2.8924584950438625e-06,3.6243299411514646e-06,2.117837599726583e-05,3.1304903412353264e-05,9.567366011153103e-05,4.014325055044583e-06,1.3596558947181444e-05,1.8052583850525654e-06,2.3366414861904915e-06
25,2.520814832127073e-06,3.136297934197034e-06,2.4177782099099336e-06,2.367139903540852e-06,3.2336411135859865e-06,1.7766899729487043e-06,2.65040822865525e-06,2.9366501094896375e-06,3.69313521532298e-06,2.2390199885710283e-05,3.1343033831219e-05,8.980654867041165e-05,4.078087887756927e-06,1.473294744604537e-05,1.7560016650963443e-06,2.3421779207741256e-06
26,2.546661732785359e-06,3.0868020332351972e-06,2.4166470992794448e-06,2.373091795334252e-06,3.1938479883062463e-06,1.7342327503233013e-06,2.680024355222585e-06,2.975248868122046e-06,3.7822426399080944e-06,2.3698616876715178e-05,3.115604971293595e-05,8.385041557208021e-05,4.137223668108623e-06,1.590230261608092e-05,1.705340976750589e-06,2.34382709050428e-06
27,2.5740180760383754e-06,3.036925690594217e-06,2.4102229638128685e-06,2.375877113813647e-06,3.143861032096123e-06,1.6910662722274123e-06,2.7098692103710966e-06,3.0087580198755807e-06,3.891497457838746e-06,2.5090145034752947e-05,3.0746587371874067e-05,7.787694593471035e-05,4.192159787915597e-06,1.709360012191865e-05,1.6544270864575062e-06,2.3416523326599414e-06
28,2.602199599587352e-06,2.987345690835875e-06,2.3975609922667837e-06,2.375762861241173e-06,3.0860022218202935e-06,1.6485730600475241e-06,2.740152498820037e-06,3.03770407842269e-06,4.0205517534364285e-06,2.654640117150125e-05,3.0121600364668073e-05,7.194325392650916e-05,4.243917119220067e-06,1.829418056837532e-05,1.6043506824723823e-06,2.3359148047425483e-06
29,2.6300499031058064e-06,2.9385470333518564e-06,2.377740692227909e-06,2.3732164973070838e-06,3.0230443761552113e-06,1.6080267231446014e-06,2.7708064617256504e-06,3.0624162433387533e-06,4.16872109760875e-06,2.8044627908621563e-05,2.929505555716562e-05,6.609668217104006e-05,4.293877873716047e-06,1.9490857345490705e-05,1.5560823558226713e-06,2.3270186108087897e-06
30,2.656187855255157e-06,2.8910498826940667e-06,2.350160060001227e-06,2.3688624208931733e-06,2.9577343468603482e-06,1.5704596673429678e-06,2.8013575988553954e-06,3.08285401313208e-06,4.3348289245372695e-06,2.9558489972572847e-05,2.828817750013555e-05,6.03792564888872e-05,4.343329518855799e-06,2.0670834425130947e-05,1.510453133003388e-06,2.3153315249397666e-06
31,2.6793102938279356e-06,2.8454208798544787e-06,2.3145689572596425e-06,2.363422839894576e-06,2.8924082396053803e-06,1.5365913049060149e-06,2.830962962147712e-06,3.0986165543554794e-06,4.517229375166527e-06,3.105975638291881e-05,2.7127950746318035e-05,5.4830011882280955e-05,4.393173033008506e-06,2.1821947884142742e-05,1.4681268173684008e-06,2.3010251363908204e-06
32,2.6983042738963597e-06,2.802144044811714e-06,2.270864887048479e-06,2.357673472755433e-06,2.8288813731420527e-06,1.5068210433823531e-06,2.858607255224678e-06,3.1092440362994248e-06,4.714052170209495e-06,3.2522578485535954e-05,2.5844805234606924e-05,4.948537371100689e-05,4.443867134848542e-06,2.2931750149898858e-05,1.4295396821951778e-06,2.284080822955669e-06
33,2.71215383125461e-06,2.7615422860666628e-06,2.219013201937583e-06,2.352313197258971e-06,2.768529301566236e-06,1.4812448770216933e-06,2.8832216920696186e-06,3.114609879427281e-06,4.923387761717399e-06,3.392923918730521e-05,2.44700245720197e-05,4.437833646430804e-05,4.495454928090151e-06,2.398573989708722e-05,1.3949474305885893e-06,2.2644706916948747e-06
34,2.7199874105760727e-06,2.7237880490390044e-06,2.1591788920981306e-06,2.347765880982889e-06,2.7124111477614144e-06,1.459681096543114e-06,2.903556050282053e-06,3.1151101898657855e-06,5.143141465656904e-06,3.527286817439259e-05,2.3033430236961235e-05,3.953726063356039e-05,4.547513110493091e-06,2.496654706805857e-05,1.3645653287898792e-06,2.2423470184487155e-06
35,2.7213856714702038e-06,2.68895305149353e-06,2.0918851413162936e-06,2.344050997117369e-06,2.661403421438287e-06,1.4417591146640936e-06,2.9179889105922383e-06,3.111585685904205e-06,5.370655412961294e-06,3.655500518901678e-05,2.156174410403371e-05,3.498513237952529e-05,4.5990488026603004e-06,2.5855470262946276e-05,1.338600496474648e-06,2.2181227472771373e-06
36,2.7165467661696647e-06,2.6571352667524496e-06,2.0180678538739537e-06,2.340768662378812e-06,2.616312348713199e-06,1.4270725658324224e-06,2.9245351287120554e-06,3.1050568133170966e-06,5.602463510772365e-06,3.7780304106888896e-05,2.0077663107572776e-05,3.073953311151462e-05,4.648521931987107e-06,2.6635299133513788e-05,1.3171420241606868e-06,2.192432958405578e-06
37,2.70606689032936e-06,2.6286748110878756e-06,1.9389776779655873e-06,2.3371673038152844e-06,2.5778614157618517e-06,1.4152526955437196e-06,2.9210915021893336e-06,3.0964023146504114e-06,5.834449159651983e-06,3.895160160326852e-05,1.8599617559192396e-05,2.6812734326468752e-05,4.694033759434001e-06,2.729224247618041e-05,1.3000624561776298e-06,2.165988662386963e-06
38,2.690629462476132e-06,2.604277809962429e-06,1.8559794772879072e-06,2.332228189131794e-06,2.546565815754414e-06,1.4059206703254404e-06,2.9058712744748613e-06,3.0861377556388554e-06,6.062383980830084e-06,4.0067784694177536e-05,1.7142259492514427e-05,2.3211478947747136e-05,4.73366445054637e-06,2.781549068825938e-05,1.2870337866666751e-06,2.1394178898636054e-06
39,2.670922939367401e-06,2.5848595371757548e-06,1.7703857363347787e-06,2.324729698870241e-06,2.5226530784528812e-06,1.3986969152603542e-06,2.877903282634272e-06,3.0743530300507477e-06,6.2826924444294916e-06,4.1125646350970084e-05,1.571737074216701e-05,1.9936921714301454e-05,4.765855624024021e-06,2.8194739381358478e-05,1.2776694559388572e-06,2.113242814984431e-06
40,2.6477285352660365e-06,2.5711961913584723e-06,1.6833758188949032e-06,2.313399877744885e-06,2.5060578759588402e-06,1.3933104024417602e-06,2.837326298330728e-06,3.060830670776802e-06,6.493139651687497e-06,4.212340576985018e-05,1.4334623544309558e-05,1.6985152741705816e-05,4.789547174075834e-06,2.8418940484417776e-05,1.271710136056302e-06,2.0880150008408004e-06
41,2.6219136124785263e-06,2.5636679667871907e-06,1.5959471211369648e-06,2.2972158015018834e-06,2.4963700223106606e-06,1.3896302002818842e-06,2.7852518498267914e-06,3.0453473488851415e-06,6.692971348548464e-06,4.306117886200342e-05,1.300200886622402e-05,1.4347892859491884e-05,4.804007916876096e-06,2.8478976570589048e-05,1.2690975884400757e-06,2.0644764961362433e-06
42,2.5942813436491987e-06,2.5621959741238483e-06,1.5089145967225588e-06,2.2756772298843337e-06,2.49275418391703e-06,1.3876247152816258e-06,2.723262699001066e-06,3.02796976753928e-06,6.88236913041795e-06,4.393742188595115e-05,1.1726138826440299e-05,1.2013026601612765e-05,4.8086614432340185e-06,2.8371809389073532e-05,1.2698958307097834e-06,2.0435756015776207e-06
43,2.56550696127753e-06,2.566245989024963e-06,1.4229786244979028e-06,2.24887419071772e-06,2.494011475524175e-06,1.3874136058942344e-06,2.6529170063939357e-06,3.009158170642559e-06,7.0616765515574026e-06,4.4745865723809656e-05,1.0512558115270756e-05,9.965189414423698e-06,4.8031138853149684e-06,2.8101841542251558e-05,1.2741807647070012e-06,2.0262983604768105e-06
44,2.5362436898838187e-06,2.5748794124508985e-06,1.3387613379482445e-06,2.2173691944023483e-06,2.4988786706409255e-06,1.3893762702624414e-06,2.5755710554709216e-06,2.98970582448247e-06,7.230843004780409e-06,4.5477099098242536e-05,9.365985282971263e-06,8.18656200839685e-06,4.7872568779163e-06,2.767865111201727e-05,1.2819685490506398e-06,2.0135247817159778e-06
45,2.507195957156548e-06,2.5869443657166352e-06,1.2568186821294273e-06,2.1820630695086988e-06,2.5064183994623358e-06,1.3942064818881096e-06,2.4924439113167643e-06,2.970574224148755e-06,7.389026102163546e-06,4.612344701114302e-05,8.290405331922913e-06,6.657807554308346e-06,4.761231907834724e-06,2.7113031257402587e-05,1.2931384365685218e-06,2.0060743871673124e-06
46,2.479031878202179e-06,2.601336751858154e-06,1.1777217470282434e-06,2.144166285846812e-06,2.5161651299069395e-06,1.4029052890311087e-06,2.4046739791537502e-06,2.9526305132513756e-06,7.534202057371056e-06,4.668201824860296e-05,7.289074414821008e-06,5.359087206347019e-06,4.7252607953045885e-06,2.6413553967504477e-05,1.3073677416152578e-06,2.004763098509506e-06
47,2.4522118830406987e-06,2.61713593904617e-06,1.10211293468231e-06,2.105196930263118e-06,2.52788326718025e-06,1.416691174199567e-06,2.3133297418682555e-06,2.9363665676986556e-06,7.663007987030063e-06,4.7153050100266526e-05,6.364497717579854e-06,4.271042206235661e-06,4.679532201100272e-06,2.5585669027990837e-05,1.3241796436691665e-06,2.0102933324531804e-06
48,2.426857043648696e-06,2.6335217598272485e-06,1.0306544144097022e-06,2.0668435011040466e-06,2.5412224577317293e-06,1.4368384299676861e-06,2.2195023186647407e-06,2.9217680162118533e-06,7.771096313594458e-06,4.7535876509389685e-05,5.518337951900967e-06,3.3755319204668844e-06,4.624207870486276e-06,2.4634403047229694e-05,1.3430780271558258e-06,2.0230919460212702e-06
49,2.402712020271594e-06,2.6496299060088636e-06,9.639821032014507e-07,2.030712160939002e-06,2.5556289639374053e-06,1.4645342759811793e-06,2.1244794849032385e-06,2.908423927365458e-06,7.85390553691464e-06,4.782642091876018e-05,4.75124613096486e-06,2.656014747297859e-06,4.5593781552029165e-06,2.356899543375989e-05,1.3636512233881981e-06,2.043240561360785e-06
50,2.3791950035013213e-06,2.664576394963023e-06,9.027106565194788e-07,1.9981443629652946e-06,2.5704926946628793e-06,1.5007864297155636e-06,2.0298168031747693e-06,2.8957830372094404e-06,7.90749968784569e-06,4.801664540009126e-05,4.062748294483057e-06,2.0976650251936007e-06,4.484933501245925e-06,2.2405888419437182e-05,1.3856783990402686e-06,2.0705399113385218e-06
51,2.3556159990196428e-06,2.67757999751102e-06,8.474113805852621e-07,1.9701697053268682e-06,2.5852220802528197e-06,1.5463479103061328e-06,1.9371834549035895e-06,2.883375614692003e-06,7.929162680684743e-06,4.80937140240521e-05,3.4513232998880173e-06,1.6873150829393132e-06,4.4006398783265235e-06,2.116794643489652e-05,1.4092400622589272e-06,2.1047257278588247e-06
52,2.3316101907859472e-06,2.6879811690948593e-06,7.985653669733337e-07,1.9474891780640792e-06,2.5991323744885023e-06,1.6016561065499957e-06,1.8480918351245613e-06,2.8708696357688886e-06,7.91759827871067e-06,4.803911351093281e-05,2.9146080147872405e-06,1.413200236655514e-06,4.306468690956552e-06,1.9880788870624067e-05,1.4346446547881275e-06,2.145732968956928e-06
53,2.3074938480608954e-06,2.6952359973120402e-06,7.565429100537509e-07,1.930447028712587e-06,2.6114291113121383e-06,1.6667975149701131e-06,1.7637025727789772e-06,2.8579666285299306e-06,7.872788619523408e-06,4.783066196413367e-05,2.4495632426140524e-06,1.2645371842128796e-06,4.2028194479751015e-06,1.8568771818726737e-05,1.4621906915487733e-06,2.1938046274206616e-06
54,2.284183184412651e-06,2.6990446765714505e-06,7.216169894541166e-07,1.919044708635188e-06,2.6214986705567466e-06,1.7415019705160994e-06,1.6847636343741374e-06,2.844287668745941e-06,7.795544294610397e-06,4.7447384257376835e-05,2.0525922597145634e-06,1.2310818052290118e-06,4.090525078021789e-06,1.725263491736093e-05,1.4920179868916198e-06,2.2493871914136013e-06
55,2.2627471285448034e-06,2.6995300897766516e-06,6.940074201011672e-07,1.91299011845284e-06,2.62920719407719e-06,1.8251770296324256e-06,1.6116207652739813e-06,2.8293974157668236e-06,7.686773844669688e-06,4.687322275001125e-05,1.7196877340495368e-06,1.3028182952831278e-06,3.97087464708606e-06,1.5949135226535213e-05,1.5241310664676052e-06,2.3129510856089515e-06
56,2.2440065278204176e-06,2.6972997371937014e-06,6.739240093421703e-07,1.911722404263704e-06,2.6348359334046513e-06,1.916952535513066e-06,1.5442753705933754e-06,2.81294596484895e-06,7.547030377649254e-06,4.609739053768251e-05,1.4465599230094381e-06,1.4698819037518413e-06,3.8457360708933056e-06,1.4671805544577568e-05,1.5585307235056759e-06,2.3848359459234077e-06
57,2.2284234109456104e-06,2.6933602056208687e-06,6.615606400798158e-07,1.9143995747254043e-06,2.6387943048711977e-06,2.0156751570316723e-06,1.4825463293316805e-06,2.7947728990258463e-06,7.3769845992721224e-06,4.511424704483382e-05,1.2286970832271684e-06,1.722681856715616e-06,3.7176164716547966e-06,1.3431931795132107e-05,1.595346858706714e-06,2.4650900861510206e-06
58,2.216140393695251e-06,2.688937900278915e-06,6.570442266079071e-07,1.91988058614152e-06,2.6414296635820547e-06,2.1198816406579868e-06,1.4263243433877017e-06,2.774899582629153e-06,7.1784798995992606e-06,4.39258714602178e-05,1.0614433552805008e-06,2.0520121481823764e-06,3.5894764789323555e-06,1.223924325380744e-05,1.6348353069422549e-06,2.5533217749742194e-06
59,2.2069697487554972e-06,2.685287467073622e-06,6.603861215968844e-07,1.9267648129637145e-06,2.64294009905264e-06,2.227831987460828e-06,1.3757542034222167e-06,2.753524346031837e-06,6.955167302461056e-06,4.2544715648702385e-05,9.401352902825396e-07,2.4490293621308257e-06,3.4643165096820513e-06,1.1102128643848188e-05,1.6772654385395287e-06,2.6486420395809774e-06
60,2.200343133878052e-06,2.683607937380379e-06,6.71467455557436e-07,1.9335635188364603e-06,2.643353546029004e-06,2.3376151225959634e-06,1.331195828134095e-06,2.7310777186188087e-06,6.712110662056234e-06,4.099132351327293e-05,8.601882989664935e-07,2.9051747027072955e-06,3.3447633432819064e-06,1.0027412272811175e-05,1.7228379353196426e-06,2.7497009800448757e-06
61,2.1953111706069174e-06,2.685112562328464e-06,6.900473512342099e-07,1.938949596747162e-06,2.6426151201761847e-06,2.4473120720729423e-06,1.2930342937428538e-06,2.708166217089112e-06,6.454689500888182e-06,3.928883636200172e-05,8.170818425278111e-07,3.4120504101380768e-06,3.2328283392739438e-06,9.01993852721533e-06,1.7716703175261035e-06,2.854760982088859e-06
62,2.190590400314484e-06,2.6911045679870345e-06,7.157815310362632e-07,1.941903933870136e-06,2.6406264079986065e-06,2.555177616378427e-06,1.2615608591794536e-06,2.685321693899674e-06,6.187859426297678e-06,3.746093866241618e-05,8.063152781161292e-07,3.961175572960387e-06,3.12982738647229e-06,8.08235711807579e-06,1.8237921314092734e-06,2.9617645016447865e-06
63,2.184632265262523e-06,2.70287610364271e-06,7.482724374341323e-07,1.941707584955197e-06,2.6371299025894235e-06,2.659747397309125e-06,1.237003179329854e-06,2.6627643359933656e-06,5.916309066651914e-06,3.5534208074600846e-05,8.233747758409239e-07,4.54364315773854e-06,3.0364250836723725e-06,7.215333301628602e-06,1.879122161332467e-06,3.068447921848821e-06
64,2.17576867884972e-06,2.7214740795318323e-06,7.871391524830301e-07,1.9379080373885056e-06,2.631673364983978e-06,2.759835217320765e-06,1.2195524456600721e-06,2.6403866654932993e-06,5.644927125087982e-06,3.35398777658142e-05,8.637202136852563e-07,5.1497899286109125e-06,2.952759865061335e-06,6.4180379740148384e-06,1.937452294560964e-06,3.1726238445290686e-06
65,2.1624644979451027e-06,2.7475480978040895e-06,8.320273119146781e-07,1.9302999173624653e-06,2.623777248367573e-06,2.8544514649615125e-06,1.2092907818558636e-06,2.6178890463133334e-06,5.378889068157805e-06,3.1512431051122834e-05,9.228319196166565e-07,5.768993730653416e-06,2.8785489798704178e-06,5.68859932957135e-06,1.9984108704673242e-06,3.272562786641031e-06
66,2.1436041332406765e-06,2.7813969315898883e-06,8.82534932896759e-07,1.9188161076002705e-06,2.6130289444471235e-06,2.9426208311950165e-06,1.2061127200045682e-06,2.594894578094524e-06,5.123276338245279e-06,2.948656444649891e-05,9.963321774187937e-07,6.389650182303331e-06,2.813198895373499e-06,5.024366747585388e-06,2.061403013731923e-06,3.367189968047986e-06
67,2.1187285378242747e-06,2.823125793319043e-06,9.381444115387379e-07,1.9033550981167989e-06,2.5990030301972378e-06,3.0231188237474097e-06,1.2097423917841344e-06,2.5710847931456702e-06,4.8825318940368715e-06,2.7494444730608166e-05,1.080091392686662e-06,6.999321871477345e-06,2.756062168364716e-06,4.422083149010745e-06,2.1256103437866733e-06,3.455988198927932e-06
68,2.0881592835821894e-06,2.8727176509010587e-06,9.982359002136575e-07,1.883746060006621e-06,2.5812859577145065e-06,3.0943487075253505e-06,1.2198514712216702e-06,2.546354825418344e-06,4.660091645463535e-06,2.5564056782635327e-05,1.1701997494306435e-06,7.585086113624632e-06,2.7067763501465486e-06,3.8781166814153e-06,2.190053266235662e-06,3.5387960147041843e-06
69,2.0529552966639562e-06,2.9299415887369316e-06,1.0621547510874695e-06,1.8599027207505342e-06,2.5596555802416306e-06,3.154567283539383e-06,1.2361910061770965e-06,2.52074058129139e-06,4.458274988145293e-06,2.371877592723502e-05,1.2628735162250713e-06,8.134104253762585e-06,2.665445932254021e-06,3.388812817867277e-06,2.2536645743970058e-06,3.6156494093948848e-06
70,2.014686364449802e-06,2.9942783467038732e-06,1.1292725008949461e-06,1.8319690310960726e-06,2.5341289598722353e-06,3.202351845068167e-06,1.2586035192220752e-06,2.4941205769034505e-06,4.278342787805749e-06,2.197797968733214e-05,1.3545040652768145e-06,8.6342476496646e-06,2.6325374176274374e-06,2.9508720675028784e-06,2.315419650555192e-06,3.6865972526418936e-06
71,1.975096067237868e-06,3.0650039302149955e-06,1.1990167289500033e-06,1.8002940216417905e-06,2.5047643251930416e-06,3.236997391376233e-06,1.2868976111461244e-06,2.4660346044477322e-06,4.120688846229052e-06,2.0358222729248436e-05,1.441873249852598e-06,9.074375565635631e-06,2.6085465707962565e-06,2.5615248435799444e-06,2.3745496276934875e-06,3.7514385276487128e-06
72,1.9358406079812675e-06,3.1413157969603922e-06,1.2708512801668005e-06,1.7652873318830733e-06,2.471457230414983e-06,3.258630548538763e-06,1.3207299431121777e-06,2.4358431992007283e-06,3.985117327497431e-06,1.8874303038206768e-05,1.522341291748444e-06,9.443983509558556e-06,2.593646918871622e-06,2.2183763498610156e-06,2.4306680811678472e-06,3.8095381976284003e-06
73,1.8983983433334459e-06,3.2224331007507143e-06,1.3442159874722213e-06,1.7273113547898306e-06,2.4340156704860294e-06,3.268077705780754e-06,1.3595919639809476e-06,2.4031574759662043e-06,3.871056855555449e-06,1.7539660489737792e-05,1.5938296321873114e-06,9.732835241026234e-06,2.5875285939554714e-06,1.9191143508555043e-06,2.4836371689583652e-06,3.859871381357359e-06
74,1.864015707708949e-06,3.3077482719501456e-06,1.4185025490853346e-06,1.6866609017618265e-06,2.3924580269841942e-06,3.2666787587409787e-06,1.4028735032448938e-06,2.368237839065027e-06,3.7775824479604447e-06,1.6365998527505818e-05,1.6546217170830972e-06,9.931899607261543e-06,2.5894798120145804e-06,1.6613566694006001e-06,2.5333186252567087e-06,3.901142677945342e-06
75,1.8336246050035267e-06,3.3969758160723538e-06,1.4930777788663788e-06,1.6435599205799907e-06,2.347171701041825e-06,3.256097587540986e-06,1.449965500952402e-06,2.332064774170297e-06,3.7032887020698388e-06,1.536254094612966e-05,1.7033058200967883e-06,1.0035733408131563e-05,2.598581176372744e-06,1.4426271882499015e-06,2.5794752090585365e-06,3.93173436808253e-06
76,1.8078610615982951e-06,3.4901264697728083e-06,1.5672717114703282e-06,1.598210399199356e-06,2.298758541857673e-06,3.2380576669768026e-06,1.500316258011633e-06,2.296049051849692e-06,3.6462492716682074e-06,1.453550264499792e-05,1.739097712692357e-06,1.0044485090368852e-05,2.613799797045133e-06,1.2603321774933223e-06,2.6218022309367247e-06,3.9496255327268315e-06
77,1.7872108784905556e-06,3.587297024648753e-06,1.6403369305103629e-06,1.550998214751333e-06,2.2478171941066836e-06,3.2141646899942983e-06,1.5533401791823228e-06,2.2616068558063314e-06,3.6042504974376656e-06,1.3888026933469559e-05,1.762193481987144e-06,9.963636304705094e-06,2.6339656749081086e-06,1.1117529656795623e-06,2.6599503996197123e-06,3.952645079230731e-06
78,1.772122590886432e-06,3.6884791145128405e-06,1.7114501802414607e-06,1.5027062858233415e-06,2.1949179491837534e-06,3.1859961920772776e-06,1.6082617517548378e-06,2.229866295803472e-06,3.5752001079048672e-06,1.3420370502273206e-05,1.7736601684264807e-06,9.801638049268034e-06,2.657806224027437e-06,9.940863840288172e-07,2.693574250971158e-06,3.939047865297113e-06
79,1.7630250852044968e-06,3.7935641950402974e-06,1.779760141068692e-06,1.4544606597152422e-06,2.140659149063514e-06,3.155196048597526e-06,1.6640759543217648e-06,2.201597295224774e-06,3.557487077754992e-06,1.3129967942445792e-05,1.7749423533699731e-06,9.567580035148291e-06,2.684003537932774e-06,9.04481804049419e-07,2.72249386493474e-06,3.908019739711323e-06
80,1.7603661857275517e-06,3.90251732003292e-06,1.8444732062078076e-06,1.4074404620965451e-06,2.085631194190381e-06,3.1233088574980813e-06,1.7196850887955972e-06,2.1773009349788284e-06,3.5501793654364413e-06,1.3011318136442059e-05,1.7674609980196423e-06,9.270522444803124e-06,2.711110324603188e-06,8.400448000442458e-07,2.7469404837717913e-06,3.859777525523055e-06
81,1.7646636467891699e-06,4.015559087549147e-06,1.9049713642921995e-06,1.3626298982500582e-06,2.030350434363515e-06,3.0915290751595082e-06,1.7741577405130518e-06,2.157326151389905e-06,3.553084985604276e-06,1.3055924985807738e-05,1.752500317526394e-06,8.919812865252663e-06,2.7375100472596535e-06,7.978835830857534e-07,2.767699648204545e-06,3.7952925208416482e-06
82,1.7764276450538076e-06,4.1331841761274275e-06,1.960862403303002e-06,1.320765743569741e-06,1.9752295426104164e-06,3.0605736474707023e-06,1.826993232619084e-06,2.141858429686922e-06,3.566793019874937e-06,1.3252417099527498e-05,1.7311830536281004e-06,8.525040009385764e-06,2.7617012551350244e-06,7.752109574241607e-07,2.7859470612872113e-06,3.7159637198043724e-06
83,1.7960270899850256e-06,4.255912099107398e-06,2.0118633444902247e-06,1.2824071943418342e-06,1.9205935160798274e-06,3.0307136286691776e-06,1.8782196890541672e-06,2.1307883728048424e-06,3.5926633298099517e-06,1.3586841876436728e-05,1.70444265845978e-06,8.095498063450203e-06,2.7826917118971855e-06,7.693669465560697e-07,2.802834533459687e-06,3.6234765807901215e-06
84,1.8236716589383995e-06,4.383871517777212e-06,2.057627131085518e-06,1.2479892641019925e-06,1.8667478178058851e-06,3.0019865419336798e-06,1.9282220457993232e-06,2.123649057294907e-06,3.6325331037388235e-06,1.4043042123175984e-05,1.6730596254812395e-06,7.63976687643277e-06,2.8000691805815467e-06,7.77777395711151e-07,2.8191269829104377e-06,3.519795380604051e-06
85,1.8594452893968987e-06,4.516495711383393e-06,2.0976865242959034e-06,1.2178059587106511e-06,1.8139999855446925e-06,2.9744776593639383e-06,1.9774348870869343e-06,2.119717598888026e-06,3.6881852766711415e-06,1.4602799657116811e-05,1.6377204032760667e-06,7.165714661079438e-06,2.8137194607865282e-06,7.980606519965937e-07,2.835092352177762e-06,3.4071471719333774e-06
86,1.903246118729681e-06,4.652520114660028e-06,2.1314896690514504e-06,1.191983545445141e-06,1.762661711733552e-06,2.9484007658959272e-06,2.02615556095082e-06,2.118190831481137e-06,3.760985282920158e-06,1.5245617978235163e-05,1.5990767584645356e-06,6.680738824936842e-06,2.8235146660366894e-06,8.283219209320799e-07,2.850576275990035e-06,3.2879342232200994e-06
87,1.954682954309816e-06,4.790298815876605e-06,2.1584604815232752e-06,1.1705307696728713e-06,1.7131444396302888e-06,2.923915139287225e-06,2.074523327005748e-06,2.118332684465353e-06,3.851852463188454e-06,1.5948707672745118e-05,1.557832141498691e-06,6.191904690043712e-06,2.8292001870679103e-06,8.673382138961353e-07,2.8650717112341266e-06,3.164571384590394e-06
88,2.0130578944009106e-06,4.92833484171768e-06,2.178153966478341e-06,1.1534681935428835e-06,1.666006129239831e-06,2.900921822318476e-06,2.1225095753886434e-06,2.1195852760737613e-06,3.96130481551528e-06,1.6687994421208272e-05,1.5148062496389415e-06,5.705818275159647e-06,2.830456928914111e-06,9.14419567525914e-07,2.877719710483297e-06,3.039300469549415e-06
89,2.0774058438957237e-06,5.065803464654796e-06,2.190550301118243e-06,1.1409548473396708e-06,1.6218488165548268e-06,2.878995479451221e-06,2.169850590261006e-06,2.1216575974468435e-06,4.089356265403663e-06,1.7440343883457733e-05,1.470938911797641e-06,5.228331658801142e-06,2.827030168521741e-06,9.691793226586921e-07,2.887353812157036e-06,2.9140616844829935e-06
90,2.1464627119128885e-06,5.202833726408322e-06,2.1963410417840198e-06,1.1333311601384907e-06,1.5812333676656027e-06,2.857459801750237e-06,2.215982625769224e-06,2.1245617848142547e-06,4.235363605735474e-06,1.818633714166999e-05,1.4272302704666546e-06,4.764362174901584e-06,2.8188309126617076e-06,1.0314399820848377e-06,2.892620961090214e-06,2.7904223897973746e-06
91,2.2186029022954163e-06,5.340410777873035e-06,2.1969407807799867e-06,1.131053227192824e-06,1.5447066389436016e-06,2.8356755648767813e-06,2.260046284118e-06,2.128570028385693e-06,4.398042495310175e-06,1.891250996902938e-05,1.3846321336719356e-06,4.318035323934328e-06,2.8058927875353577e-06,1.1011646967086879e-06,2.892089651491614e-06,2.669506176979662e-06
92,2.2919794545005288e-06,5.479896729988134e-06,2.1941322015235876e-06,1.1345806080998403e-06,1.5128230612481686e-06,2.813406063528648e-06,2.301011129455821e-06,2.1340993457941265e-06,4.5757207305478614e-06,1.961198729747806e-05,1.3439896384431984e-06,3.893036864730154e-06,2.788218117448481e-06,1.178333695135815e-06,2.8843943527815392e-06,2.5519254842192077e-06
93,2.364941616765588e-06,5.622365319091277e-06,2.189601211324511e-06,1.144316458156232e-06,1.4860510276539376e-06,2.7908851277306622e-06,2.3378831327829497e-06,2.141539109695415e-06,4.766589324066743e-06,2.0282784682534563e-05,1.306105252940804e-06,3.4928836159368375e-06,2.7658374744645917e-06,1.2628495781397198e-06,2.868484169912083e-06,2.4378063699815053e-06
94,2.4363945273460327e-06,5.768105679259166e-06,2.184669775922476e-06,1.1605944252377922e-06,1.4646308813834112e-06,2.768580304716621e-06,2.369810020469025e-06,2.151069584498953e-06,4.968629828621699e-06,2.0924579029162476e-05,1.2718048998430713e-06,3.1209833260994918e-06,2.739182605172848e-06,1.354535495913137e-06,2.8438443054244087e-06,2.326986150211631e-06
95,2.5057174956897144e-06,5.91652299976089e-06,2.180242425130811e-06,1.1836358916952142e-06,1.4484964267232295e-06,2.747039560509473e-06,2.396002332058011e-06,2.1625488443638042e-06,5.1793393887786815e-06,2.1536827685292905e-05,1.2418765920064886e-06,2.7805769482687673e-06,2.7093004140163597e-06,1.4531720746205772e-06,2.8105425321107184e-06,2.219299333793786e-06
96,2.572360679133276e-06,6.066338716662912e-06,2.1768077152798552e-06,1.2134830996022382e-06,1.4372670103639681e-06,2.7268931554290297e-06,2.415708824885804e-06,2.175466087201592e-06,5.395611152448666e-06,2.2119725023067766e-05,1.2169727483201403e-06,2.4747098792894986e-06,2.6775754703168654e-06,1.5584652089282219e-06,2.76906100800204e-06,2.114729988851583e-06
97,2.6355537052900596e-06,6.215885703432744e-06,2.174424397710956e-06,1.2499600597215105e-06,1.4302995349265298e-06,2.708737444737741e-06,2.428471764678592e-06,2.188898609167041e-06,5.61370852160088e-06,2.2675755508927337e-05,1.1976040392332643e-06,2.2062599411538917e-06,2.6452961926020978e-06,1.6699526509379948e-06,2.7199709591278634e-06,2.013339642180288e-06
98,2.694246902404117e-06,6.363396704081919e-06,2.1727225123212172e-06,1.2926658272183976e-06,1.4268248737162608e-06,2.692911353225836e-06,2.4344520819686765e-06,2.2014902805816833e-06,5.8291197497758925e-06,2.3209768097572238e-05,1.1841908501506275e-06,1.977933939076709e-06,2.613480629102704e-06,1.7869431599793981e-06,2.6636752165827615e-06,1.9151253777190833e-06
99,2.747133468650613e-06,6.5071842897972835e-06,2.1709562033984317e-06,1.3409703722628238e-06,1.4261289784351391e-06,2.6793870632767675e-06,2.434421628009834e-06,2.2115715438006527e-06,6.036452826901692e-06,2.372827986357671e-05,1.1771155773212872e-06,1.7922160595363983e-06,2.5828845277945446e-06,1.908523538461953e-06,2.6004415465796495e-06,1.8199900948565337e-06
100,2.7927909590074544e-06,6.6455733294672374e-06,2.1680896484944256e-06,1.3940012408642751e-06,1.4276722384045997e-06,2.667781463661171e-06,2.429434612268102e-06,2.2175166925683446e-06,6.229636031150608e-06,2.4239198667746106e-05,1.1767765551872435e-06,1.6513831708567665e-06,2.5539334510597066e-06,2.033583345599065e-06,2.5306693171547188e-06,1.7278218297559406e-06
101,2.8300046127633946e-06,6.776590112515161e-06,2.162892790926024e-06,1.4506554877908812e-06,1.431081524849434e-06,2.657471897705193e-06,2.4205781521648234e-06,2.218245237379827e-06,6.402494006596927e-06,2.47519907288699e-05,1.1835997373615655e-06,1.557612174809537e-06,2.526610494958392e-06,2.160803607277912e-06,2.4551550685385417e-06,1.6385710503212663e-06
102,2.8580342585300215e-06,6.897632218697733e-06,2.154155996086895e-06,1.5096648298905047e-06,1.436039786875871e-06,2.6478635981000998e-06,2.4089351525077653e-06,2.213586430770494e-06,6.549608807903864e-06,2.5277682717116895e-05,1.1979604945079452e-06,1.5130289170367978e-06,2.5005038638445865e-06,2.2886273306734655e-06,2.37516914480233e-06,1.5522727904247048e-06
103,2.876635562014082e-06,7.005337382796715e-06,2.1410479650961664e-06,1.5696882927634893e-06,1.4422021784536382e-06,2.6385983444965315e-06,2.395537425876866e-06,2.20424497486375e-06,6.6671363126036555e-06,2.582824949156984e-05,1.2200807065708111e-06,1.5196272803031297e-06,2.475062516516696e-06,2.4152703685440697e-06,2.2922879743519556e-06,1.4690346500888287e-06
104,2.885929799593404e-06,7.095552811743495e-06,2.12334227240103e-06,1.6293942117305122e-06,1.4492599692933986e-06,2.6294373866469194e-06,2.3812627403318585e-06,2.1913892878461606e-06,6.753097421108759e-06,2.6415368983322815e-05,1.2500027696215234e-06,1.5791757844091121e-06,2.449876214389343e-06,2.5388582283551004e-06,2.20812692058349e-06,1.3890368183568028e-06
105,2.8861998189802026e-06,7.163233369451435e-06,2.1013432515285142e-06,1.687517844208e-06,1.4570720378567364e-06,2.6199394128597235e-06,2.366847321442718e-06,2.1762265751420626e-06,6.806884794293148e-06,2.704875438690601e-05,1.2876730416866247e-06,1.6932076132333217e-06,2.4247200891501596e-06,2.657639227338599e-06,2.1242014770499903e-06,1.3125706888682932e-06
106,2.8776597008172224e-06,7.202663900846493e-06,2.0756890187167233e-06,1.742916646201233e-06,1.4656814396816901e-06,2.6093026354434587e-06,2.353044007083845e-06,2.159845629377028e-06,6.828289414801611e-06,2.7734646875526573e-05,1.3330750982102038e-06,1.863042496036074e-06,2.399336657120371e-06,2.769994803754522e-06,2.0419486284584296e-06,1.2400696620009542e-06
107,2.8603999298666793e-06,7.208522317473726e-06,2.047212613493502e-06,1.7946678549280944e-06,1.4751805337760737e-06,2.5965785486649234e-06,2.340766880927812e-06,2.1431984423717845e-06,6.8169766605438245e-06,2.8475355370380734e-05,1.386266912482927e-06,2.089754297793626e-06,2.3732266528184986e-06,2.874222507737512e-06,1.962729748159871e-06,1.1720606306866768e-06
108,2.834599961937024e-06,7.177383517674707e-06,2.0168555515708565e-06,1.8421888738754334e-06,1.4855432116417195e-06,2.5811172788613816e-06,2.3310667312603493e-06,2.1270442178833985e-06,6.7730845202538585e-06,2.926951002946403e-05,1.4472784578145789e-06,2.374102722799753e-06,2.34566345815097e-06,2.968514890070617e-06,1.887714905987255e-06,1.1090515140439777e-06
109,2.800773442384823e-06,7.108691574271836e-06,1.985562594367549e-06,1.8852393113554817e-06,1.496570622299855e-06,2.5628872426116443e-06,2.324945970311263e-06,2.1119382540742574e-06,6.698351377506627e-06,3.0111720579494633e-05,1.5160213238771468e-06,2.716506185693073e-06,2.3159360994449548e-06,3.051285200386568e-06,1.8177532180617067e-06,1.0514353401153234e-06
110,2.75979306819033e-06,7.004595064115908e-06,1.954143464889074e-06,1.9237449455242225e-06,1.5079976131992517e-06,2.542414873124362e-06,2.3231850709801453e-06,2.098368861902986e-06,6.596585313854899e-06,3.099223008424193e-05,1.5923091034114122e-06,3.117030666080494e-06,2.283649472355573e-06,3.121411417275462e-06,1.7533457617588086e-06,9.994766427073107e-07
111,2.7126935323391115e-06,6.868751615989514e-06,1.9232126348841346e-06,1.957698979556761e-06,1.5196299018155241e-06,2.5204103500508445e-06,2.326302050109813e-06,2.0869300297509128e-06,6.473074858248969e-06,3.189806964746212e-05,1.6759356027413742e-06,3.5753108550700115e-06,2.2487960047377702e-06,3.17812952381273e-06,1.6946936095339266e-06,9.533927495516233e-07
112,2.6604219512129255e-06,6.704960537227992e-06,1.8932952182572343e-06,1.9873438775834293e-06,1.5313802069724866e-06,2.497398362630028e-06,2.3345643871929335e-06,2.078324854345891e-06,6.333471631401731e-06,3.281458759132229e-05,1.766743342130017e-06,4.090454991543477e-06,2.21162504847732e-06,3.2207983863429514e-06,1.641723666448471e-06,9.134508147756941e-07
113,2.6037455150809304e-06,6.516534731474455e-06,1.8649574836522566e-06,2.013389474561684e-06,1.5432353626491466e-06,2.4735900987478536e-06,2.3479718942250996e-06,2.0731954162597187e-06,6.18281632940326e-06,3.3725124537439206e-05,1.864622975333269e-06,4.661051439654611e-06,2.1726081101473953e-06,3.248728172513504e-06,1.5940691649083078e-06,8.79974514738724e-07
114,2.543427788287596e-06,6.306404600311981e-06,1.8387886897024686e-06,2.036989928896467e-06,1.5552094486850874e-06,2.448969668954247e-06,2.36633170687735e-06,2.071990514617659e-06,6.025005328785769e-06,3.4609285520317553e-05,1.969399667363214e-06,5.285218791162722e-06,2.1324506613040653e-06,3.261130194165405e-06,1.5510676024937718e-06,8.532651779815576e-07
115,2.4804793370941457e-06,6.077332468246246e-06,1.8153139003346414e-06,2.0595177003504135e-06,1.5673429935855217e-06,2.4235088739831876e-06,2.389486751052945e-06,2.0749793071873646e-06,5.8626334592316406e-06,3.544204404719043e-05,2.0806594312359175e-06,5.96052148436139e-06,2.0919447357830214e-06,3.2573072371252787e-06,1.5118648916212558e-06,8.335356313459059e-07
116,2.4161484971737723e-06,5.8319446612063145e-06,1.7949874194563127e-06,2.0822757442925754e-06,1.5797946168647563e-06,2.3974357221233194e-06,2.4174450548762053e-06,2.082305231291299e-06,5.69701491410403e-06,3.6194174751007026e-05,2.1976460256107276e-06,6.683726472293834e-06,2.051830475609182e-06,3.2370319861317393e-06,1.475676281214416e-06,8.20897616075927e-07
117,2.3516656434901003e-06,5.572751435192384e-06,1.7782120981738584e-06,2.1062597652004047e-06,1.5929036445113658e-06,2.371401538694539e-06,2.450196826931515e-06,2.09398989921447e-06,5.528307770067229e-06,3.683315579924157e-05,2.319298505589662e-06,7.4505204703331796e-06,2.0128958176189645e-06,3.2008876980838874e-06,1.4420564507872757e-06,8.153600415892781e-07
118,2.2880452328116224e-06,5.302332741447832e-06,1.7652959540775143e-06,2.1320364833323744e-06,1.607139869113195e-06,2.3464496672029783e-06,2.4874192294305493e-06,2.1099094031004783e-06,5.355919995747764e-06,3.732525834316623e-05,2.444337463330771e-06,8.255281649040265e-06,1.976176506418868e-06,3.1504460248205433e-06,1.4109284472675327e-06,8.168141374289995e-07
119,2.2260431447254513e-06,5.0235789369321575e-06,1.7564048640207782e-06,2.159727413790325e-06,1.623012014963506e-06,2.3238693174575747e-06,2.52837236025229e-06,2.1297489543217887e-06,5.179258943433608e-06,3.764017233262e-05,2.571256961903058e-06,9.090953453535936e-06,1.9429768601684077e-06,3.0882156383970544e-06,1.3823983091287022e-06,8.250180725842366e-07
120,2.1661416462916563e-06,4.73974290566464e-06,1.7515501721522442e-06,2.189051586373382e-06,1.6409988568892695e-06,2.305046297296196e-06,2.5719791977882585e-06,2.1529173305002e-06,4.998283011686303e-06,3.7756945969970266e-05,2.698254996264435e-06,9.948951621505929e-06,1.914710222596202e-06,3.0173609499425865e-06,1.3565847270875585e-06,8.395995485370412e-07
121,2.1085811890076854e-06,4.454275625483394e-06,1.7506027487464775e-06,2.2193816633898833e-06,1.6615850309335381e-06,2.291303251125923e-06,2.616964631922326e-06,2.1784714423290112e-06,4.813370123077781e-06,3.766775071334291e-05,2.8232473001553573e-06,1.0818983870188718e-05,1.8928017868584122e-06,2.9413788576372794e-06,1.333546150499744e-06,8.60108783553409e-07
122,2.053545376663163e-06,4.1706309319832375e-06,1.7533855175974605e-06,2.249815414087581e-06,1.6853670402934438e-06,2.2837128800148743e-06,2.6620248546056373e-06,2.20513779972565e-06,4.625034866915796e-06,3.737691537533241e-05,2.9439490273113002e-06,1.1688961692792399e-05,1.878693470291772e-06,2.8638708660644895e-06,1.3133003229732554e-06,8.861201284018872e-07
123,2.0013902780211687e-06,3.892160334641699e-06,1.7598070851935433e-06,2.2793162845217504e-06,1.7130008974525283e-06,2.2829917581114915e-06,2.7059285826448503e-06,2.2315273512118763e-06,4.434209195091369e-06,3.6895580086734966e-05,3.057868283800011e-06,1.2545495765259623e-05,1.8737733653295898e-06,2.7883350676481143e-06,1.2959255633137173e-06,9.172892348392039e-07
124,1.9527395083117743e-06,3.6220582423680015e-06,1.769876193084311e-06,2.3069198821333003e-06,1.7449964792548926e-06,2.2895809430647405e-06,2.747540777327384e-06,2.256539447895146e-06,4.242685458044315e-06,3.623501621874838e-05,3.1621675371609806e-06,1.3375299701093529e-05,1.879236895708793e-06,2.718023518996282e-06,1.2816084204805012e-06,9.532975084521967e-07
125,1.90841872165273e-06,3.363263184400456e-06,1.7835852139207824e-06,2.331932811253043e-06,1.7816374002985926e-06,2.303858241034775e-06,2.785965125355021e-06,2.279676473492776e-06,4.052951557450916e-06,3.540292078851932e-05,3.2535699052651235e-06,1.4167231123122636e-05,1.8960188570066418e-06,2.656084769713798e-06,1.2705497452288364e-06,9.93759006414475e-07
126,1.8692781488876672e-06,3.1183120669034045e-06,1.800825485622186e-06,2.3540905117573466e-06,1.8230978975947785e-06,2.3263397948347457e-06,2.8207115939766035e-06,2.3009775449876967e-06,3.867617811006218e-06,3.4405320487608443e-05,3.3285547800454125e-06,1.4914062534571806e-05,1.9248469685184273e-06,2.606019738706252e-06,1.2628619089889723e-06,1.0381885806977668e-06
127,1.8359766826050816e-06,2.889263195470721e-06,1.8214002790367906e-06,2.373659423979975e-06,1.8695786972201775e-06,2.3577650450003776e-06,2.8515536922672004e-06,2.3206473171235223e-06,3.6890794286877055e-06,3.3252469006666985e-05,3.3838893177990096e-06,1.5612811752356423e-05,1.966350350596513e-06,2.572201326438846e-06,1.2585581730094064e-06,1.086037198074161e-06
128,1.8088391239485895e-06,2.677717961773876e-06,1.8450269462502407e-06,2.3913877784955765e-06,1.9213149672759476e-06,2.3990102036794166e-06,2.878130893956422e-06,2.338716606785749e-06,3.5194263070842086e-06,3.1964173702770064e-05,3.417188862364877e-06,1.6263193552842428e-05,2.021084011124858e-06,2.5600473804028874e-06,1.2575731930190317e-06,1.1367394728102072e-06
129,1.7878396176051905e-06,2.484845894723474e-06,1.871250511636748e-06,2.408244512911049e-06,1.9784503828720505e-06,2.4508886997785384e-06,2.8996692759201065e-06,2.3549602790643494e-06,3.3603143213952302e-06,3.057098874904571e-05,3.427041336486132e-06,1.6865588184361112e-05,2.089522802928355e-06,2.5756652103222448e-06,1.2597624179224495e-06,1.189713900864983e-06
130,1.7726811560718892e-06,2.311405213285354e-06,1.8993655823861118e-06,2.4251165117385553e-06,2.040923115273594e-06,2.5139923319635514e-06,2.9150397496260523e-06,2.3690096936348864e-06,3.2128512073876378e-06,2.911118203950495e-05,3.4127195963540376e-06,1.7420537217822713e-05,2.1721932015636135e-06,2.6253481845428155e-06,1.264870175197903e-06,1.2443080492684173e-06
131,1.763010193317472e-06,2.1577935795485745e-06,1.928475806251054e-06,2.4426940109684746e-06,2.108535047671094e-06,2.5886360502712638e-06,2.9230769743814513e-06,2.380478985858545e-06,3.0776577915882263e-06,2.762605661507197e-05,3.3740935598612894e-06,1.7929600422511295e-05,2.269836531521527e-06,2.7153050947799557e-06,1.2724753749810227e-06,1.2997327323889194e-06
132,1.7587598940526111e-06,2.0240712721347763e-06,1.957660971338433e-06,2.4615048227100635e-06,2.1811971738927416e-06,2.6749226946451197e-06,2.922846155939453e-06,2.3890466283429705e-06,2.955041225574861e-06,2.6156217070207375e-05,3.3119578244786898e-06,1.8395747215487434e-05,2.3833835675741915e-06,2.851560054882194e-06,1.281971993064616e-06,1.3550584205245754e-06
133,1.7603441654597766e-06,1.9099368063364182e-06,1.9861164206346485e-06,2.4818869452832862e-06,2.2591399155022056e-06,2.772883475971727e-06,2.9136080171122028e-06,2.3945594046169212e-06,2.8451023938714412e-06,2.473953956096142e-05,3.2282759777924612e-06,1.8822707028081142e-05,2.513774887446112e-06,3.039897281386335e-06,1.2926441058335458e-06,1.4093301621407683e-06
134,1.7684867383773634e-06,1.8147384675088324e-06,2.013168097321971e-06,2.5038408909855753e-06,2.3428502523295958e-06,2.8824742967747483e-06,2.8946464260074317e-06,2.3971740914792964e-06,2.7477856201152063e-06,2.3410121771228813e-05,3.1260094029999264e-06,1.9214195022269102e-05,2.6618462385475372e-06,3.2859137670524303e-06,1.3038623889627794e-06,1.4617362416055741e-06
135,1.783861324308797e-06,1.7375449271753944e-06,2.0381529545890577e-06,2.526878767076916e-06,2.4327528411794547e-06,3.0034138823440094e-06,2.8652973077208034e-06,2.397391971999534e-06,2.663062841659185e-06,2.2197679060662316e-05,3.008696312262434e-06,1.9573670816166714e-05,2.8283052160949994e-06,3.5951743765158656e-06,1.3153146323690762e-06,1.5117083166914078e-06
136,1.806824846963715e-06,1.6771855439764454e-06,2.0602875948603577e-06,2.549977825984751e-06,2.528921009213154e-06,3.1351080136485e-06,2.8251644031549865e-06,2.3958669136339554e-06,2.591217660012843e-06,2.112748060723662e-05,2.879990339245728e-06,1.9904445105065498e-05,3.01363789197118e-06,3.973205671968388e-06,1.3270557616092137e-06,1.5589434265923596e-06
137,1.8373310004997331e-06,1.6322275758530954e-06,2.078751051229672e-06,2.571683560963183e-06,2.6310024790537316e-06,3.2766931318578475e-06,2.7742794071278272e-06,2.393145804458229e-06,2.5329136190703858e-06,2.022064104504472e-05,2.743262196472304e-06,2.0209676326817436e-05,3.218009884142477e-06,4.425304269896076e-06,1.3393256432122927e-06,1.6034019848152522e-06
138,1.874979592722306e-06,1.6009877851851896e-06,2.0930406617702915e-06,2.5903584201702063e-06,2.7383192044983737e-06,3.427054759898575e-06,2.71315828497758e-06,2.389576352602387e-06,2.488964879650466e-06,1.9494495193865476e-05,2.6013776314964588e-06,2.049200479752829e-05,3.441313909570786e-06,4.956557237286875e-06,1.352331990986278e-06,1.645265214651044e-06
139,1.9191225404330884e-06,1.5816527751242942e-06,2.1033258586143185e-06,2.6044768992267037e-06,2.8500725586659583e-06,3.5847523931540765e-06,2.642831149083935e-06,2.3853559521442115e-06,2.4601580611148195e-06,1.896314028329963e-05,2.456672571030674e-06,2.0752838719942714e-05,3.6832083748033204e-06,5.572178630859057e-06,1.3661563955764805e-06,1.6848507884853094e-06
140,1.9689157249878668e-06,1.5724393055203202e-06,2.1104812554529274e-06,2.6128591033908502e-06,2.9655310855563565e-06,3.7479589959958197e-06,2.5648479048824187e-06,2.38059015037491e-06,2.4473423014985436e-06,1.8637965592133243e-05,2.311021009160546e-06,2.099150248612241e-05,3.942978635357457e-06,6.277798755732149e-06,1.380770944958445e-06,1.7225700671800548e-06
141,2.0232648527432775e-06,1.571668586774316e-06,2.1157893463636493e-06,2.6148355990312305e-06,3.0840224707417256e-06,3.91460772032593e-06,2.481218196115996e-06,2.3753197674935485e-06,2.451504827703047e-06,1.8527764640976422e-05,2.1659257184903747e-06,2.120458030514396e-05,4.2193569625817305e-06,7.079389797628061e-06,1.3960530905086127e-06,1.758902788558998e-06
142,2.080770577587424e-06,1.577707081970897e-06,2.1205443230454533e-06,2.6103368868361634e-06,3.204825319008381e-06,4.08269828269911e-06,2.3942507761127992e-06,2.369478086880669e-06,2.473611473319253e-06,1.8638487373838373e-05,2.0226230827901195e-06,2.1385815554012113e-05,4.510427086662204e-06,7.982769311786801e-06,1.411737872045584e-06,1.794282915394187e-06
143,2.1398455416099926e-06,1.588862892491557e-06,2.125753866764094e-06,2.5998476667236613e-06,3.327235780375174e-06,4.250464917186938e-06,2.306296623456228e-06,2.3628143065731377e-06,2.5143950864732595e-06,1.897292400194701e-05,1.8821927658688952e-06,2.1526784438951438e-05,4.813604025441618e-06,8.992883519693375e-06,1.4273787853192544e-06,1.8289676211267165e-06
144,2.1989837645099553e-06,1.6034333741375934e-06,2.1320106664089107e-06,2.584224452971933e-06,3.4506877974854726e-06,4.416218904984064e-06,2.2195023056386195e-06,2.354895815304191e-06,2.574227885802913e-06,1.953033516032008e-05,1.7456395400566861e-06,2.161814726133554e-05,5.125753943484326e-06,1.0113321363697097e-05,1.4423961128818272e-06,1.8630490859720271e-06
145,2.2568899169164547e-06,1.6199628646687955e-06,2.1394985030337024e-06,2.5644525054724197e-06,3.5746138031699722e-06,4.578046758126184e-06,2.13572976969615e-06,2.345158407717952e-06,2.653052866946717e-06,2.0305998600157632e-05,1.61391214964694e-06,2.1650808816683518e-05,5.4434719410710485e-06,1.1346342338284027e-05,1.4561901804239149e-06,1.8966162152117642e-06
146,2.312321879836169e-06,1.6374564097819837e-06,2.1480354684687357e-06,2.541401028418671e-06,3.698228017492917e-06,4.733707425371904e-06,2.0566564439070052e-06,2.3329488807116153e-06,2.750427407786041e-06,2.129089503635998e-05,1.48786327557397e-06,2.1616130361787748e-05,5.763369020644211e-06,1.2693098262229984e-05,1.4682099230818593e-06,1.929902996357661e-06
147,2.363918015156337e-06,1.6553140014321047e-06,2.157147317645875e-06,2.515609150579009e-06,3.820522600277881e-06,4.88075238687092e-06,1.9838803213398735e-06,2.317675532274278e-06,2.8656792837983267e-06,2.247157490487383e-05,1.3682178424316681e-06,2.1504913060357112e-05,6.082210137628886e-06,1.4153502049424354e-05,1.4779546506994706e-06,1.9632471095406266e-06
148,2.4102664128012294e-06,1.6731096738467635e-06,2.1662132356016157e-06,2.487173662173467e-06,3.940266861842003e-06,5.016660529499391e-06,1.918883794673937e-06,2.299124203976153e-06,2.9979809832792685e-06,2.3829854025280733e-05,1.2556680125669396e-06,2.1306508362261492e-05,6.396807201655099e-06,1.5725676429246684e-05,1.4850473605899924e-06,1.9968701174281013e-06
149,2.4501375136460685e-06,1.6904740352552713e-06,2.174612132500656e-06,2.4558229945098897e-06,4.055850136733451e-06,5.138998334660872e-06,1.862899093526506e-06,2.2777368089762647e-06,3.1462199383456345e-06,2.534241149145665e-05,1.1510971411508555e-06,2.1010083705314778e-05,6.7036887805386785e-06,1.740544300220329e-05,1.4893932694674331e-06,2.0306759035732137e-06
150,2.4826930581545903e-06,1.7071224943843706e-06,2.1818089070146903e-06,2.421175081920256e-06,4.165239237247517e-06,5.245729203783725e-06,1.8167987390532073e-06,2.254604545998604e-06,3.308848571562746e-06,2.6981300661958913e-05,1.055747486782459e-06,2.060796953380696e-05,6.9987790662274376e-06,1.9186314982077644e-05,1.4912563153550718e-06,2.064237571676118e-06
151,2.507555881821775e-06,1.7228866063741905e-06,2.1874008493982427e-06,2.3830647536948275e-06,4.26622540446648e-06,5.335605211538405e-06,1.7810629619386658e-06,2.23118678728608e-06,3.4839517653258517e-06,2.8716489098583185e-05,9.71237050881271e-07,2.0098854965386932e-05,7.277337709229595e-06,2.105991363338188e-05,1.4911834723365954e-06,2.096960026749701e-06
152,2.5247467765818773e-06,1.737654192099895e-06,2.1911161575954605e-06,2.3417827508381565e-06,4.356808980517664e-06,5.408476173527032e-06,1.7558242658993114e-06,2.2089842125889855e-06,3.6695122861397974e-06,3.052021271046671e-05,8.995316313483009e-07,1.9489064551910627e-05,7.534054797834338e-06,2.301602655170536e-05,1.4898282883500667e-06,2.1282714247495773e-06
153,2.5346282151661318e-06,1.7512995061261297e-06,2.192772906339181e-06,2.298110143607731e-06,4.435489924868752e-06,5.465436032232285e-06,1.7409966806582555e-06,2.1893192571214593e-06,3.863678523237176e-06,3.2370978118965315e-05,8.429313839254155e-07,1.879174722060087e-05,7.763009786268758e-06,2.504172439665708e-05,1.4877436343822239e-06,2.1577324843736735e-06
154,2.5378916575706855e-06,1.7637354371687612e-06,2.1922466670257243e-06,2.25312691511369e-06,4.501339449254713e-06,5.5087922882279786e-06,1.736433203727949e-06,2.1732261550383053e-06,4.064876146163311e-06,3.4254372932364454e-05,8.040047862056725e-07,1.8024719472543556e-05,7.957772798297411e-06,2.7120309989394964e-05,1.485231326821488e-06,2.185062400203931e-06
155,2.5354327278361627e-06,1.7750350703352695e-06,2.189470140116854e-06,2.2078853150384975e-06,4.553935225644797e-06,5.541832302222886e-06,1.7419785317105613e-06,2.161458216304602e-06,4.271736237844255e-06,3.6159857844094314e-05,7.854458381350705e-07,1.7207875691201545e-05,8.112251534412849e-06,2.923142031566945e-05,1.482320844378103e-06,2.21011160144605e-06
156,2.5281230490671545e-06,1.7854573322263519e-06,2.1844732147534934e-06,2.163130388884152e-06,4.593363963233148e-06,5.568375751207194e-06,1.7573727248676119e-06,2.1545902401056503e-06,4.482858125138097e-06,3.807648905815862e-05,7.899326965020255e-07,1.636083444035805e-05,8.222016353970279e-06,3.135260689497356e-05,1.4788636019444277e-06,2.2327841640382154e-06
157,2.516723104247965e-06,1.7953316228412684e-06,2.1774260008474374e-06,2.1192305206486296e-06,4.620329276674387e-06,5.592181662041973e-06,1.7821095218971065e-06,2.1530903033115542e-06,4.696490665801843e-06,3.9991816897790864e-05,8.200624346311103e-07,1.550116986788139e-05,8.285188610919556e-06,3.346201784905505e-05,1.4746533307379687e-06,2.252940016826371e-06
158,2.5019603959683386e-06,1.804875227270018e-06,2.168589507359612e-06,2.0762914616469987e-06,4.6361497764762245e-06,5.616359399644604e-06,1.8153556468014434e-06,2.157308046260892e-06,4.91046725937003e-06,4.1894070851673875e-05,8.783800474697967e-07,1.4643435253135402e-05,8.302541420200825e-06,3.5541676857843906e-05,1.4695650765325786e-06,2.270318428705466e-06
159,2.484532498198446e-06,1.8140746087072894e-06,2.158157195034464e-06,2.034259234306226e-06,4.642437392270974e-06,5.642951436827011e-06,1.8559536325372343e-06,2.1674287882080068e-06,5.122569924794411e-06,4.377349457275341e-05,9.674875708114515e-07,1.3799032154830002e-05,8.27702464461854e-06,3.758039786139306e-05,1.4637225245937337e-06,2.2844637851557386e-06
160,2.465013415096585e-06,1.8227667835127713e-06,2.146093040588572e-06,1.9929384081968365e-06,4.640578652629888e-06,5.6727503684193996e-06,1.9025320183095364e-06,2.1834201863062595e-06,5.330814429703047e-06,4.562078939831958e-05,1.0901828940124437e-06,1.2976693197710127e-05,8.212844141869054e-06,3.95750252032338e-05,1.457530746003611e-06,2.2946964604573416e-06
161,2.4438676014458317e-06,1.8309050701647387e-06,2.1320876791724214e-06,1.9520589876535112e-06,4.631505617912337e-06,5.705285376608519e-06,1.9537361392929865e-06,2.2050634293401567e-06,5.533202568439553e-06,4.74252302661091e-05,1.2495542437656824e-06,1.2183215113996404e-05,8.114312450688144e-06,4.152890928072574e-05,1.4515312814293437e-06,2.300253917878768e-06
162,2.4215401836533366e-06,1.8388106593135594e-06,2.115680220411585e-06,1.9114558528811283e-06,4.616041281161204e-06,5.738925495175808e-06,2.008452185689395e-06,2.2321432730091555e-06,5.7273928643133395e-06,4.917513738883689e-05,1.4489998944552796e-06,1.1424121211933483e-05,7.985165157284003e-06,4.34478621054455e-05,1.4462858290371364e-06,2.3005616104948255e-06
163,2.3984338647276053e-06,1.847221164227056e-06,2.0964679296605076e-06,1.8712658650488028e-06,4.59542369565577e-06,5.771062850363963e-06,2.065837424237328e-06,2.264611547938392e-06,5.910841038920942e-06,5.08599410654023e-05,1.6921944215269384e-06,1.0703983490176821e-05,7.828822190809586e-06,4.533657219749961e-05,1.4423421384226115e-06,2.295429953211372e-06
164,2.374891037247225e-06,1.8571156740901854e-06,2.0742720506520373e-06,1.83202938895846e-06,4.571388265351551e-06,5.798291452695199e-06,2.125133516263158e-06,2.302503157130538e-06,6.081130045698964e-06,5.247122923716318e-05,1.982998319106687e-06,1.0026368548279499e-05,7.649052235766515e-06,4.7198800866937875e-05,1.4401684402609957e-06,2.2850795478805585e-06
165,2.3513885366907956e-06,1.8694618077050936e-06,2.0491965498464602e-06,1.7946034280709042e-06,4.545709125925395e-06,5.816612825562837e-06,2.1854477757637083e-06,2.3456777780790044e-06,6.236004517702971e-06,5.4001120952756634e-05,2.3253066248741074e-06,9.39373355505444e-06,7.4502352327423085e-06,4.904014718925918e-05,1.4400619972045912e-06,2.270048817115671e-06
166,2.3287446856010504e-06,1.8850787634611323e-06,2.021591216162152e-06,1.7598939638296818e-06,4.519693360381506e-06,5.821841032725061e-06,2.2456600538136266e-06,2.3936208512755273e-06,6.373081801765543e-06,5.5438431686302814e-05,2.722897217514906e-06,8.807591279052583e-06,7.237107336435655e-06,5.086911779617749e-05,1.4420876334315525e-06,2.251051499387967e-06
167,2.308050836557821e-06,1.9046695935392918e-06,1.9919898722167416e-06,1.7285883410993407e-06,4.494000552666973e-06,5.810179915517042e-06,2.3044594942848372e-06,2.445408331755893e-06,6.489561747034688e-06,5.676562749134699e-05,3.179320672272897e-06,8.268875421281216e-06,7.014253422133322e-06,5.269461813081226e-05,1.4460335745832159e-06,2.2288700965600543e-06
168,2.2904172677489916e-06,1.928865448924991e-06,1.9610949110568592e-06,1.7010447936162417e-06,4.468620536850716e-06,5.7786805859470485e-06,2.360509614770942e-06,2.4997595165715087e-06,6.582509119232586e-06,5.795958602716068e-05,3.697805159840809e-06,7.778246823978115e-06,6.7856836692270735e-06,5.452118555580356e-05,1.4513945121913926e-06,2.2043687266484413e-06
169,2.2767649429069936e-06,1.958143876146944e-06,1.929756751305958e-06,1.6773164744159083e-06,4.442875484846471e-06,5.725444567818338e-06,2.4127031136515042e-06,2.555066774931649e-06,6.649825689670693e-06,5.8995076845688924e-05,4.2811591968173914e-06,7.3362418429366364e-06,6.554846028684136e-06,5.6344474810171e-05,1.457449369526809e-06,2.1785183067720296e-06
170,2.2677568328303936e-06,1.9927175568088963e-06,1.8988470352225536e-06,1.6572098859872772e-06,4.4155913171144726e-06,5.6497610662580474e-06,2.4603525816171114e-06,2.6093998453700853e-06,6.69094809001702e-06,5.984695004507238e-05,4.9317032034342065e-06,6.943308157644159e-06,6.324869056896458e-06,5.8148811520066295e-05,1.4634735217356867e-06,2.1522627666181582e-06
171,2.263853531421281e-06,2.0325359341604345e-06,1.8690753604653968e-06,1.6403136510923275e-06,4.385429971879659e-06,5.5523310637588635e-06,2.503182619203731e-06,2.6606134379421246e-06,6.706451003807781e-06,6.0488758181286383e-05,5.651257475577808e-06,6.5997842891480105e-06,6.098504013558449e-06,5.990739551862257e-05,1.4689917045001137e-06,2.12634087841802e-06
172,2.265365561287922e-06,2.0773601598461497e-06,1.8408782802753732e-06,1.6260441441395872e-06,4.351218547037093e-06,5.4354247001206115e-06,2.5411270662655163e-06,2.7066579279504495e-06,6.6971545426414806e-06,6.089003556124226e-05,6.4411113585490476e-06,6.3058924727912286e-06,5.877955341277304e-06,6.158567497701482e-05,1.4738581388962479e-06,2.10129452559435e-06
173,2.272373681772482e-06,2.1268039399320675e-06,1.814402138603987e-06,1.6137814303064649e-06,4.3121481820828045e-06,5.302692860940318e-06,2.5741344270114406e-06,2.7459962164233495e-06,6.66379367185733e-06,6.101783748846815e-05,7.301856036394048e-06,6.0617839540609865e-06,5.665016875736991e-06,6.314741695719416e-05,1.4780947332758858e-06,2.0776288234354273e-06
174,2.2845907343419618e-06,2.1803035913596677e-06,1.789560267669041e-06,1.6029936867035815e-06,4.267722581228811e-06,5.158543337716319e-06,2.6022067684641823e-06,2.7779011289121266e-06,6.607270733732174e-06,6.084416324366772e-05,8.233117768457249e-06,5.867569814452149e-06,5.4612242369233165e-06,6.456048140017702e-05,1.4817034118539178e-06,2.0559192618631913e-06
175,2.301327397639955e-06,2.237063926722776e-06,1.7661209669570015e-06,1.5931940971543247e-06,4.217493818304691e-06,5.007322991781892e-06,2.6255364553648454e-06,2.802469524709704e-06,6.528737558901802e-06,6.0352934557272594e-05,9.233314430971782e-06,5.7232370570980286e-06,5.2677708065172415e-06,6.579909417441302e-05,1.484598727159456e-06,2.036757205350049e-06
176,2.3215919440309895e-06,2.2960543596088884e-06,1.7437302228189202e-06,1.583788671277442e-06,4.160903066255877e-06,4.852747969795384e-06,2.644436022064174e-06,2.8203426350340745e-06,6.429196347773812e-06,5.9539957492988894e-05,1.029943280030382e-05,5.628417319902905e-06,5.085508283337745e-06,6.684196516330693e-05,1.4865553492582479e-06,2.02058407442089e-06
177,2.3442341590472567e-06,2.3560245746206227e-06,1.7219229249834225e-06,1.5740032504806239e-06,4.097482395626778e-06,4.697747326431995e-06,2.6591842153639746e-06,2.8322646244972786e-06,6.309147125562414e-06,5.840645904124937e-05,1.1426778388697853e-05,5.582068698891037e-06,4.915187509710557e-06,6.766745230290166e-05,1.4871526402296964e-06,2.0075498600861097e-06
178,2.368026976595828e-06,2.415487216041593e-06,1.7002425261466887e-06,1.5629639098160038e-06,4.027214310583627e-06,4.544452036048647e-06,2.670073845803741e-06,2.838702154785661e-06,6.168855065210843e-06,5.695344779563481e-05,1.2608771602649997e-05,5.582199842292041e-06,4.757664246882467e-06,6.824861453270824e-05,1.4858184087901088e-06,1.9975083040574995e-06
179,2.3916373239542416e-06,2.472751809365729e-06,1.6784051641008384e-06,1.5498733935317888e-06,3.950570954379251e-06,4.394156212461938e-06,2.6775118052958493e-06,2.839723051490464e-06,6.009021235236909e-06,5.5184188989414815e-05,1.3836853812466096e-05,5.625715155821679e-06,4.613905738920169e-06,6.855377999272726e-05,1.481930971009743e-06,1.9901495924704664e-06
180,2.4135749124839973e-06,2.5260734074582207e-06,1.6564183598424905e-06,1.5341651611742105e-06,3.868150239491561e-06,4.247348686410586e-06,2.681940558552126e-06,2.8351833409193345e-06,5.831147514624317e-06,5.311347209891264e-05,1.5100341549677295e-05,5.708345888947188e-06,4.484900260580128e-06,6.855578354789662e-05,1.4749110471740888e-06,1.985154887902103e-06
181,2.4323137907953972e-06,2.5738678831178893e-06,1.6346195677609866e-06,1.5155182469775993e-06,3.78039703950252e-06,4.103944412360219e-06,2.6837172587318263e-06,2.82511948036617e-06,5.63723374703827e-06,5.077478190198094e-05,1.638603108329176e-05,5.824664148431109e-06,4.371506990776885e-06,6.824448122113382e-05,1.4643864924449583e-06,1.982250239741149e-06
182,2.4466130357249975e-06,2.6149472258724675e-06,1.6135582007374446e-06,1.493813638172633e-06,3.6876970792586296e-06,3.963772267013996e-06,2.6831905788945938e-06,2.8101271303010244e-06,5.429168851867459e-06,4.821912164725718e-05,1.767775210815189e-05,5.968264011283517e-06,4.2742462679183505e-06,6.763350684968417e-05,1.4504477684976375e-06,1.981142251731115e-06
183,2.4557768639733373e-06,2.648686855950468e-06,1.5937526934851825e-06,1.4692364982870712e-06,3.5905442669880902e-06,3.8270813844412825e-06,2.680973793543222e-06,2.791436980688836e-06,5.208443873543106e-06,4.5506957251935685e-05,1.8956327048068314e-05,6.132104828086744e-06,4.193164835199184e-06,6.675616625401242e-05,1.4337579673107946e-06,1.981455050586724e-06
184,2.459641291078042e-06,2.6749908614245367e-06,1.5755086488212067e-06,1.442445679164831e-06,3.489528770087376e-06,3.6946543570835834e-06,2.6781240960657035e-06,2.770588934932392e-06,4.976290501632186e-06,4.2698990677049154e-05,2.0200013278949073e-05,6.308875733746541e-06,4.127788014813267e-06,6.565337825492661e-05,1.4153519309761281e-06,1.982787172030532e-06
185,2.4583662147890634e-06,2.6940506056840994e-06,1.558895654647786e-06,1.4145301863947891e-06,3.385260644434871e-06,3.5674725262374024e-06,2.6759661107940247e-06,2.748999855481415e-06,4.733939477866114e-06,3.985002922938356e-05,2.138509439292613e-05,6.491194573805201e-06,4.0770171584946925e-06,6.43642946477951e-05,1.3963441366991925e-06,1.9848078785219968e-06
186,2.452226632385536e-06,2.7060314125706775e-06,1.5438218439238543e-06,1.3867340802200271e-06,3.2783831238011213e-06,3.44628190065149e-06,2.6756983003626557e-06,2.7277433642650785e-06,4.48288495031097e-06,3.700643437792936e-05,2.2486463774957177e-05,6.671472574722279e-06,4.039023666851619e-06,6.292536315044144e-05,1.3777885641532155e-06,1.98727101637082e-06
187,2.441461751276474e-06,2.7108157671178194e-06,1.5301391407558283e-06,1.3601964353223547e-06,3.1696697947062703e-06,3.3314207283001654e-06,2.67810383125904e-06,2.707497426122125e-06,4.225131595251811e-06,3.420587501719787e-05,2.347847673395271e-05,6.841603207335798e-06,4.011372045149942e-06,6.137174553005999e-05,1.3606230196117133e-06,1.9900072909554036e-06
188,2.426168770735561e-06,2.707914650369404e-06,1.5177292233141532e-06,1.335857807413638e-06,3.0600622836633037e-06,3.2229824380321486e-06,2.683446583818944e-06,2.6885231285000093e-06,3.963191894757046e-06,3.1478402181039935e-05,2.433652204890885e-05,6.993116425971408e-06,3.991463348048788e-06,5.97360351376468e-05,1.3456207828988143e-06,1.9929445725135907e-06
189,2.406348104596738e-06,2.6966281066231323e-06,1.5064999875349633e-06,1.3144729193003517e-06,2.9505295879297205e-06,3.1210526868724826e-06,2.6914514690384866e-06,2.6707338629544773e-06,3.6997677723490895e-06,2.8847959130052887e-05,2.5039413840101987e-05,7.1181597767914935e-06,3.977063630316511e-06,5.804625637048109e-05,1.3334121170000237e-06,1.996064059790382e-06
190,2.382160168957933e-06,2.6763896022617345e-06,1.4963189875845312e-06,1.296629408474732e-06,2.841896282537936e-06,3.0257131116905876e-06,2.7013109066652515e-06,2.6539187862056633e-06,3.4375596329605265e-06,2.6333458114114118e-05,2.5571760460875165e-05,7.210724083458082e-06,3.966550116239634e-06,5.6324526636619924e-05,1.3245380056156393e-06,1.9992518016650043e-06
191,2.354207577618722e-06,2.6471200163836994e-06,1.4870199327555979e-06,1.2827424082955058e-06,2.7349247528562426e-06,2.9368607463103744e-06,2.7117619411410423e-06,2.638016356064576e-06,3.179388231144881e-06,2.3949155079438363e-05,2.5924547067369613e-05,7.267129354274497e-06,3.958734647195614e-06,5.458541382886349e-05,1.3194169193936807e-06,2.0021268354190262e-06
192,2.3236076279342412e-06,2.6094269059479396e-06,1.4785106957808397e-06,1.2730602362795784e-06,2.6305773849699023e-06,2.8541675759800984e-06,2.721312154508086e-06,2.6232948623826875e-06,2.9281518421834506e-06,2.170464971077502e-05,2.6092884344152e-05,7.285351099146878e-06,3.952512510329294e-06,5.283443941295763e-05,1.3182494422770477e-06,2.003942857457688e-06
193,2.291778024857326e-06,2.5645389063176777e-06,1.4708697582579433e-06,1.2677349980006595e-06,2.5300672521282886e-06,2.7772239497227794e-06,2.72857371921224e-06,2.6104086247479e-06,2.6864785218438226e-06,1.960499849631376e-05,2.6072893603489382e-05,7.263877429062207e-06,3.946767479440622e-06,5.106916881535795e-05,1.3209909858211647e-06,2.0036366527882935e-06
194,2.260057306053328e-06,2.5140176264314144e-06,1.464355626412418e-06,1.2669231488410565e-06,2.434623900789961e-06,2.7055682024729705e-06,2.7325020016450593e-06,2.6003553160409246e-06,2.456490275224078e-06,1.7651230157351698e-05,2.586142910346781e-05,7.2013148614468145e-06,3.9405215762264874e-06,4.928380092971456e-05,1.3274367896522958e-06,2.0000584519274302e-06
195,2.229408678009007e-06,2.4594522149482004e-06,1.4593283517678218e-06,1.2708016569656168e-06,2.3452558540976713e-06,2.63854765729071e-06,2.7323668528281097e-06,2.594312978465035e-06,2.2398184439861787e-06,1.584118759462554e-05,2.5459208587287794e-05,7.097048512306174e-06,3.932876395268896e-06,4.747418975581374e-05,1.3373322380715677e-06,1.9922970509339183e-06
196,2.200332240794141e-06,2.4022826342648424e-06,1.4561366525823175e-06,1.2794726190993168e-06,2.2626326338584593e-06,2.5752676749653812e-06,2.727502586430976e-06,2.593391521919997e-06,2.0377013986998235e-06,1.417039835541731e-05,2.4874119922879894e-05,6.952168008176087e-06,3.922733768674282e-06,4.563923454411848e-05,1.3503881527967542e-06,1.9798930861858263e-06
197,2.172898797006265e-06,2.3437040625838825e-06,1.455068011583747e-06,1.2928743806739993e-06,2.1870440061854512e-06,2.5147383111542587e-06,2.7170330485131516e-06,2.59845454896586e-06,1.8510712675914001e-06,1.2632805187658861e-05,2.412216679636339e-05,6.769901361008696e-06,3.908755098057975e-06,4.37779972748633e-05,1.3662189470592256e-06,1.9628287447120093e-06
198,2.14684918385596e-06,2.284577407274996e-06,1.4563629649901509e-06,1.3108169671658866e-06,2.1184915553886883e-06,2.4561409902219056e-06,2.69979199101242e-06,2.610061806670615e-06,1.680592190122023e-06,1.1221440438616735e-05,2.3226127247679117e-05,6.555329230230425e-06,3.889683035264662e-06,4.188612986740766e-05,1.3843541901149264e-06,1.941395896688711e-06
199,2.1217710142857362e-06,2.225412856139526e-06,1.4601865542072014e-06,1.3331179062597388e-06,2.0569158548112554e-06,2.3990951985255892e-06,2.6745327791613246e-06,2.6284608571609385e-06,1.5266553953767416e-06,9.929080282752523e-06,2.2212961891430276e-05,6.314516153764903e-06,3.8646928612692335e-06,3.9956035714582064e-05,1.404369384592179e-06,1.916049192647789e-06
200,2.0972351507108413e-06,2.166468285741767e-06,1.4665509587019458e-06,1.3597211140985618e-06,2.0023706182176765e-06,2.3437417615735013e-06,2.6402466320174865e-06,2.6536447650850006e-06,1.389372036901571e-06,8.748710090764888e-06,2.111088803725674e-05,6.0534550311428815e-06,3.833447743336907e-06,3.798146449027761e-05,1.4260041391422946e-06,1.8872458227749137e-06
201,2.072821793499689e-06,2.1078084900426897e-06,1.4753011668100425e-06,1.3907188235756521e-06,1.9550251643368143e-06,2.290562655494325e-06,2.5963405022190874e-06,2.685456181293983e-06,1.268558001178424e-06,7.67374253103669e-06,1.9946785032018864e-05,5.777304575217128e-06,3.7958165654484853e-06,3.596323899449007e-05,1.4491280735111794e-06,1.855346472341055e-06
202,2.0481715505991103e-06,2.0492214836713654e-06,1.486178097160151e-06,1.426266749790811e-06,1.9150731719586413e-06,2.2401360780725676e-06,2.5426715195365432e-06,2.7235872224671735e-06,1.163733163561833e-06,6.698155374203766e-06,1.87443488975522e-05,5.490156536109627e-06,3.7515441468729698e-06,3.391249457736461e-05,1.4735684011172414e-06,1.8206717185969307e-06
203,2.0230680477915404e-06,1.990145936487567e-06,1.4988390642892567e-06,1.4664529625875066e-06,1.8826246051098356e-06,2.19305095125149e-06,2.4795955774178844e-06,2.767452407138521e-06,1.0742066944582871e-06,5.81663577653095e-06,1.752327644618649e-05,5.19518162299958e-06,3.7002763994058855e-06,3.184975285215986e-05,1.4989701193140289e-06,1.7836110849724691e-06
204,1.9974544528982796e-06,1.9298113667897046e-06,1.5128058602651281e-06,1.5112335931708362e-06,1.8575925848701356e-06,2.14992210951378e-06,2.4080361754272897e-06,2.8161145410107363e-06,9.992491480782094e-07,5.0246285906986115e-06,1.6299464829719082e-05,4.894869978202458e-06,3.641916253663271e-06,2.98005018231661e-05,1.5248240036615778e-06,1.7446565191408075e-06
205,1.9714883913325634e-06,1.8675821545614863e-06,1.527494344396934e-06,1.5604622766724987e-06,1.8396378280116936e-06,2.111331937203757e-06,2.329395016162497e-06,2.868335231041393e-06,9.382443659280981e-07,4.318181166096545e-06,1.5085770891850714e-05,4.591240277050844e-06,3.576835026438929e-06,2.7789858779426126e-05,1.5505752130358854e-06,1.7044157781631534e-06
206,1.945651194988099e-06,1.8032944040193416e-06,1.5424110748273705e-06,1.613913372185256e-06,1.8282724728339086e-06,2.077693976422493e-06,2.2453133606098892e-06,2.9226110051707646e-06,8.907194788879879e-07,3.6936083371148417e-06,1.3892842796378388e-05,4.286017361602388e-06,3.505757324004999e-06,2.5838781024145784e-05,1.575639959378238e-06,1.663636830859894e-06
207,1.920699688374047e-06,1.7373721157349174e-06,1.5573391175381838e-06,1.6712546087995109e-06,1.8230716157854643e-06,2.049149832567238e-06,2.157560937213327e-06,2.977176200095736e-06,8.562786479255571e-07,3.147139111545484e-06,1.2729805518083403e-05,3.980764773874158e-06,3.4296060300054983e-06,2.3962577963568178e-05,1.5993753437697203e-06,1.6231441475677678e-06
208,1.8974286931191975e-06,1.6706599767409933e-06,1.572304498752217e-06,1.7320382739494065e-06,1.823765803176376e-06,2.025616578838985e-06,2.0680850950038968e-06,3.030136603908747e-06,8.345176953476159e-07,2.674730883073533e-06,1.1604676118033303e-05,3.676964687282259e-06,3.3494541500473036e-06,2.217117311195429e-05,1.6211998570706517e-06,1.5836949852899943e-06
209,1.8764256804604845e-06,1.6041010614512947e-06,1.5873942585645199e-06,1.795743841030884e-06,1.8301233369326777e-06,2.007056963227696e-06,1.9789420317022457e-06,3.0797324334271775e-06,8.249610312448196e-07,2.2720948141248123e-06,1.052442942268094e-05,3.376080258521966e-06,3.2664589983107206e-06,2.047027198243817e-05,1.640838152044116e-06,1.5458739636124124e-06
210,1.8579440126938655e-06,1.5385137969923584e-06,1.6026356663802298e-06,1.8618135418180454e-06,1.8417813997017484e-06,1.9938192092837564e-06,1.8920696107674404e-06,3.124500571224928e-06,8.270738564370032e-07,1.934831925195686e-06,9.494815726316514e-06,3.079599599331946e-06,3.1817648559728235e-06,1.886279060830159e-05,1.6584029811243078e-06,1.5100538092195969e-06
211,1.841944913576418e-06,1.4745931490754853e-06,1.617972220693883e-06,1.92963932391122e-06,1.8581719373130026e-06,1.9867099307833918e-06,1.8091301652459545e-06,3.163213448428134e-06,8.403415697225147e-07,1.6585857924622966e-06,8.520171855864593e-06,2.7890289640886394e-06,3.096433394043049e-06,1.735010073495752e-05,1.6741977040132278e-06,1.4764315433202186e-06
212,1.8282647575792457e-06,1.41299950239724e-06,1.6333093737402235e-06,1.998544104080767e-06,1.8785691602093648e-06,1.9867007664651714e-06,1.7314914860586239e-06,3.1947574380573487e-06,8.642980437654765e-07,1.4391523454333115e-06,7.603415907099305e-06,2.5058498496122952e-06,3.0113388125647982e-06,1.593283162850487e-05,1.6884865816446314e-06,1.445168185932607e-06
213,1.8167225422021323e-06,1.3543701147748466e-06,1.6486716400284756e-06,2.067806612492775e-06,1.902223096142322e-06,1.9945453801849975e-06,1.660228469334495e-06,3.218171761936733e-06,8.984874516892605e-07,1.2724959692420898e-06,6.746252385280552e-06,2.231444343270424e-06,2.9270673128334913e-06,1.4611291204953307e-05,1.7014284705383988e-06,1.4165398119554015e-06
214,1.8070755764020524e-06,1.2992599029829949e-06,1.664362109610885e-06,2.1366910946429767e-06,1.9284386066786937e-06,2.010589383535363e-06,1.5961057239343967e-06,3.2328717391510493e-06,9.424579060605982e-07,1.1547374045194392e-06,5.949459216341143e-06,1.9669897222853834e-06,2.8439300256505683e-06,1.3385726839037702e-05,1.713060592551733e-06,1.3909746121403471e-06
215,1.798943682682038e-06,1.2481302343364046e-06,1.6809180676818938e-06,2.2044173671176487e-06,1.9565032658049673e-06,2.0348078207664873e-06,1.5395952738094894e-06,3.238904784171406e-06,9.95770214981762e-07,1.08223024449695e-06,5.2131021153254574e-06,1.7134672595627063e-06,2.762033303839462e-06,1.2256516460257638e-05,1.7232322317818038e-06,1.3689768303919496e-06
216,1.7917974376569681e-06,1.2014036459202384e-06,1.6988801414234515e-06,2.270166511396137e-06,1.9856366428892866e-06,2.0669360472268164e-06,1.4909436730926283e-06,3.2370583721714705e-06,1.0579861933219018e-06,1.0516693795446725e-06,4.536676796463791e-06,1.4719191795142422e-06,2.681385098620938e-06,1.1224356891105349e-05,1.7315539316523824e-06,1.3510270549913137e-06
217,1.7850104547863103e-06,1.1594676321633185e-06,1.7185961500954407e-06,2.333304248652753e-06,2.0150733680328614e-06,2.1065162714664394e-06,1.450263492352492e-06,3.2287159187471356e-06,1.1286719170668296e-06,1.0600749349232862e-06,3.919297461586166e-06,1.2438174099913394e-06,2.6020106494369837e-06,1.0290547189506811e-05,1.7373923440004473e-06,1.3375081571046962e-06
218,1.777953726573779e-06,1.1226274812309292e-06,1.7401978841075713e-06,2.3937166912620323e-06,2.0440971727452848e-06,2.152809665380365e-06,1.4175934209648074e-06,3.215484506978323e-06,1.2073847084060808e-06,1.1046256646182336e-06,3.35994865043234e-06,1.03130937395759e-06,2.523917229166898e-06,9.457235942025738e-06,1.7399117217579584e-06,1.3286310837671722e-06
219,1.7700745180163188e-06,1.0911050879665429e-06,1.7636600028850515e-06,2.4519014312077217e-06,2.072038732888361e-06,2.2047462243035853e-06,1.392880877667152e-06,3.1987455113490072e-06,1.2936213156193271e-06,1.1824973812520055e-06,2.857664085600724e-06,8.372575052741844e-07,2.446937037880054e-06,8.72735681028449e-06,1.7382576771726302e-06,1.324373472109229e-06
220,1.760911031521549e-06,1.0650822823973422e-06,1.788814080278623e-06,2.5087014595673856e-06,2.098389135492962e-06,2.2610676285812265e-06,1.3759833128346843e-06,3.17934203210731e-06,1.3868149763212933e-06,1.2908681142654285e-06,2.411533742918371e-06,6.651295165259662e-07,2.3706805708338904e-06,8.104271416340872e-06,1.7318967123732428e-06,1.3244967297678935e-06
221,1.7500305530731423e-06,1.044749796540265e-06,1.8153914980630672e-06,2.5649297563087945e-06,2.1228501990426175e-06,2.3205255397777847e-06,1.3667852982026726e-06,3.1575308315882775e-06,1.4864658803707088e-06,1.4270750734713213e-06,2.0206391418677113e-06,5.188487011443835e-07,2.2947258375182082e-06,7.591420085693706e-06,1.7208557726245515e-06,1.3286387631341694e-06
222,1.7369431093262593e-06,1.030314068695355e-06,1.843146759893955e-06,2.6211246720042342e-06,2.1451657438132437e-06,2.3818738992185674e-06,1.3652905737479753e-06,3.13313817662373e-06,1.5923099247866507e-06,1.5888098572637646e-06,1.6840726306181093e-06,4.026974053527825e-07,2.218927905577392e-06,7.1921195078326044e-06,1.7056771120918205e-06,1.336414858006794e-06
223,1.7211487592630934e-06,1.0219328142573722e-06,1.8718880040791753e-06,2.6774410344529267e-06,2.1648999634466055e-06,2.4436741425618844e-06,1.3715429289312577e-06,3.1057668268901386e-06,1.7042959209391761e-06,1.7742283443884781e-06,1.4010207549080158e-06,3.213104650490785e-07,2.143592180597212e-06,6.909362919214872e-06,1.687255730371417e-06,1.3474945343037287e-06
224,1.7023629565821394e-06,1.0196652587527014e-06,1.9013683997778885e-06,2.7335981010475484e-06,2.1813894839479676e-06,2.5041814011690477e-06,1.3854831935258783e-06,3.0749823827330207e-06,1.8223462815749638e-06,1.981843237780161e-06,1.1707784211155722e-06,2.797058745507043e-07,2.0694125269059284e-06,6.7455036028886114e-06,1.666710870265288e-06,1.3616429264355984e-06
225,1.680681072724282e-06,1.0235104135150056e-06,1.931191726063567e-06,2.788915992992063e-06,2.1939270285629674e-06,2.5614526596564106e-06,1.406866105607005e-06,3.0405056322022173e-06,1.94613608382711e-06,2.210230154447419e-06,9.926613030658026e-07,2.8324355756383545e-07,1.99729972280018e-06,6.701901677750826e-06,1.6452337508213492e-06,1.3786895591694633e-06
226,1.6564736796793902e-06,1.0334690268935497e-06,1.9607513636741415e-06,2.842474946106328e-06,2.2020002988185293e-06,2.6135938721757797e-06,1.4352115893441768e-06,3.002397220845769e-06,2.0750277510286306e-06,2.457801553916978e-06,8.659164812528871e-07,3.3748939361973717e-07,1.9282189041781264e-06,6.778656160081932e-06,1.6239151758402147e-06,1.398474065615796e-06
227,1.6301355971799987e-06,1.0495379297695414e-06,1.989163341573882e-06,2.893238669606401e-06,2.2053992744306877e-06,2.6590014253005017e-06,1.469784604124129e-06,2.961148090828456e-06,2.208106148890086e-06,2.722768882288383e-06,7.897035812394824e-07,4.4810303152985816e-07,1.8630694903002409e-06,6.974509338290878e-06,1.603658730156256e-06,1.4208721803597261e-06
228,1.6019660042387953e-06,1.0716436408789343e-06,2.015258047056724e-06,2.9399970075595102e-06,2.204228208038981e-06,2.6965293996809725e-06,1.509630256085323e-06,2.917612051457739e-06,2.344262078653071e-06,3.003096420508094e-06,7.631049564130507e-07,6.208577348043723e-07,1.8026566570664382e-06,7.287027552286074e-06,1.5851798473946516e-06,1.445842656646163e-06
229,1.5722642162822195e-06,1.099586202405247e-06,2.0376921512051632e-06,2.981322710143884e-06,2.1989271673643794e-06,2.7256206832715795e-06,1.5536121542045958e-06,2.8727664971415135e-06,2.4822508686054503e-06,3.2963505996535896e-06,7.85117784614757e-07,8.617194911952086e-07,1.747786955764138e-06,7.71306313175315e-06,1.568986292982501e-06,1.4733848559113509e-06
230,1.5414627008505155e-06,1.1330446116893291e-06,2.055178745320143e-06,3.0157760955355325e-06,2.190248634573673e-06,2.74639582629933e-06,1.6004194949299348e-06,2.827371174424593e-06,2.6206134233304547e-06,3.599711680756691e-06,8.546692007000515e-07,1.176864022105425e-06,1.6993632288040454e-06,8.249281965512511e-06,1.5553160381377472e-06,1.5034519033453783e-06
231,1.5101200834753456e-06,1.171676399118074e-06,2.0667681987097263e-06,3.0422179952232953e-06,2.1790980711214284e-06,2.7595434288197813e-06,1.6486227972310538e-06,2.781742162118861e-06,2.7575289063669545e-06,3.910411748446518e-06,9.707084934508446e-07,1.5727128375445779e-06,1.6583188838336925e-06,8.89243780473278e-06,1.5441088665604905e-06,1.535903368510306e-06
232,1.4788423881059839e-06,1.2152427225316131e-06,2.0720457093479687e-06,3.059982798139146e-06,2.1663701463055837e-06,2.7659519764019427e-06,1.696842999966934e-06,2.735877410701485e-06,2.890836520413777e-06,4.226456704600753e-06,1.1323439354407968e-06,2.0561076620189174e-06,1.6254399023090985e-06,9.63923070843552e-06,1.5350779198682043e-06,1.5704815364049122e-06
233,1.4482760634233003e-06,1.2636071250851272e-06,2.0711256559605175e-06,3.068879254537995e-06,2.152956204961553e-06,2.766342385486401e-06,1.7439721649959024e-06,2.689877193546541e-06,3.0183485482823825e-06,4.547106749586613e-06,1.3389292349910334e-06,2.6345465837638095e-06,1.6012343856424187e-06,1.0485930960247706e-05,1.5278704696368446e-06,1.606759988540196e-06
234,1.419106818084353e-06,1.3166579400186757e-06,2.0644630484217607e-06,3.0691149939410816e-06,2.1397941816670217e-06,2.7611635502987316e-06,1.7893195212088778e-06,2.644249037404361e-06,3.1383150320048908e-06,4.87265215206539e-06,1.5900181831502025e-06,3.3163559786282315e-06,1.5859025922203872e-06,1.1428135081770628e-05,1.5221975933651035e-06,1.6440777433159021e-06
235,1.3919750933392267e-06,1.3742863716723897e-06,2.0526339557641432e-06,3.061212024835782e-06,2.1277505753398306e-06,2.7506766225315067e-06,1.8325825432439994e-06,2.5997838193890354e-06,3.249740438093725e-06,5.203652403635077e-06,1.8852279863972117e-06,4.110747821696007e-06,1.5793734218687076e-06,1.2460760902025313e-05,1.5178263263418533e-06,1.6815060879165264e-06
236,1.3674063350434314e-06,1.4363421734682088e-06,2.036211800311101e-06,3.04590662242022e-06,2.1174394203763436e-06,2.735059670235625e-06,1.8736413208159076e-06,2.5571597003997493e-06,3.3523480002798026e-06,5.540287158253989e-06,2.224204396892617e-06,5.0277348965068295e-06,1.581385343462272e-06,1.3578020117907006e-05,1.5145208717659563e-06,1.7178896905081941e-06
237,1.3458131989557203e-06,1.5025197601798716e-06,2.0157557853253054e-06,3.024032459833785e-06,2.109230567882668e-06,2.7145263554006106e-06,1.912313874258719e-06,2.5166271596639825e-06,3.4462309992978575e-06,5.882093140730516e-06,2.606792207056215e-06,6.077834647709953e-06,1.5915919139866156e-06,1.4773117142916544e-05,1.5120467390457285e-06,1.7520020017750026e-06
238,1.327498032403406e-06,1.5722711712321593e-06,1.991836458946331e-06,2.9964663320692834e-06,2.1034242395090575e-06,2.6894526243177626e-06,1.948268576779546e-06,2.477887631290101e-06,3.531416176944425e-06,6.227863324543376e-06,3.033259915038943e-06,7.271542299306653e-06,1.6096499447097576e-06,1.6037650210495118e-05,1.5101831811984622e-06,1.7827596236647373e-06
239,1.3126559071608287e-06,1.644773981993564e-06,1.964989960302219e-06,2.9641868813311324e-06,2.100317236410724e-06,2.6604148335246614e-06,1.981156460442648e-06,2.440103468067399e-06,3.607579676011549e-06,6.575555137112864e-06,3.5043812671318815e-06,8.618906610300769e-06,1.6352567346334619e-06,1.736086573520911e-05,1.5087332197918464e-06,1.8093737726143982e-06
240,1.3014197715335837e-06,1.7189325237017137e-06,1.93559015232802e-06,2.9283155978553954e-06,2.1000795571129716e-06,2.6281263614968086e-06,2.0107904955934175e-06,2.4020891684660836e-06,3.674010254275859e-06,6.922158058741279e-06,4.02131566671501e-06,1.0129690664783776e-05,1.6681373987806051e-06,1.872912230859834e-05,1.5075806117632803e-06,1.8314407036821098e-06
241,1.2938856059916196e-06,1.7934059190347938e-06,1.903772396710081e-06,2.8899785633163665e-06,2.102629194348796e-06,2.593387016830437e-06,2.0371372235710137e-06,2.3627418295748544e-06,3.729901660202513e-06,7.263532251506054e-06,4.585332628707131e-06,1.1814063761067312e-05,1.70804979460151e-06,2.0125846931307503e-05,1.5066838859083577e-06,1.8490289310105557e-06
242,1.290090232357751e-06,1.8666547313919804e-06,1.8694913876359143e-06,2.8501023049179215e-06,2.1075865150315696e-06,2.5571010811849514e-06,2.0601028418409377e-06,2.321493064811427e-06,3.775014829119516e-06,7.594556634692324e-06,5.197463034647514e-06,1.3683293524356938e-05,1.7548254466553093e-06,2.1531651652115703e-05,1.5059435935252605e-06,1.8626990851670516e-06
243,1.290050531184327e-06,1.9370329681733538e-06,1.8326389746555702e-06,2.8093753642511357e-06,2.1142276551473304e-06,2.5202837559143804e-06,2.0793238212230975e-06,2.2784008355204067e-06,3.810258745480956e-06,7.909883201945454e-06,5.858128388590163e-06,1.5750035241977227e-05,1.8083305414071275e-06,2.2924425224549026e-05,1.5051109826984352e-06,1.8733685882321642e-06
244,1.2938835043808846e-06,2.002957856472123e-06,1.7931643474488425e-06,2.768351907092604e-06,2.121415247440323e-06,2.483954750899465e-06,2.0941384705178565e-06,2.2338204770421866e-06,3.837590054797096e-06,8.204992911466268e-06,6.5667585246546144e-06,1.8028099258621343e-05,1.8683426458470437e-06,2.4280663955611704e-05,1.5038595141495828e-06,1.8820572459577255e-06
245,1.3018398143830285e-06,2.0631103814017444e-06,1.7512198656980725e-06,2.7275395140080563e-06,2.1275809220805543e-06,2.4489316715637468e-06,2.103743536733082e-06,2.1880792964736296e-06,3.859361407754491e-06,8.477001902079296e-06,7.321468245312721e-06,2.0531800399562926e-05,1.934454839080176e-06,2.5579204298855377e-05,1.50191253760441e-06,1.889647095950358e-06
246,1.3141695430277577e-06,2.116554915233876e-06,1.7072969594863219e-06,2.6874115526977115e-06,2.130857206292163e-06,2.4156767625116394e-06,2.1074532866700622e-06,2.14145371233948e-06,3.877759883080998e-06,8.724923879473987e-06,8.118913056745441e-06,2.327520758293948e-05,2.0060101915776237e-06,2.6805858105886754e-05,1.49910233272783e-06,1.8967978597482979e-06
247,1.3309760527722878e-06,2.162725547495301e-06,1.6622312728454366e-06,2.648338830762303e-06,2.129391257351314e-06,2.3842935582447026e-06,2.1049273801632844e-06,2.094238354243289e-06,3.894620206353867e-06,8.949385419863785e-06,8.95435089866216e-06,2.6271530169468863e-05,2.0820425874196753e-06,2.7955751551775555e-05,1.4953445521992536e-06,1.9040400388582753e-06
248,1.3521969874048198e-06,2.2013655629651445e-06,1.6170368144328676e-06,2.610517613767396e-06,2.12174554567854e-06,2.354601667161547e-06,2.096210551357044e-06,2.0467314830149423e-06,3.911422100729928e-06,9.15202493265067e-06,9.821768430125933e-06,2.9532509273097995e-05,2.161288537640438e-06,2.9031313507487085e-05,1.4905455594263046e-06,1.911888904674263e-06
249,1.3776353362295307e-06,2.2325173476427347e-06,1.5727079671447243e-06,2.5740392339306073e-06,2.1072233400846477e-06,2.3262549542208883e-06,2.0815627438582724e-06,1.9992458475586155e-06,3.929388308898068e-06,9.334781308777577e-06,1.0713836484913991e-05,3.3067592992864075e-05,2.2424106399360477e-06,3.0037303120469047e-05,1.484560066745529e-06,1.9208086986289134e-06
250,1.406938063895726e-06,2.2564887272944238e-06,1.5301398020134258e-06,2.5390812801720064e-06,2.0859648600881025e-06,2.298944359603859e-06,2.0612518258255777e-06,1.9521321673979435e-06,3.949763340550423e-06,9.49931559380786e-06,1.1621585708685163e-05,3.6882896543108914e-05,2.324434422865746e-06,3.097755245045971e-05,1.4773416407145615e-06,1.93104456723015e-06
251,1.4396065852584838e-06,2.273684419771398e-06,1.4901338983857215e-06,2.5060029206432316e-06,2.058721385397412e-06,2.272620032042672e-06,2.035503996812343e-06,1.9057115192133295e-06,3.9740229915835215e-06,9.64711535813899e-06,1.2533923056223335e-05,4.097999072136303e-05,2.4070362655007842e-06,3.185580172859643e-05,1.4691755467789134e-06,1.942485793960056e-06
252,1.475165225073564e-06,2.2844404522628033e-06,1.4533628954830283e-06,2.4752073978233805e-06,2.0264101643476984e-06,2.2475573668294257e-06,2.0046383509387893e-06,1.8602328536760346e-06,4.00369477278088e-06,9.780329791522887e-06,1.3437245007916582e-05,4.535446696727157e-05,2.4903547391835628e-06,3.267752168354405e-05,1.460748153880183e-06,1.9546480481649166e-06
253,1.5134097442447927e-06,2.2890739965357203e-06,1.4202890747975668e-06,2.4468758146394823e-06,1.989782616436098e-06,2.224172098289613e-06,1.969225411961178e-06,1.8159856258237555e-06,4.039942486102682e-06,9.902458101602916e-06,1.431550732077564e-05,4.999430280579603e-05,2.574529294573634e-06,3.344973130466607e-05,1.4529968051778406e-06,1.96672751594698e-06
254,1.5545097886468886e-06,2.2880344998779465e-06,1.3911659951382357e-06,2.4207745354180296e-06,1.949504756603346e-06,2.2027256086980206e-06,1.930103303108849e-06,1.7734607437618225e-06,4.0832658340761736e-06,1.0018312661177305e-05,1.5151038820567654e-05,5.4878159986507094e-05,2.659368475239871e-06,3.417930201196222e-05,1.4468801912314228e-06,1.977677755625385e-06
255,1.5988711907944283e-06,2.2818937137719406e-06,1.366189000135244e-06,2.3962459276210745e-06,1.906551318488961e-06,2.1831626142550177e-06,1.8882810826957782e-06,1.7334008656339754e-06,4.133472460787117e-06,1.0133533101495761e-05,1.5925999004745885e-05,5.997366757382395e-05,2.7442393793016904e-06,3.4870795826928666e-05,1.4432260252156415e-06,1.9863247351292415e-06
256,1.646929568402469e-06,2.2711979631256987e-06,1.3456612138198996e-06,2.3723648630390195e-06,1.8624341740869336e-06,2.165191006493129e-06,1.8448879669085753e-06,1.6966878035085487e-06,4.1899192670644296e-06,1.0254060603566687e-05,1.6624096924588847e-05,6.523568790581478e-05,2.8281187351375225e-06,3.5524707797293846e-05,1.4426983991817968e-06,1.991548416358813e-06
257,1.6990603599793317e-06,2.256383945927183e-06,1.329997729287863e-06,2.3481633235320217e-06,1.8189864092147478e-06,2.1485329948187436e-06,1.801165870643102e-06,1.6641210025491237e-06,4.251876821512892e-06,1.0385774158490051e-05,1.723221765217443e-05,7.060465785066858e-05,2.9098119993197415e-06,3.613748840506313e-05,1.4458038592296282e-06,1.9924767627991444e-06
258,1.755537514960158e-06,2.237811488707682e-06,1.3196020147059636e-06,2.322812376076657e-06,1.777972517549869e-06,2.1331529758569373e-06,1.7583684271382223e-06,1.6362275405206918e-06,4.318750215373592e-06,1.0534325225338416e-05,1.7741595136081165e-05,7.600523595854612e-05,2.9881722138366957e-06,3.6702839803942826e-05,1.4528709770413966e-06,1.988560079277704e-06
259,1.816420371748209e-06,2.215853707988497e-06,1.3147662381224937e-06,2.2957053346807273e-06,1.740861855722675e-06,2.119315740243896e-06,1.7176263954599933e-06,1.6132184839551168e-06,4.389987580274543e-06,1.0704932987008854e-05,1.8148023934817395e-05,8.134601985963975e-05,3.062063294355243e-06,3.721203643432123e-05,1.4640430076975955e-06,1.9794541373268597e-06
260,1.8814259151189526e-06,2.190998059451095e-06,1.3156233929595652e-06,2.266455187506056e-06,1.7087761167447495e-06,2.1074928175965287e-06,1.6799060763389314e-06,1.5950871452932913e-06,4.464835448770984e-06,1.0901850955555535e-05,1.845065447975736e-05,8.652175838709642e-05,3.1301975567374457e-06,3.765414891848631e-05,1.4792974899427456e-06,1.9647922799308687e-06
261,1.949877646663399e-06,2.1638922155333144e-06,1.3221159196995972e-06,2.2348456641272597e-06,1.682539535604927e-06,2.0981865250217605e-06,1.6459770799803163e-06,1.5817252268077104e-06,4.542317388532493e-06,1.1127661111864562e-05,1.8649580295374585e-05,9.141899151349308e-05,3.191130856165498e-06,3.8018971380031154e-05,1.4984344914299393e-06,1.9440460015840104e-06
262,2.0207614897296703e-06,2.135288944639e-06,1.3340030804116275e-06,2.2007228606473486e-06,1.6628004315535877e-06,2.091722771284868e-06,1.6163352750387569e-06,1.5729535349390733e-06,4.621549315398161e-06,1.138280399141956e-05,1.8743540231004598e-05,9.592448090922954e-05,3.243509036493245e-06,3.830052808106394e-05,1.5210646126853503e-06,1.9166388125487357e-06
263,2.09291438850263e-06,2.10591853384032e-06,1.3509208658059064e-06,2.1638194856644895e-06,1.650113150765918e-06,2.0880927226202657e-06,1.5911842830425994e-06,1.568566913742155e-06,4.702158379915665e-06,1.1665507352513294e-05,1.8729274935852167e-05,9.993450820312662e-05,3.2865295871129824e-06,3.849637476105337e-05,1.5466513509969462e-06,1.8822593186229722e-06
264,2.1652979751906783e-06,2.0763485815150366e-06,1.3724255502247813e-06,2.1236682685685084e-06,1.6449103438670605e-06,2.0868999185844216e-06,1.5705297996277652e-06,1.5684884071704665e-06,4.784598636072503e-06,1.1972087183493421e-05,1.8602754616835272e-05,0.00010336272416128671,3.320196711198164e-06,3.8603509737232454e-05,1.5745556231204479e-06,1.8411225670420658e-06
265,2.2372116425006054e-06,2.0469017446156877e-06,1.3979449754932656e-06,2.0797547748152138e-06,1.6474539063901292e-06,2.0873954086574915e-06,1.5542930339558721e-06,1.5728593825787228e-06,4.870217377661184e-06,1.2297317049127946e-05,1.836131662685476e-05,0.00010614461889525615,3.344989397051695e-06,3.86158324444097e-05,1.6041177505396096e-06,1.793983815168566e-06
266,2.3083419159477906e-06,2.017645760994695e-06,1.4266940377113371e-06,2.031793001452925e-06,1.65781949885828e-06,2.088594021553646e-06,1.542293488649334e-06,1.581920579317521e-06,4.96093304132068e-06,1.2634463620774348e-05,1.8005767780338186e-05,0.000108237300213039,3.3614308171145333e-06,3.852460374963677e-05,1.6348519282732705e-06,1.741959448781589e-06
267,2.3786580985172945e-06,1.9884392252544375e-06,1.4577018959501497e-06,1.9799103817353874e-06,1.6758558619597677e-06,2.0894693938027766e-06,1.5341413558833074e-06,1.5958326975746466e-06,5.058612142723674e-06,1.2975492178483294e-05,1.7541797564129686e-05,0.00010961330087556963,3.3701188635907695e-06,3.8319793600398216e-05,1.6665981622769998e-06,1.68632722977684e-06
268,2.4482328928518128e-06,1.959095865611534e-06,1.489982517321466e-06,1.924659655673092e-06,1.701119278690763e-06,2.089158265190639e-06,1.5292614778855397e-06,1.6145954188433122e-06,5.1644814195427346e-06,1.331229546652511e-05,1.6980229449808078e-05,0.00011024939341548943,3.371858212753725e-06,3.7991053179842104e-05,1.699477801622058e-06,1.628363534962486e-06
269,2.5170681977729728e-06,1.9296501777561988e-06,1.5226729397331572e-06,1.8669004569875934e-06,1.7328337906834429e-06,2.0870928495477577e-06,1.527097134552166e-06,1.6380235629593747e-06,5.278839580808785e-06,1.3638402063014442e-05,1.6336006708666013e-05,0.00011011890108078236,3.3674499486863695e-06,3.752808782876054e-05,1.7337298307419585e-06,1.569236777885818e-06
270,2.584936581028649e-06,1.9005317616860535e-06,1.5549905174262648e-06,1.8076611534987862e-06,1.7698964145936503e-06,2.0830202942907355e-06,1.5272933281801558e-06,1.6657187643042793e-06,5.401032704567203e-06,1.3949718977787111e-05,1.562624064942442e-05,0.00010919814555153466,3.3574508776849414e-06,3.6920011575630685e-05,1.7695335745664943e-06,1.5100166270341634e-06
271,2.651213844220802e-06,1.8725271349342808e-06,1.5861553569288953e-06,1.7480310865221678e-06,1.8109873049177812e-06,2.0769127882785936e-06,1.529712009500508e-06,1.697064993940344e-06,5.529535541926003e-06,1.4243698098266783e-05,1.486796589401611e-05,0.00010748475297605002,3.342198744141416e-06,3.615510617802252e-05,1.8068653316073897e-06,1.4517456758972501e-06
272,2.7147535410821607e-06,1.8466034374642032e-06,1.6154437668477595e-06,1.6890564983454914e-06,1.854826294513816e-06,2.0688473144377673e-06,1.5343476398427361e-06,1.731291875076536e-06,5.662059635427139e-06,1.451781632425451e-05,1.4076425193989293e-05,0.00010501322794220303,3.3218867541222437e-06,3.5224754342106697e-05,1.8454373262379386e-06,1.3954444510213397e-06
273,2.7739019936070738e-06,1.8237047110455073e-06,1.6422397039578757e-06,1.6317114793115544e-06,1.900415685318186e-06,2.058961548214862e-06,1.5412728415192738e-06,1.767598554796002e-06,5.795612276384649e-06,1.4769253146014276e-05,1.3264512554694707e-05,0.00010185738819641829,3.296625753060405e-06,3.4130891939379106e-05,1.8847475997633498e-06,1.342043989893984e-06
274,2.826710128441195e-06,1.8045641456559865e-06,1.6659443569738975e-06,1.5769731441571114e-06,1.947012339577349e-06,2.0474961947806144e-06,1.550622669785374e-06,1.8052774475025615e-06,5.926580333266366e-06,1.4996799571077515e-05,1.2443201596677551e-05,9.81208592561935e-05,3.266574042747635e-06,3.2889064823263934e-05,1.9241937939014662e-06,1.2923314357568094e-06
275,2.8713402272687456e-06,1.789564470062931e-06,1.6858451331426954e-06,1.525821562431034e-06,1.9938594348181276e-06,2.034833091158245e-06,1.5625333161456782e-06,1.8438060509398158e-06,6.051165017608249e-06,1.5203738610980368e-05,1.1622106528600394e-05,9.392245012410857e-05,3.2320330613561953e-06,3.1523018750547335e-05,1.963107328654402e-06,1.246922337073981e-06
276,2.906561811897012e-06,1.778688893062745e-06,1.7011397797300745e-06,1.4791154724785556e-06,2.040029588376356e-06,2.021464967558987e-06,1.57701320653428e-06,1.8829146907167594e-06,6.1662488227762005e-06,1.5399033700431202e-05,1.0809653530128595e-05,8.938206579906427e-05,3.1935462746732666e-06,3.0057344040674317e-05,2.0006435662079667e-06,1.2062155538459614e-06
277,2.932110450549014e-06,1.7715877833807595e-06,1.7111667505024169e-06,1.4374945743132576e-06,2.0845649413075607e-06,2.007910054453246e-06,1.5938570912157124e-06,1.9225868160271877e-06,6.27032964325215e-06,1.5595507160837102e-05,1.0013021555620338e-05,8.460993898774063e-05,3.1519673610456633e-06,2.851464519062692e-05,2.0356526520105884e-06,1.1703420838533414e-06
278,2.948713489008921e-06,1.7677487194446273e-06,1.7156377801142431e-06,1.401339876746438e-06,2.126714718282925e-06,1.9946003095096327e-06,1.6127199890565793e-06,1.9629338991678173e-06,6.3640739106843325e-06,1.580697315662743e-05,9.238117239599729e-06,7.970040020639339e-05,3.108270904820256e-06,2.6915724288907156e-05,2.066679305024852e-06,1.139156425694147e-06
279,2.9578077088988242e-06,1.7666800028785295e-06,1.7146647314463704e-06,1.3707501253629423e-06,2.166062027035995e-06,1.981806304992279e-06,1.6332718768426374e-06,2.004005451251296e-06,6.4501231854823455e-06,1.6046788602938165e-05,8.489629935247141e-06,7.473046048139796e-05,3.0632221219932247e-06,2.5279657184947137e-05,2.0921651338680606e-06,1.1123014399978965e-06
280,2.9611810319196965e-06,1.7679868880242647e-06,1.7086300247179325e-06,1.3455644351054788e-06,2.2025658273544283e-06,1.9697030840756643e-06,1.6552213419553224e-06,2.0456608654461005e-06,6.532113070786088e-06,1.632727817196089e-05,7.771129903026921e-06,6.976176262778438e-05,3.0172099989503347e-06,2.3623751959733966e-05,2.1107909486264117e-06,1.0893592257595839e-06
281,2.960709495455262e-06,1.7713228995700145e-06,1.6980586976565273e-06,1.3254507753716803e-06,2.236527493970552e-06,1.9585416831727796e-06,1.6782044398621516e-06,2.0875211565227998e-06,6.613467231669062e-06,1.6658690970895994e-05,7.085217974995247e-06,6.484345305531408e-05,2.9703398777522193e-06,2.1963879709019253e-05,2.1217466237011597e-06,1.070048264726044e-06
282,2.9581710264214942e-06,1.7763130359903558e-06,1.683514177312056e-06,1.309994152598246e-06,2.2684138014473064e-06,1.948713772970209e-06,1.7017755905728396e-06,2.1289638789623822e-06,6.696611926796176e-06,1.704834442232674e-05,6.433730591734858e-06,6.001463543294186e-05,2.9226816087154555e-06,2.0314857475281547e-05,2.1248124562007013e-06,1.054361045155671e-06
283,2.955170303967478e-06,1.782527430876371e-06,1.6654806934926785e-06,1.2987078445893744e-06,2.298694817141412e-06,1.9405997847546028e-06,1.7255592423608729e-06,2.1692042206047777e-06,6.7827035177679085e-06,1.750118244789769e-05,5.817943677303695e-06,5.530639834642595e-05,2.8743598136167884e-06,1.8690580385202214e-05,2.1203296037816625e-06,1.0425583395938e-06
284,2.953251551903473e-06,1.7894844272316236e-06,1.6443511185905897e-06,1.2909914944517856e-06,2.3278538600514264e-06,1.934351554962089e-06,1.7493224834606998e-06,2.207493262154765e-06,6.871670891197318e-06,1.802153065269613e-05,5.238726490884677e-06,5.0743566529909226e-05,2.8253522504253146e-06,1.7103884609512183e-05,2.1091023894205704e-06,1.0350459088591552e-06
285,2.9540013492218215e-06,1.7966421375809576e-06,1.6206083074969262e-06,1.2860947330902881e-06,2.356378233223069e-06,1.9298397110291497e-06,1.7728542316641525e-06,2.243353862142007e-06,6.9623630939691525e-06,1.861446956602296e-05,4.696624066060953e-06,4.634612310306573e-05,2.775363724288071e-06,1.5566250610470066e-05,2.0921829279048574e-06,1.0322238082603978e-06
286,2.9589382450767042e-06,1.8034225096755217e-06,1.5949792719638454e-06,1.283115622924042e-06,2.3846464453181484e-06,1.9268434374542268e-06,1.7958266990595894e-06,2.276704554221351e-06,7.052625135885295e-06,1.928557526435315e-05,4.191849536576673e-06,4.213023022307844e-05,2.7240700087792702e-06,1.408750954147575e-05,2.0706037837477158e-06,1.0343683142721145e-06
287,2.969346664042485e-06,1.8093149144231803e-06,1.568344188900065e-06,1.2810782225840655e-06,2.412868079228998e-06,1.925322305724528e-06,1.8177512013130154e-06,2.3077601120745684e-06,7.139579310423529e-06,2.0039467865780222e-05,3.7242383957898696e-06,3.8108795204368155e-05,2.6714859516674888e-06,1.267579313937737e-05,2.045214475731063e-06,1.0415798070405236e-06
288,2.98618923797677e-06,1.8139619595350094e-06,1.54154255952046e-06,1.2790989578756007e-06,2.4410611641033456e-06,1.925497803990787e-06,1.8379515957191603e-06,2.336763812632934e-06,7.220470267869068e-06,2.087864915529031e-05,3.293280841871216e-06,3.4291669335247e-05,2.618073617106824e-06,1.1337854187837604e-05,2.0166179252397396e-06,1.0537989038546987e-06
289,3.010004595277045e-06,1.817085817065443e-06,1.5153098416466397e-06,1.2765346295742334e-06,2.4690855238205004e-06,1.927706505828186e-06,1.855555183093241e-06,2.363722551983343e-06,7.293642751588178e-06,2.1803403706481975e-05,2.8982664362622055e-06,3.0685837611167954e-05,2.564529043703847e-06,1.0079491423589894e-05,1.9851496227229783e-06,1.070838579907093e-06
290,3.0407866137232096e-06,1.8183122478662528e-06,1.4903127041886851e-06,1.2729809722620675e-06,2.4968937626632905e-06,1.932287916924708e-06,1.8696823288975967e-06,2.3882689641528976e-06,7.359015860842157e-06,2.2812108957784026e-05,2.5384339639515794e-06,2.7295904109777918e-05,2.5114468903810147e-06,8.905599899008373e-06,1.951000663290866e-06,1.0924205872300649e-06
291,3.0779400285855096e-06,1.8171252210312124e-06,1.467146181756431e-06,1.268205492851347e-06,2.52486691631486e-06,1.9396118999865055e-06,1.8798793834389124e-06,2.40970196501367e-06,7.418016449050635e-06,2.3900868336899555e-05,2.212981306704651e-06,2.4124713846786656e-05,2.4590884788358773e-06,7.819780199794768e-06,1.9145048684810473e-06,1.1182233891497018e-06
292,3.120339119997342e-06,1.8130487811985306e-06,1.4463041168413048e-06,1.262204296047358e-06,2.5538829079950216e-06,1.950055560112682e-06,1.886454259445384e-06,2.427201850249655e-06,7.473142152416793e-06,2.506252201806203e-05,1.9209366485504914e-06,2.117371023657549e-05,2.4073214789518147e-06,6.82401191115906e-06,1.876365792645811e-06,1.147865997090588e-06
293,3.166431663637727e-06,1.8058518254227738e-06,1.428159004597851e-06,1.2552929705401815e-06,2.5850366430160994e-06,1.9638938059112455e-06,1.890395396782741e-06,2.4401418984561436e-06,7.52724669023479e-06,2.628627542267449e-05,1.661078718197223e-06,1.8442909801546885e-05,2.3556922503452987e-06,5.918710524856736e-06,1.837642552262019e-06,1.180819574424917e-06
294,3.2142922564315075e-06,1.7955395176573373e-06,1.4129340667390788e-06,1.2480142291687711e-06,2.6192702208707495e-06,1.9812949913676705e-06,1.892980364151707e-06,2.4483543845147176e-06,7.5827907529611655e-06,2.7558573472712107e-05,1.432001851310475e-06,1.5930749146269194e-05,2.3036888554988893e-06,5.102907811271762e-06,1.7995413797590654e-06,1.2163750952939834e-06
295,3.2616812342755266e-06,1.7822315411867956e-06,1.4007036254162753e-06,1.2409152959141135e-06,2.6571621302022967e-06,2.0024426782752142e-06,1.8953810556128289e-06,2.4521827983405556e-06,7.641324441680045e-06,2.8864388826430485e-05,1.2321898514174354e-06,1.3634078605861444e-05,2.2511411662175684e-06,4.374364703572771e-06,1.7631862733390882e-06,1.2537321382960226e-06
296,3.306342027464715e-06,1.7662054944061995e-06,1.3914552800392781e-06,1.2343863206852167e-06,2.698868620755852e-06,2.0275917429455668e-06,1.8984569884545166e-06,2.4522466557386715e-06,7.70320187402107e-06,3.0187630162900513e-05,1.0600051229614292e-06,1.1548293809404608e-05,2.1984721193422017e-06,3.729740242408182e-06,1.7295208377221068e-06,1.2921150888110664e-06
297,3.3465295565128515e-06,1.7480812919672473e-06,1.385191793888361e-06,1.2286096957044274e-06,2.744098266050838e-06,2.0569544679783252e-06,1.902750434255314e-06,2.4490578500284342e-06,7.767439671598286e-06,3.151025271482138e-05,9.136744781788914e-07,9.667434101691567e-06,2.1466404420765145e-06,3.164841993497353e-06,1.6993183712500958e-06,1.3307967049414254e-06
298,3.381374885131521e-06,1.7288730739118146e-06,1.3820205409158049e-06,1.223587143372181e-06,2.7920785476048304e-06,2.0905033949159454e-06,1.9085911892231385e-06,2.4427330046008274e-06,7.831789112508825e-06,3.281176833769182e-05,7.913445929807e-07,7.984221732930031e-06,2.0968568408980763e-06,2.674860899461549e-06,1.67315856120317e-06,1.3690531390232454e-06
299,3.410820907660011e-06,1.709817044497096e-06,1.3821469841860091e-06,1.2192245329557659e-06,2.8415376107625826e-06,2.1278409619834417e-06,1.9162134692114165e-06,2.4329503730112072e-06,7.892980578692068e-06,3.4071526594849445e-05,6.91163064751679e-07,6.490179019886268e-06,2.0503040513906915e-06,2.2545406163376063e-06,1.651375561773133e-06,1.4061334701229706e-06
300,3.4353382636277365e-06,1.6921149202886385e-06,1.3857689895256955e-06,1.2154173652091528e-06,2.8907786337426436e-06,2.168214489423344e-06,1.9258133525115367e-06,2.419146805886336e-06,7.946963794719289e-06,3.527285857430357e-05,6.113026047423506e-07,5.175895711504423e-06,2.0080577434173857e-06,1.8983448501803993e-06,1.634085508988391e-06,1.4412463430288753e-06
301,3.455766137968097e-06,1.6767442146528943e-06,1.3929732975508235e-06,1.2120643524215311e-06,2.93789711436029e-06,2.210650122940345e-06,1.9374981540988555e-06,2.400836841346957e-06,7.989390394099415e-06,3.6405240424233115e-05,5.4992109367443e-07,4.031321306323884e-06,1.971110769268567e-06,1.6007097162712173e-06,1.6212542380035244e-06,1.4736303502369462e-06
302,3.473277418682657e-06,1.6643827549376746e-06,1.4036653685175756e-06,1.2090215382958322e-06,2.981033089898538e-06,2.2541373082983313e-06,1.951174864014879e-06,2.3779176556772053e-06,8.016478000243187e-06,3.74622472914264e-05,5.051254490501207e-07,3.0459101219069344e-06,1.9403294395451128e-06,1.3562540316796455e-06,1.6126950728832683e-06,1.5027699247323049e-06
303,3.489189046679242e-06,1.6554171452431924e-06,1.4175105364956137e-06,1.2060851199342463e-06,3.0185185251839325e-06,2.297803903026068e-06,1.966535816237577e-06,2.3508793150534192e-06,8.025544644945572e-06,3.843706586139968e-05,4.749897323006394e-07,2.2086640021442554e-06,1.916383003608933e-06,1.15979248622506e-06,1.6080321160467708e-06,1.5285577598786788e-06
304,3.5045730361371184e-06,1.650052305184187e-06,1.4339335911451837e-06,1.203035185890057e-06,3.0489321215240916e-06,2.341021226647317e-06,1.9831785792930576e-06,2.3208292903819505e-06,8.014768801601794e-06,3.932019532904263e-05,4.5761677174067926e-07,1.5082778522629795e-06,1.8997584929547772e-06,1.0062623381497128e-06,1.6067710472782947e-06,1.5511966557162755e-06
305,3.519964103167126e-06,1.6485230639252807e-06,1.4522022473800902e-06,1.1996638543641595e-06,3.0711776037315024e-06,2.383377606643786e-06,2.0006874343563964e-06,2.2892658206326764e-06,7.982702442097969e-06,4.01023162369001e-05,4.512033855190903e-07,9.334158654869339e-07,1.8909012361747158e-06,8.907636449334242e-07,1.6084941665679144e-06,1.5709648036395433e-06
306,3.5353552917202285e-06,1.6512196293495105e-06,1.4715443648905488e-06,1.1957592245463694e-06,3.084595757137926e-06,2.4245057492678706e-06,2.018624411643265e-06,2.2577732716028265e-06,7.928105305917545e-06,4.077983275886279e-05,4.54078337783144e-07,4.7294712629810087e-07,1.8903486476155593e-06,8.087300865411952e-07,1.6129870686488848e-06,1.5881124523602922e-06
307,3.5503803219787915e-06,1.658599837317444e-06,1.4912684476456073e-06,1.1911678766319068e-06,3.088910693138772e-06,2.4638745673265985e-06,2.036529392379784e-06,2.227909387960154e-06,7.850151540620367e-06,4.1358350961362016e-05,4.6475370722108066e-07,1.1607003814592404e-07,1.898649297594959e-06,7.560471662243392e-07,1.6201546383913902e-06,1.6029338649098093e-06
308,3.564506758026029e-06,1.6711017902773301e-06,1.5108572897875799e-06,1.1859808653723488e-06,3.0839266981379163e-06,2.5007451777335715e-06,2.053925951305465e-06,2.201227162045147e-06,7.748711350187543e-06,4.1852478745859354e-05,4.820433300763748e-07,-1.4760009473563186e-07,1.9161411897473096e-06,7.289761547633283e-07,1.6298371784178662e-06,1.6158119181070161e-06
309,3.5771291194602933e-06,1.6892418029649385e-06,1.5299537064066126e-06,1.1806570840664495e-06,3.069296317735902e-06,2.534345854877251e-06,2.070381500350043e-06,2.1791809216857045e-06,7.624337716780986e-06,4.22833935029771e-05,5.051351905912111e-07,-3.279517740028061e-07,1.94283430433473e-06,7.239655685550097e-07,1.641697197279567e-06,1.6271045660636214e-06
310,3.5875578104543813e-06,1.7137186982281884e-06,1.5482451860354696e-06,1.1759338480360245e-06,3.044638059122834e-06,2.5640985958265e-06,2.085661719129816e-06,2.1629284598604784e-06,7.4778042384496425e-06,4.267563275264317e-05,5.334838110448499e-07,-4.343457701276776e-07,1.978404824235598e-06,7.375321639929979e-07,1.6551813197523407e-06,1.6369800350707216e-06
311,3.5950376924017094e-06,1.7453262563515297e-06,1.5653826055073822e-06,1.1726099264726334e-06,3.009863537127293e-06,2.5897402373093162e-06,2.0997572511070415e-06,2.153202857594802e-06,7.309528099748771e-06,4.305328854870516e-05,5.666171060112652e-07,-4.7559980484808483e-07,2.0221752428426335e-06,7.662740936958073e-07,1.6694879454502023e-06,1.6453795827861923e-06
312,3.598932991302018e-06,1.784744927287398e-06,1.5809576607792876e-06,1.1713756519231092e-06,2.965494199451015e-06,2.6112978229478187e-06,2.1126862532769642e-06,2.1502953804385375e-06,7.119572615285351e-06,4.343578692152866e-05,6.040107571655564e-07,-4.5986787579998077e-07,2.0731032952547772e-06,8.06962747451663e-07,1.6835886003218086e-06,1.6521557183568793e-06
313,3.599018816206048e-06,1.832361977897105e-06,1.5944504992880872e-06,1.1727581664238272e-06,2.912831344178755e-06,2.6289021695153764e-06,2.124317896041289e-06,2.154099426819209e-06,6.908431692473911e-06,4.3834702976443286e-05,6.450476758707092e-07,-3.9439944040394294e-07,2.1298442777537767e-06,8.567016467662468e-07,1.696394501004001e-06,1.657233417440294e-06
314,3.59566614003134e-06,1.8881773518873552e-06,1.6052112964151321e-06,1.1771156322575396e-06,2.853819697534051e-06,2.642482531080095e-06,2.134374517219109e-06,2.1641493073804084e-06,6.677931389281355e-06,4.425299913300803e-05,6.890300322026619e-07,-2.853472672793655e-07,2.190840555340811e-06,9.13089652797934e-07,1.7069527755785862e-06,1.6606182020506337e-06
315,3.5897800051194114e-06,1.9517799366070145e-06,1.6126062267614188e-06,1.1846231697585978e-06,2.79060998075667e-06,2.651536105075223e-06,2.1424806763502617e-06,2.17962236263584e-06,6.431547494806281e-06,4.468656297390255e-05,7.352132859372933e-07,-1.377214475814294e-07,2.2543866707308773e-06,9.742243288544124e-07,1.7144572437557243e-06,1.6623426087324812e-06
316,3.5824949158657844e-06,2.022368630088581e-06,1.6162468485788138e-06,1.195286084824253e-06,2.7250991044955203e-06,2.6551919341652178e-06,2.148116789268078e-06,2.199355635504092e-06,6.17406511986195e-06,4.512715192035849e-05,7.828426592213255e-07,4.460322661712344e-08,2.318692529627323e-06,1.0385402960690564e-06,1.7181680069826727e-06,1.6625406946144375e-06
317,3.5747614196259226e-06,2.098855444992484e-06,1.6160845743789964e-06,1.208995712133993e-06,2.658753945010991e-06,2.652525879620152e-06,2.1505942863726213e-06,2.2219069785603644e-06,5.910918160609252e-06,4.556561484548822e-05,8.312065839395992e-07,2.5884103671719593e-07,2.381979239433796e-06,1.1046208722064682e-06,1.7174656367721776e-06,1.661564527112893e-06
318,3.567084759903552e-06,2.1800516641270677e-06,1.6122913569976557e-06,1.2255557007434448e-06,2.5927777163777327e-06,2.6427753823383115e-06,2.1492262544043975e-06,2.2456878476934473e-06,5.647532513854267e-06,4.599414188856256e-05,8.796953578165163e-07,5.030826586711837e-07,2.4426127351828726e-06,1.1710531830425168e-06,1.7119221790938917e-06,1.6599788517169554e-06
319,3.5594993221362226e-06,2.2647686067623395e-06,1.6050914484368558e-06,1.2446490733239873e-06,2.5283640750295488e-06,2.625269544639861e-06,2.143583021098343e-06,2.2692516663582173e-06,5.388891749078429e-06,4.640684555571802e-05,9.278258236184026e-07,7.759648769123554e-07,2.499236969666151e-06,1.2363567821990964e-06,1.701193192610154e-06,1.6584657411532518e-06
320,3.5515677845266275e-06,2.351750715634597e-06,1.5947648038101329e-06,1.2658387057044148e-06,2.4667291279035524e-06,2.5994054386952816e-06,2.1336040924601115e-06,2.2916210363784372e-06,5.139425268607824e-06,4.6798675964670416e-05,9.752195947304875e-07,1.0764456806397014e-06,2.5507956288135946e-06,1.299012068708612e-06,1.6848790029026392e-06,1.6576948973064663e-06
321,3.542313598008872e-06,2.4396175793174983e-06,1.5817733721854943e-06,1.2886704238066341e-06,2.408938748822318e-06,2.564973952817809e-06,2.1195241374287448e-06,2.3123202064733933e-06,4.9030089990050064e-06,4.716342488935024e-05,1.0215771968214525e-06,1.403742926449579e-06,2.5963657676336372e-06,1.3575475966370742e-06,1.6626180213770182e-06,1.6581819612841723e-06
322,3.5302118607060874e-06,2.526921553659573e-06,1.5667423422466133e-06,1.312798839436287e-06,2.3557880001507694e-06,2.522591595141593e-06,2.101691076379003e-06,2.331036659213439e-06,4.682833977771583e-06,4.7492456597776304e-05,1.0667170847693156e-06,1.7573242314095963e-06,2.6349602512277965e-06,1.4106053073728482e-06,1.6343904513152832e-06,1.6602167851066573e-06
323,3.513418708331977e-06,2.6122438574823543e-06,1.5502631570426126e-06,1.3379978977380673e-06,2.307818506725878e-06,2.473847398745377e-06,2.0803830039099182e-06,2.347220210967791e-06,4.4812630570155565e-06,4.777557583397031e-05,1.1106211018620769e-06,2.1368614279664186e-06,2.6655335291810267e-06,1.457025222954939e-06,1.6007281058409391e-06,1.6638817172767766e-06
324,3.490319029220125e-06,2.6943078844558985e-06,1.5327939013642906e-06,1.3640311748746964e-06,2.265385412215564e-06,2.4210436239878714e-06,2.055790242517116e-06,2.359882541189162e-06,4.299806796507676e-06,4.800353236673405e-05,1.153362215876725e-06,2.542097240616244e-06,2.6871966002047137e-06,1.496064105243214e-06,1.562608350856418e-06,1.669103868958786e-06
325,3.4601006915358866e-06,2.772065957307941e-06,1.5148007150820307e-06,1.390508555117658e-06,2.2287276841269812e-06,2.366684744778339e-06,2.0282032708041347e-06,2.367582309915575e-06,4.139120807206285e-06,4.816982136200216e-05,1.1949700980345466e-06,2.9726251393986746e-06,2.6995313645576323e-06,1.5275953769964588e-06,1.5211487409637726e-06,1.6757152838966426e-06
326,3.422950719942485e-06,2.844617198378514e-06,1.4969420646515146e-06,1.4168614067710263e-06,2.1979986140224013e-06,2.313066449889902e-06,1.9981922269932187e-06,2.3685386630974626e-06,3.999028658560038e-06,4.826956432183435e-05,1.235345610294372e-06,3.4276717055925063e-06,2.7029021054947493e-06,1.5519937984160212e-06,1.4773558038336506e-06,1.6834599657038482e-06
327,3.3798378357369427e-06,2.9110491659345155e-06,1.4800524351284987e-06,1.4424758653048706e-06,2.173182015013908e-06,2.2621748337489573e-06,1.966605779401587e-06,2.36091880865159e-06,3.87870500340533e-06,4.829583973777782e-05,1.2742143493842271e-06,3.905979512348339e-06,2.698562308468997e-06,1.5697988355085295e-06,1.4320364782859238e-06,1.69192224968596e-06
328,3.3321291139942234e-06,2.970448584112529e-06,1.4649501891683016e-06,1.4668962672610081e-06,2.1539571492988306e-06,2.215757155580436e-06,1.9344687583869376e-06,2.3432315349444385e-06,3.776990945402455e-06,4.823745767222128e-05,1.3111172886684268e-06,4.405893279332037e-06,2.6884039654287074e-06,1.581586581286525e-06,1.3858736650674092e-06,1.7005016864438061e-06
