,EMG1,EMG2,EMG3,EMG4,EMG5,EMG6,EMG7,EMG8,EMG9,EMG10,EMG11,EMG12,EMG13,EMG14,EMG15,EMG16
0,2.1992093070879948e-07,3.413506750486804e-07,2.633281579616607e-07,5.6761995349238656e-08,3.882115759018732e-07,2.586869508621087e-07,6.100319116754626e-07,9.021417244776518e-08,6.46056648058264e-07,6.047577644338777e-06,8.536613171719752e-08,-1.400715825319028e-07,-1.4124026044011575e-07,9.393460058824038e-08,9.801072319244023e-08,1.701177050284139e-07
1,4.2904127625403974e-07,4.608673820211378e-07,3.876853974804248e-07,1.4288582366916812e-07,4.984569272948394e-07,5.108414031865656e-07,6.993826958647813e-07,1.9397520096004652e-07,9.014630625797273e-07,7.766818792855166e-06,1.6044927409553766e-07,3.645658947066132e-08,1.3891291828930526e-07,2.5603672087452813e-07,3.919183561771775e-07,2.7962123022334806e-07
2,6.306623731399078e-07,5.768926552691432e-07,5.08848454191417e-07,2.2888426956527199e-07,6.075938560457655e-07,7.55481553303379e-07,7.90034499534599e-07,2.9889023892054955e-07,1.1572234427670028e-06,9.485391233536766e-06,2.3643823248451056e-07,2.109691909235426e-07,4.0502647100317863e-07,4.121779883148522e-07,6.666899805408181e-07,3.909373687696091e-07
3,8.215453480301141e-07,6.886374832766655e-07,6.234250879367958e-07,3.1425625146621473e-07,7.143046025877072e-07,9.894027462701627e-07,8.807611276349857e-07,4.035728461969758e-07,1.406972519076543e-06,1.1196397976339139e-05,3.1291537100425863e-07,3.824551477867511e-07,6.56090515795955e-07,5.612391598698662e-07,9.197964542414551e-07,5.027706505519587e-07
4,9.99158344619562e-07,7.953300709092946e-07,7.290936316060483e-07,3.9854340217704315e-07,8.174362402129124e-07,1.2094611938697766e-06,9.705226395281241e-07,5.06918427600479e-07,1.6458304976653878e-06,1.2891052844048394e-05,3.8948136795985006e-07,5.500329906486792e-07,8.911948781474404e-07,7.024744282649243e-07,1.1489424127986138e-06,6.138932873271478e-07
5,1.1618143993099692e-06,8.962559032735267e-07,8.246873797229319e-07,4.81310277128391e-07,9.160557705147328e-07,1.4126597750972895e-06,1.0585122523599522e-06,6.082470571821017e-07,1.8707467284093516e-06,1.4558589050452645e-05,4.6574729117617795e-07,7.129843385528714e-07,1.1093604735693385e-06,8.35418705836548e-07,1.3524592019439993e-06,7.231729305744848e-07
6,1.3085909521693042e-06,9.908625603147903e-07,9.098874767776809e-07,5.621341552830954e-07,1.0094155272957578e-06,1.596350945266129e-06,1.1441074337840621e-06,7.072408026866931e-07,2.080252773511852e-06,1.6186695451908125e-05,5.413513134964788e-07,8.707449401670448e-07,1.3094461271027754e-06,9.597405125367026e-07,1.5295788817487582e-06,8.29663320669083e-07
7,1.4391255322324165e-06,1.078803638531018e-06,9.848229107836793e-07,6.406131495022855e-07,1.0969655178684125e-06,1.7586360826737607e-06,1.2267518136013532e-06,8.037713491724605e-07,2.2739059509687665e-06,1.7761959027624162e-05,6.159719183217419e-07,1.0228172685170936e-06,1.4901972860361205e-06,1.0751585689033098e-06,1.6803174758948179e-06,9.327295999056601e-07
8,1.553400771302295e-06,1.1598580219203189e-06,1.0498549671649225e-06,7.164277416975736e-07,1.178389880363259e-06,1.898806381913597e-06,1.3058525153859653e-06,8.977880099341182e-07,2.4517434160049544e-06,1.9270027060493884e-05,6.893163888641254e-07,1.1687041276273204e-06,1.6504532492958894e-06,1.1814588270919307e-06,1.8051208732086214e-06,1.0321097165391442e-06
9,1.651606227615442e-06,1.2338762524267985e-06,1.105511462919506e-06,7.894355976328217e-07,1.25352959818694e-06,2.0174680891667756e-06,1.3807345949226072e-06,9.892585681446474e-07,2.613860613486731e-06,2.0696047770938385e-05,7.61101843795976e-07,1.3079624958689057e-06,1.7894809256139288e-06,1.2786468451649196e-06,1.9047333503957664e-06,1.1278319436242959e-06
10,1.7341331289119264e-06,1.3008391066209782e-06,1.1524046640815135e-06,8.59691461771942e-07,1.3222838441039052e-06,2.1162320209752465e-06,1.4506277615018898e-06,1.0781079778810304e-06,2.760120767384852e-06,2.2025526578911585e-05,8.310568890186617e-07,1.4403268911441979e-06,1.907324433909691e-06,1.3671125904430801e-06,1.980520431256071e-06,1.2200215183659044e-06
11,1.801599362547461e-06,1.3608917262476896e-06,1.1911159451336087e-06,9.273453382603355e-07,1.3846602138826077e-06,2.1972045587986734e-06,1.5146934637691455e-06,1.1641646426875562e-06,2.890051883941986e-06,2.324438554214485e-05,8.989382103818754e-07,1.5657817496316006e-06,2.0049341599531145e-06,1.4475685841340966e-06,2.0347970618591068e-06,1.3087332086488228e-06
12,1.8547471702087e-06,1.4142781063439144e-06,1.222109706356413e-06,9.92509774663912e-07,1.440856936968061e-06,2.2625358187136202e-06,1.5721563173538817e-06,1.2471500239444356e-06,3.002963619836354e-06,2.4337574619033248e-05,9.645358650791449e-07,1.684521741150003e-06,2.0839196918807394e-06,1.5207754248213972e-06,2.0706314222534356e-06,1.3938861099009636e-06
13,1.8943335213866133e-06,1.461297571134066e-06,1.2457269157025542e-06,1.0552179728528606e-06,1.4911806820768026e-06,2.314127595059457e-06,1.6224668719429723e-06,1.32673286261422e-06,3.098192684751745e-06,2.5288292385205564e-05,1.0276457624614268e-06,1.7968302908100357e-06,2.1461597066826e-06,1.5873028832119308e-06,2.0912967508683596e-06,1.4752549970232686e-06
14,1.921179883420826e-06,1.5023315527686175e-06,1.2622722646172312e-06,1.1155054219407786e-06,1.5358785955974983e-06,2.353537827074807e-06,1.6652955967393233e-06,1.4025955991473267e-06,3.175352638691819e-06,2.6079949639806867e-05,1.0880200942127072e-06,1.9029223875159788e-06,2.1936115995076136e-06,1.647457019522124e-06,2.0998462655056264e-06,1.5524552992513605e-06
15,1.936217360897188e-06,1.5378305081591408e-06,1.2720990208179339e-06,1.1735329943407638e-06,1.5750493159431718e-06,2.382069528574498e-06,1.7003828624297667e-06,1.4744336542348453e-06,3.2344442539303194e-06,2.669958198207631e-05,1.1453515375685024e-06,2.00278842304882e-06,2.2282827052160694e-06,1.7013122156241016e-06,2.0989452203320522e-06,1.6249581701853784e-06
16,1.9404309747366874e-06,1.568209577801728e-06,1.2755905829125192e-06,1.2296129398781382e-06,1.6086424498719258e-06,2.4009625464106634e-06,1.7274946537303228e-06,1.5418747593421615e-06,3.275709414181778e-06,2.7140005275716344e-05,1.199319862118344e-06,2.096114975629107e-06,2.2521806657178785e-06,1.7487741248082613e-06,2.0908736638205852e-06,1.6922155101512335e-06
17,1.9348844945741975e-06,1.5937360960448895e-06,1.2731014051161266e-06,1.2840926532934946e-06,1.6364774174516158e-06,2.411554079598785e-06,1.7465386678441775e-06,1.6043894701128483e-06,3.2994175238729236e-06,2.739927741056021e-05,1.2496787459572437e-06,2.1823042744406743e-06,2.267322687537381e-06,1.7897301155248041e-06,2.0776080013904224e-06,1.753871646625159e-06
18,1.9208009947983e-06,1.6145365721655937e-06,1.2650276598198756e-06,1.3372232938289469e-06,1.6582607206476707e-06,2.41526053784373e-06,1.757628819939497e-06,1.661285623720126e-06,3.3059586420236626e-06,2.7477745897380863e-05,1.2963229297257406e-06,2.2605348454970367e-06,2.2758120096691943e-06,1.8242917491538499e-06,2.0608754136634293e-06,1.8099505312407135e-06
19,1.899490416230762e-06,1.6307626843486348e-06,1.252013822025019e-06,1.3891115524795921e-06,1.6737212658811575e-06,2.413372617970917e-06,1.7610356191916356e-06,1.7117876181890055e-06,3.296186940787718e-06,2.73754941327945e-05,1.3392469268355226e-06,2.3299281737840225e-06,2.2797486495723903e-06,1.852879888314603e-06,2.0421625064446053e-06,1.8609003401454896e-06
20,1.872216650206003e-06,1.642757527200815e-06,1.2350447379586183e-06,1.4397066039678417e-06,1.6829404894634897e-06,2.406852801673976e-06,1.757232559016637e-06,1.7551228790097051e-06,3.2715443834144224e-06,2.709310735880901e-05,1.378410424680816e-06,2.3898756841427044e-06,2.280984178688304e-06,1.876010144361991e-06,2.0227242592801906e-06,1.907436485709683e-06
21,1.8402400862173977e-06,1.6510345223172776e-06,1.21528913743566e-06,1.4888096029128653e-06,1.6866402493918794e-06,2.3963052619436084e-06,1.7470645723272465e-06,1.7905775252649004e-06,3.2337642248653522e-06,2.6634708136355384e-05,1.4136727562713497e-06,2.44029848129208e-06,2.2809512087459763e-06,1.8940266180547365e-06,2.0035673511223882e-06,1.950281586035976e-06
22,1.8049487729496097e-06,1.6561654335356355e-06,1.1938836541603456e-06,1.5361238780122337e-06,1.6861480355120555e-06,2.3821113241077367e-06,1.7317511483414757e-06,1.8175409467691608e-06,3.184443667038507e-06,2.6010105700056062e-05,1.4448946450755501e-06,2.4816224471892254e-06,2.280650986101053e-06,1.9070513693551766e-06,1.9853979737437447e-06,1.989978549362225e-06
23,1.7678342911727503e-06,1.658754862901762e-06,1.1718203278454654e-06,1.5812736679789336e-06,1.6831286673456696e-06,2.364588663968912e-06,1.7126400924735152e-06,1.8355669018211749e-06,3.1249280618661903e-06,2.5234807009040535e-05,1.4721041422798453e-06,2.514532131593761e-06,2.2807712180662585e-06,1.915087028482514e-06,1.968584605446395e-06,2.026820608050566e-06
24,1.7303384120969573e-06,1.6594032758129402e-06,1.1498988904462087e-06,1.6237647420134827e-06,1.6793662373719925e-06,2.3440140599556795e-06,1.6910157545773067e-06,1.844465923762383e-06,3.056639596837539e-06,2.4328430554615728e-05,1.4955474416420007e-06,2.539664723478532e-06,2.281814229899446e-06,1.918083310195026e-06,1.953180311056032e-06,2.0608888129408174e-06
25,1.69377077460747e-06,1.6585732993967133e-06,1.1287160777570184e-06,1.6629688338607836e-06,1.676657448643206e-06,2.3205055840875663e-06,1.6681506913384567e-06,1.8444064499464234e-06,2.981438544739905e-06,2.33122299913093e-05,1.5155576518864659e-06,2.557398073153486e-06,2.2840695756218117e-06,1.9159751214467487e-06,1.9390344496327585e-06,2.092220536495391e-06
26,1.6593282564794932e-06,1.6565385706051471e-06,1.108714244744726e-06,1.6981482222721632e-06,1.6766977927796282e-06,2.293967770410403e-06,1.6454035110905195e-06,1.8359297734079205e-06,2.9015701292715963e-06,2.220655276844119e-05,1.5323471723212999e-06,2.5678336215149292e-06,2.287464823954529e-06,1.9087597332824395e-06,1.9259149606008146e-06,2.1209841555985096e-06
27,1.6281113093277325e-06,1.6535397342689595e-06,1.09024919090292e-06,1.728441636717624e-06,1.6809653036519834e-06,2.2642634248416263e-06,1.6241675887103436e-06,1.819799907608227e-06,2.819347931582878e-06,2.102978829997391e-05,1.5459100802006585e-06,2.5709470592030316e-06,2.2914882897163482e-06,1.896529830496601e-06,1.9135403778014e-06,2.147475612164603e-06
28,1.6010929824338344e-06,1.6499776473369656e-06,1.0736139299647707e-06,1.7528267485014998e-06,1.690678194791253e-06,2.231459885109845e-06,1.605727165443208e-06,1.7968109855555425e-06,2.7369467949195814e-06,1.9799527609077014e-05,1.5561072728391612e-06,2.566824524537784e-06,2.2952627792845434e-06,1.8793950457191457e-06,1.9015830865215936e-06,2.1719746815137455e-06
29,1.5790545724117808e-06,1.6464021794550953e-06,1.0590225626831404e-06,1.7701833516812585e-06,1.706783176258454e-06,2.1958598518650847e-06,1.5911392845726238e-06,1.7677753040239679e-06,2.656283340659725e-06,1.8534033641846256e-05,1.5627884668019147e-06,2.555844857303257e-06,2.2976791308786526e-06,1.857390841343584e-06,1.8897162509404782e-06,2.19465555893317e-06
30,1.562537935097453e-06,1.643326697695589e-06,1.0465925183922625e-06,1.779492008759106e-06,1.7299202933081349e-06,2.157843430170201e-06,1.5812065634712497e-06,1.7336939324185703e-06,2.578860364118814e-06,1.7251961530642242e-05,1.565815135302625e-06,2.538656147135401e-06,2.297461440271658e-06,1.8305882785294142e-06,1.87772596455431e-06,2.215608623458745e-06
31,1.551859216065705e-06,1.6410872337480525e-06,1.0363313734070477e-06,1.7800734738569364e-06,1.7603941553150956e-06,2.1178017844638484e-06,1.5765194959195463e-06,1.6958998098266857e-06,2.5056877293986407e-06,1.5970855548202875e-05,1.565068563460229e-06,2.5159954514119132e-06,2.2931944469547034e-06,1.799456087231135e-06,1.8656814108748162e-06,2.234841482477646e-06
32,1.547165972224868e-06,1.6398155420219335e-06,1.0281397305209035e-06,1.7717467361467836e-06,1.798156062818214e-06,2.0762096399919294e-06,1.5774659837180657e-06,1.6560111185378545e-06,2.4373309024429894e-06,1.4706011700530596e-05,1.5605235286372349e-06,2.488534724119317e-06,2.283568222107005e-06,1.7651912123910632e-06,1.8539734269480921e-06,2.2521949671954815e-06
33,1.5485205869815966e-06,1.6394446096521161e-06,1.0218622140801482e-06,1.7548155395352306e-06,1.8427881057236384e-06,2.0336400844497584e-06,1.5841861664412434e-06,1.615714280736098e-06,2.3739661970066786e-06,1.347020131987346e-05,1.552311898510555e-06,2.4568434782399986e-06,2.26783723468962e-06,1.7297934399518401e-06,1.8430918406196423e-06,2.2672894366402448e-06
34,1.5559726667936637e-06,1.6397365204837571e-06,1.017371473931846e-06,1.7298689576755737e-06,1.8935531811394511e-06,1.990656706813428e-06,1.5965418758473115e-06,1.5765480460896604e-06,2.3154214550306527e-06,1.2273865423000653e-05,1.5407208418411099e-06,2.4214819437181305e-06,2.24602858069845e-06,1.695916879251769e-06,1.833354534057293e-06,2.279639994917537e-06
35,1.5695300200908238e-06,1.640356124697717e-06,1.0146297930531307e-06,1.6975073942742286e-06,1.949513674436874e-06,1.9477023964583975e-06,1.6141512670565088e-06,1.5398193695020503e-06,2.26126144732319e-06,1.1125420673816692e-05,1.5261227929355354e-06,2.3831943721694407e-06,2.2187759989877613e-06,1.6665552280094066e-06,1.8247822739662963e-06,2.288933067246166e-06
36,1.5890337346951836e-06,1.6409026802971686e-06,1.0136934596143219e-06,1.6582172041568125e-06,2.009586319507185e-06,1.9050527759987582e-06,1.636502327792404e-06,1.5066001436302758e-06,2.2108563280909928e-06,1.0031546027063219e-05,1.508848558682562e-06,2.343066374860437e-06,2.1871699079148826e-06,1.6446956035740013e-06,1.8170727256926559e-06,2.2952905376778116e-06
37,1.6140490483709648e-06,1.640878667922781e-06,1.0146635019212577e-06,1.6125031614839222e-06,2.0725007148687775e-06,1.8627965430844742e-06,1.6630830038423851e-06,1.4777156607321493e-06,2.163417318228766e-06,8.997415366334342e-06,1.4891219128964257e-06,2.3024762731693712e-06,2.1527019885695074e-06,1.6331787907506482e-06,1.8096366374702653e-06,2.299347865438084e-06
38,1.6438204095507131e-06,1.639751840725828e-06,1.017652982159298e-06,1.5610910964043499e-06,2.136787312119104e-06,1.8208918048817976e-06,1.6934290281293265e-06,1.4537295930138499e-06,2.118112513835567e-06,8.026884567241828e-06,1.4671411992775237e-06,2.262844679006694e-06,2.117108649340862e-06,1.634855962121019e-06,1.801720244034221e-06,2.3021206363003255e-06
39,1.6772897139412949e-06,1.637150936159922e-06,1.0228413185997221e-06,1.504971448135576e-06,2.2008879256213903e-06,1.7793424820148339e-06,1.727053139767118e-06,1.4349684064144098e-06,2.0741860553658283e-06,7.122607789480239e-06,1.4431634349911255e-06,2.22544356452516e-06,2.0821937772091497e-06,1.6529277888399656e-06,1.7925630899864783e-06,2.304748086472631e-06
40,1.7132257335241173e-06,1.6330003528764177e-06,1.0305311661486495e-06,1.4453060818063676e-06,2.2634227826374906e-06,1.7382874326920578e-06,1.7632951816216056e-06,1.4216265705188722e-06,2.0309104235030005e-06,6.286047711320848e-06,1.41744753337292e-06,2.19142931085518e-06,2.0497228857147835e-06,1.6912040245066246e-06,1.7814695308044882e-06,2.3082209175529488e-06
41,1.7504373783535955e-06,1.627443057635672e-06,1.0410950118274604e-06,1.3833354187327207e-06,2.3235210639053005e-06,1.697849949683596e-06,1.8012105654457152e-06,1.4139240476140741e-06,1.987533037808977e-06,5.5174587314715666e-06,1.3901555112018875e-06,2.161894023570814e-06,2.0212837723182917e-06,1.7540448944016167e-06,1.7677786571814633e-06,2.3131694690802227e-06
42,1.7879051373726534e-06,1.6206683829420754e-06,1.0548931314819715e-06,1.3203001365210868e-06,2.3809418707906925e-06,1.6579707332081148e-06,1.839636184196836e-06,1.4121654658017783e-06,1.9434579073306325e-06,4.815925726238649e-06,1.361374333978959e-06,2.137760048327065e-06,1.9981669345237928e-06,1.8461387173367345e-06,1.7508924718828634e-06,2.31975505252902e-06
43,1.8247947846261365e-06,1.6128837245790951e-06,1.0722644068405776e-06,1.2573354856721652e-06,2.4358628260410606e-06,1.6184773896546998e-06,1.877435440010929e-06,1.4166194152312596e-06,1.8985284874111003e-06,4.179429826638732e-06,1.3312206138370633e-06,2.1196415191356095e-06,1.981442875694861e-06,1.9723995744840707e-06,1.7304525687376563e-06,2.3276809381477254e-06
44,1.8605101002652137e-06,1.6044256484037617e-06,1.0935232020951517e-06,1.1953871474396966e-06,2.4885225380902334e-06,1.5792909916349637e-06,1.9137128296629653e-06,1.4273415350100245e-06,1.853101852245232e-06,3.6049586893190665e-06,1.299856930541365e-06,2.10780230065024e-06,1.9721724616834407e-06,2.1378972019375717e-06,1.7065730434086528e-06,2.336298958305816e-06
45,1.894784834794372e-06,1.5957584141129918e-06,1.1188938986892363e-06,1.1351997885382988e-06,2.5389201890689013e-06,1.5404886496127008e-06,1.947797878278793e-06,1.4440785569189016e-06,1.8078331851611184e-06,3.0887189026026423e-06,1.2674067951034476e-06,2.1021956095833232e-06,1.9714899686894977e-06,2.347727991665631e-06,1.6799769471712774e-06,2.344759909288491e-06
46,1.927619308455657e-06,1.5872946556853058e-06,1.1484304829783545e-06,1.077356790920396e-06,2.5866939916432725e-06,1.502166538199885e-06,1.979125428812479e-06,1.4662694671243016e-06,1.7634099807765311e-06,2.6263954411368605e-06,1.2338941322436842e-06,2.1025415068015174e-06,1.9804979920943703e-06,2.6069283496235456e-06,1.6518935392675082e-06,2.3521488792728054e-06
47,1.959063821040239e-06,1.5792574076396382e-06,1.1819943033767338e-06,1.0223497076462727e-06,2.6312712493809106e-06,1.4643299802766302e-06,2.007287032927224e-06,1.4931532149458845e-06,1.7204407676735774e-06,2.213349032926856e-06,1.1992356248245444e-06,2.1084118002223784e-06,2.0001997009399094e-06,2.9203873492202885e-06,1.623752072096271e-06,2.3575175485510843e-06
48,1.9890666547762258e-06,1.5717369733829253e-06,1.2193084603037726e-06,9.70637236135224e-07,2.672150670723077e-06,1.4269770912913205e-06,2.0321842587203135e-06,1.523990878270658e-06,1.6794019814988578e-06,1.8447580141590809e-06,1.163276860597401e-06,2.1193026921089037e-06,2.0315436439413856e-06,3.2927348494747204e-06,1.5969190411024519e-06,2.359800723655154e-06
49,2.0174463365659094e-06,1.5648512566520807e-06,1.2600451087002287e-06,9.22645073118059e-07,2.7089952351021335e-06,1.3902894222520779e-06,2.0539741858938946e-06,1.558260704212596e-06,1.6405842963755988e-06,1.5158783339631332e-06,1.1259151584819258e-06,2.134712599011539e-06,2.075383124264453e-06,3.7282839100145184e-06,1.5726016561501845e-06,2.357797418707265e-06
50,2.043889640009523e-06,1.558819372793921e-06,1.3038865212220264e-06,8.787415032787729e-07,2.7414951539840867e-06,1.3547444212768127e-06,2.0727821043313887e-06,1.5956326072859486e-06,1.60417160725903e-06,1.222434523676873e-06,1.0872720949577068e-06,2.154252956820076e-06,2.1323095058191537e-06,4.2309349923908425e-06,1.551838867241178e-06,2.35032482831039e-06
51,2.067963034354703e-06,1.5538792565817553e-06,1.3505432077045194e-06,8.392323334650497e-07,2.7692517637456507e-06,1.32103779809996e-06,2.0884939269971104e-06,1.635765562407872e-06,1.5704347345058354e-06,9.608135305408294e-07,1.047786706031884e-06,2.1777438933906815e-06,2.2025174308285414e-06,4.803981958276039e-06,1.5355115696050755e-06,2.3363764505667782e-06
52,2.0891574918372767e-06,1.5501418895325307e-06,1.399757013258013e-06,8.043469569922773e-07,2.7917410295616175e-06,1.289873887726014e-06,2.1008496869739345e-06,1.6781661329011897e-06,1.5398075656288255e-06,7.279137028528498e-07,1.0081539792333957e-06,2.2051711627239835e-06,2.2857603660104933e-06,5.449983468666632e-06,1.5243563265362472e-06,2.3151658446278438e-06
53,2.1069299652342477e-06,1.5475193203168928e-06,1.4513025284349174e-06,7.742119233830905e-07,2.808221433812119e-06,1.2618333025283883e-06,2.109693697676757e-06,1.7222115484989892e-06,1.51275364534871e-06,5.209554666935879e-07,9.691658391217701e-07,2.236480136262985e-06,2.3814040532258727e-06,6.170771913388156e-06,1.5190264644387953e-06,2.28619544571003e-06
54,2.120763562855382e-06,1.5457995527916412e-06,1.5049514086944543e-06,7.488680153574366e-07,2.8176894873956273e-06,1.2374356361073958e-06,2.1150668899489475e-06,1.7672275165663966e-06,1.4896087333384177e-06,3.3751613561118263e-07,9.315838471518916e-07,2.271375604260336e-06,2.4885957946785183e-06,6.967426270767313e-06,1.5202217230887131e-06,2.2494483760923657e-06
55,2.1303421510912287e-06,1.5448074441044901e-06,1.5603768385813786e-06,7.283413688676156e-07,2.819100468117126e-06,1.217265026744078e-06,2.117059773890747e-06,1.8125019295489556e-06,1.470556195642606e-06,1.7564848951256178e-07,8.960883709144458e-07,2.3092907239131506e-06,2.606415805303254e-06,7.84008884857061e-06,1.5287632060708224e-06,2.2055519086319003e-06
56,2.1358208306229266e-06,1.5444866636724332e-06,1.6170438164846806e-06,7.126927679125e-07,2.811774834442786e-06,1.201967219410904e-06,2.1156912626754654e-06,1.8572378376540694e-06,1.4556695354871026e-06,3.389850356976749e-08,8.632409338510896e-07,2.3494770270847337e-06,2.7338489627152744e-06,8.787834588125582e-06,1.5455032369031342e-06,2.1557511303605503e-06
57,2.1379437105273808e-06,1.5448149187049353e-06,1.6741407912566908e-06,7.019887085293247e-07,2.795720175985713e-06,1.1921176841247552e-06,2.1110206342235073e-06,1.9005264554608247e-06,1.4449432584933778e-06,-8.863961727246181e-08,8.334415014445255e-07,2.3910609178873016e-06,2.8697210110979597e-06,9.808776870523088e-06,1.571149637872993e-06,2.1017139345920477e-06
58,2.1378217003784357e-06,1.5456578275372138e-06,1.7305729507350242e-06,6.962534560341205e-07,2.7716392400772086e-06,1.1881166485256114e-06,2.1032814646966837e-06,1.9414044924122665e-06,1.4383639472865e-06,-1.9209803391835825e-07,8.06930629781964e-07,2.433054456005214e-06,3.012866051420071e-06,1.0900168365429619e-05,1.6061667299489351e-06,2.0452369898122836e-06
59,2.1365933670053717e-06,1.546705593454844e-06,1.785042188411727e-06,6.95483062559945e-07,2.74059335382604e-06,1.1901889326619958e-06,2.092801179110225e-06,1.979002353988837e-06,1.4360026904054172e-06,-2.756463003750345e-07,7.838415943285657e-07,2.474395347983719e-06,3.1624089187616672e-06,1.2058247338142731e-05,1.6507844001297806e-06,1.987949914943881e-06
60,2.1352636834181812e-06,1.5475536602216927e-06,1.836214274374667e-06,6.997033369977791e-07,2.70365571878245e-06,1.198405023686532e-06,2.0798991332586596e-06,2.0127265810436556e-06,1.4379967214259895e-06,-3.3757155031089517e-07,7.642720225379319e-07,2.513959077057732e-06,3.3177587708131342e-06,1.3277942479324702e-05,1.7050108318585121e-06,1.9311747033365906e-06
61,2.134714157112845e-06,1.5479181460520125e-06,1.8828931224626924e-06,7.090083063286744e-07,2.661888684298124e-06,1.2126468709946395e-06,2.0649678948573383e-06,2.0423804632220807e-06,1.4444401003571689e-06,-3.75527086057834e-07,7.483494025819973e-07,2.5505159061377655e-06,3.478231254682743e-06,1.4552558615665907e-05,1.7686195545073538e-06,1.8759522485534618e-06
62,2.1357691110737967e-06,1.5478155305561318e-06,1.9241156642963874e-06,7.235424520306182e-07,2.6164534335788164e-06,1.2325576785353967e-06,2.0485320116007777e-06,2.06814739701595e-06,1.4552973004839449e-06,-3.866996019613445e-07,7.362402862633625e-07,2.582795975447037e-06,3.642661766394421e-06,1.5873345726665824e-05,1.8411758523331617e-06,1.8231353192680534e-06
63,2.1391854442647934e-06,1.547515344259262e-06,1.959169469633584e-06,7.434388852750859e-07,2.568500989324062e-06,1.2575301893312904e-06,2.0310952896751802e-06,2.0904207848684505e-06,1.4703295048917252e-06,-3.678348079681824e-07,7.280983655931731e-07,2.6097019924003563e-06,3.809282806143194e-06,1.7228966196807276e-05,1.9221009219735895e-06,1.7735515718809408e-06
64,2.145497284178113e-06,1.5473793136394277e-06,1.9875702506301477e-06,7.687710953361224e-07,2.5189644669129677e-06,1.286752041604388e-06,2.0129658405782573e-06,2.1095680015353743e-06,1.4890267031841473e-06,-3.151885346959608e-07,7.24015367350448e-07,2.6304533930533557e-06,3.975778788397151e-06,1.8605138425543454e-05,2.0107977044451192e-06,1.7281988625940364e-06
65,2.154853136664007e-06,1.547816769706318e-06,2.0089793753550914e-06,7.995451712132449e-07,2.46853450563254e-06,1.3193401194195174e-06,1.9942685550920145e-06,2.125796019992765e-06,1.51061613378086e-06,-2.2443954830289408e-07,7.239952727739844e-07,2.6445160708455654e-06,4.139338964925402e-06,1.998451595759041e-05,2.1068718807494964e-06,1.6883167362881343e-06
66,2.1669994194481777e-06,1.549312303466337e-06,2.0230979267386213e-06,8.357087683831062e-07,2.417777458392715e-06,1.3545305122393654e-06,1.975103029288957e-06,2.139156022554217e-06,1.5341601449654834e-06,-9.065709989223198e-08,7.279308428777513e-07,2.6514247554975885e-06,4.296633523935141e-06,2.1346473698235427e-05,2.2102616468433643e-06,1.65530152895971e-06
67,2.1814157637395357e-06,1.552371480739749e-06,2.029699770412974e-06,8.771677581976526e-07,2.3672491200748416e-06,1.391755428256238e-06,1.9557547766252863e-06,2.1495613581022546e-06,1.558686947642817e-06,9.161871011777681e-08,7.35578411940032e-07,2.6507142871545273e-06,4.4437967838826714e-06,2.2666882138468256e-05,2.3211984633513047e-06,1.6305837583925115e-06
68,2.1975056571080795e-06,1.5574328846190428e-06,2.028821724331432e-06,9.238114555316672e-07,2.317554681378633e-06,1.4305116658388775e-06,1.936860634642153e-06,2.156787378028159e-06,1.5833329055945333e-06,3.2834742782655707e-07,7.465451862051125e-07,2.6420571085323894e-06,4.576632939187409e-06,2.391861947501858e-05,2.440251447304238e-06,1.615554076193945e-06
69,2.2146846665865134e-06,1.564867978399384e-06,2.020902755677913e-06,9.75515573837763e-07,2.269302487345389e-06,1.4701612953095527e-06,1.9193547502385175e-06,2.1605417267577585e-06,1.607501267375829e-06,6.261001120120595e-07,7.603031776054299e-07,2.6254922128612366e-06,4.691100637102182e-06,2.50731970414737e-05,2.5684255348666023e-06,1.6115205637540161e-06
70,2.2322669327487455e-06,1.5750385145359388e-06,2.006728258357416e-06,1.0321113654978443e-06,2.222956471594947e-06,1.5098412377254885e-06,1.9041906289263138e-06,2.160614903390185e-06,1.6309344809801682e-06,9.92076712585974e-07,7.762255311381104e-07,2.6015367300256944e-06,4.783835343293244e-06,2.610304945453553e-05,2.707010867202402e-06,1.6196433988665981e-06
71,2.249296993357415e-06,1.5882924777328049e-06,1.9872225197675714e-06,1.0933808604028567e-06,2.178766079301785e-06,1.5485554686001225e-06,1.892079916711863e-06,2.157010543581401e-06,1.6535888204479754e-06,1.4338488914166313e-06,7.936274784805844e-07,2.571043874792911e-06,4.852478375630392e-06,2.698391353222788e-05,2.8573581954452446e-06,1.6408691551310246e-06
72,2.264605444270542e-06,1.6048638434340367e-06,1.9632560311133785e-06,1.1590909575142654e-06,2.136889750410217e-06,1.5854662806774622e-06,1.883391440656179e-06,2.1499630898479367e-06,1.675466772060159e-06,1.959012022546583e-06,8.117754926662235e-07,2.5348849274741438e-06,4.895785771513705e-06,2.7696939905460205e-05,3.0209415126439826e-06,1.6759437062699632e-06
73,2.2771456232395047e-06,1.6247598162186177e-06,1.9356062258019506e-06,1.2289701023523367e-06,2.09754567829272e-06,1.6202211918821525e-06,1.878150314283866e-06,2.1398654764044076e-06,1.6966702206068027e-06,2.5750188658143663e-06,8.298733551264745e-07,2.4937668785442344e-06,4.913509510245316e-06,2.8230041797335388e-05,3.1995403120256182e-06,1.725494823581488e-06
74,2.286351298655933e-06,1.647730984559304e-06,1.9050023036722278e-06,1.3026044998276394e-06,2.0610136652907595e-06,1.6530057567338907e-06,1.876114605845424e-06,2.1272292830905713e-06,1.7176148599926503e-06,3.28923587775297e-06,8.471451101546888e-07,2.4483535403699782e-06,4.905991126645338e-06,2.8577454142467604e-05,3.3951680809159462e-06,1.7900774194698584e-06
75,2.2922159579656836e-06,1.6733274410859337e-06,1.872121413072296e-06,1.3793461318509346e-06,2.0275163633877647e-06,1.6842736462533078e-06,1.8769237128963055e-06,2.1127252138772818e-06,1.7391221333482861e-06,4.1090897187128176e-06,8.630515945463399e-07,2.399440917659263e-06,4.873687820110131e-06,2.8736942940113856e-05,3.609722996780164e-06,1.8701210850557177e-06
76,2.295070878531553e-06,1.700970111147014e-06,1.8375519508981804e-06,1.4582782391628963e-06,1.9971020495486512e-06,1.7144384371665235e-06,1.8801892616378308e-06,2.0971747839994613e-06,1.7623267097129951e-06,5.042174908640486e-06,8.774453197781528e-07,2.3479476110384528e-06,4.817180921835084e-06,2.8706716256279523e-05,3.844646046271662e-06,1.9658506756653745e-06
77,2.295279676717574e-06,1.7299736131605346e-06,1.8017640732619207e-06,1.5382141211662135e-06,1.9696530011124183e-06,1.7437090368491585e-06,1.8854918112054278e-06,2.081408729455323e-06,1.7885513269905467e-06,6.0961689181770395e-06,8.905016299807941e-07,2.2948379673611395e-06,4.737715099840313e-06,2.8485292088936455e-05,4.100813571146694e-06,2.0772879567127786e-06
78,2.293055287499283e-06,1.7595075890922912e-06,1.7650589042466717e-06,1.6177183405024388e-06,1.9449811078115285e-06,1.7720270586423606e-06,1.8924284111181015e-06,2.066133681850744e-06,1.8191956050638196e-06,7.278409939658734e-06,9.025141616246614e-07,2.2411279656981654e-06,4.637501341839564e-06,2.807446256541838e-05,4.378594942439766e-06,2.2043007926616087e-06
79,2.288481554016252e-06,1.788575193740752e-06,1.7275387464008485e-06,1.6952029548153984e-06,1.922827254078159e-06,1.7991061370973383e-06,1.9007229018229402e-06,2.0519318281774704e-06,1.855582860209233e-06,8.595277751477767e-06,9.137173751379314e-07,2.187868737655821e-06,4.519333605857648e-06,2.7482868161287684e-05,4.677883310568289e-06,2.34656714343789e-06
80,2.2816744315002913e-06,1.8161046876397733e-06,1.689195585274568e-06,1.7691079830174287e-06,1.9028040251082945e-06,1.8246276395344268e-06,1.910253444872617e-06,2.0393282049668885e-06,1.898807051087059e-06,1.0051716621524633e-05,9.241992531342105e-07,2.1359947793243185e-06,4.386036211342539e-06,2.6728481049176064e-05,4.99802032874538e-06,2.5034510510662514e-06
81,2.2728879634861426e-06,1.8410882567647947e-06,1.6500745577836372e-06,1.8380051901368926e-06,1.884459193380194e-06,1.8484907555274269e-06,1.9209984764116765e-06,2.0288141349767486e-06,1.9496852238905243e-06,1.1650960974406082e-05,9.339010374874577e-07,2.086177359351698e-06,4.240375616546704e-06,2.5838890755725347e-05,5.337649354991748e-06,2.673893326380607e-06
82,2.2624229886687263e-06,1.8626221643697757e-06,1.6103614132505758e-06,1.9005232039925192e-06,1.8674099068961825e-06,1.8708635624024894e-06,1.9330330709458854e-06,2.0207714672450057e-06,2.0088351602950396e-06,1.3394248174317804e-05,9.426547056057339e-07,2.0388589781100877e-06,4.085309414124991e-06,2.484844845779445e-05,5.694583657149946e-06,2.8563669457852323e-06
83,2.2504603798456123e-06,1.879868850020878e-06,1.5703509375108162e-06,1.9552617476827687e-06,1.8514377643254806e-06,1.891952287054238e-06,1.946599524779277e-06,2.015355387638533e-06,2.0767765679215363e-06,1.5280383513393734e-05,9.501965420719306e-07,1.9944020809969534e-06,3.923997718701975e-06,2.379329007035008e-05,6.065781873057427e-06,3.0488866132850035e-06
84,2.2370859373843842e-06,1.8920920513877892e-06,1.5303962479021407e-06,2.0008854569703376e-06,1.8365263221168782e-06,1.9117306596864022e-06,1.9621239947991695e-06,2.0124353599947335e-06,2.153918201621267e-06,1.730523930197574e-05,9.561916335600725e-07,1.953172848998679e-06,3.7594943535625916e-06,2.2706910076441994e-05,6.447441421754374e-06,3.2490380934341067e-06
85,2.22254860716397e-06,1.898811897691154e-06,1.4909267238743665e-06,2.036353358802882e-06,1.8228050640204144e-06,1.9299011965909715e-06,1.9800730098127727e-06,2.011578222774864e-06,2.2404454562391525e-06,1.9461535334887776e-05,9.603322899443353e-07,1.9154981112014004e-06,3.5945080560109755e-06,2.161789997515682e-05,6.835089036815784e-06,3.4540418491164357e-06
86,2.207509710393009e-06,1.899936614030691e-06,1.4524897957088613e-06,2.0611127772804117e-06,1.8104859702603722e-06,1.9460994212157437e-06,2.0007249105043748e-06,2.0120707431773395e-06,2.336250116412557e-06,2.1739133946951258e-05,9.62448001920554e-07,1.88154101007751e-06,3.4313198960049287e-06,2.0549447258489145e-05,7.223507058533074e-06,3.660826414210028e-06
87,2.1930755560642695e-06,1.895696031179907e-06,1.4157056108429524e-06,2.0751497963336595e-06,1.7999406647233937e-06,1.9601328475249575e-06,2.0240102872598584e-06,2.013076567462203e-06,2.440910394932918e-06,2.4125297260038277e-05,9.625212699279414e-07,1.85118596852621e-06,3.271704905006897e-06,1.9519559350473048e-05,7.606432336906907e-06,3.865948022789651e-06
88,2.1806306468823004e-06,1.8864341547513407e-06,1.3811237368475775e-06,2.0788517846778806e-06,1.7917774716299901e-06,1.972052822573352e-06,2.049469821492918e-06,2.0139130245257196e-06,2.5536345488357847e-06,2.660417964358595e-05,9.606178666020252e-07,1.824048255473177e-06,3.116926335408309e-06,1.8541531319646883e-05,7.976155000384738e-06,4.0653595688625344e-06
89,2.1716202559101394e-06,1.872528810060212e-06,1.349088824515965e-06,2.0727302518152152e-06,1.786703168354798e-06,1.982029263016268e-06,2.0762725306778123e-06,2.01426529518908e-06,2.673198110966363e-06,2.9156103245343017e-05,9.568403223036728e-07,1.7996189088816515e-06,2.9678815911764923e-06,1.7624704724316828e-05,8.323294161259429e-06,4.25431425017896e-06
90,2.1673770302823446e-06,1.8545281846802606e-06,1.3197206410358268e-06,2.057250812125488e-06,1.785292493052552e-06,1.9901923562860894e-06,2.103243198252256e-06,2.0141526637660926e-06,2.797931301521256e-06,3.175793106622329e-05,9.51376774245678e-07,1.7773721403998646e-06,2.8252511251342568e-06,1.677555272045499e-05,8.637044140580153e-06,4.427634102702405e-06
91,2.168974107975568e-06,1.8333050917393188e-06,1.293032392172363e-06,2.032948389780839e-06,1.7878715104034334e-06,1.9966443527346313e-06,2.1289374691297006e-06,2.0136765608405e-06,2.9257421090821833e-06,3.438469641836998e-05,9.445734297088856e-07,1.756702075843903e-06,2.689489549877193e-06,1.5998723978272154e-05,8.906139117750862e-06,4.580327633949067e-06
92,2.177106419508563e-06,1.8100661577747582e-06,1.269084591327105e-06,2.000619738335309e-06,1.7944891994897265e-06,2.00162057200126e-06,2.151830683005626e-06,2.012838984665133e-06,3.0542191956672203e-06,3.701123308980753e-05,9.369045350659802e-07,1.7368211909693225e-06,2.560712633135297e-06,1.5297432139894882e-05,9.12051910971125e-06,4.70827456440797e-06
93,2.192042716267708e-06,1.7862175179582129e-06,1.248012681779314e-06,1.9613221630673355e-06,1.8049052375193194e-06,2.005552808733878e-06,2.1706183765727643e-06,2.0115956255547435e-06,3.1808532814957508e-06,3.961216178090966e-05,9.288447155363658e-07,1.7168152198908123e-06,2.4386316384221147e-06,1.4673025487874101e-05,9.273039329499561e-06,4.808525582908067e-06
94,2.2136202236163508e-06,1.7631477085825382e-06,1.2299094990882391e-06,1.916235082713673e-06,1.8185909402208833e-06,2.0089251212257236e-06,2.1845480653359165e-06,2.009954237166362e-06,3.3032852371431963e-06,4.215962123111783e-05,9.207571953020827e-07,1.6958217696413801e-06,2.3225848554714554e-06,1.4124361228150872e-05,9.360090185909635e-06,4.878962360323605e-06
95,2.2412310363649486e-06,1.7420239137754238e-06,1.2147129717372741e-06,1.866576602254006e-06,1.8347630116114936e-06,2.012133967215364e-06,2.193603101843339e-06,2.0079519066980724e-06,3.4195086238220977e-06,4.46205579216786e-05,9.128711120988717e-07,1.673166985296071e-06,2.211730424318054e-06,1.3647727340512761e-05,9.380602670031993e-06,4.917660915721321e-06
96,2.273841371424011e-06,1.7236869911123064e-06,1.2022336436154944e-06,1.8135947221727786e-06,1.852527465834795e-06,2.0155008388621867e-06,2.1983738983625263e-06,2.005583294191624e-06,3.5279209337727166e-06,4.69560891244711e-05,9.053331362690861e-07,1.648383531071859e-06,2.1054517241838483e-06,1.323734022732565e-05,9.3345347674106e-06,4.922752212183682e-06
97,2.310136430052907e-06,1.7086591705745555e-06,1.1922932941720832e-06,1.7585286122354525e-06,1.8711137696055875e-06,2.0193018038428505e-06,2.1996926311918686e-06,2.002734583693015e-06,3.6271168812182568e-06,4.912345856820967e-05,8.982620605765294e-07,1.6211840751361747e-06,2.0037363179761118e-06,1.2885880951732217e-05,9.222547322157115e-06,4.893096046289447e-06
98,2.3487579902508993e-06,1.6972019666363978e-06,1.1848141854068811e-06,1.7025136192229191e-06,1.8899734327778673e-06,2.0237853052420697e-06,2.1982813958076033e-06,1.999106243400763e-06,3.715715925051381e-06,5.108009602621291e-05,8.917513079177412e-07,1.591515854525341e-06,1.907222191044354e-06,1.2584765092907364e-05,9.046941976884223e-06,4.829131084735215e-06
99,2.388446172670891e-06,1.689326024702316e-06,1.1797735478757448e-06,1.6465035119479495e-06,1.9086643807406363e-06,2.0292351748314826e-06,2.1945738891990233e-06,1.994218977121396e-06,3.792495239598524e-06,5.2788949609241505e-05,8.858285826769318e-07,1.5596987205504097e-06,1.8169282402582022e-06,1.2324324601283985e-05,8.81244304713154e-06,4.7331610142773034e-06
100,2.4280166880574435e-06,1.6847506798593042e-06,1.177093295840867e-06,1.5912593718527422e-06,1.926790586007541e-06,2.0359419480197765e-06,2.1887136214216543e-06,1.9875896418244627e-06,3.856525467320762e-06,5.422225793808456e-05,8.804098599622965e-07,1.5265198852740704e-06,1.7338985575358557e-06,1.2094142757018027e-05,8.52603799214523e-06,4.6090016715532125e-06
101,2.4663714768812036e-06,1.6829248415713453e-06,1.176555650942621e-06,1.5373749207668932e-06,1.944149177536974e-06,2.0440796096192104e-06,2.180623638345216e-06,1.9789089709263287e-06,3.907100994797379e-06,5.5360016949751666e-05,8.752746523352343e-07,1.4931917960315514e-06,1.6589593875652377e-06,1.1883554025325933e-05,8.196225976691997e-06,4.461322660565217e-06
102,2.50270313796884e-06,1.6831912789215777e-06,1.1777862353644358e-06,1.4852931154220849e-06,1.960849988260012e-06,2.0536949546947614e-06,2.170045568474949e-06,1.9680125638173144e-06,3.9436973308598014e-06,5.6183528077660987e-05,8.700952042631364e-07,1.4611882446772598e-06,1.592666970383426e-06,1.1682162393250334e-05,7.832180912609416e-06,4.29495455898741e-06
103,2.536707553777585e-06,1.6850291806564051e-06,1.1803082786199063e-06,1.4353258010757874e-06,1.9772467368881352e-06,2.0648109541472205e-06,2.1566221182262203e-06,1.9547791724579837e-06,3.966000349182083e-06,5.667086281266952e-05,8.64551629001105e-07,1.43204095565927e-06,1.53537810310508e-06,1.1480249703752238e-05,7.443058986265867e-06,4.114321407945649e-06
104,2.5684837011480733e-06,1.688158450128125e-06,1.1836386165380682e-06,1.3877028573752936e-06,1.993808814795208e-06,2.0774795126697987e-06,2.1401596427151755e-06,1.939163305296504e-06,3.973786068954425e-06,5.680001217046176e-05,8.584846750148032e-07,1.4071727460841731e-06,1.487310805845206e-06,1.1269081652321015e-05,7.037511932902969e-06,3.923153422161194e-06
105,2.5981509860718536e-06,1.6923968741246947e-06,1.1873842703528042e-06,1.342600154180117e-06,2.0110137142457584e-06,2.0917784105143996e-06,2.1209561496144396e-06,1.921222392616204e-06,3.966768380252729e-06,5.6557090474854965e-05,8.519672757218744e-07,1.3877875938899433e-06,1.4485571567178693e-06,1.1041209156476677e-05,6.6233446683181485e-06,3.7244749912675973e-06
106,2.6256066857602636e-06,1.697469693011459e-06,1.1912770046857339e-06,1.3000907969797168e-06,2.029241984615103e-06,2.1078256141309787e-06,2.0998895675169857e-06,1.9010089547254225e-06,3.944806085281004e-06,5.59433923477866e-05,8.45266813065217e-07,1.374824672185401e-06,1.4190950244456126e-06,1.0790739474571515e-05,6.20722689006409e-06,3.5206597422987437e-06
107,2.650704369373071e-06,1.702974054353419e-06,1.1950899177516424e-06,1.2601099876549804e-06,2.0487410963463454e-06,2.1257554267304765e-06,2.0781701118438214e-06,1.8785067077185154e-06,3.908374785228946e-06,5.497775469924735e-05,8.387698959796249e-07,1.3689895706161682e-06,1.3987938791365019e-06,1.0513208254595293e-05,5.794498890565015e-06,3.3134864516008392e-06
108,2.673642559532627e-06,1.7084313271496725e-06,1.1984899480301717e-06,1.222551664526973e-06,2.0696863461205316e-06,2.14564562523006e-06,2.056994908237556e-06,1.8536969152729558e-06,3.858769243103588e-06,5.369269188968415e-05,8.328987830756274e-07,1.370803612003736e-06,1.3874068043590513e-06,1.0204875272943194e-05,5.3892191604657614e-06,3.1043313038502494e-06
109,2.695169735699941e-06,1.7133352099194044e-06,1.2009478901279446e-06,1.1874158190008694e-06,2.0922467665236257e-06,2.167489643449121e-06,2.037356222227367e-06,1.8265886501237358e-06,3.7978856198884996e-06,5.2125871988256205e-05,8.280420149316288e-07,1.380587043137768e-06,1.3845974954979941e-06,9.862427612364647e-06,4.994525129666102e-06,2.8944864730698022e-06
110,2.716479688601757e-06,1.7172376839553118e-06,1.2017773128824672e-06,1.1548325156489033e-06,2.116619594841428e-06,2.1911709715797057e-06,2.0200040274456927e-06,1.797168481194076e-06,3.7279429783934758e-06,5.0313866977359645e-05,8.245383739318393e-07,1.3984065627231702e-06,1.3899849757795325e-06,9.48406796749476e-06,4.613138403734058e-06,2.68539269159708e-06
111,2.738970649114472e-06,1.7198308786469204e-06,1.2003268008954845e-06,1.1249578248127806e-06,2.143068145738328e-06,2.216366519241384e-06,2.0054438372610034e-06,1.765468476979284e-06,3.65133223882672e-06,4.829275325038596e-05,8.226683508210565e-07,1.4240700698884715e-06,1.403110182740757e-06,9.071019200383749e-06,4.2476843736773426e-06,2.478661339825925e-06
112,2.7640382109466093e-06,1.7209332937029345e-06,1.19626046411236e-06,1.0978694001716344e-06,2.1719137352817277e-06,2.2424808719819173e-06,1.9939197816434483e-06,1.7317823661101908e-06,3.57038970698507e-06,4.6100909426172595e-05,8.226123069299711e-07,1.457178084362713e-06,1.4233358826958972e-06,8.627855234470305e-06,3.900639844275386e-06,2.2759854579688096e-06
113,2.7928986817659682e-06,1.7204780062645705e-06,1.1897327933529615e-06,1.0735234008878681e-06,2.203407894894466e-06,2.268767372436773e-06,1.9853906581245184e-06,1.696736982881903e-06,3.487023274550342e-06,4.377872379576596e-05,8.24428905890214e-07,1.4971922826147058e-06,1.4498131063796567e-06,8.161541326807971e-06,3.574041113987645e-06,2.079093180881474e-06
114,2.8264256394293526e-06,1.7185712942539074e-06,1.1813024490935604e-06,1.0517711528824497e-06,2.237583784304991e-06,2.2946138004380855e-06,1.979559176219882e-06,1.6611118410963772e-06,3.402446672917653e-06,4.136615618241626e-05,8.280739333986742e-07,1.5434601625749658e-06,1.4815279997704215e-06,7.680034518946518e-06,3.2692633760541215e-06,1.8897491351221406e-06
115,2.8650448917503767e-06,1.71546829228234e-06,1.1716531427921969e-06,1.0324036598221817e-06,2.2742197267396825e-06,2.319722000647269e-06,1.9760075444164904e-06,1.625652976950291e-06,3.3172519979414253e-06,3.8900633002273716e-05,8.334088726507155e-07,1.5951528409831067e-06,1.517328331719956e-06,7.191120450437221e-06,2.9870234278853497e-06,1.709718691900256e-06
116,2.9086921094308986e-06,1.7114007136868967e-06,1.16135545141081e-06,1.0151622604372824e-06,2.3128703426919816e-06,2.344003464312409e-06,1.974343119603137e-06,1.5910045641539941e-06,3.2317894345913837e-06,3.641595554856643e-05,8.401968611442675e-07,1.651175205340993e-06,1.5559501025384466e-06,6.701733762251677e-06,2.7274969922773303e-06,1.5407162026124379e-06
117,2.956835367741817e-06,1.7063852591713635e-06,1.1507988855707127e-06,9.9974475570593e-07,2.3529170812235832e-06,2.367356519419458e-06,1.9742164170455033e-06,1.5576723168043735e-06,3.146606820147378e-06,3.394202966611632e-05,8.481444699150309e-07,1.710144569061928e-06,1.5961357406589485e-06,6.217745864516382e-06,2.4904511901302896e-06,1.384429893993835e-06
118,3.0085665034222557e-06,1.700138947370546e-06,1.1402134798705334e-06,9.858492242181751e-07,2.3936568777817553e-06,2.3895569175787957e-06,1.9752352548305174e-06,1.5259985783949092e-06,3.0626837584162554e-06,3.1505057887350455e-05,8.569797667883597e-07,1.7704656609500419e-06,1.6368073969306712e-06,5.744096509854557e-06,2.27540763733447e-06,1.2425955346830443e-06
119,3.0626854465340994e-06,1.69217445934051e-06,1.1297099703935617e-06,9.731919213965822e-07,2.434352113067012e-06,2.4102958833644444e-06,1.976921030987868e-06,1.4961524948947533e-06,2.981350313425904e-06,2.912777379674992e-05,8.664646804445899e-07,1.830495086482898e-06,1.6771265226946217e-06,5.285003953347166e-06,2.0818202187987194e-06,1.117002986038198e-06
120,3.1177329243725313e-06,1.6820465822504216e-06,1.119333398143773e-06,9.615148089819377e-07,2.4741510599824066e-06,2.429271622204213e-06,1.978801969035813e-06,1.4680995563833382e-06,2.9039662930232948e-06,2.6829415634573074e-05,8.763185591639363e-07,1.8887920488488278e-06,1.716378855836576e-06,4.844000117731896e-06,1.9092111414621466e-06,1.009419958183436e-06
121,3.1720724390303472e-06,1.669549199088512e-06,1.1090709380373903e-06,9.506502076070383e-07,2.5119439839468054e-06,2.4462722256299982e-06,1.9805744155430512e-06,1.4415927359639933e-06,2.8315737209504566e-06,2.462545901475244e-05,8.861784115016458e-07,1.9444236456787754e-06,1.7539255636146278e-06,4.423918767774054e-06,1.7572341471857147e-06,9.21517001264257e-07
122,3.2241339318999836e-06,1.6546737323875487e-06,1.0988222673444758e-06,9.405699408327814e-07,2.5463585055986698e-06,2.4612217442072587e-06,1.982156657784516e-06,1.416270696488703e-06,2.7647127260535674e-06,2.252735383447491e-05,8.956857034648987e-07,1.9972260721676886e-06,1.7893764889843976e-06,4.0270835017125285e-06,1.625637587217494e-06,8.548462114551797e-07
123,3.27273238217143e-06,1.637430540917792e-06,1.0884012512652247e-06,9.313403451861507e-07,2.576077952801482e-06,2.4741204545794176e-06,1.9835584833627086e-06,1.3918158774381247e-06,2.703421122940094e-06,2.0542379521779035e-05,9.046146602849058e-07,2.0479029178588073e-06,1.8226904901533284e-06,3.6555404791089907e-06,1.514135502831662e-06,8.109068957700135e-07
124,3.3171992973691845e-06,1.6178133718553876e-06,1.0775427538526537e-06,9.230480193495872e-07,2.600370891134377e-06,2.4848870605588886e-06,1.9847307918272135e-06,1.3679946257283697e-06,2.647341174504555e-06,1.8673580343313044e-05,9.128900734929936e-07,2.0979320029156186e-06,1.8539552844051684e-06,3.311082627823162e-06,1.4222915034354365e-06,7.912993593525354e-07
125,3.3571758579866276e-06,1.5959562627353616e-06,1.0659389809140483e-06,9.158057901896304e-07,2.6194127380371374e-06,2.4932599951276895e-06,1.985637364401167e-06,1.3445356808129797e-06,2.5958750494554285e-06,1.6920085503713197e-05,9.20476132613175e-07,2.1493632228868514e-06,1.8830871809499082e-06,2.9951077381691413e-06,1.349491704992725e-06,7.978193125043118e-07
126,3.3922031333044424e-06,1.5722312378092357e-06,1.0533778998848667e-06,9.098124547577435e-07,2.634138057752574e-06,2.4988045917801617e-06,1.9865208061423158e-06,1.3210602236705392e-06,2.5483345730854484e-06,1.5278340293748724e-05,9.272792608622247e-07,2.204621736668533e-06,1.909797702664488e-06,2.7084842885701673e-06,1.2949408398981684e-06,8.323657472933288e-07
127,3.4213912562911384e-06,1.5471245165618786e-06,1.0398724415062401e-06,9.053384786601097e-07,2.6457709225380386e-06,2.5009285587182057e-06,1.9880493112510463e-06,1.2972404783760256e-06,2.5040239784227813e-06,1.3744035967446485e-05,9.331768562768759e-07,2.2663680315830668e-06,1.9338094782568e-06,2.4515509234180704e-06,1.2576327994553352e-06,8.967816729886228e-07
128,3.443370813013845e-06,1.5210552799991357e-06,1.025629652538905e-06,9.026550117270467e-07,2.655340616881759e-06,2.4989726662977417e-06,1.9911550363318993e-06,1.2730232900389156e-06,2.4622247369069633e-06,1.2313707832254627e-05,9.381176561861703e-07,2.337362441901078e-06,1.9549965875930238e-06,2.224227169845595e-06,1.2363439217940175e-06,9.928021714085763e-07
129,3.456535343340183e-06,1.494316050334929e-06,1.0109339478231597e-06,9.020170815155983e-07,2.66338635188702e-06,2.492497177639752e-06,1.996739895675628e-06,1.2486395445478339e-06,2.4221855187941244e-06,1.0985223854685936e-05,9.421702327117001e-07,2.4202625964389246e-06,1.973270584326075e-06,2.0261143327911515e-06,1.2296772550406079e-06,1.1220843576260665e-06
130,3.459457664412196e-06,1.4670701635041188e-06,9.961076586431827e-07,9.036731725711232e-07,2.6698866305583735e-06,2.481596240726903e-06,2.005511710024375e-06,1.224454317566559e-06,2.3833229452550275e-06,9.75726356370195e-06,9.454814987757166e-07,2.517392153916071e-06,1.988406722856352e-06,1.8565572432300926e-06,1.236196192413192e-06,1.2862015969279802e-06
131,3.4513728421797582e-06,1.4393382783906388e-06,9.815294730048424e-07,9.078295231711601e-07,2.674397736978354e-06,2.4669231590890887e-06,2.0179532852894357e-06,1.2008761982740582e-06,2.3455150926318967e-06,8.628417055522657e-06,9.482151076458543e-07,2.6306014802534044e-06,1.999998195608419e-06,1.7146824649347472e-06,1.2546458435024085e-06,1.4865984105249305e-06
132,3.432556057778599e-06,1.4110355656503147e-06,9.675985690558462e-07,9.145924763210135e-07,2.6764034155195045e-06,2.4493571504294804e-06,2.0342744358374507e-06,1.1783013757408925e-06,2.309061160617396e-06,7.596507842383812e-06,9.505546961378185e-07,2.761242962942752e-06,2.0074652572728013e-06,1.5994077289139775e-06,1.284069494425642e-06,1.724548614675597e-06
133,3.404315046725562e-06,1.3820810407575e-06,9.546730034913017e-07,9.239270459232712e-07,2.6757368479528668e-06,2.429590217791465e-06,2.0543348666317977e-06,1.1570146540323796e-06,2.2743080698268947e-06,6.658433160216927e-06,9.52758944256772e-07,2.910160524442144e-06,2.0101174672558717e-06,1.509462304087617e-06,1.3237008304037547e-06,2.001107497887801e-06
134,3.368529267418722e-06,1.352496215173393e-06,9.430436810413065e-07,9.356406623983182e-07,2.6727970637536256e-06,2.407966489736425e-06,2.0776150151887496e-06,1.1371356505749675e-06,2.2413710011200415e-06,5.810387155595147e-06,9.551595998850165e-07,3.07766626685549e-06,2.0074381564826067e-06,1.4434217212200017e-06,1.3727977200967921e-06,2.3170694849285523e-06
135,3.3270922046694237e-06,1.3223929601627463e-06,9.329069952683126e-07,9.494043084956333e-07,2.668421609805326e-06,2.384610357433476e-06,2.103220846936535e-06,1.118683780898157e-06,2.2101485227101116e-06,5.048089606541497e-06,9.580706743064134e-07,3.263552642975478e-06,1.9995339691528348e-06,1.3996858345559808e-06,1.4305515099608488e-06,2.672934883299965e-06
136,3.2816441702743294e-06,1.2918681978529482e-06,9.243313862105619e-07,9.648059088963528e-07,2.6635338570516083e-06,2.359573291714601e-06,2.1298899595874506e-06,1.10172218251522e-06,2.1805383602425953e-06,4.366859058100097e-06,9.61714642578411e-07,3.467119512017005e-06,1.9873348241090256e-06,1.3764156193763586e-06,1.4960256532746931e-06,3.0688547514688093e-06
137,3.2335380686526567e-06,1.2609401856531616e-06,9.172806233399065e-07,9.813980434442813e-07,2.6587985891438297e-06,2.3328022969034163e-06,2.1560581658189552e-06,1.0864886408812564e-06,2.152596314689025e-06,3.7616557056269213e-06,9.662151166988625e-07,3.68724766354085e-06,1.9722813034445235e-06,1.3715254668801832e-06,1.5681042561659099e-06,3.5045602337560103e-06
138,3.1837776110636813e-06,1.2296283488186546e-06,9.117011312417013e-07,9.987199586464376e-07,2.6544887287506244e-06,2.3040996057282165e-06,2.1800525118683543e-06,1.073415207072097e-06,2.1263981368942107e-06,3.2271638825574377e-06,9.715984272005383e-07,3.922639367601033e-06,1.9558036404781256e-06,1.3827157068124553e-06,1.6454965796761404e-06,3.979261028242185e-06
139,3.1329687661922607e-06,1.198166396454817e-06,9.075899997961023e-07,1.0163404293337102e-06,2.650650012189941e-06,2.2732752037752294e-06,2.200391530709581e-06,1.0630254902795208e-06,2.101764268860534e-06,2.7578392467259487e-06,9.777973413382583e-07,4.172165681988933e-06,1.9390428887452727e-06,1.4074782098896642e-06,1.7267953170384244e-06,4.491490051978102e-06
140,3.081424356115314e-06,1.167175377066332e-06,9.049841363418253e-07,1.0339867091476867e-06,2.6474503860315603e-06,2.2403366818577563e-06,2.2161143860841148e-06,1.0558135408545664e-06,2.07820763211581e-06,2.347966514708249e-06,9.846786765024741e-07,4.4350835124955765e-06,1.922884124888219e-06,1.4431329902644081e-06,1.810582867298872e-06,5.038962870793709e-06
141,3.0292765466083532e-06,1.1375939420515904e-06,9.039035987148895e-07,1.05170243898833e-06,2.6454349999257267e-06,2.2055120765658736e-06,2.227000963552829e-06,1.052168185385578e-06,2.0551542260709924e-06,1.9919192101338515e-06,9.92081264209073e-07,4.7110385143260815e-06,1.9080779948845417e-06,1.4869314195422659e-06,1.895637729529371e-06,5.618473135796895e-06
142,2.9764238242719014e-06,1.1104509804195334e-06,9.042947753954739e-07,1.069853890849478e-06,2.645462983506814e-06,2.1691476550906057e-06,2.2334957301099413e-06,1.0523276006719223e-06,2.0321673947511673e-06,1.6845310924651768e-06,9.998566446635618e-07,4.999997105785472e-06,1.8952553928170942e-06,1.5361091738156217e-06,1.981164424747414e-06,6.2257429813546225e-06
143,2.9224432419447503e-06,1.0867167359390363e-06,9.060127076690268e-07,1.0889345795747225e-06,2.6483808886575653e-06,2.131568061768908e-06,2.236350372330494e-06,1.0563620638598406e-06,2.008944395044255e-06,1.4211963685323812e-06,1.0078805881146906e-06,5.302218595952162e-06,1.8848848219966012e-06,1.5878789703565446e-06,2.066807551582811e-06,6.855279289207177e-06
144,2.866726622849219e-06,1.0672535685953573e-06,9.088934727188012e-07,1.1093473322211045e-06,2.654726873052019e-06,2.092959892989866e-06,2.2363060994365145e-06,1.0641745986798986e-06,1.9851989896022088e-06,1.1976100902756041e-06,1.0160367039433047e-06,5.618235128382261e-06,1.8773242619013132e-06,1.6395485389117948e-06,2.1523931930967893e-06,7.500439479604456e-06
145,2.8088402610827305e-06,1.0527736969173737e-06,9.128999576458026e-07,1.1313089168322376e-06,2.6646289679347534e-06,2.053375495181618e-06,2.233973276999345e-06,1.075500523966873e-06,1.9606313113541962e-06,1.0094549693752448e-06,1.0242418128943284e-06,5.94879938776385e-06,1.8729079129094409e-06,1.6888033700536076e-06,2.237666072867367e-06,8.153740090085085e-06
146,2.7487885122400056e-06,1.0437944162244037e-06,9.182222005143065e-07,1.15484916787122e-06,2.677785915283697e-06,2.012820380494623e-06,2.2297346584598205e-06,1.089907263903079e-06,1.9349163247672613e-06,8.522853690637175e-07,1.032500522761793e-06,6.294754459072019e-06,1.8719368672368857e-06,1.7339705854680782e-06,2.322248418664797e-06,8.807123293799317e-06
147,2.6869109914077687e-06,1.0406094791866418e-06,9.252387980746513e-07,1.179841954471942e-06,2.693471373534312e-06,1.9713100952207613e-06,2.2236514178853204e-06,1.1067917931074522e-06,1.907705264984342e-06,7.215941828363691e-07,1.0409094985240032e-06,6.656706246455327e-06,1.8746105937658959e-06,1.774136447516636e-06,2.4057269520842358e-06,9.451847039434583e-06
148,2.6235293170121006e-06,1.0432754235997782e-06,9.34423585052291e-07,1.2060573184239973e-06,2.7106459536391775e-06,1.9289639152454504e-06,2.2155081236563033e-06,1.1253896543003452e-06,1.8787638137838238e-06,6.129322045406492e-07,1.0496083269196086e-06,7.034494140027309e-06,1.8809689892800106e-06,1.8091024987820737e-06,2.4877036335183726e-06,1.0077998208475002e-05
149,2.5587373514279323e-06,1.0516160709261925e-06,9.463051706006338e-07,1.2332471834884215e-06,2.7281881671210503e-06,1.8861347414034388e-06,2.2049104684817073e-06,1.1448065699276189e-06,1.8481167565688256e-06,5.220048780158062e-07,1.0587252697447815e-06,7.426702881167794e-06,1.8908867919057912e-06,1.839178258751279e-06,2.5677697864049123e-06,1.0674094859036165e-05
150,2.492534280106012e-06,1.065273340437192e-06,9.614109800786208e-07,1.2612062663908224e-06,2.745145423138101e-06,1.843364289562752e-06,2.191306149475319e-06,1.164060106792687e-06,1.8160127955596086e-06,4.4472136350042235e-07,1.0683295737763928e-06,7.830386310122122e-06,1.9041534367079592e-06,1.8648988825163332e-06,2.645414430301093e-06,1.1227368980420266e-05
151,2.4250961202233255e-06,1.083825745664704e-06,9.80173393371117e-07,1.2897143202309488e-06,2.7608483993322442e-06,1.8012001505662675e-06,2.174010677736093e-06,1.1821778781258169e-06,1.782765422329527e-06,3.772080812137445e-07,1.0783772260274268e-06,8.240918720017179e-06,1.9205562007324627e-06,1.8868257491736617e-06,2.719960906119982e-06,1.1724952762862205e-05
152,2.3569046495834868e-06,1.1069030708716755e-06,1.0029202581356243e-06,1.3184436261279905e-06,2.7747764605190205e-06,1.7601463492114933e-06,2.1523143651650787e-06,1.1983569199970598e-06,1.748659020755222e-06,3.1583610460540886e-07,1.0886765707895668e-06,8.651978721371323e-06,1.9398932541257045e-06,1.905427162065419e-06,2.790644659054638e-06,1.2155663518465562e-05
153,2.2886399515506427e-06,1.1341798416027678e-06,1.0299420273877314e-06,1.3470196932343545e-06,2.7863097529535915e-06,1.7207663955276224e-06,2.125635975636184e-06,1.212036074811714e-06,1.713993697733018e-06,2.572876803263207e-07,1.0989272442393066e-06,9.055873899046009e-06,1.961999634839477e-06,1.9209558209592726e-06,2.8567412279160545e-06,1.251157775915233e-05
154,2.220915738248267e-06,1.165270796558664e-06,1.061498007472733e-06,1.3752137527256928e-06,2.7946496642879824e-06,1.6837348475611063e-06,2.0937348828074656e-06,1.2228692506129315e-06,1.6791251381295044e-06,1.987631933268954e-07,1.1088028577604124e-06,9.444287544952295e-06,1.9868147938566997e-06,1.9333970078117776e-06,2.917523284925804e-06,1.2788348151100936e-05
155,2.1540598053174498e-06,1.199670922400062e-06,1.0977380520000746e-06,1.4030734242861372e-06,2.798934488487513e-06,1.649740507241257e-06,2.05694738037963e-06,1.2307822195588818e-06,1.6444278297349382e-06,1.3836057050647444e-07,1.1179681571052374e-06,9.80924923390495e-06,2.0143523507915873e-06,1.9425907614157954e-06,2.972021418652067e-06,1.2983834607307043e-05
156,2.0881077610793006e-06,1.2368112842984258e-06,1.1386269076945127e-06,1.4309217234211404e-06,2.798296806099536e-06,1.61931214444973e-06,2.016251314416215e-06,1.236072422809424e-06,1.610287755775869e-06,7.526171014781663e-08,1.126007222473067e-06,1.0144004945747782e-05,2.044538828255397e-06,1.9484661755122884e-06,3.018809489729235e-06,1.3096078158320134e-05
157,2.0230083208282437e-06,1.2761887313197395e-06,1.1839429495850034e-06,1.459297792260766e-06,2.79174858680225e-06,1.5926819818557133e-06,1.9730468991402767e-06,1.2393260798205585e-06,1.5771093245222503e-06,9.444519747341408e-09,1.1323613118934579e-06,1.0443531202028316e-05,2.077146386552904e-06,1.951216467861251e-06,3.0560065185516202e-06,1.3122499845587012e-05
158,1.9588966589252695e-06,1.3174490797909142e-06,1.233396096967096e-06,1.488872810739089e-06,2.778149565198324e-06,1.5697527398919583e-06,1.9288186334563994e-06,1.2411828634165383e-06,1.5452184852688585e-06,-5.874133875694977e-08,1.1363883211278752e-06,1.0704609865411398e-05,2.111979182110884e-06,1.9513136463487904e-06,3.081506516265594e-06,1.3061044295454212e-05
159,1.8962549650970233e-06,1.3603114029883068e-06,1.2868245522821088e-06,1.520330251535248e-06,2.756530927198369e-06,1.5501690201260439e-06,1.8849226861600245e-06,1.2421703593081412e-06,1.5147334534182056e-06,-1.287252418792153e-07,1.1375709219702817e-06,1.0925548194025194e-05,2.149115714032529e-06,1.949419650946132e-06,3.0933408059634316e-06,1.2912123267618358e-05
160,1.83590866315422e-06,1.404396465920553e-06,1.3442897774652041e-06,1.554239659807891e-06,2.7265838924560187e-06,1.5334337645592966e-06,1.8425593067932787e-06,1.2426651260989196e-06,1.4856022014963705e-06,-1.9966492249779143e-07,1.135754802212324e-06,1.1105673131053026e-05,2.188916456633168e-06,1.946274903998223e-06,3.0900490912757752e-06,1.2679908000188172e-05
161,1.7789301479573618e-06,1.449147770964432e-06,1.4059846542822566e-06,1.5909807776517236e-06,2.6888339309158946e-06,1.5189893802978085e-06,1.8028221565278117e-06,1.242905766327251e-06,1.4578077068621288e-06,-2.703709987493223e-07,1.1312392087747639e-06,1.12446229811831e-05,2.231818849031168e-06,1.9425582791689032e-06,3.070966154501976e-06,1.237240399901002e-05
162,1.7264932956331836e-06,1.4939016187049499e-06,1.4721251408516086e-06,1.6307361308757799e-06,2.644323645099709e-06,1.5062532327773747e-06,1.7667225196390531e-06,1.2430609195546613e-06,1.43149786779209e-06,-3.3918729277734e-07,1.1246510915028703e-06,1.134143995801054e-05,2.2781676800605664e-06,1.938762434880452e-06,3.0363137879509226e-06,1.2000451437246922e-05
163,1.6797045719356887e-06,1.5379914145162476e-06,1.542927952221185e-06,1.6734877765768204e-06,2.5941213559646976e-06,1.494663467203175e-06,1.7351558952812689e-06,1.2433432043379537e-06,1.4068970692803502e-06,-4.038768921714414e-07,1.1166974049010598e-06,1.1393797527412047e-05,2.3281844829965184e-06,1.9351781037463034e-06,2.9870018022034433e-06,1.1576126343398335e-05
164,1.639467423121323e-06,1.5808111519482996e-06,1.6185615295646414e-06,1.7189563206142392e-06,2.5390805897728254e-06,1.4837470902916476e-06,1.7088274693954255e-06,1.244040800002425e-06,1.3841427188648164e-06,-4.616397244773358e-07,1.1079646673815738e-06,1.1398046812481922e-05,2.3819803749649704e-06,1.9319589836316052e-06,2.9243852706778792e-06,1.1111114220665484e-05
165,1.6064229628415766e-06,1.621883271202407e-06,1.6990563556702016e-06,1.7665210118595767e-06,2.4799498888357004e-06,1.4731617619431227e-06,1.688208401207401e-06,1.2454178988338492e-06,1.3632024373872135e-06,-5.092333120152696e-07,1.098853424579732e-06,1.1350357016516874e-05,2.4395171574967297e-06,1.9292251682080837e-06,2.850316934788216e-06,1.0615566012544001e-05
166,1.5809683445317081e-06,1.6609636177545364e-06,1.7843078397942056e-06,1.815181933682136e-06,2.4176377686465387e-06,1.462670415170507e-06,1.6735598341273124e-06,1.2475983469628385e-06,1.3439432678450825e-06,-5.430697560396576e-07,1.0895900057484262e-06,1.1248264376033907e-05,2.5005077751983395e-06,1.9271524240383047e-06,2.767279233869771e-06,1.0097769734936348e-05
167,1.563300295473348e-06,1.698126804906798e-06,1.874236645183771e-06,1.8635696541453564e-06,2.353405616426176e-06,1.4520464671151356e-06,1.6649498096355808e-06,1.250528959060063e-06,1.3264233857254904e-06,-5.592183545845358e-07,1.080227100116669e-06,1.1091660236252708e-05,2.564369068691979e-06,1.925937877961311e-06,2.678199251097778e-06,9.564541008399055e-06
168,1.5534258316232261e-06,1.7337450607620156e-06,1.9690045561997784e-06,1.910018871545303e-06,2.2888375078571916e-06,1.4409872399757837e-06,1.6622364950589222e-06,1.254065640706192e-06,1.3111773017399167e-06,-5.533537450159268e-07,1.0706344218830543e-06,1.0882927080334247e-05,2.6303889670704682e-06,1.925746003535251e-06,2.586016202433231e-06,9.021822980979274e-06
169,1.5511890073325768e-06,1.7683272068105962e-06,2.0690760576552703e-06,1.952767613576112e-06,2.22559913378078e-06,1.4291690655637006e-06,1.665074642197886e-06,1.2581814966567994e-06,1.2991093503855334e-06,-5.207594657569952e-07,1.0605331125220934e-06,1.062660924967744e-05,2.6980295142293206e-06,1.9267870592764276e-06,2.4933316883800197e-06,8.47509510778046e-06
170,1.5563518152732438e-06,1.8022845634006e-06,2.175074817764346e-06,1.9902738352337907e-06,2.165206261131265e-06,1.416463787438803e-06,1.672958958139117e-06,1.2631256789567756e-06,1.2911167932046242e-06,-4.5639830716677087e-07,1.049606561451259e-06,1.0329015578306132e-05,2.767051854916143e-06,1.92938820183617e-06,2.402297013309439e-06,7.929546386426546e-06
171,1.5686230426767374e-06,1.8357485988074023e-06,2.2876148719854654e-06,2.0214910322896875e-06,2.1089498058231534e-06,1.4031582981201282e-06,1.685333558185571e-06,1.269352414515789e-06,1.2878737702711832e-06,-3.549566357630126e-07,1.0376617240370296e-06,9.997781286005861e-06,2.8373287577992594e-06,1.9339240785651685e-06,2.314642484926018e-06,7.390110802584271e-06
172,1.5876004730857237e-06,1.8685206162915551e-06,2.407213943028795e-06,2.045946851119286e-06,2.057866901845338e-06,1.3900015435937697e-06,1.7017546723111627e-06,1.277347693201232e-06,1.2898863864460904e-06,-2.108711766049347e-07,1.0247429141512902e-06,9.641217484612974e-06,2.9085356672932065e-06,1.9407342025931756e-06,2.2317116566357106e-06,6.8614476738355e-06
173,1.6127140262067793e-06,1.9001199062796687e-06,2.5342147364196285e-06,2.0636588131144174e-06,2.0126768789864613e-06,1.378052087186819e-06,1.7219463583251402e-06,1.287549748152231e-06,1.2976354102134894e-06,-1.8388549579547637e-08,1.0111351305363316e-06,9.267413483338891e-06,2.9799952676549455e-06,1.950143994013557e-06,2.154463889128089e-06,6.347885225575038e-06
174,1.6431973248738642e-06,1.9298309290047006e-06,2.6686797337185406e-06,2.0750323017988573e-06,1.973741331990626e-06,1.3684381590521873e-06,1.7456753008710203e-06,1.3003033664869677e-06,1.3116232325099779e-06,2.2839402379483425e-07,9.972962879882913e-07,8.883335495034782e-06,3.0507627807768327e-06,1.962534199696962e-06,2.0834810777050278e-06,5.853318451450404e-06
175,1.678120910950402e-06,1.9567316591370084e-06,2.8103200876571956e-06,2.0807915247331996e-06,1.9410718799694145e-06,1.3621510286417127e-06,1.7725869650378853e-06,1.315784777731215e-06,1.3323019453534233e-06,5.355246425838714e-07,9.83757080352608e-07,8.494304619854901e-06,3.1197942429448253e-06,1.9783448861011054e-06,2.0189999048055158e-06,5.3810945428512486e-06
176,1.716555914179731e-06,1.9797853578782747e-06,2.958504076667936e-06,2.081887270652004e-06,1.914405301132435e-06,1.3599306417862494e-06,1.8021727481938898e-06,1.3339726540515034e-06,1.3600325964251728e-06,9.091858048868436e-07,9.709952471326097e-07,8.104085354435688e-06,3.186050045482603e-06,1.9979481490562316e-06,1.9609281332442335e-06,4.933915560270665e-06
177,1.7578191903047647e-06,1.998021641518572e-06,3.1123858702706404e-06,2.0793574794459272e-06,1.8934139963742277e-06,1.3622485787807203e-06,1.8339066934052048e-06,1.354667733559657e-06,1.3951741178636634e-06,1.3556946315144138e-06,9.59329780483138e-07,7.715446515481131e-06,3.248556410909945e-06,2.021477673387699e-06,1.9088474177683667e-06,4.513770838418105e-06
178,1.8016348964370144e-06,2.0107147634831835e-06,3.271122652448376e-06,2.0741741753549686e-06,1.8779691530704016e-06,1.3693618480877493e-06,1.8674269969077404e-06,1.3774899271543965e-06,1.4381676027470857e-06,1.8815068824348804e-06,9.488833687225032e-07,7.330764880634647e-06,3.3064911219764175e-06,2.048735838725613e-06,1.862090729126053e-06,4.121962437516467e-06
179,1.8480666162008008e-06,2.017464061428999e-06,3.4340317517409727e-06,2.0671065123792577e-06,1.8681976674673535e-06,1.3813883803840524e-06,1.9025864860809218e-06,1.401843553493198e-06,1.4894625628627266e-06,2.4931257127340337e-06,9.395955327299089e-07,6.952301952300829e-06,3.3593095059726757e-06,2.0791590330625736e-06,1.819926289486882e-06,3.759262825996637e-06
180,1.8972599330571456e-06,2.018192528367124e-06,3.6006266275273454e-06,2.058651147162548e-06,1.8643201068353345e-06,1.3983289166725074e-06,1.9393331301982865e-06,1.4268846515606534e-06,1.5493720370066067e-06,3.196903260419302e-06,9.312662320417651e-07,6.582141317867725e-06,3.406844446450616e-06,2.1118257091055876e-06,1.7817306844523666e-06,3.426065952027628e-06
181,1.9492530367067533e-06,2.0131590407827733e-06,3.77062393749765e-06,2.049067009173447e-06,1.8665267336758683e-06,1.4200082499298754e-06,1.9775268459176878e-06,1.4515020759719788e-06,1.6180315637464e-06,3.998897160250714e-06,9.236445068193781e-07,6.222051091701936e-06,3.4492227907384647e-06,2.145552223157717e-06,1.7469986332825393e-06,3.1223826941691974e-06
182,2.0040075176052112e-06,2.0029940861188125e-06,3.9439409162023e-06,2.0384409233257987e-06,1.8749288816597587e-06,1.4459997993004869e-06,2.0167924495849135e-06,1.4743657674248796e-06,1.6954923066217653e-06,4.90487604070249e-06,9.165308511088175e-07,5.873441568448227e-06,3.486525423373673e-06,2.179091408634638e-06,1.7152523399482211e-06,2.8477958284298897e-06
183,2.0615069353742894e-06,1.9886225123201457e-06,4.120531783514106e-06,2.0267178272063025e-06,1.889465540977458e-06,1.4755944938941883e-06,2.0564553852710124e-06,1.4941667252745735e-06,1.7818217470684318e-06,5.920334126462198e-06,9.098308438262689e-07,5.53734166733937e-06,3.5184444043375183e-06,2.211410593005413e-06,1.6860451781722882e-06,2.6015196979364434e-06
184,2.121755763516213e-06,1.971029232078775e-06,4.300019959495159e-06,2.0137505173950884e-06,1.9098152695180417e-06,1.507840023066268e-06,2.095611677341007e-06,1.5100236277624698e-06,1.877095469399681e-06,7.05037109097188e-06,9.035361763692126e-07,5.214303809490469e-06,3.5443423665941066e-06,2.2419105824555912e-06,1.6590227487049898e-06,2.382517112549607e-06
185,2.1847079099796108e-06,1.9510691287127207e-06,4.481357877625126e-06,1.9993876601701867e-06,1.935379087685372e-06,1.5416456070358135e-06,2.1333294831810383e-06,1.5217755422318911e-06,1.9813488014747546e-06,8.29945458118861e-06,8.976502758932095e-07,4.904314507092403e-06,3.5637104025961745e-06,2.270378343324724e-06,1.6338584008344717e-06,2.1896435524641543e-06
186,2.2502141691864837e-06,1.9294588774186237e-06,4.662695911611878e-06,1.983487358024376e-06,1.965306335990186e-06,1.575885087799724e-06,2.168798817220135e-06,1.529930181363072e-06,2.0945422377768137e-06,9.671127781185296e-06,8.92146842780115e-07,4.606854329555362e-06,3.576506335978721e-06,2.2967205424640137e-06,1.6100932688262192e-06,2.0217747274651513e-06
187,2.317996520361633e-06,1.9068266826415175e-06,4.841414531895542e-06,1.9657885149073175e-06,1.998606800248923e-06,1.6094707936244122e-06,2.201274057800039e-06,1.5353452656838306e-06,2.216465682067199e-06,1.116767931935621e-05,8.870251680945207e-07,4.321136219092783e-06,3.5830004426430796e-06,2.3207935490108713e-06,1.5870803261169386e-06,1.877794495372244e-06
188,2.387603303904661e-06,1.8837131666043772e-06,5.014288118836627e-06,1.945753824562937e-06,2.0343751541971044e-06,1.641465297409149e-06,2.2300175026951155e-06,1.5389000744704913e-06,2.3466580159849636e-06,1.2789712448046153e-05,8.823589359670413e-07,4.046418827095877e-06,3.5833986117176012e-06,2.3424340414490083e-06,1.5641040949523005e-06,1.7564882763403307e-06
189,2.458362025902816e-06,1.860568772965455e-06,5.177802266808438e-06,1.922550263186179e-06,2.071971912516899e-06,1.6712011832341035e-06,2.254460373956807e-06,1.5413177329569832e-06,2.4844744233499654e-06,1.4535594054453855e-05,8.782440337956665e-07,3.782291994134265e-06,3.5777169066369537e-06,2.361510923533708e-06,1.5405716007265584e-06,1.6564990571502922e-06
190,2.529407216112947e-06,1.8377587813208443e-06,5.328560821413775e-06,1.895215417480184e-06,2.110985422321835e-06,1.6982599951535393e-06,2.274372396269154e-06,1.5431040728082016e-06,2.6291933572373307e-06,1.6400953204541746e-05,8.747266786212905e-07,3.5288373909579133e-06,3.5659393359609988e-06,2.3779917370317654e-06,1.516170361513085e-06,1.57639698039108e-06
191,2.5997536926525044e-06,1.8155563705301759e-06,5.463683652166622e-06,1.8629502274421022e-06,2.150991993466125e-06,1.7223455883025587e-06,2.2898188748849336e-06,1.5445434935021958e-06,2.779982382407245e-06,1.8378299202012124e-05,8.717923979467687e-07,3.286563591152801e-06,3.548220035965005e-06,2.392080588618319e-06,1.490949940138824e-06,1.5148323266788427e-06
192,2.6682767720729037e-06,1.7942128182100773e-06,5.581110245933463e-06,1.8254100452419664e-06,2.1913429264845297e-06,1.74323605395672e-06,2.300982642099483e-06,1.5457486417708921e-06,2.935783569107549e-06,2.0456568269953912e-05,8.693937967418405e-07,3.0561854189389465e-06,3.525066121895145e-06,2.404208005641448e-06,1.4652845045716815e-06,1.4706356284465852e-06
193,2.733579801750354e-06,1.7740979795244492e-06,5.679717387393087e-06,1.7828149278982115e-06,2.231243795482947e-06,1.7607682902706862e-06,2.3080349164929734e-06,1.5467132803424159e-06,3.0953809010701188e-06,2.26205667486666e-05,8.674944647652541e-07,2.8384412220209933e-06,3.4974870006367175e-06,2.414753831889315e-06,1.4397077774564352e-06,1.4427150641203e-06
194,2.7939128879724013e-06,1.7557028253904178e-06,5.7592514561178224e-06,1.7358208297319769e-06,2.2700985686793297e-06,1.774714885133983e-06,2.3112421090517602e-06,1.5473598231138076e-06,3.2577078835876648e-06,2.4850580082369445e-05,8.660878855090496e-07,2.6339813260721044e-06,3.466921051199433e-06,2.4237597252362547e-06,1.4147220710076041e-06,1.4298481036305254e-06
195,2.847362229066123e-06,1.7394962429628265e-06,5.820212645317765e-06,1.6853354933343575e-06,2.30771930241689e-06,1.7846868787024307e-06,2.3112267298706786e-06,1.5476545828241082e-06,3.422025919120705e-06,2.7122256269944626e-05,8.651388667267005e-07,2.4432402598155057e-06,3.434869386530543e-06,2.4309091812191897e-06,1.3906872385409512e-06,1.4305534753864294e-06
196,2.8923128190784436e-06,1.7258356403029915e-06,5.8637630704645024e-06,1.632462961921997e-06,2.344132711181103e-06,1.7902495734911097e-06,2.308983135582972e-06,1.54775106564421e-06,3.5876712981167104e-06,2.940642481110146e-05,8.645075960313409e-07,2.26636520629644e-06,3.402559637050267e-06,2.4357610050332616e-06,1.367776328725956e-06,1.4430558260537454e-06
197,2.9278151330886317e-06,1.7149335629273207e-06,5.891558038050136e-06,1.5785042663880154e-06,2.379248487523792e-06,1.7911488306609773e-06,2.3055687611715852e-06,1.5480665552325569e-06,3.7536779075153117e-06,3.1668767783440215e-05,8.639610336179597e-07,2.1033282676732082e-06,3.370883191712153e-06,2.437938223807922e-06,1.345973308706473e-06,1.4653100671469195e-06
198,2.953589648250028e-06,1.7067953961162084e-06,5.905430831672017e-06,1.5248519511403465e-06,2.412768756621705e-06,1.7874361417577493e-06,2.3018324239755504e-06,1.5492875188709004e-06,3.918736646283876e-06,3.387032552194933e-05,8.632529640454226e-07,1.954108295852246e-06,3.34040167754083e-06,2.4370754297726555e-06,1.325163263749261e-06,1.4950746966672093e-06
199,2.9698665136981242e-06,1.7011733921228157e-06,5.907029055030278e-06,1.4727968653887613e-06,2.4443438325521166e-06,1.7794818279468277e-06,2.298369673001721e-06,1.5522904718515593e-06,4.081428168318837e-06,3.5969564502563896e-05,8.621714978185176e-07,1.8187517088613455e-06,3.3112380910965587e-06,2.4327122085703003e-06,1.3053151779158094e-06,1.5300155112100254e-06
200,2.9772839605638e-06,1.697575222931525e-06,5.89750738609564e-06,1.4233797543025973e-06,2.473760576171516e-06,1.7679680624565582e-06,2.2955814456685055e-06,1.5579716657862282e-06,4.240395124091728e-06,3.792483837974862e-05,8.605529242291712e-07,1.697328675570815e-06,3.282970823144657e-06,2.4243165621278236e-06,1.286633823261619e-06,1.567901807165197e-06
201,2.9767438140067243e-06,1.6952978926111363e-06,5.877259575951539e-06,1.3773440422083415e-06,2.5009762554959545e-06,1.7538317365104756e-06,2.2936982349215836e-06,1.5670832838425308e-06,4.394342227619698e-06,3.969521445153745e-05,8.583319042232862e-07,1.5899193091753871e-06,3.254725552539622e-06,2.4114268825090247e-06,1.2695847366242163e-06,1.6068891224071935e-06
202,2.9691085768799676e-06,1.6934858219816107e-06,5.8457169107236375e-06,1.3351717507468376e-06,2.5259374519023716e-06,1.7380949202878395e-06,2.2927381798944924e-06,1.5801485893932955e-06,4.54194230332141e-06,4.123923054190385e-05,8.555781518693424e-07,1.4966629034054209e-06,3.2254940400232276e-06,2.393835787886035e-06,1.2548045000918767e-06,1.6456819721283261e-06
203,2.954934218443614e-06,1.6912458277594621e-06,5.80139251819361e-06,1.297170655607018e-06,2.548331903353899e-06,1.7216462582084394e-06,2.2924439567402277e-06,1.597428945057176e-06,4.68172988989786e-06,4.2514930306030473e-05,8.524278978433992e-07,1.4177555524840854e-06,3.194452562845645e-06,2.3716175948076095e-06,1.242945442025981e-06,1.6834809340742953e-06
204,2.9344739088090175e-06,1.6877409323071932e-06,5.7422345103251275e-06,1.2635656346493902e-06,2.5674753997194573e-06,1.7051088063801075e-06,2.29231168936129e-06,1.6189264777573301e-06,4.8120717716992175e-06,4.3485723524006056e-05,8.48960697368089e-07,1.3533308610245206e-06,3.161100385817166e-06,2.34505696588862e-06,1.2345316321607897e-06,1.719873740422286e-06
205,2.907892225807404e-06,1.6821490165740697e-06,5.666094976884993e-06,1.2345522843316163e-06,2.582458532528826e-06,1.6888862014055757e-06,2.2918087471484843e-06,1.6444183979018531e-06,4.931256826755578e-06,4.413012570809171e-05,8.451519755974976e-07,1.3033306689269007e-06,3.1253145542812366e-06,2.314753459466824e-06,1.229892946977359e-06,1.7547836669212931e-06
206,2.875506362098592e-06,1.6736341132914197e-06,5.571164841409046e-06,1.210299113252204e-06,2.5925875859808935e-06,1.6733389521966e-06,2.2906221196400634e-06,1.6734692024919847e-06,5.037566069656083e-06,4.444672054280468e-05,8.409633454650894e-07,1.2674522848305218e-06,3.08738838249198e-06,2.281749903367707e-06,1.2291768722650146e-06,1.7883930888923965e-06
207,2.837957379493017e-06,1.661500049027605e-06,5.456407797621625e-06,1.190912487462873e-06,2.5978651093587897e-06,1.6588908728771569e-06,2.28864615813086e-06,1.7053927229334507e-06,5.129341759175768e-06,4.4449117503131764e-05,8.365003123783882e-07,1.2451301542758778e-06,3.047913483905611e-06,2.247420160009677e-06,1.232387699947095e-06,1.820959756571118e-06
208,2.79624390854036e-06,1.6453296412342938e-06,5.321968768743483e-06,1.176406906328779e-06,2.5990631417817532e-06,1.6459389668112965e-06,2.2857849836703745e-06,1.7392429789618657e-06,5.20532875145491e-06,4.415563777399181e-05,8.320874817602871e-07,1.2355374337365343e-06,3.0075011368131795e-06,2.213197830115532e-06,1.2393897495677178e-06,1.8525909222229752e-06
209,2.7515811029788845e-06,1.6249431556687906e-06,5.169368045062523e-06,1.1666991936154973e-06,2.5973388751841773e-06,1.634709302490144e-06,2.2818802595508473e-06,1.7739093404129693e-06,5.265015596755745e-06,4.358326537734944e-05,8.282174607992408e-07,1.2376536524638217e-06,2.966631048809903e-06,2.180306921447958e-06,1.24988721848481e-06,1.8831032198607624e-06
210,2.705170824499993e-06,1.6004009293475559e-06,5.001348846463533e-06,1.1615941718941034e-06,2.593857980445817e-06,1.6252755201603523e-06,2.276796630621629e-06,1.8082635785124733e-06,5.308469850138981e-06,4.2749741186884864e-05,8.254791120964612e-07,1.2503714400490537e-06,2.9257296078077807e-06,2.1496067208109366e-06,1.2634594196180299e-06,1.9120559189790323e-06
211,2.6580532655187295e-06,1.5721760525095324e-06,4.82147849237018e-06,1.1607739738315035e-06,2.5896895098109632e-06,1.6177090968490414e-06,2.270536767059839e-06,1.8412814151043016e-06,5.336052651200172e-06,4.1679207095009895e-05,8.245023586944638e-07,1.2725361241648767e-06,2.8851970311312662e-06,2.12162378540821e-06,1.2796550997069926e-06,1.9389231209776956e-06
212,2.6111223735297065e-06,1.5412236618858822e-06,4.633711989936607e-06,1.1638380930297251e-06,2.5857589619317807e-06,1.6121385571721226e-06,2.263339325362324e-06,1.8721347320713162e-06,5.348378435690614e-06,4.0405240410122836e-05,8.258686774570502e-07,1.3028908106377813e-06,2.8452550836272295e-06,2.0966710849686613e-06,1.298051938299589e-06,1.96323557863047e-06
213,2.56521140539068e-06,1.5087636037300895e-06,4.442030164879328e-06,1.170345120305121e-06,2.5827833584689327e-06,1.608658760044755e-06,2.2556887771519472e-06,1.9002412185252985e-06,5.346091350997764e-06,3.8969072223050734e-05,8.300264627984942e-07,1.3400386261350762e-06,2.8058323626911367e-06,2.0748836533711695e-06,1.318207724342457e-06,1.984619203142529e-06
214,2.5210977089049595e-06,1.475964231810869e-06,4.250150747110141e-06,1.1797889986574384e-06,2.581354094620578e-06,1.6072569213882021e-06,2.248181305800853e-06,1.9252219071926536e-06,5.329546974817112e-06,3.7414541211595435e-05,8.372803042553177e-07,1.3824743841903894e-06,2.7666449063397097e-06,2.056155706047239e-06,1.3395678489915212e-06,2.0028415722194126e-06
215,2.4793896287448304e-06,1.4437733805797517e-06,4.061305471426366e-06,1.1915843770196015e-06,2.5820805135731094e-06,1.6078367978770607e-06,2.2413528832214353e-06,1.946760399902046e-06,5.298992402718495e-06,3.578320556469682e-05,8.478274151450769e-07,1.4285991107767831e-06,2.7274448486273613e-06,2.04005475362667e-06,1.3614452995620022e-06,2.0179126235064884e-06
216,2.4403939689102645e-06,1.4129453687670458e-06,3.878109244789445e-06,1.205163632780602e-06,2.5855504432116195e-06,1.610246880903358e-06,2.2356240715331823e-06,1.964431682570003e-06,5.255086629027286e-06,3.411223305276156e-05,8.617713069979446e-07,1.476736917239867e-06,2.6883290480389263e-06,2.025824148033572e-06,1.3830937280808021e-06,2.030145641226826e-06
217,2.404098169085369e-06,1.3841423748385018e-06,3.702527962522137e-06,1.2201324270537976e-06,2.5921623783040294e-06,1.6142418821954702e-06,2.2313482205614957e-06,1.977651202054036e-06,5.199207942038729e-06,3.243434442709138e-05,8.791072008520625e-07,1.525288192866398e-06,2.6498897397269618e-06,2.0126284527091448e-06,1.4038647467983972e-06,2.0401141445497848e-06
218,2.3703389946658164e-06,1.3579594720176356e-06,3.5359111081119104e-06,1.2363580237913941e-06,2.602056955911952e-06,1.6194214501015252e-06,2.2288227599232886e-06,1.9858977863747428e-06,5.133349483421589e-06,3.077768993792362e-05,8.99739531218093e-07,1.5729761029972798e-06,2.613047889588649e-06,1.9999456475987343e-06,1.4233920041692702e-06,2.048532103520208e-06
219,2.3390806447728704e-06,1.3348518921718805e-06,3.379049180831985e-06,1.253942383227704e-06,2.6151318668788313e-06,1.6252441351109489e-06,2.2282449576715676e-06,1.9891150696738868e-06,5.059654435011658e-06,2.9165621465193383e-05,9.235404999799756e-07,1.6189448501750346e-06,2.578711497339745e-06,1.9877198327299493e-06,1.441622853500859e-06,2.0561146461850615e-06
220,2.31058063152236e-06,1.3150679196111429e-06,3.2322186874795073e-06,1.2730955600299703e-06,2.6309929636613954e-06,1.6311370273188642e-06,2.2297349682234153e-06,1.9879459920920585e-06,4.979847633856661e-06,2.761681703782179e-05,9.503725203642184e-07,1.6625806761481524e-06,2.5475787710521867e-06,1.9761531103016345e-06,1.4586337090125525e-06,2.063465862836091e-06
221,2.2853031901379223e-06,1.2986602036010557e-06,3.095228182618828e-06,1.29396324666365e-06,2.648865580698842e-06,1.6366164879346222e-06,2.233411009077093e-06,1.9836333784273723e-06,4.894955367103555e-06,2.614498436099008e-05,9.800380151286386e-07,1.7032361910794878e-06,2.5202126691391062e-06,1.965432931070715e-06,1.47443342369763e-06,2.071033507933271e-06
222,2.2637126346192517e-06,1.2855687768766605e-06,2.9675590638144205e-06,1.3165010865003336e-06,2.6675555613174956e-06,1.6413712518017479e-06,2.239344301432139e-06,1.977750442488416e-06,4.805456089577044e-06,2.4758090712961993e-05,1.0122137413130934e-06,1.7400991942381032e-06,2.497143187766065e-06,1.955596408372174e-06,1.4889170009885155e-06,2.079134192938511e-06
223,2.2461527392212445e-06,1.275716934846583e-06,2.8485755522219306e-06,1.3404338371449465e-06,2.685481834456072e-06,1.645302013249048e-06,2.247403076664077e-06,1.9719372771368853e-06,4.711705549977006e-06,2.345804764768072e-05,1.0464156266811409e-06,1.7722705684730185e-06,2.4787615644366554e-06,1.9464982887827428e-06,1.5019016581806048e-06,2.0879939704606907e-06
224,2.2327990777075706e-06,1.2690357017138635e-06,2.737625016488263e-06,1.3652574400277332e-06,2.7008078105031158e-06,1.6484675381556643e-06,2.257191058126007e-06,1.967720459478828e-06,4.614426697673059e-06,2.22413352683457e-05,1.0820146202223928e-06,1.799001902020356e-06,2.465159625008778e-06,1.9378288625089006e-06,1.5132237872734472e-06,2.0977638571455657e-06
225,2.2235716707306795e-06,1.2654331670866694e-06,2.6340244307339795e-06,1.3903074694033998e-06,2.7116804210145015e-06,1.6509283255237616e-06,2.268136291562271e-06,1.9664464660835637e-06,4.514978288672385e-06,2.110056499748527e-05,1.1183335707587642e-06,1.8199385438322868e-06,2.4560979120582324e-06,1.929132440998552e-06,1.522918409894965e-06,2.1085052327868103e-06
226,2.218051699368298e-06,1.2648348323491322e-06,2.537108986595379e-06,1.4149784465834468e-06,2.7165102984858852e-06,1.6526028145497645e-06,2.279563228546166e-06,1.9692468858886035e-06,4.415127596441121e-06,2.0026556507029154e-05,1.1547691542802883e-06,1.8352117700503999e-06,2.451008183120085e-06,1.919895149378259e-06,1.5313030624896341e-06,2.120117534410914e-06
227,2.2154903657569005e-06,1.267305176800717e-06,2.4463657024310113e-06,1.4389967609459044e-06,2.7141372626989287e-06,1.6532164733121887e-06,2.29062870090305e-06,1.9769614735337936e-06,4.316516909252953e-06,1.9009964121780425e-05,1.190812916826318e-06,1.8453876673186623e-06,2.449007036601061e-06,1.909788320758303e-06,1.5388383597241813e-06,2.1322115310638795e-06
228,2.2148841987973517e-06,1.2731004704222694e-06,2.361484829720022e-06,1.4624922442052636e-06,2.703739800525284e-06,1.6522819322725114e-06,2.3002318233218377e-06,1.9900776974286267e-06,4.220329902135143e-06,1.804173539281706e-05,1.2259538466119784e-06,1.8513471962806128e-06,2.4490209749465685e-06,1.8988337458808823e-06,1.5459129388416245e-06,2.144007253098807e-06
229,2.2150774414913888e-06,1.2825666831345653e-06,2.282221538154082e-06,1.4858601714400957e-06,2.6846876538584225e-06,1.6491104113713428e-06,2.3070066544406624e-06,2.0087653121495273e-06,4.127249822217909e-06,1.7112505531842504e-05,1.2595878627975073e-06,1.8541124632417133e-06,2.4499552257334407e-06,1.8872555371050428e-06,1.5527680145490294e-06,2.154314738206088e-06
230,2.2148500571061745e-06,1.2959570435485507e-06,2.2081820931043935e-06,1.509656234391282e-06,2.656676394762298e-06,1.642971310243391e-06,2.3093298886084115e-06,2.03300424207007e-06,4.037433605125489e-06,1.6211609364696775e-05,1.2910706816176904e-06,1.854638190073239e-06,2.450815730101549e-06,1.8752065679947568e-06,1.5596047227501271e-06,2.1616184162671454e-06
231,2.2129111874854634e-06,1.3132961583325579e-06,2.138765462369761e-06,1.534556233747224e-06,2.619992439545696e-06,1.6333503393043794e-06,2.305397698658105e-06,2.0626869602966202e-06,3.950469318696557e-06,1.5327064172952658e-05,1.3199064127646419e-06,1.8536616117673266e-06,2.4508332723625893e-06,1.8626197278311475e-06,1.5666930725704712e-06,2.164294050948184e-06
232,2.2078380763435683e-06,1.3343718920039167e-06,2.073341547201672e-06,1.561252658026828e-06,2.575485187603099e-06,1.6200506755577929e-06,2.293539111266524e-06,2.0975625001695937e-06,3.865501797989589e-06,1.4447878256900582e-05,1.345895134859327e-06,1.8516608968685406e-06,2.4495728574306768e-06,1.8491682811683739e-06,1.5743278401811252e-06,2.1609248212232877e-06
233,2.1981535150425003e-06,1.3588596777513838e-06,2.0114879057618564e-06,1.5903517207881684e-06,2.524220330521179e-06,1.603062962891769e-06,2.2726668944752916e-06,2.1370771292445284e-06,3.781541888396832e-06,1.3567898410980824e-05,1.3691124898338464e-06,1.8488591208875016e-06,2.4468830851486113e-06,1.8342528550078909e-06,1.5827161169835777e-06,2.1506181976082942e-06
234,2.182633682346022e-06,1.386471389488337e-06,1.9530499825406074e-06,1.6223419860869316e-06,2.467180604690632e-06,1.5824740557317491e-06,2.2425871388225796e-06,2.1803002391503503e-06,3.697766070992361e-06,1.2688141924388943e-05,1.389805783882082e-06,1.845270963988365e-06,2.442695790642193e-06,1.8170082464277448e-06,1.5919123713410615e-06,2.1332477886321046e-06
235,2.1606821745101716e-06,1.4169812277749832e-06,1.8980104508084378e-06,1.6575588981409753e-06,2.4052633843233284e-06,1.5585846284883068e-06,2.2039985779596555e-06,2.2260050338245462e-06,3.6135761248974918e-06,1.1815502339460198e-05,1.4083344479807278e-06,1.8408439007076277e-06,2.436885922095702e-06,1.796423963295936e-06,1.601773268613395e-06,2.1095466100535386e-06
236,2.1325019873318616e-06,1.450146094894056e-06,1.8463786652129e-06,1.6961729333546124e-06,2.3394401384885005e-06,1.5320199450398406e-06,2.1581818132707286e-06,2.2727742224119155e-06,3.5284437928681105e-06,1.0959151878083736e-05,1.425141850201062e-06,1.8355898258294764e-06,2.429252441933113e-06,1.7716630258803924e-06,1.6119329568577222e-06,2.080953266691618e-06
237,2.098934604471772e-06,1.4856479064465754e-06,1.798247431548267e-06,1.738280921793932e-06,2.2708372234463266e-06,1.5036211511737812e-06,2.1065778538128936e-06,2.3190358139622188e-06,3.4418937983873797e-06,1.0127619984721e-05,1.440700291775283e-06,1.8295535612309313e-06,2.4195588556874723e-06,1.742435619041328e-06,1.6218590883373706e-06,2.049217485560973e-06
238,2.0610689954969084e-06,1.5230686157137333e-06,1.7538911170435738e-06,1.7839987011554255e-06,2.200658661494156e-06,1.4742286726695277e-06,2.0505457693077355e-06,2.3631776322540153e-06,3.353778895491546e-06,9.327718897625893e-06,1.4554498025651062e-06,1.8226569879879363e-06,2.40767341601969e-06,1.7092341946500559e-06,1.6309353921237642e-06,2.0159861747797204e-06
239,2.0198560537719783e-06,1.5618630771507528e-06,1.7136906760006711e-06,1.8334198004165292e-06,2.130011613348077e-06,1.4445840637495528e-06,1.9913597353480245e-06,2.4038419760339965e-06,3.2645672839155673e-06,8.564578187947935e-06,1.4697459311082738e-06,1.8145808744548495e-06,2.393709314765538e-06,1.673423071353918e-06,1.6384906412412268e-06,1.9826086144549473e-06
240,1.9759242725935164e-06,1.601340606188859e-06,1.6779023929257848e-06,1.8864600735237418e-06,2.059814432791777e-06,1.4153799904607477e-06,1.930266192885139e-06,2.440169119254835e-06,3.1753482106715265e-06,7.842047648312396e-06,1.4837886227869102e-06,1.8047489389579863e-06,2.3779312505926865e-06,1.6371914887902883e-06,1.6438302799263837e-06,1.9501645569830602e-06
241,1.9296674268204794e-06,1.6406368591528416e-06,1.6464691796238528e-06,1.9427080550584285e-06,1.990880888623124e-06,1.3873034400764613e-06,1.868490299930036e-06,2.471757498480255e-06,3.087517573703946e-06,7.163074356939458e-06,1.4975640031364668e-06,1.7923904748654743e-06,2.360490779685717e-06,1.603332100818821e-06,1.646349507380984e-06,1.919556342208613e-06
242,1.8815291951989797e-06,1.6787008049210019e-06,1.6189768703093236e-06,2.0014001407793195e-06,1.9239930344313605e-06,1.3610003039509007e-06,1.8071828684279079e-06,2.4984282067025475e-06,3.0023751088461636e-06,6.529796740815947e-06,1.510834243982665e-06,1.7767413998259844e-06,2.3412613081327324e-06,1.574916589314227e-06,1.6456908040562886e-06,1.8915477284364093e-06
243,1.832268755159792e-06,1.7143881861853407e-06,1.594739763179836e-06,2.0615584987396896e-06,1.8598164800921083e-06,1.337034739972806e-06,1.7473090669191852e-06,2.5200289873391874e-06,2.9209327450212973e-06,5.9433652729215565e-06,1.5231223042698102e-06,1.7573899646336996e-06,2.3199147256429844e-06,1.55502164031305e-06,1.6418320943289379e-06,1.8667330096257156e-06
244,1.782981918511693e-06,1.7466583594564953e-06,1.5730001445898423e-06,2.1222033052867044e-06,1.798821162602616e-06,1.3158663420416082e-06,1.6895452438876223e-06,2.5363744159261077e-06,2.8439485587674904e-06,5.403710624129589e-06,1.5336948632404398e-06,1.7345360154036078e-06,2.2962285990313053e-06,1.5466716226686462e-06,1.6350393814599593e-06,1.8454578942486392e-06
245,1.734858391964947e-06,1.7747737863996108e-06,1.5531988399775384e-06,2.1824728735813945e-06,1.7413266910718418e-06,1.2978236355564085e-06,1.634241217541969e-06,2.5472166358924244e-06,2.772017312383455e-06,4.909508768050815e-06,1.5416754222124403e-06,1.7089971943920232e-06,2.2704659632090045e-06,1.5531104116502415e-06,1.6257700001366486e-06,1.827735618669283e-06
246,1.688907525756995e-06,1.7984130187634041e-06,1.535192058189047e-06,2.2415545857964843e-06,1.6875571639411685e-06,1.2831225699797464e-06,1.581421513368914e-06,2.5521815836750146e-06,2.705657372463245e-06,4.458456981162472e-06,1.546326389048122e-06,1.6820486156269276e-06,2.2435480731017414e-06,1.5782738900845635e-06,1.6146228375359968e-06,1.8132203302023853e-06
247,1.6458908436480468e-06,1.8176444206497261e-06,1.519283067136897e-06,2.298543461182465e-06,1.6377319668553291e-06,1.2719387711988433e-06,1.5308283577929307e-06,2.550821684223792e-06,2.645337849491214e-06,4.047797168716045e-06,1.5473338103709348e-06,1.6551792751910685e-06,2.2168533351580124e-06,1.6271096427144806e-06,1.6022714794711185e-06,1.8012477072698913e-06
248,1.6064206833741289e-06,1.8327837732752365e-06,1.5060844092753475e-06,2.3524286766618965e-06,1.5922609433903772e-06,1.2644471867280934e-06,1.4820429366410969e-06,2.5428489772274e-06,2.5914254544176055e-06,3.6748260206724255e-06,1.5449255277608367e-06,1.629808959890644e-06,2.191861512022288e-06,1.7054752264656112e-06,1.5893727026193116e-06,1.79094895304092e-06
249,1.5710175745610362e-06,1.8442379048209493e-06,1.4963585627112047e-06,2.402176554387654e-06,1.5518143311107901e-06,1.26078171994363e-06,1.4346115891234195e-06,2.5283512854987262e-06,2.544154310482769e-06,3.3371208737030844e-06,1.5397672934824828e-06,1.6070905492578893e-06,2.169984033221978e-06,1.8196905483132442e-06,1.576554808904313e-06,1.7814658556764174e-06
250,1.540088808681694e-06,1.852388218698004e-06,1.4909020371503213e-06,2.4467251589055454e-06,1.5171796393226954e-06,1.2609707751720644e-06,1.3880846778783703e-06,2.5078737890632973e-06,2.5036457987021945e-06,3.0324962063983314e-06,1.532675428642212e-06,1.5878560207565666e-06,2.152544437066402e-06,1.9760632574351577e-06,1.5644366038995159e-06,1.7721727432561227e-06
251,1.513939102014715e-06,1.8574783547722571e-06,1.4904237915555805e-06,2.484920138439361e-06,1.4891489509280641e-06,1.26492851725954e-06,1.342112099994827e-06,2.4824215239151085e-06,2.4699596220857324e-06,2.758866367883843e-06,1.5243284186240455e-06,1.572642872351054e-06,2.1407168394928773e-06,2.180618258511399e-06,1.553563215705042e-06,1.762714245157512e-06
252,1.4928620719877246e-06,1.8595219019672975e-06,1.4954266925108002e-06,2.5155968693082743e-06,1.4685049033133616e-06,1.2724868406431375e-06,1.296733247423466e-06,2.4533837405650662e-06,2.4431231274978535e-06,2.5141193993214947e-06,1.5151596760961302e-06,1.561775622508896e-06,2.1354255702915353e-06,2.4390411276998805e-06,1.544296407978563e-06,1.7528198620014628e-06
253,1.477218818394557e-06,1.8583411322641218e-06,1.5061541447918868e-06,2.537857455633598e-06,1.4559668079386102e-06,1.2833960297759766e-06,1.2526043173337578e-06,2.422338934097115e-06,2.4230564517213615e-06,2.2960812794638106e-06,1.5053850001691589e-06,1.5554738466119518e-06,2.1372489642928157e-06,2.756712011459509e-06,1.536749953945013e-06,1.742089136420884e-06
254,1.4673568681222734e-06,1.8537866614928749e-06,1.522589749117924e-06,2.551380782104678e-06,1.4520779992558285e-06,1.2973281601233823e-06,1.210878942845831e-06,2.390784781692662e-06,2.4095118591003297e-06,2.1025813614289587e-06,1.4950447626090328e-06,1.5538897611353305e-06,2.1463370753773676e-06,3.1386726142261363e-06,1.530778036317159e-06,1.7299078637359577e-06
255,1.4634293769464783e-06,1.8460153636663487e-06,1.5444701021160867e-06,2.55656580165483e-06,1.4571221680777535e-06,1.3139610466860683e-06,1.1728943885896993e-06,2.359911861184464e-06,2.4021082749508262e-06,1.9315046217783633e-06,1.4840690340496112e-06,1.5570969099581596e-06,2.1624188633715067e-06,3.5894977155694577e-06,1.52599701209499e-06,1.7154952102423113e-06
256,1.4653212099833885e-06,1.8355907458695291e-06,1.5713433611626025e-06,2.554371915648448e-06,1.4711256491057347e-06,1.333052463400726e-06,1.1399575450979532e-06,2.3305069880298506e-06,2.400328112454466e-06,1.7808541489880992e-06,1.4723611189619057e-06,1.5651164402593852e-06,2.1849729105183156e-06,4.113231674745253e-06,1.521878623581856e-06,1.698058627295118e-06
257,1.4726980504429603e-06,1.8232993560780149e-06,1.6026955083966248e-06,2.5459211319602734e-06,1.4939488752756774e-06,1.354359376510061e-06,1.113260881713753e-06,2.3030025261377727e-06,2.4035555273519535e-06,1.6489101136564346e-06,1.4598215855903792e-06,1.577914189708663e-06,2.21347281500401e-06,4.713465949012414e-06,1.5179255220475644e-06,1.6770011245541754e-06
258,1.4850508981268698e-06,1.8098844547481247e-06,1.6380654989109823e-06,2.5321938893983095e-06,1.5254085077634758e-06,1.3774635083937536e-06,1.0938259340030771e-06,2.277634427290476e-06,2.411292776460288e-06,1.5342904905400857e-06,1.4463264473922414e-06,1.5953432663933899e-06,2.247486362018568e-06,5.393449192178132e-06,1.5138194896294468e-06,1.6521131794853377e-06
259,1.5017326378307901e-06,1.7959186569632977e-06,1.677058118189329e-06,2.5140094558687294e-06,1.565322015058994e-06,1.4016654580047285e-06,1.082458171920795e-06,2.2545683534966517e-06,2.423283850683446e-06,1.4357913832733378e-06,1.4317447183678698e-06,1.6171357714832488e-06,2.2865581342829084e-06,6.156159278737536e-06,1.509424071774313e-06,1.6237107875370507e-06
260,1.5220567300871624e-06,1.7817918279939556e-06,1.7192484660358772e-06,2.4920895032584454e-06,1.613425279558893e-06,1.4259844384154206e-06,1.079727509768031e-06,2.2338661312740113e-06,2.4393504855516414e-06,1.35221067305636e-06,1.4159895225663292e-06,1.642912117508062e-06,2.330056969765418e-06,7.004271508223618e-06,1.5046565957164545e-06,1.5926229869578274e-06
261,1.545376553348694e-06,1.767735572306286e-06,1.7640578610745288e-06,2.4670721725568364e-06,1.6692396362116352e-06,1.4492402717257163e-06,1.0859679899475223e-06,2.2153660520296903e-06,2.459208190164936e-06,1.2822595989429348e-06,1.3990553588167241e-06,1.672119362612678e-06,2.3771926987821768e-06,7.939878838308074e-06,1.499360962478663e-06,1.5599704976753905e-06
262,1.5710165145722905e-06,1.753839217028804e-06,1.810716154902704e-06,2.439617639261708e-06,1.7320018812147413e-06,1.470221591525357e-06,1.1012946708733194e-06,2.1986062294391655e-06,2.482434309303838e-06,1.2245337926167872e-06,1.3810588342460389e-06,1.7039803330903765e-06,2.42726278107412e-06,8.963998030969436e-06,1.493318813052661e-06,1.5268666014063687e-06
263,1.5981514101763617e-06,1.7400394461944487e-06,1.8583504236944964e-06,2.4106297387465074e-06,1.8007124125253786e-06,1.4878398416923797e-06,1.1256231349431074e-06,2.182791187740345e-06,2.5084802449295125e-06,1.1776256856476895e-06,1.3622551398537654e-06,1.7375467983889758e-06,2.4800186057157246e-06,1.0076095413859571e-05,1.4864244503903315e-06,1.494222976346258e-06
264,1.6258515851417474e-06,1.7261844982587103e-06,1.9061020847321058e-06,2.3813717277816185e-06,1.8742490378880864e-06,1.5011527485322478e-06,1.1586739220578323e-06,2.1668039045574005e-06,2.536723320516203e-06,1.1403649984364547e-06,1.3429539689810109e-06,1.7718070092102423e-06,2.535889690792859e-06,1.1273719787821518e-05,1.4788949472204561e-06,1.4626946333487998e-06
265,1.653282789199953e-06,1.7122101890253457e-06,1.953170045395261e-06,2.3533261991770572e-06,1.951403354553634e-06,1.5094290507010756e-06,1.1999724607976573e-06,2.149330158236354e-06,2.566539234783676e-06,1.111947565628056e-06,1.323391436914289e-06,1.8057711937300094e-06,2.5958513582456967e-06,1.2552251037122035e-05,1.4713396931060556e-06,1.4326954000281932e-06
266,1.679809324949922e-06,1.6982504525344896e-06,1.998829201841228e-06,2.32793511159122e-06,2.030776452098698e-06,1.512424027848265e-06,1.2488487013655008e-06,2.129071953522759e-06,2.597256787363056e-06,1.0918175290048834e-06,1.3036461903160284e-06,1.8384861060255197e-06,2.6610545982967005e-06,1.390488551023007e-05,1.464621377712141e-06,1.4044151400286404e-06
267,1.7048858812358962e-06,1.6845650865164238e-06,2.0425142095158097e-06,2.3064512799910754e-06,2.110658198194908e-06,1.5106038126695267e-06,1.3044210750917644e-06,2.1049489776955797e-06,2.6281114271712154e-06,1.0794392475536573e-06,1.283580181546217e-06,1.8689481757502962e-06,2.7325207744467818e-06,1.5322735113602464e-05,1.4596179854067315e-06,1.3778055656624131e-06
268,1.7279319830417747e-06,1.6713965459499312e-06,2.083867349342085e-06,2.2899482539356045e-06,2.189069176028124e-06,1.5050195873790447e-06,1.3655816764245138e-06,2.076234163064859e-06,2.658408918933497e-06,1.0741277118286126e-06,1.2628132889294862e-06,1.8959900076171884e-06,2.8109789322974556e-06,1.679462274293005e-05,1.4570717111944893e-06,1.3526072417433532e-06
269,1.7483987661986665e-06,1.6588707924982128e-06,2.122609663699502e-06,2.279355999668757e-06,2.2640223894772133e-06,1.4969670467334106e-06,1.4310274020964891e-06,2.0426196897754386e-06,2.687707127670674e-06,1.0749991279362143e-06,1.2407817467430534e-06,1.918338504381019e-06,2.8968063049519917e-06,1.8306614218939284e-05,1.4575786625321208e-06,1.3285006212768327e-06
270,1.7659752507927425e-06,1.6469492077278052e-06,2.1584047559332155e-06,2.27540348708392e-06,2.333880545788301e-06,1.4877635855715832e-06,1.4993632895613344e-06,2.004242877133088e-06,2.7157606817529847e-06,1.081085147633665e-06,1.2168976993710612e-06,1.9349655074732454e-06,2.990059814290491e-06,1.9842038363834835e-05,1.461607578027709e-06,1.3052744990283324e-06
271,1.7807033926161008e-06,1.635444704630807e-06,2.190918543813495e-06,2.278479450623086e-06,2.397533887289406e-06,1.478703757411881e-06,1.569271956921349e-06,1.961694048658624e-06,2.7423795639419386e-06,1.0916154346594344e-06,1.1907997627726102e-06,1.9454942076840974e-06,3.090458909349845e-06,2.138252088801951e-05,1.46945665694708e-06,1.2828508485932767e-06
272,1.7928771623270582e-06,1.6240794795428668e-06,2.2199190437540116e-06,2.288505964211265e-06,2.454235840156599e-06,1.4709962771444093e-06,1.639694102758683e-06,1.9159426879613473e-06,2.7673420274492013e-06,1.1062596388126655e-06,1.1625668353603003e-06,1.9502316687484185e-06,3.1972797489934605e-06,2.290962886770259e-05,1.4811982608049053e-06,1.2612232746035275e-06
273,1.8028859567597367e-06,1.6125107531162063e-06,2.2452716138694367e-06,2.3048847885526492e-06,2.5033642320515562e-06,1.4656489233674504e-06,1.7098930949906672e-06,1.8681111567907914e-06,2.7902572867703045e-06,1.1250898963674198e-06,1.13270203456846e-06,1.949809872675531e-06,3.3093626484894144e-06,2.4406286753925655e-05,1.4966927171730187e-06,1.2404783850627305e-06
274,1.8112223479229557e-06,1.60035087679574e-06,2.2669539249667088e-06,2.3265166558481083e-06,2.5444232272623814e-06,1.4634607201312707e-06,1.7793238248934045e-06,1.819176122801006e-06,2.810395573806157e-06,1.1483890605603585e-06,1.101910785788012e-06,1.9448555190014314e-06,3.425342634862052e-06,2.5857266008111385e-05,1.5156417267755488e-06,1.2209013996217198e-06
275,1.8185879604340385e-06,1.5872316586743232e-06,2.285128914302555e-06,2.3518970992121754e-06,2.577175034428303e-06,1.4651149942776315e-06,1.8474608501503938e-06,1.7697776146840224e-06,2.8266170108762563e-06,1.1765389442991967e-06,1.0708947261262288e-06,1.9359222716087473e-06,3.5439346674348427e-06,2.724820129254597e-05,1.5375962948813734e-06,1.203005874914651e-06
276,1.8259126039867428e-06,1.5728439630456213e-06,2.300104017267637e-06,2.379291711821024e-06,2.6017486662428627e-06,1.4711969653113315e-06,1.9137838878368833e-06,1.720256177445753e-06,2.8374815613142504e-06,1.2099769623051645e-06,1.0402661153506806e-06,1.9235622834459317e-06,3.6639722943527313e-06,2.8563273929938443e-05,1.561916496746826e-06,1.187412234510377e-06
277,1.834282787696343e-06,1.556919267467162e-06,2.312118568731981e-06,2.406952041325366e-06,2.618737608323903e-06,1.4820964075147616e-06,1.977836957238045e-06,1.6709010297882726e-06,2.841616009044995e-06,1.2491509299596333e-06,1.010522055742875e-06,1.9083859689545114e-06,3.784175470237351e-06,2.9783239202034864e-05,1.5877779675612668e-06,1.1747066017578508e-06
278,1.844828302768267e-06,1.539258807601306e-06,2.3211845010358125e-06,2.4333157845604353e-06,2.6291596146857757e-06,1.4979118807230038e-06,2.0391848444236685e-06,1.6222118042208333e-06,2.8382294457357034e-06,1.2944387654800576e-06,9.820167084715432e-07,1.8910700677421014e-06,3.9030061696885e-06,3.088591115056144e-05,1.614299817253493e-06,1.165416170109089e-06
279,1.8585649965211637e-06,1.5198639781160162e-06,2.3271723326789295e-06,2.4571431970340957e-06,2.634188439202496e-06,1.5184136137378314e-06,2.097301324697626e-06,1.5749308209277587e-06,2.827340866629559e-06,1.3460399098356875e-06,9.549418288645412e-07,1.872326851710298e-06,4.018736549110735e-06,3.1849490703180833e-05,1.6407574813261257e-06,1.1600350332947565e-06
280,1.8762776549503872e-06,1.4990442070163902e-06,2.330011548294873e-06,2.4775473047785496e-06,2.6349099780357494e-06,1.5430429007056274e-06,2.1515232408120773e-06,1.5298649482087077e-06,2.809501362272672e-06,1.4039118301306815e-06,9.293753926315979e-07,1.8528575772237764e-06,4.129417382153707e-06,3.2657045463849464e-05,1.6667571839268428e-06,1.1589760702373406e-06
281,1.8985563541552855e-06,1.4773627864322605e-06,2.3297554071383453e-06,2.4938892013464357e-06,2.632308986077903e-06,1.5709498118100807e-06,2.2010577936186835e-06,1.4877414884624219e-06,2.785424957191899e-06,1.4677566304311592e-06,9.054115929687181e-07,1.83328544489959e-06,4.232681021708819e-06,3.3299104594105255e-05,1.6922296084818357e-06,1.1624767088277237e-06
282,1.92592031641667e-06,1.4554410790904416e-06,2.326450539395532e-06,2.505562521191478e-06,2.6272988681625053e-06,1.6011076356929764e-06,2.2449553757228746e-06,1.44917829742607e-06,2.755859527504143e-06,1.536998037305674e-06,8.832725965572602e-07,1.8140559782718712e-06,4.325747326225156e-06,3.3772094148124316e-05,1.7172196031907873e-06,1.1705521940564879e-06
283,1.9588439198201925e-06,1.4337635732607534e-06,2.3199916400120926e-06,2.5118169717802703e-06,2.6206698575776464e-06,1.6325144490324634e-06,2.282176830549573e-06,1.414653444872579e-06,2.7215741830786076e-06,1.6107405444593273e-06,8.632870125356298e-07,1.795367958320303e-06,4.4058408924997926e-06,3.407479653562481e-05,1.7416429591429373e-06,1.1830084595001687e-06
284,1.9976546219300485e-06,1.4126173475698486e-06,2.3101541481500363e-06,2.5118059664481644e-06,2.613057242832455e-06,1.6643615047028735e-06,2.3119007821813306e-06,1.384482028369135e-06,2.683390230746928e-06,1.6877400236763268e-06,8.45760999915696e-07,1.7772030272901416e-06,4.470797287343134e-06,3.420751904173538e-05,1.765183808769802e-06,1.1994965103394357e-06
285,2.0424721995247373e-06,1.3921848977851692e-06,2.296740476172571e-06,2.504795462500809e-06,2.6049061322153425e-06,1.6960149304894424e-06,2.333841463034504e-06,1.3589109707403828e-06,2.6421752674876327e-06,1.7664345346829998e-06,8.30869059115942e-07,1.7593908807170655e-06,4.519409356105426e-06,3.417416231911676e-05,1.7873771255321933e-06,1.2196036901804176e-06
286,2.093284082906365e-06,1.3726814198482072e-06,2.2796409325417436e-06,2.4902578312857793e-06,2.5964625074684394e-06,1.7269120138727101e-06,2.3482930382153475e-06,1.3382884025452254e-06,2.598654973741749e-06,1.845129416376749e-06,8.186185662446866e-07,1.7416455574995652e-06,4.551213147583353e-06,3.3983515404817705e-05,1.8078508074899705e-06,1.2429421336533106e-06
287,2.1500221391629125e-06,1.3544335500388486e-06,2.2587805942932305e-06,2.4677749519337227e-06,2.5878992642917792e-06,1.7565683190868937e-06,2.355958039851096e-06,1.3231292827082392e-06,2.5531867786589405e-06,1.922326640774466e-06,8.088632644965205e-07,1.7236433389544462e-06,4.5660014717697725e-06,3.364835125098223e-05,1.826594424872165e-06,1.2691748825283171e-06
288,2.2125009716888337e-06,1.3378940619352566e-06,2.234066596895368e-06,2.436974298291997e-06,2.579414535948541e-06,1.7845958481827984e-06,2.3577318561639765e-06,1.3140070454870828e-06,2.5057160590185004e-06,1.9969197981441116e-06,8.013543713124209e-07,1.7051625618211925e-06,4.56369086817352e-06,3.3183343915462756e-05,1.8440522889986516e-06,1.2979673163496572e-06
289,2.280307325103997e-06,1.323598908450246e-06,2.2053959897848983e-06,2.3976553672991897e-06,2.5711378604643074e-06,1.8105643216646824e-06,2.3544996397918747e-06,1.311398647406747e-06,2.4559350961745234e-06,2.0680185667970505e-06,7.958140675525487e-07,1.6861488265995764e-06,4.544614612043703e-06,3.260248114445203e-05,1.8609727040019634e-06,1.328922703441087e-06
290,2.3528135093416e-06,1.3120697816956437e-06,2.1727052595924492e-06,2.3499836836591697e-06,2.5629485180027394e-06,1.8338381444103845e-06,2.347026084668294e-06,1.3156082453916942e-06,2.4035502315739683e-06,2.134598655547259e-06,7.919802719008334e-07,1.6666143291630772e-06,4.509790176397854e-06,3.1916979785425295e-05,1.8781234344752382e-06,1.3615627394603394e-06
291,2.429299573292169e-06,1.3037571879162312e-06,2.136047124958495e-06,2.2945582592699938e-06,2.5543328588104282e-06,1.8536474874626711e-06,2.3360397733099026e-06,1.326780090039099e-06,2.34842978615555e-06,2.1953516070794785e-06,7.89601984400193e-07,1.646471025419399e-06,4.460966341865093e-06,3.1136132862216036e-05,1.8960333166388556e-06,1.3953403328051541e-06
292,2.5090389187778998e-06,1.299072251647478e-06,2.0956814326509686e-06,2.232307785585868e-06,2.544357200573318e-06,1.869389597399849e-06,2.322357704734157e-06,1.344969208658313e-06,2.2904600101014596e-06,2.2488709794772595e-06,7.884514996195909e-07,1.6254468970850981e-06,4.400482109530004e-06,3.02713401991389e-05,1.914857381567542e-06,1.4296415863204363e-06
293,2.591295108696713e-06,1.2983839493022745e-06,2.0521073162042384e-06,2.1642745351453803e-06,2.5318492655502986e-06,1.8808248109507594e-06,2.3067897071989428e-06,1.3701798529424711e-06,2.2293120310883194e-06,2.294018848802194e-06,7.88393610353025e-07,1.6030866350908636e-06,4.330877813654558e-06,2.9338622563191794e-05,1.9343628637514886e-06,1.4637812806182988e-06
294,2.675246501080502e-06,1.3019265627760749e-06,2.0059566868238142e-06,2.0913977514135698e-06,2.5157698762076917e-06,1.8879832639262207e-06,2.2898989015362587e-06,1.402300618067855e-06,2.1644800039181924e-06,2.3301327482081187e-06,7.894224304001139e-07,1.5787831504731972e-06,4.254403117907016e-06,2.8356337516940582e-05,1.953977603024146e-06,1.4970273338168978e-06
295,2.75983981847337e-06,1.3097158348441911e-06,1.9578183922009183e-06,2.0144749838669157e-06,2.4955359779121766e-06,1.8910600028627212e-06,2.2718928769759855e-06,1.4410132202122749e-06,2.095667954779627e-06,2.356877525763174e-06,7.91600215144825e-07,1.5518829024261331e-06,4.1728297334068946e-06,2.7341783499884046e-05,1.9728377086623272e-06,1.5286651267018248e-06
296,2.843652501791533e-06,1.3215293276157935e-06,1.908173066764735e-06,1.934346855901267e-06,2.471011141724042e-06,1.8904877606242572e-06,2.2527605596717696e-06,1.485773895813937e-06,2.023200842516788e-06,2.373962189423827e-06,7.949739628109685e-07,1.521902662222178e-06,4.087622504572048e-06,2.631028490295204e-05,1.989818826934186e-06,1.558084673763541e-06
297,2.924873725089955e-06,1.3369450925218275e-06,1.8574359847660408e-06,1.8520821383310573e-06,2.4422241005085284e-06,1.8869356269720969e-06,2.2325949929395595e-06,1.5358594327950357e-06,1.948043127098024e-06,2.3810645159473476e-06,7.995305696733256e-07,1.4887916566241255e-06,4.000071484973431e-06,2.5274749565409184e-05,2.0036547450417613e-06,1.5848557088418221e-06
298,3.001420435312236e-06,1.3554261045093804e-06,1.8059252064392642e-06,1.7689460486437062e-06,2.4092173557162563e-06,1.881084976708146e-06,2.2119117797080717e-06,1.5904284780719061e-06,1.8714552390209917e-06,2.3780364714146317e-06,8.051779013353261e-07,1.453094068340002e-06,3.91130684760932e-06,2.4244271505496627e-05,2.013252122313297e-06,1.608744483890046e-06
299,3.0712288938706436e-06,1.3763974192413052e-06,1.7537544787717439e-06,1.6861826650637868e-06,2.372207881474286e-06,1.8734103406348221e-06,2.191743553700738e-06,1.6485651593607345e-06,1.794694305161846e-06,2.365238210927673e-06,8.117855768314298e-07,1.415867284076239e-06,3.822436145102694e-06,2.3223555327344945e-05,2.0180341895857612e-06,1.6296510949516977e-06
300,3.132722144101935e-06,1.3992701099044654e-06,1.7008307983068095e-06,1.6048106581943604e-06,2.3317967758277254e-06,1.8641196640859502e-06,2.17344317119484e-06,1.7093012415960006e-06,1.7188996515710536e-06,2.3438457077884066e-06,8.192708151542813e-07,1.3783773068817107e-06,3.7346420546654063e-06,2.221400117801883e-05,2.017958040588539e-06,1.6475050746101078e-06
301,3.1851687654070473e-06,1.4234437970605302e-06,1.6469825808306367e-06,1.5256003296129195e-06,2.2889191113017027e-06,1.8531471941888426e-06,2.158339636909709e-06,1.7716422756863936e-06,1.6450016344867307e-06,2.3160260794490378e-06,8.276103923511323e-07,1.3417920184936928e-06,3.6490309371803354e-06,2.1215328027547524e-05,2.01321330252415e-06,1.6621788502101043e-06
302,3.228616961727339e-06,1.4483251427141107e-06,1.592068232618056e-06,1.4491963446401766e-06,2.2445277864284835e-06,1.8401409393260716e-06,2.147489808772049e-06,1.8345770776250133e-06,1.5736420784104125e-06,2.2848570304470853e-06,8.367707016447967e-07,1.3070361322120786e-06,3.566526404117145e-06,2.0226195254361032e-05,2.004018301611319e-06,1.673422389703345e-06
303,3.263486002471743e-06,1.4733192692241057e-06,1.5359830018598888e-06,1.376202858024002e-06,2.1992675087064383e-06,1.824558428132146e-06,2.1416057770668166e-06,1.8970568933074048e-06,1.505247421914721e-06,2.253966614097019e-06,8.466444869943963e-07,1.2747758569745901e-06,3.4879610944961157e-06,1.924397141623e-05,1.9906519711991677e-06,1.6808300635708426e-06
304,3.290162623497377e-06,1.4977801209235744e-06,1.4786372015882227e-06,1.307156619045043e-06,2.15335814544145e-06,1.8059393987717981e-06,2.1410386527705695e-06,1.958086057933122e-06,1.4402458799502067e-06,2.2271115197844637e-06,8.570163014752913e-07,1.2454728060389294e-06,3.4140543066392516e-06,1.8265744421753684e-05,1.973465625008677e-06,1.6839227858216229e-06
305,3.30883356373487e-06,1.5210458879164363e-06,1.4200079125728377e-06,1.2424752193887457e-06,2.1067024171692256e-06,1.7841958198810828e-06,2.1457652252698336e-06,2.0169757890594775e-06,1.3792309775717518e-06,2.2079171288561592e-06,8.6756123342059e-07,1.2194723984331603e-06,3.345202709634215e-06,1.7291206359065033e-05,1.952817868306971e-06,1.6823437816474208e-06
306,3.3195589372668763e-06,1.5426303802415958e-06,1.3602704249075164e-06,1.1824522825414417e-06,2.059127546584608e-06,1.7596681942912924e-06,2.1554106011054988e-06,2.0734826467299464e-06,1.3229729971516956e-06,2.199809506324218e-06,8.778984170951489e-07,1.1970437682522827e-06,3.281409893938798e-06,1.6325184799599716e-05,1.9290965592494154e-06,1.6760430573074066e-06
307,3.3224355188065537e-06,1.562418868340068e-06,1.2999164882194958e-06,1.1272971814257071e-06,2.0105958517598323e-06,1.7329231192480363e-06,2.169297708959348e-06,2.127614451649108e-06,1.2723961265088964e-06,2.2061514593302085e-06,8.876707744245516e-07,1.1783423822445486e-06,3.2224829749410315e-06,1.5377646547849332e-05,1.9027557932277856e-06,1.6653677033512428e-06
308,3.3176563155478474e-06,1.5806931464438657e-06,1.239751472254994e-06,1.0772003554648082e-06,1.9612234135560463e-06,1.7044941317268724e-06,2.186535570976718e-06,2.1792642469102522e-06,1.2285703538079848e-06,2.230539356410613e-06,8.965700248787828e-07,1.1633695353159076e-06,3.1682098334655797e-06,1.4461284820706185e-05,1.8741996431929095e-06,1.6510459749869777e-06
309,3.3053743902480157e-06,1.5979725368982038e-06,1.1807626480436597e-06,1.0323858622174749e-06,1.911203599706245e-06,1.6747119219510547e-06,2.2061678273607586e-06,2.2279458082717185e-06,1.1926402767351863e-06,2.276975985073873e-06,9.042951146356001e-07,1.1519595616921952e-06,3.11826400279717e-06,1.3588505076187253e-05,1.8436320149299817e-06,1.634076121090403e-06
310,3.2854894379654408e-06,1.6147983578140665e-06,1.1239746986950198e-06,9.930964438295133e-07,1.8608056537920945e-06,1.6436419067388842e-06,2.22730738279625e-06,2.2727413486106344e-06,1.165753686049735e-06,2.3497027573873743e-06,9.105588760831012e-07,1.1438010065278345e-06,3.0720290157702095e-06,1.2769567333540423e-05,1.8110623149973648e-06,1.6155595301584983e-06
311,3.2575925753331633e-06,1.6316249399258846e-06,1.070374480347233e-06,9.595074196202126e-07,1.8103613559875133e-06,1.6111476270309283e-06,2.2491640894665136e-06,2.3124528856557365e-06,1.1490857320083556e-06,2.452864260516701e-06,9.151812179796026e-07,1.1385517626393387e-06,3.0286368803739854e-06,1.2012177139823778e-05,1.7764332298527648e-06,1.5965327037268665e-06
312,3.2211176508690772e-06,1.6488234198356583e-06,1.0208622365368362e-06,9.316356720958039e-07,1.760207438014383e-06,1.577077333093866e-06,2.270981499829619e-06,2.345917073342364e-06,1.143863203658015e-06,2.590288567991455e-06,9.181220637729392e-07,1.136024052004927e-06,2.987205380411153e-06,1.1321724404707219e-05,1.7397376910758415e-06,1.5778586131246041e-06
313,3.175547449112699e-06,1.6666567463636644e-06,9.761991662170617e-07,9.093082677951437e-07,1.7106835116919124e-06,1.541451446173708e-06,2.29195819227408e-06,2.3723317070200193e-06,1.151350811111296e-06,2.7654138697959006e-06,9.193777372125409e-07,1.1362766825773831e-06,2.947149524176504e-06,1.0701598712203277e-05,1.7010351224873584e-06,1.5601985225376961e-06
314,3.1206374545041883e-06,1.6852125700017312e-06,9.369807397138715e-07,8.921992765432253e-07,1.6620953256591748e-06,1.5045018457184105e-06,2.311163921610523e-06,2.391329608017019e-06,1.172888163755049e-06,2.981226166873603e-06,9.188761563890908e-07,1.1395210920624864e-06,2.90841705858791e-06,1.0153534266108826e-05,1.6604067547309826e-06,1.544015380787234e-06
315,3.0567016694369135e-06,1.7044112205840023e-06,9.036334444988889e-07,8.798874800138684e-07,1.6146239740655785e-06,1.4665604678191555e-06,2.3274395724539444e-06,2.4027582999012068e-06,1.2099131436175893e-06,3.240181849232507e-06,9.165055565993839e-07,1.145971083330462e-06,2.8714413239559184e-06,9.678068584497715e-06,1.6180050197943938e-06,1.5296074575603877e-06
316,2.9848339388625136e-06,1.724064689628061e-06,8.764210734930247e-07,8.718896732625962e-07,1.5683554012055882e-06,1.4279533689927e-06,2.339402726069047e-06,2.4065265405243057e-06,1.263875945315575e-06,3.5442222006738773e-06,9.122498558183643e-07,1.1557716889243414e-06,2.8368493887010753e-06,9.275096255434016e-06,1.574198646268798e-06,1.5172025630065973e-06
317,2.906876635887882e-06,1.7438622233807032e-06,8.554824588562887e-07,8.677091789734415e-07,1.523454216390648e-06,1.389037030175185e-06,2.3456897769968096e-06,2.4027059353130574e-06,1.3361498516769906e-06,3.894873769727088e-06,9.063100420766032e-07,1.1689501884944685e-06,2.805224338292488e-06,8.94438941046046e-06,1.5296214426883354e-06,1.5070373494560322e-06
318,2.8251509471300565e-06,1.7633338064403808e-06,8.409098904055763e-07,8.669199658702097e-07,1.4803568489361732e-06,1.350334555342108e-06,2.345289796713209e-06,2.3915780769089923e-06,1.4281013358604224e-06,4.293240158881458e-06,8.991151662062426e-07,1.1853489874832211e-06,2.7770470535220884e-06,8.685988382704287e-06,1.4850401509172506e-06,1.4993576741629795e-06
319,2.742133104670767e-06,1.7819275943494237e-06,8.328043736166189e-07,8.69180216334423e-07,1.4398319246158503e-06,1.3126325727943792e-06,2.3376778244816696e-06,2.3735274663808117e-06,1.5412645317923683e-06,4.739849633196569e-06,8.912209305440947e-07,1.204602046379907e-06,2.752644260673729e-06,8.500400286262336e-06,1.4411504585356263e-06,1.494401279167492e-06
320,2.6601977194522244e-06,1.7991307315704795e-06,8.312439627138616e-07,8.741407207123622e-07,1.4028320014732495e-06,1.2769675333211977e-06,2.32267051387431e-06,2.34907838023948e-06,1.677365392132876e-06,5.2345949132759755e-06,8.831732839200508e-07,1.226149019079915e-06,2.7320456408786716e-06,8.388546568373186e-06,1.3984428776909796e-06,1.492431874484648e-06
321,2.581427027600121e-06,1.8144631111125206e-06,8.362115135342492e-07,8.813716379097487e-07,1.3702889603859523e-06,1.2445028830595857e-06,2.3001847971551453e-06,2.3190747812178826e-06,1.8381276410163412e-06,5.776843468503144e-06,8.754029519469766e-07,1.2492655239799845e-06,2.7149371375546986e-06,8.35149981649686e-06,1.3572047827852873e-06,1.4938047435833416e-06
322,2.5075010316753556e-06,1.8273702715779925e-06,8.47555117150073e-07,8.903821534404007e-07,1.343012881284005e-06,1.216343570817035e-06,2.2701266717239433e-06,2.284674534796937e-06,2.0250554523651623e-06,6.36548337982296e-06,8.681731211333063e-07,1.27318918408106e-06,2.7008561557882575e-06,8.390128353811796e-06,1.3176228426457493e-06,1.4989866929587341e-06
323,2.439702660581341e-06,1.8372124201959686e-06,8.649917682492266e-07,9.006917553356916e-07,1.3216661030186798e-06,1.1933829071344294e-06,2.232492120229038e-06,2.2470819605694093e-06,2.2393235689738218e-06,6.998706763042823e-06,8.615864259257558e-07,1.297346105653769e-06,2.689458759767519e-06,8.504759667014744e-06,1.2798722102080953e-06,1.5085069703826528e-06
324,2.3789618236472574e-06,1.8434339020696114e-06,8.881439594352454e-07,9.118989610618252e-07,1.306782744160665e-06,1.1762414340675797e-06,2.187553321039898e-06,2.207303756936089e-06,2.4817644289981413e-06,7.67359741059874e-06,8.55620374705978e-07,1.3214683186416906e-06,2.6806334347037588e-06,8.694919839588411e-06,1.2441150748537174e-06,1.5229052735088811e-06
325,2.3258397568799173e-06,1.8457437494716347e-06,9.165718533150865e-07,9.237113552341407e-07,1.2988198663066084e-06,1.1652759706083716e-06,2.135932481777529e-06,2.166135051538127e-06,2.7528871930026474e-06,8.385769919878294e-06,8.501439238979775e-07,1.3454528851436923e-06,2.6744840877550087e-06,8.959085998703305e-06,1.210472652163901e-06,1.5427028226577079e-06
326,2.280479145174125e-06,1.8441012378007803e-06,9.497573282578978e-07,9.359107667533405e-07,1.2981615376704078e-06,1.1606338798728462e-06,2.078493036137528e-06,2.1242772434892368e-06,3.0528523573569536e-06,9.129359931145878e-06,8.449346048121353e-07,1.3691065326186228e-06,2.6713128398219725e-06,9.294441175704682e-06,1.1790613327713603e-06,1.5683390461323583e-06
327,2.242578756744218e-06,1.8385809401567447e-06,9.8707309503425e-07,9.482845790924083e-07,1.3050683594466599e-06,1.1623408825821655e-06,2.0161245060090275e-06,2.082439053576514e-06,3.381416941635558e-06,9.897555061036627e-06,8.397233410626903e-07,1.392018214332412e-06,2.671566785884726e-06,9.696845591406315e-06,1.1500327749459817e-06,1.6000891197000132e-06
