,EMG1,EMG2,EMG3,EMG4,EMG5,EMG6,EMG7,EMG8,EMG9,EMG10,EMG11,EMG12,EMG13,EMG14,EMG15,EMG16
0,4.902128740009694e-07,-1.7886818120313351e-07,2.5213363156427796e-07,2.0412171124559261e-07,2.1341847783620574e-07,2.754614901331108e-07,3.3952766172797505e-08,2.7454070535627687e-07,4.5914349489776407e-07,2.6026929178017583e-06,-1.2412353743336114e-06,4.4088173133513816e-07,9.060644943891241e-08,1.2716006969306542e-05,2.993146525555958e-07,4.0675235645464396e-07
1,5.994247268879979e-07,9.730004425959137e-08,3.490153037261257e-07,3.722620073311671e-07,4.375698068353975e-07,3.7481230499823113e-07,3.1424363003358917e-07,4.688811327712812e-07,7.917847728441082e-07,3.522582997019478e-06,5.0221669196085e-07,8.775795852180232e-07,3.0986890139777217e-07,1.4457722932506624e-05,3.3853346952395053e-07,4.981134310528827e-07
2,7.072642786029212e-07,3.6320149412805597e-07,4.4659388316783485e-07,5.392240974613304e-07,6.593181336123958e-07,4.7664587137595735e-07,5.810668682867953e-07,6.602683441408966e-07,1.1246503400436705e-06,4.520523342732128e-06,2.1668198096466672e-06,1.3010765185516803e-06,5.231232144246842e-07,1.620431049538548e-05,3.7893958835908656e-07,5.927990217198268e-07
3,8.108477470610561e-07,6.176198127885995e-07,5.448732921820422e-07,7.016418707161411e-07,8.755500486434862e-07,5.796557276532066e-07,8.305105600011152e-07,8.433233739036798e-07,1.4517250757489146e-06,5.590777300887318e-06,3.7244472049397615e-06,1.7046850058259152e-06,7.264384153261478e-07,1.794435847584022e-05,4.194016849736183e-07,6.891971623538225e-07
4,9.082676127405771e-07,8.594972837723398e-07,6.437730103236397e-07,8.563656747956669e-07,1.0832497640761256e-06,6.827357575457803e-07,1.0593149549373656e-06,1.01372941681531e-06,1.7675719192442715e-06,6.7304397739907144e-06,5.150427739568802e-06,2.0825928930253307e-06,9.173821143555986e-07,1.9667856809113245e-05,4.5899227391782176e-07,7.85823141445815e-07
5,9.987192733012818e-07,1.0879550779991e-06,7.430895777931581e-07,1.0006974241114426e-06,1.279665928307785e-06,7.852057364630293e-07,1.2650408984253934e-06,1.1686587553179939e-06,2.0679532120548187e-06,7.940265697212441e-06,6.4249379950091945e-06,2.4300343395332667e-06,1.0948752221915618e-06,2.1367174475107285e-05,4.970999616227115e-07,8.815009255883557e-07
6,1.08222672997494e-06,1.3022432882650941e-06,8.424699837829297e-07,1.1326403854337548e-06,1.4625446646373792e-06,8.869040174112154e-07,1.4461936551093826e-06,1.3068551311135311e-06,2.3503706882823554e-06,9.223455810883046e-06,7.533850268069639e-06,2.743420750600955e-06,1.2586690230408067e-06,2.3036572296567044e-05,5.335117289678187e-07,9.754587938500987e-07
7,1.1591793325652645e-06,1.501678307498534e-06,9.413998956674265e-07,1.251099318488496e-06,1.6303563029387655e-06,9.880301333093117e-07,1.6021988193600533e-06,1.428404164332544e-06,2.614224530373811e-06,1.0583392707108762e-05,8.468995912570425e-06,3.0204692945549297e-06,1.4088643437630934e-06,2.4669808302781428e-05,5.683883513254839e-07,1.0672586862000467e-06
8,1.229992043524461e-06,1.6856259129016352e-06,1.0392058987748149e-06,1.3559038072748956e-06,1.7823955561443438e-06,1.0888918366339024e-06,1.7331077505845352e-06,1.5343689657035177e-06,2.860476005863375e-06,1.2022065280542844e-05,9.227953594183216e-06,3.2602729347450784e-06,1.5457745266114502e-06,2.6257767792777286e-05,6.021149509034251e-07,1.156591844351296e-06
9,1.2950027541473356e-06,1.8536410137660421e-06,1.1350782928093645e-06,1.447558177784495e-06,1.918666409530772e-06,1.1897212475708791e-06,1.839297071569638e-06,1.6264079164464147e-06,3.0910154285415253e-06,1.3539528334225392e-05,9.813461527079418e-06,3.463236968279734e-06,1.6700458399079988e-06,2.7788389561630593e-05,6.351415489899618e-07,1.2430518896241384e-06
10,1.35446230079048e-06,2.0057941107913252e-06,1.2281526662956047e-06,1.5268505202503152e-06,2.0396024176331746e-06,1.2906124248324618e-06,1.9215027348347977e-06,1.7064021098052302e-06,3.308051170527614e-06,1.5133701508604555e-05,1.0232640704058457e-05,3.6307945902646954e-06,1.7827043705326735e-06,2.924832953989828e-05,6.678842190900516e-07,1.3259983642019677e-06
11,1.4085110080921674e-06,2.142868202793725e-06,1.3176349506798028e-06,1.5945719594245719e-06,2.1457903242885463e-06,1.3915709272465754e-06,1.9810164388320463e-06,1.7761417012361786e-06,3.5136904460583743e-06,1.6800067457316366e-05,1.049622249909792e-05,3.7649114795464866e-06,1.884976366261116e-06,3.062354769955438e-05,7.006745924097633e-07,1.4045336745828762e-06
12,1.4572198142605957e-06,2.266145735594709e-06,1.4028443278100442e-06,1.6514099635043592e-06,2.2378431117340423e-06,1.4925711728633264e-06,2.01967674885329e-06,1.8371461305745018e-06,3.7097242937095012e-06,1.853132261160113e-05,1.0617798335654855e-05,3.867603814900112e-06,1.9780084690384317e-06,3.189794773564231e-05,7.33760651111088e-07,1.4775637154888069e-06
13,1.5006973842929327e-06,2.37696838934751e-06,1.4831315249959765e-06,1.69797340720801e-06,2.3164551786005044e-06,1.5935187145284522e-06,2.039633403457877e-06,1.8906354386932179e-06,3.897507557455879e-06,2.0317144211233167e-05,1.0613023021196945e-05,3.940721013759172e-06,2.0626826896605827e-06,3.305315546543179e-05,7.673274487589544e-07,1.543971008449115e-06
14,1.539097341319172e-06,2.476428910705763e-06,1.5578252666915525e-06,1.7349166605619528e-06,2.3825571261580622e-06,1.6941861112060367e-06,2.0431029721281245e-06,1.9375768527076026e-06,4.077838924178636e-06,2.2144436306662095e-05,1.0498778306163853e-05,3.985999200945518e-06,2.1396184254183212e-06,3.40722635647161e-05,8.01479445536757e-07,1.602888118685036e-06
15,1.5724893036645001e-06,2.56532596545451e-06,1.6263291672234886e-06,1.7630027668809913e-06,2.4373876891198e-06,1.7942033850061353e-06,2.032241436883068e-06,1.9786933786820315e-06,4.250951582245359e-06,2.399826830336556e-05,1.0292362815824158e-05,4.0052107927513915e-06,2.2093193467896764e-06,3.494579670379316e-05,8.361971541400397e-07,1.6538608247486369e-06
16,1.6007592236430886e-06,2.644269124657148e-06,1.6882785244088664e-06,1.7830306880832145e-06,2.4823412641905326e-06,1.893029900186563e-06,2.009084629341071e-06,2.01444460581501e-06,4.416723990660964e-06,2.5862526791624314e-05,1.0010761201334645e-05,4.000311000714555e-06,2.2723875763648064e-06,3.567580012849399e-05,8.713221468592583e-07,1.6967383106449602e-06
17,1.6237031987334983e-06,2.713755217968035e-06,1.7436119205156213e-06,1.7958092106839575e-06,2.5187115883184033e-06,1.989887069463276e-06,1.9755272994577747e-06,2.045058223205231e-06,4.5749236900130225e-06,2.7719292485771327e-05,9.670017739871952e-06,3.973597996858318e-06,2.3297257463061587e-06,3.627573328682088e-05,9.06600640902476e-07,1.731506885491205e-06
18,1.641319870616479e-06,2.774118383065013e-06,1.7925636741030968e-06,1.8022508861416542e-06,2.547540197412762e-06,2.0837165458136148e-06,1.933403346889927e-06,2.070547963831016e-06,4.725219099554527e-06,2.9548629669113886e-05,9.284728236474268e-06,3.927848254173241e-06,2.382577868934387e-06,3.6766741957222346e-05,9.417803378118402e-07,1.7583512852164874e-06
19,1.6540357375250248e-06,2.82542925543867e-06,1.835645125077545e-06,1.8034281976449555e-06,2.569571732148776e-06,2.1731454931772973e-06,1.8845848277229575e-06,2.0906311321768505e-06,4.867047022881246e-06,3.1331429173820365e-05,8.867670539043673e-06,3.866276726133829e-06,2.432377861458414e-06,3.717262002490394e-05,9.76677011986706e-07,1.7778208371691714e-06
20,1.6626084728989057e-06,2.8675348846122223e-06,1.8735734610827125e-06,1.800505466432981e-06,2.585288823513223e-06,2.2564558528058314e-06,1.8309379361443025e-06,2.1046255874046496e-06,4.999664663484396e-06,3.305466663440601e-05,8.42963015301485e-06,3.792247998604491e-06,2.480638376251486e-06,3.751535435981501e-05,1.0111174818643149e-06,1.7908284436611565e-06
21,1.6678880611581325e-06,2.900295637337097e-06,1.9070883812582578e-06,1.7946072947367797e-06,2.59507257498466e-06,2.3316739272826003e-06,1.7742243567770235e-06,2.111477062750818e-06,5.122339721828567e-06,3.471556845230268e-05,7.979501174990212e-06,3.7089105560119838e-06,2.529011928821336e-06,3.781178003482707e-05,1.0448169304756883e-06,1.7984955970120813e-06
22,1.6707341558900322e-06,2.923792161926785e-06,1.9367359443088913e-06,1.786698613214969e-06,2.599380397746547e-06,2.3968734834377626e-06,1.7160886598947861e-06,2.109993521220683e-06,5.23449025495997e-06,3.6321283242075797e-05,7.524605502532965e-06,3.6189968925360314e-06,2.5793914651753224e-06,3.807140966762075e-05,1.0773362850696795e-06,1.8019934461049938e-06
23,1.6720124130044565e-06,2.9382536119280443e-06,1.962743466324264e-06,1.7775364082572541e-06,2.5987499863686983e-06,2.4505856080820874e-06,1.6580488525107708e-06,2.099241612858888e-06,5.336132352945248e-06,3.788377233938151e-05,7.070989056855557e-06,3.524782341942481e-06,2.633963540020013e-06,3.829538974823862e-05,1.108208613649242e-06,1.8024065120629598e-06
24,1.672487637021496e-06,2.943821577200238e-06,1.985011088171706e-06,1.767731385800271e-06,2.5936897348751172e-06,2.4920776470668497e-06,1.6014300927092615e-06,2.0789389049398366e-06,5.428677848048455e-06,3.9414607614364184e-05,6.623562076691226e-06,3.4280604952376633e-06,2.695205069028676e-06,3.847647423329386e-05,1.1371894360445543e-06,1.8006197001815806e-06
25,1.672679923287108e-06,2.940467407078883e-06,2.0031546380036555e-06,1.7578628462270665e-06,2.584680888246507e-06,2.5213570324156675e-06,1.5473100086429538e-06,2.0496200508306453e-06,5.515133402741627e-06,4.092385671475816e-05,6.1862008469026365e-06,3.330184450649156e-06,2.765746398171158e-06,3.860085144827606e-05,1.1643944480007767e-06,1.7972926867792242e-06
26,1.6728132577797618e-06,2.9280938431278856e-06,2.0165296090468505e-06,1.7485095669711578e-06,2.5722413759066323e-06,2.538931639987355e-06,1.4965045710388574e-06,2.0124467939569615e-06,5.599233117132748e-06,4.242149687315563e-05,5.761946676016284e-06,3.2322307084824773e-06,2.8480954637561163e-06,3.865285457027662e-05,1.1901546582938725e-06,1.7929074966541308e-06
27,1.6728918816892241e-06,2.906622515744756e-06,2.0242994247985194e-06,1.7401463569144715e-06,2.556862253137371e-06,2.545482747327984e-06,1.449607374741645e-06,1.9687854591641156e-06,5.684300417273253e-06,4.391892907523696e-05,5.353280378396205e-06,3.135151616837587e-06,2.944391588056217e-06,3.862126566557157e-05,1.2147776744700545e-06,1.787825096788584e-06
28,1.6728720984077912e-06,2.8760285907102094e-06,2.0256453139846958e-06,1.7330294589145632e-06,2.5389387483352793e-06,2.541598708686812e-06,1.4070728005912138e-06,1.9198979872825503e-06,5.772616648147538e-06,4.543031225394563e-05,4.962343494867813e-06,3.0398875043251623e-06,3.0562853135946708e-06,3.850400866920815e-05,1.2384704543739355e-06,1.7823665750145957e-06
29,1.6728017101361971e-06,2.8364391067689986e-06,2.0200244665845537e-06,1.727200977112122e-06,2.5188377713075215e-06,2.527643737835159e-06,1.3692504264939895e-06,1.8669595135849197e-06,5.865270634633352e-06,4.697226173948094e-05,4.591023639367849e-06,2.947515465253102e-06,3.1848769984270803e-06,3.830927944828224e-05,1.2613915190506258e-06,1.7768683765366578e-06
30,1.6728248639753175e-06,2.788326268652192e-06,2.007347168521728e-06,1.7225537787454318e-06,2.4969380248592447e-06,2.5038458652136377e-06,1.3363628418649447e-06,1.8112513613020303e-06,5.962214200589429e-06,4.856033684982343e-05,4.240948897884542e-06,2.859341591240265e-06,3.3307407447422606e-06,3.805339937521072e-05,1.28371289060237e-06,1.7716187790240406e-06
31,1.673115629496811e-06,2.732664466762234e-06,1.988049302256096e-06,1.7188180241407052e-06,2.473527393771672e-06,2.470580874304058e-06,1.3085433130902123e-06,1.7542509479527424e-06,6.062425361050641e-06,5.020399865505944e-05,3.913474559827336e-06,2.776820158394103e-06,3.4940366305099185e-06,3.775643077627807e-05,1.3056693522253483e-06,1.7667487063779914e-06
32,1.673838091266665e-06,2.6709027011941684e-06,1.962996224507337e-06,1.715489618636798e-06,2.4486621628495856e-06,2.428619209954065e-06,1.2859436008448713e-06,1.697510040058983e-06,6.164056345437965e-06,5.190309511802086e-05,3.609698800983425e-06,2.7013450696136324e-06,3.674550923432995e-06,3.743747935284263e-05,1.3275780684543778e-06,1.7621839840496666e-06
33,1.675128998290633e-06,2.6047848138380234e-06,1.933209473592826e-06,1.7118132240189032e-06,2.422145316153406e-06,2.379201624463112e-06,1.2687688949908389e-06,1.642435565609283e-06,6.264453824594911e-06,5.364652454303129e-05,3.33048865815125e-06,2.634020318054348e-06,3.871775741584286e-06,3.7112509943507126e-05,1.349836111670826e-06,1.7576783745302456e-06
34,1.6770447364134388e-06,2.536173764668193e-06,1.899626815942514e-06,1.7068587069649194e-06,2.393739047191563e-06,2.3240291903147938e-06,1.257172777934774e-06,1.5901497499557947e-06,6.3602720436855565e-06,5.541176301987679e-05,3.0764518506254908e-06,2.575505189653703e-06,4.08525583912039e-06,3.679515809060952e-05,1.372901566448302e-06,1.752907085818181e-06
35,1.6794748009899319e-06,2.466908699639978e-06,1.8630359635283951e-06,1.69968463904568e-06,2.3634821983131772e-06,2.2652056418948695e-06,1.2511495258775276e-06,1.5414798533100004e-06,6.447842826451621e-06,5.716447228471449e-05,2.8478378997973994e-06,2.5260120179441706e-06,4.3149155954333e-06,3.649834758075026e-05,1.3972411779768294e-06,1.7475739191338987e-06
36,1.6821378228444725e-06,2.398635703921312e-06,1.8240964037258776e-06,1.68954384634989e-06,2.3317743121739927e-06,2.20506569271182e-06,1.2505553201684959e-06,1.4970048093362158e-06,6.523498018052768e-06,5.8858347560579354e-05,2.6444361345792613e-06,2.4854646290918612e-06,4.560986252338702e-06,3.623595412100673e-05,1.4232864327574962e-06,1.7415158246423493e-06
37,1.6847340573244898e-06,2.3327125353583953e-06,1.7833792115679443e-06,1.6760559614187898e-06,2.2992044727775988e-06,2.145898473359487e-06,1.2551793935212221e-06,1.4570785795823511e-06,6.5836202152955706e-06,6.0436644862046034e-05,2.4655118299690573e-06,2.453733770067039e-06,4.823633308314763e-06,3.6025213704879125e-05,1.451394810237041e-06,1.7348016938915028e-06
38,1.6871354282093945e-06,2.2703019975397023e-06,1.7413943885364956e-06,1.659315775199031e-06,2.266463389145577e-06,2.0897011915463386e-06,1.2647390045334524e-06,1.4218265180446597e-06,6.6246575523120466e-06,6.183748816355122e-05,2.3097761023522893e-06,2.430828093636682e-06,5.1025412840269264e-06,3.588867949579764e-05,1.481772002521707e-06,1.7277750726860702e-06
39,1.6894684126331115e-06,2.2125261757613282e-06,1.6986216184964737e-06,1.6399114134172994e-06,2.2344211603489744e-06,2.0380789595731055e-06,1.278841812925266e-06,1.3911569261395827e-06,6.643386023407021e-06,6.300208452213542e-05,2.1754197612433847e-06,2.416936685579995e-06,5.3965903467523334e-06,3.585316465356875e-05,1.51439528786367e-06,1.7209909541224237e-06
40,1.6920877192467685e-06,2.1605013459166315e-06,1.6556037441551943e-06,1.6187980410436767e-06,2.204115648897215e-06,1.992253412982593e-06,1.2969938891532922e-06,1.3648025668461495e-06,6.637342623503404e-06,6.388119483126143e-05,2.060244269679457e-06,2.4122894122999127e-06,5.703687031288984e-06,3.5945489691416976e-05,1.5490016676665638e-06,1.7150608971185565e-06
41,1.6954899690693545e-06,2.1152525843873963e-06,1.6129880629196302e-06,1.5970443032071421e-06,2.176563727971872e-06,1.9530662841956905e-06,1.3186275504872681e-06,1.342368453274656e-06,6.6051052838000975e-06,6.44351890930062e-05,1.9618237407535067e-06,2.4169178411750245e-06,6.0208287375538015e-06,3.61881530687275e-05,1.585200605339142e-06,1.7104886755947227e-06
42,1.7001786146332458e-06,2.0776165570356063e-06,1.571395046695876e-06,1.5755805314039142e-06,2.152594399655437e-06,1.920951437776628e-06,1.3431347986863907e-06,1.3233457273050433e-06,6.546206051089999e-06,6.462813672562746e-05,1.877596951212347e-06,2.430448096750223e-06,6.344447391480594e-06,3.659727232530715e-05,1.6226945341904033e-06,1.7075892417705275e-06
43,1.7065258378358444e-06,2.0481973236145714e-06,1.531263555898006e-06,1.55507575254997e-06,2.1328306827914365e-06,1.8959269221596767e-06,1.3698846020792537e-06,1.3071339929823748e-06,6.460660685015077e-06,6.442438706776288e-05,1.8049358009789938e-06,2.451993650779716e-06,6.670768658873836e-06,3.718212477129152e-05,1.6614135698151581e-06,1.7065060832781064e-06
44,1.7147572889697273e-06,2.027344719915748e-06,1.492849524245015e-06,1.5359476312120791e-06,2.1177006764208568e-06,1.8776489175888513e-06,1.3981800646851632e-06,1.2931514469710007e-06,6.348380278979802e-06,6.379528708786106e-05,1.7413361077732485e-06,2.4801457969499986e-06,6.995831591571294e-06,3.7945387238165806e-05,1.701439287636769e-06,1.7072416488057776e-06
45,1.7250953404907205e-06,2.01513881973281e-06,1.456313334367376e-06,1.5183989854766125e-06,2.107379401718732e-06,1.865535943755309e-06,1.4272129909755333e-06,1.2809799022247647e-06,6.209098729999376e-06,6.273112805294624e-05,1.6847101786957385e-06,2.51300820792331e-06,7.315260084025272e-06,3.8883745973768224e-05,1.7428623967096373e-06,1.709646136257381e-06
46,1.7378769394597265e-06,2.011429589119834e-06,1.4217414352309856e-06,1.5024064602619637e-06,2.1017268320347818e-06,1.8588787643470878e-06,1.4560702696679083e-06,1.2704583642086993e-06,6.043062477718747e-06,6.124656083172107e-05,1.6335510457491349e-06,2.5482055145423424e-06,7.6240282352958815e-06,3.998783781095239e-05,1.7857094633187572e-06,1.7134223152735073e-06
47,1.7534839616852644e-06,2.0159052555398685e-06,1.3891259805369767e-06,1.4876983425520267e-06,2.1002685285647294e-06,1.856831672943228e-06,1.4837879285727786e-06,1.2617143433199895e-06,5.851782053070841e-06,5.9374732809938495e-05,1.5868254232560055e-06,2.5828923959238765e-06,7.916215455111573e-06,4.1241231060545216e-05,1.8298921809385755e-06,1.7181517681989482e-06
48,1.7722035172682296e-06,2.028084886892648e-06,1.3584028822948177e-06,1.4738058715151402e-06,2.1022099987775945e-06,1.8583670340031062e-06,1.509489898228757e-06,1.2551078444450408e-06,5.63815941838037e-06,5.7157112225616693e-05,1.5437428830459238e-06,2.6138614058744617e-06,8.18499542259057e-06,4.261975277344392e-05,1.8752120080560067e-06,1.7232572293126323e-06
49,1.7941839411445313e-06,2.0472573118607224e-06,1.3294788351879021e-06,1.4602447651810288e-06,2.1064940380004153e-06,1.8623474427703624e-06,1.5325534894133511e-06,1.2510740531116798e-06,5.406134699776631e-06,5.463953605579204e-05,1.503651754900044e-06,2.6377861473645124e-06,8.423260741168955e-06,4.4091929103988056e-05,1.9215043985022255e-06,1.7279263744391105e-06
50,1.8194276097014987e-06,2.0725131532934895e-06,1.3021566354641295e-06,1.4467664862370867e-06,2.1119539174271505e-06,1.8677129625964697e-06,1.5526317170425642e-06,1.2499496161505966e-06,5.160278092780054e-06,5.1874531474046405e-05,1.4661300903724668e-06,2.651585436007193e-06,8.624618972901006e-06,4.561988529398086e-05,1.9687696568290718e-06,1.7311285703994814e-06
51,1.8477642924484838e-06,2.1028586792876625e-06,1.2760634015661037e-06,1.4334842500201096e-06,2.1176199641103344e-06,1.8736819477343113e-06,1.569526132799984e-06,1.251885032383508e-06,4.905386823796472e-06,4.892105580845413e-05,1.4311308996882978e-06,2.6528297290349397e-06,8.784097299371093e-06,4.716042921380049e-05,2.0171030784172455e-06,1.731807578338739e-06
52,1.8788889752106586e-06,2.1372441818634532e-06,1.2507211976352496e-06,1.4207532849311568e-06,2.1229987976775053e-06,1.879863649296775e-06,1.5830583524412856e-06,1.2568738738337563e-06,4.645984268616776e-06,4.583896297819307e-05,1.3989945458845121e-06,2.640014342000361e-06,8.898283698510285e-06,4.866723578471359e-05,2.066508577256095e-06,1.7292014884480076e-06
53,1.9124245159516625e-06,2.174557879259694e-06,1.2257246474623213e-06,1.4089176919802779e-06,2.128011395400919e-06,1.8862298495898636e-06,1.5929922624818424e-06,1.2648422959706031e-06,4.385901136746708e-06,4.268335106840202e-05,1.370264812048097e-06,2.612625707652842e-06,8.965059373842577e-06,5.009472485896304e-05,2.1167654104398717e-06,1.723114779918329e-06
54,1.947884588219135e-06,2.213748495555575e-06,1.2008911861427875e-06,1.3981249119959789e-06,2.1326876759111417e-06,1.893000286605395e-06,1.5989963825890831e-06,1.2757171684887756e-06,4.128211155201722e-06,3.950210684576917e-05,1.3454269562307957e-06,2.5711284995522413e-06,8.983051863056559e-06,5.140247873507963e-05,2.167373615392566e-06,1.7139821537554288e-06
55,1.984615917078554e-06,2.2539478924625073e-06,1.1763166052079022e-06,1.3883077224620753e-06,2.1370035296756037e-06,1.90053529048357e-06,1.6007432601078777e-06,1.2895192105728502e-06,3.875447952115228e-06,3.6335563045343724e-05,1.324734159631424e-06,2.516936613352921e-06,8.95098190532802e-06,5.255786723270113e-05,2.217554769950547e-06,1.7027011975573786e-06
56,2.021831258206696e-06,2.294389778289005e-06,1.1523220150246212e-06,1.3793075851936819e-06,2.140956466283343e-06,1.9092599268232353e-06,1.5981925113795733e-06,1.3065073590669832e-06,3.629784068837551e-06,3.321693210650518e-05,1.3081755228652522e-06,2.4522375811946213e-06,8.867686672552095e-06,5.353522448452511e-05,2.2663244671922063e-06,1.6903864756654794e-06
57,2.058714640909018e-06,2.3341941551193212e-06,1.1293095700464154e-06,1.371017631318239e-06,2.144717332615085e-06,1.919600961316616e-06,1.5918367965754943e-06,1.3271930180984297e-06,3.3930532710651607e-06,3.017369179980545e-05,1.295542633998976e-06,2.3796075416159643e-06,8.733264113922446e-06,5.4311562650331886e-05,2.3126446630176763e-06,1.6782146731656924e-06
58,2.094673064107665e-06,2.372263479191922e-06,1.1076545587430113e-06,1.3634140374886308e-06,2.1487099156274582e-06,1.9319406173959938e-06,1.5826424540341765e-06,1.3521472057635726e-06,3.1667942865647217e-06,2.7229612920514757e-05,1.2865320701673224e-06,2.3016015694795225e-06,8.550262416510974e-06,5.486159048264281e-05,2.35556569053284e-06,1.6673096581946376e-06
59,2.129695955345139e-06,2.4074466012282927e-06,1.0877301542979094e-06,1.3565015185867093e-06,2.1535375449975067e-06,1.9465926732327644e-06,1.5717367130162512e-06,1.381795510185646e-06,2.9523844517683414e-06,2.4406009859652686e-05,1.2807994425521536e-06,2.220550441370791e-06,8.32373885421486e-06,5.515822733597655e-05,2.3942034649343817e-06,1.658588483946805e-06
60,2.164439187351599e-06,2.4388656927230935e-06,1.069950957189621e-06,1.3503256268586259e-06,2.1598034130422865e-06,1.9637847689484435e-06,1.5601467077954643e-06,1.4163680708744435e-06,2.7510694520583237e-06,2.172152523036671e-05,1.2779251587925133e-06,2.138553388653581e-06,8.060361699007555e-06,5.518111735646742e-05,2.427603639619304e-06,1.6526696582944366e-06
61,2.199881146592444e-06,2.4661635002132833e-06,1.054723110490768e-06,1.345052370798129e-06,2.167972243789812e-06,1.983619524771493e-06,1.548726061073378e-06,1.4559548827398644e-06,2.5638354253136508e-06,1.9191267832018933e-05,1.2773839529083419e-06,2.057478477245042e-06,7.767271668383644e-06,5.492493755329557e-05,2.454678655741704e-06,1.6498819217567808e-06
62,2.236908842886304e-06,2.48953588902639e-06,1.0423677384919663e-06,1.3409544006838854e-06,2.1783440165037758e-06,2.0059941922440777e-06,1.5381403878624362e-06,1.5005175203289252e-06,2.391363895517286e-06,1.6826508171326367e-05,1.2786143388391554e-06,1.978908107735484e-06,7.451135162527438e-06,5.439786627465729e-05,2.474272827078814e-06,1.650285530791693e-06
63,2.2761032625819174e-06,2.509549176534533e-06,1.0331037817945906e-06,1.3383017546926535e-06,2.1910752106586644e-06,2.0305219501952153e-06,1.5288462224675559e-06,1.5498178806311067e-06,2.2341719571718595e-06,1.4635092196271098e-05,1.281140777952903e-06,1.904133840935604e-06,7.117788091490742e-06,5.3612704903960765e-05,2.4853685400748872e-06,1.6537011189452085e-06
64,2.3176508654607895e-06,2.526821966020574e-06,1.0270928918847158e-06,1.3373118249501105e-06,2.206167065772983e-06,2.056515738159208e-06,1.5211038762348075e-06,1.6033485859329281e-06,2.0926981585215086e-06,1.2621821443641286e-05,1.2846279129346233e-06,1.8342188187527961e-06,6.772622127958428e-06,5.2581305140405e-05,2.487334403211799e-06,1.6597664467489942e-06
65,2.3612906860669347e-06,2.541745489588252e-06,1.024484951383046e-06,1.3381769239122932e-06,2.223423202930212e-06,2.083035999466326e-06,1.5149786981229997e-06,1.6603155224076596e-06,1.9671956147160744e-06,1.0788542279900333e-05,1.2888200312065972e-06,1.7700343777281445e-06,6.4211202600827225e-06,5.131630691730165e-05,2.4799735576605223e-06,1.6679531136512798e-06
66,2.4063052076986087e-06,2.5543745359958652e-06,1.0253856378047474e-06,1.3410598358972756e-06,2.2424351104786596e-06,2.109000864367043e-06,1.5103076907705824e-06,1.719669919060537e-06,1.857611209767205e-06,9.134340303647374e-06,1.2934569437827476e-06,1.7122767227280707e-06,6.06887762926423e-06,4.9834542968908825e-05,2.4633221953307176e-06,1.677531583182006e-06
67,2.451606507311033e-06,2.564413122118833e-06,1.0297720247958923e-06,1.3460289106979189e-06,2.262618297833761e-06,2.133313429022906e-06,1.5067296841636025e-06,1.7802042218732015e-06,1.763617111691503e-06,7.655980334553335e-06,1.298285685280071e-06,1.6614942645884262e-06,5.721156709930904e-06,4.815631299283978e-05,2.437439719477875e-06,1.6875919613890872e-06
68,2.495910461764747e-06,2.571192185229895e-06,1.0374626174916722e-06,1.3530229402490334e-06,2.2832508242081437e-06,2.1548988607519416e-06,1.5038410934531963e-06,1.8406638170907083e-06,1.6847482835905533e-06,6.3483585310944235e-06,1.3031441463468624e-06,1.618065327983254e-06,5.382493074778934e-06,4.630100402959018e-05,2.4024569540466535e-06,1.6971834625461687e-06
69,2.5378541714680274e-06,2.5737349115413215e-06,1.0481454713283289e-06,1.3619298454730116e-06,2.3034912822368092e-06,2.172695901218382e-06,1.5013988433283842e-06,1.8997657848779539e-06,1.6204877551281291e-06,5.204828398339425e-06,1.307994601115549e-06,1.5821358832548842e-06,5.056718060082194e-06,4.4285204191696104e-05,2.358830891988259e-06,1.7055051912339066e-06
70,2.5760460272709114e-06,2.5710591874229e-06,1.061375084612467e-06,1.3727222942779202e-06,2.3224506443177766e-06,2.1857915232731204e-06,1.499393295496934e-06,1.9562050095853085e-06,1.5702411408506635e-06,4.2174901351120686e-06,1.3128735804178969e-06,1.5536056309875607e-06,4.7472127455310516e-06,4.212727207828769e-05,2.307494850638739e-06,1.7120088410213978e-06
71,2.609293655082506e-06,2.5626466564383506e-06,1.0765366479267994e-06,1.385506705094492e-06,2.3393275413786225e-06,2.1936958805753308e-06,1.497910803740152e-06,2.0088548408161167e-06,1.5333262485539523e-06,3.3774715375146715e-06,1.3178349388556492e-06,1.5321577348032275e-06,4.4569386614864375e-06,3.9853481068972526e-05,2.249780432956737e-06,1.7163138104869073e-06
72,2.637013490284539e-06,2.5487618408630505e-06,1.0928762235832023e-06,1.400438803691128e-06,2.3534417320282384e-06,2.1964993032805913e-06,1.4969663482272063e-06,2.057080927810119e-06,1.5090322210473527e-06,2.675110483168322e-06,1.322916996173744e-06,1.5172602927115814e-06,4.188177674776429e-06,3.7498906863903476e-05,2.187227533397875e-06,1.7180205652206975e-06
73,2.659388685741845e-06,2.530339314309457e-06,1.1096346365530363e-06,1.4175845398999366e-06,2.364127323905927e-06,2.194762894409456e-06,1.4964768369806982e-06,2.100844209012876e-06,1.496607105034165e-06,2.1000954443888025e-06,1.3280937623589296e-06,1.508153726814281e-06,3.94229674479179e-06,3.510277362586427e-05,2.1213608630334215e-06,1.716633270544461e-06
74,2.6770296961418417e-06,2.508537121385798e-06,1.1261783305642301e-06,1.4368373774137194e-06,2.3707511613187444e-06,2.1892962708852856e-06,1.4962726765163542e-06,2.1404799850649588e-06,1.495139374282581e-06,1.6416797469143434e-06,1.3332552667028459e-06,1.5039024657894987e-06,3.719724919457211e-06,3.270246718470453e-05,2.053466678893421e-06,1.7116285890003031e-06
75,2.690461958840824e-06,2.484390684638622e-06,1.141983987745563e-06,1.4579342401406915e-06,2.373000360475624e-06,2.1810119182950934e-06,1.496041854394078e-06,2.176358747481245e-06,1.503467787129209e-06,1.2888857187204565e-06,1.338266612943387e-06,1.5035135812805616e-06,3.520068727895426e-06,3.032973586771934e-05,1.9844662181501542e-06,1.7025275253936982e-06
76,2.6999012881094424e-06,2.4587912222505348e-06,1.1564982423700075e-06,1.48050611870079e-06,2.371186530052867e-06,2.1708545371767326e-06,1.4952699452096606e-06,2.2086400835978e-06,1.520214231595681e-06,1.0305785115624381e-06,1.34299539009776e-06,1.5060250770497802e-06,3.342323733584772e-06,2.800986100212594e-05,1.914959848307496e-06,1.6889534327513702e-06
77,2.7054697955790686e-06,2.4325434795082815e-06,1.1690625436813246e-06,1.504103748956249e-06,2.366264468171917e-06,2.1597347040241946e-06,1.4932321438054728e-06,2.2371409976187526e-06,1.5439499238140439e-06,8.555483539134399e-07,1.3472575996466589e-06,1.5104800572704891e-06,3.1852063905297743e-06,2.576255061358167e-05,1.8453490354049023e-06,1.670759227583675e-06
78,2.7076575233830153e-06,2.406281540164321e-06,1.1790116701747302e-06,1.5281938574301145e-06,2.3595320548311456e-06,2.1484693401595823e-06,1.4890635226525928e-06,2.261303905606139e-06,1.5733629403869529e-06,7.52781781948722e-07,1.3508238851196258e-06,1.5158478413031018e-06,3.047437975371501e-06,2.3603028950456423e-05,1.775905206380297e-06,1.6481424508196147e-06
79,2.7076205012685614e-06,2.3804079815249675e-06,1.1858178777004305e-06,1.5521300939068965e-06,2.3522121348607615e-06,2.1377370619675945e-06,1.4819319127186557e-06,2.2803049153600133e-06,1.6072687878249055e-06,7.117293016570969e-07,1.3535275200451622e-06,1.520994058959459e-06,2.9277633953255372e-06,2.154266520863818e-05,1.7068488293976802e-06,1.621584093471012e-06
80,2.707032856784456e-06,2.355202383891319e-06,1.189105232753248e-06,1.575181249882319e-06,2.3451694589210335e-06,2.1280085946855214e-06,1.471255964488318e-06,2.2932767973625565e-06,1.6445195257178296e-06,7.222946680393451e-07,1.3553222162163331e-06,1.5246981533224946e-06,2.8247902463701627e-06,1.9589379981779157e-05,1.638468635698913e-06,1.5916587128302984e-06
81,2.707646433470839e-06,2.330894602548611e-06,1.188592826042805e-06,1.596729136439101e-06,2.338852837543838e-06,2.1194733576264296e-06,1.456862413414799e-06,2.299544918079195e-06,1.683936775181354e-06,7.746882555942155e-07,1.356232771044861e-06,1.5257900027449172e-06,2.736912124997809e-06,1.774813157505031e-05,1.5711341779091083e-06,1.558935555072807e-06
82,2.7109608818461214e-06,2.307559087405004e-06,1.184125982178972e-06,1.6165412718512414e-06,2.33337373002581e-06,2.1120650389462744e-06,1.4389991055978307e-06,2.2987926033348278e-06,1.7243339217455165e-06,8.593796513655406e-07,1.356311966809332e-06,1.523486099922703e-06,2.6624007056687884e-06,1.6021365486270373e-05,1.5052751700782317e-06,1.524015635968201e-06
83,2.718150174606465e-06,2.285022638703236e-06,1.1757346299632753e-06,1.6348565738394307e-06,2.328661580671192e-06,2.1056185007153803e-06,1.4181885990504494e-06,2.2911303430232024e-06,1.7646511368741128e-06,9.67155241942759e-07,1.355642509233164e-06,1.5176806936345825e-06,2.5995369089049127e-06,1.4409429304250068e-05,1.4414799630863511e-06,1.4875638387738043e-06
84,2.7300455159269757e-06,2.262930613968349e-06,1.1635992050312207e-06,1.6521932662618456e-06,2.32468692469992e-06,2.100074023200389e-06,1.395058591729465e-06,2.277095674683909e-06,1.8040345733102268e-06,1.0893540224948472e-06,1.3543195102377549e-06,1.5088891238273275e-06,2.546658742332362e-06,1.2911178969200188e-05,1.3805329759842383e-06,1.450284435712851e-06
85,2.747069833885014e-06,2.2408646253051478e-06,1.1480098636816523e-06,1.6691057020427438e-06,2.3216112092408054e-06,2.095614971487724e-06,1.3702994411262427e-06,2.2576124142335987e-06,1.8417021122574859e-06,1.2183251354364643e-06,1.352425387538492e-06,1.497929191933021e-06,2.5021770648038014e-06,1.1524566878527418e-05,1.323261649766057e-06,1.4128769841853429e-06
86,2.7692336402300564e-06,2.2184079276150504e-06,1.1294008683150822e-06,1.6861347836988046e-06,2.3196975457737996e-06,2.0926637982277494e-06,1.344674658587935e-06,2.2339012907953992e-06,1.8767844618482758e-06,1.3478401618663694e-06,1.3500441912340397e-06,1.4856292476315216e-06,2.4647430694539344e-06,1.0246813636056682e-05,1.2703545449095306e-06,1.3760454505974066e-06
87,2.7961857734250483e-06,2.195181043173751e-06,1.108361732309642e-06,1.7038985175094832e-06,2.3191015525934534e-06,2.0917475839724863e-06,1.3189543834511577e-06,2.207327160237973e-06,1.9083329484265324e-06,1.4731986474533227e-06,1.3472913974894582e-06,1.472715182706571e-06,2.433531275969377e-06,9.074304961510515e-06,1.222283917555924e-06,1.3405979820121143e-06
88,2.8272149217575338e-06,2.1708965042970145e-06,1.0855440530486183e-06,1.7231263292750085e-06,2.3197660512336168e-06,2.093304620093168e-06,1.2938139668489545e-06,2.179205053440579e-06,1.935414150684506e-06,1.5910013501078503e-06,1.3443213486538306e-06,1.4598617674216338e-06,2.4082879241032517e-06,8.002662235115331e-06,1.1793361778611449e-06,1.307496261909148e-06
89,2.8613113048162517e-06,2.1454697564858513e-06,1.061540207011758e-06,1.7445651712350057e-06,2.3214228095088817e-06,2.0974937972490655e-06,1.2697792451729627e-06,2.15065207409663e-06,1.957238271284464e-06,1.698717263792303e-06,1.3413076604571551e-06,1.4477884423634889e-06,2.389045589782973e-06,7.0270966148761334e-06,1.14168124428357e-06,1.2777450744144971e-06
90,2.897423288972285e-06,2.1191797874797586e-06,1.0368701533833532e-06,1.7688187271001089e-06,2.3236880076084908e-06,2.1040765809994058e-06,1.2472446490420264e-06,2.1225821953594144e-06,1.973327168590147e-06,1.794395989808976e-06,1.3384209031967544e-06,1.4372844828742805e-06,2.375808109362687e-06,6.1427251167883985e-06,1.1094192799196282e-06,1.2522268566581707e-06
91,2.9347207565109806e-06,2.092761275070464e-06,1.012094249188614e-06,1.7962396961833926e-06,2.3262872970749133e-06,2.1124471669550056e-06,1.226537789915439e-06,2.095785650619112e-06,1.983614492178741e-06,1.876806751197739e-06,1.335831646700403e-06,1.4291578149367175e-06,2.3684057387827418e-06,5.3445997066539484e-06,1.082649595933119e-06,1.2316062816186525e-06
92,2.9726184796509765e-06,2.067298293202503e-06,9.878926366349362e-07,1.8269378505871701e-06,2.3292104210782524e-06,2.121773236999775e-06,1.2079506408378268e-06,2.0709167568068736e-06,1.988405988770086e-06,1.9456301635253877e-06,1.3337051470788634e-06,1.4241477729019433e-06,2.3665361947544386e-06,4.627667529499738e-06,1.0615727201262959e-06,1.2163202819915942e-06
93,3.0105725094748e-06,2.0439686965438085e-06,9.649959827133901e-07,1.8608205501000279e-06,2.332565571617832e-06,2.131101445248612e-06,1.1917299329687043e-06,2.0483792419800753e-06,1.9882706427002088e-06,2.001200412706376e-06,1.3321564130520276e-06,1.4228255656239542e-06,2.3699432646999933e-06,3.9869525245051665e-06,1.0465048858789742e-06,1.2066160511617512e-06
94,3.0477886601079177e-06,2.0238163535069318e-06,9.440756500868314e-07,1.8975926421495892e-06,2.336297141228213e-06,2.1393832850533373e-06,1.1780814077214408e-06,2.028257456198984e-06,1.9839219791845676e-06,2.0440823495766883e-06,1.3312574772668045e-06,1.4255191928383546e-06,2.3785279019376943e-06,3.417776155922078e-06,1.0377793605436528e-06,1.2025834540967109e-06
95,3.082976001087822e-06,2.007627620284866e-06,9.257255755084779e-07,1.936800535436564e-06,2.3400523483178425e-06,2.145540426369696e-06,1.167165970043191e-06,2.0103297468074754e-06,1.9760790958043354e-06,2.074939611769302e-06,1.3311324739329242e-06,1.432312296973958e-06,2.3922635768961905e-06,2.9156694071124415e-06,1.0356595336209899e-06,1.204146683237916e-06
96,3.11429406087694e-06,1.995852157725867e-06,9.105078794465923e-07,1.9779558356239087e-06,2.343169292146923e-06,2.1486293422165257e-06,1.1590514148548932e-06,1.994115788625316e-06,1.9653297046092558e-06,2.094507691801548e-06,1.3319874131302174e-06,1.4431093413259498e-06,2.4110249537931177e-06,2.476102353057531e-06,1.0403170445766115e-06,1.211065471392908e-06
97,3.1396125988404605e-06,1.9885386373311585e-06,8.98995166346571e-07,2.0205789724945937e-06,2.344684468978263e-06,2.1479508866586286e-06,1.1536732819724258e-06,1.978992293902142e-06,1.952059180888543e-06,2.1034257154834545e-06,1.3340205939449249e-06,1.4576706052332907e-06,2.4344422181574062e-06,2.094453106670383e-06,1.0518314538859426e-06,1.2229847032960883e-06
98,3.1570390363089656e-06,1.9853183346483276e-06,8.917864215315637e-07,2.0640848338885196e-06,2.34346180240897e-06,2.142950356971225e-06,1.150857819112306e-06,1.9643682570371917e-06,1.9365173650575866e-06,2.1020489662660055e-06,1.3373381468373306e-06,1.4755619393167823e-06,2.4618751535505948e-06,1.766276612316985e-06,1.0701907170386897e-06,1.2394602972312152e-06
99,3.1654412880035623e-06,1.98543652001975e-06,8.894741880494615e-07,2.107682498302029e-06,2.3384813197824016e-06,2.1330571567966937e-06,1.1503514362457465e-06,1.94976540398522e-06,1.9190489811243956e-06,2.090365356450803e-06,1.341921962125833e-06,1.4960820445299244e-06,2.4925584509264125e-06,1.4875559693743257e-06,1.095306768297822e-06,1.2599324300349826e-06
100,3.1646063582707974e-06,1.9878459385041826e-06,8.925682050274299e-07,2.150449175669914e-06,2.32908341803507e-06,2.1177293670654583e-06,1.151801032039068e-06,1.9347064734358636e-06,1.9003033025443857e-06,2.068054268861992e-06,1.3476404443942962e-06,1.5182564433801552e-06,2.5257444678009788e-06,1.2546983369272725e-06,1.127034327298699e-06,1.2837170846481003e-06
101,3.1549213590234155e-06,1.9913936925109067e-06,9.014286923631237e-07,2.191504148280814e-06,2.3150301397325294e-06,2.096678203348927e-06,1.154732772991495e-06,1.9185231941663653e-06,1.8811577884962214e-06,2.0346910855566594e-06,1.3543380123814062e-06,1.5409768593803336e-06,2.5606592733957675e-06,1.0643248726981414e-06,1.1651460707567703e-06,1.3100319417295002e-06
102,3.136939777531244e-06,1.995003002160737e-06,9.16246689642615e-07,2.230123063010183e-06,2.2964861510930828e-06,2.0700318394429483e-06,1.15856570964526e-06,1.9002957484255217e-06,1.8624398647945846e-06,1.9899576682067796e-06,1.3619637664844278e-06,1.5632954369277504e-06,2.596378926572422e-06,9.13107976363343e-07,1.2092630362728894e-06,1.3380128380284463e-06
103,3.1112673253191583e-06,1.9977163163654107e-06,9.370586003903852e-07,2.265780946791107e-06,2.2739968455877414e-06,2.0382697330614487e-06,1.1626658444171748e-06,1.879070838011603e-06,1.8448065267535597e-06,1.9337333358127943e-06,1.3706308704866548e-06,1.5847123636391174e-06,2.6318580692556112e-06,7.97831160861292e-07,1.2587992279147564e-06,1.3667197373574757e-06
104,3.078663909336908e-06,1.998646922717981e-06,9.637815799765512e-07,2.2981997719558695e-06,2.248365208749556e-06,2.0019552075828433e-06,1.166489298503431e-06,1.854304936092452e-06,1.8288746781599442e-06,1.8661835894894274e-06,1.380558717043231e-06,1.6052515177422034e-06,2.6661621000138157e-06,7.155649447838485e-07,1.312948126895133e-06,1.3951611791921404e-06
105,3.039973577878951e-06,1.996981027175333e-06,9.962508471115447e-07,2.3273568375792794e-06,2.220416971864897e-06,1.961525198174516e-06,1.1697619286934402e-06,1.8262174561462595e-06,1.8153184142533684e-06,1.7880029533192002e-06,1.3919373285636181e-06,1.6252956687502193e-06,2.698758250604633e-06,6.637443085811347e-07,1.3706832059025774e-06,1.4223316714070454e-06
106,2.9958745091654003e-06,1.992080655401926e-06,1.034211508673189e-06,2.3533418492129357e-06,2.1908753507209824e-06,1.9173634743394674e-06,1.1725088283559629e-06,1.795745028755247e-06,1.8047398061818102e-06,1.700663629223388e-06,1.4048321475067393e-06,1.6453159171758432e-06,2.7296921504566312e-06,6.400904932663533e-07,1.4307588780591693e-06,1.4472261661371992e-06
107,2.9467812377149347e-06,1.9836384306329663e-06,1.0772821198630002e-06,2.3760968390847898e-06,2.160448344236427e-06,1.8699957740615562e-06,1.1748929115160019e-06,1.7641897097408536e-06,1.797469007028687e-06,1.6063578444772662e-06,1.419184110275317e-06,1.6656416827009443e-06,2.759519235176644e-06,6.425054721294921e-07,1.4917192360603345e-06,1.4688791547356687e-06
108,2.8929977347727872e-06,1.9717912866702142e-06,1.1249577602206694e-06,2.3952127271025287e-06,2.12992669158364e-06,1.8200866669124034e-06,1.1770440716598929e-06,1.7329097445103534e-06,1.793496229147663e-06,1.5076195459942145e-06,1.4348022000790607e-06,1.6863725809997686e-06,2.788968740409279e-06,6.690123704415714e-07,1.55192081685253e-06,1.4865280671811206e-06
109,2.834838111037089e-06,1.957090316304162e-06,1.1766331601907521e-06,2.4099050457931566e-06,2.1001371261128013e-06,1.7682626761537373e-06,1.1790257933018924e-06,1.703154514120759e-06,1.7925251202650288e-06,1.4069868353957715e-06,1.451300468295879e-06,1.7074647185988386e-06,2.8185202994075277e-06,7.176690083723461e-07,1.609624921534143e-06,1.4998213339484145e-06
110,2.772587263796632e-06,1.940293772861073e-06,1.2315817964777817e-06,2.419157593327423e-06,2.0718386785728858e-06,1.715038270603226e-06,1.1808949999061315e-06,1.6759439949943386e-06,1.7940180000650157e-06,1.3069716594891841e-06,1.4680486878784353e-06,1.7288921966221573e-06,2.8481362400950787e-06,7.864655352740428e-07,1.663232659224548e-06,1.508868332288307e-06
111,2.7065536538497464e-06,1.9221108042105288e-06,1.288914567507156e-06,2.421976302473114e-06,2.0456767043111723e-06,1.6609357767730108e-06,1.182727712165968e-06,1.652035447562268e-06,1.7971790222916824e-06,1.2101599175244485e-06,1.4841804828879536e-06,1.750728949911689e-06,2.877248091609311e-06,8.732872347137345e-07,1.7116130958535352e-06,1.5140934805178976e-06
112,2.637285612331242e-06,1.903103932151445e-06,1.3475993736298795e-06,2.4177117828312264e-06,2.022160824007589e-06,1.6066563029217378e-06,1.1845553664966374e-06,1.6320116307538287e-06,1.800975302275803e-06,1.1191714041929554e-06,1.4986740946111713e-06,1.7731308397780262e-06,2.904954085659931e-06,9.759323994986076e-07,1.7543102191617466e-06,1.5160563232912354e-06
113,2.565682789179751e-06,1.8837676273968551e-06,1.406561529623529e-06,2.4063580127568922e-06,2.001574684618822e-06,1.553133314013622e-06,1.186268556771939e-06,1.6163441523405512e-06,1.8043264208857368e-06,1.0365368421892087e-06,1.510489016157206e-06,1.7963176111688743e-06,2.9302940899924043e-06,1.0921753827149061e-06,1.791426178212355e-06,1.5153765881610611e-06
114,2.4929371151685464e-06,1.8645730529933498e-06,1.4647607407984296e-06,2.3886752126233285e-06,1.983858229272346e-06,1.5014064705344417e-06,1.1876048045473113e-06,1.6053562793387554e-06,1.8064448033820142e-06,9.6467420862572e-07,1.5187248266803557e-06,1.8205634169101437e-06,2.9524466127578234e-06,1.2199418559423913e-06,1.823245835414924e-06,1.5127125894642975e-06
115,2.4204601646660918e-06,1.84589442827409e-06,1.521131775972109e-06,2.3660663944447647e-06,1.9686145276308544e-06,1.4524083601927115e-06,1.18826892722237e-06,1.5991789903025687e-06,1.8070750997662396e-06,9.059701746391079e-07,1.522779221263773e-06,1.8460963418279819e-06,2.970811589586267e-06,1.3575373811966958e-06,1.849902291459096e-06,1.5086980445852963e-06
116,2.3497750645950903e-06,1.8279463117471276e-06,1.5744936435431864e-06,2.3403103852975065e-06,1.955282628420577e-06,1.4068278899758434e-06,1.1880539932833998e-06,1.5977514257220861e-06,1.8063857386943308e-06,8.62886345064929e-07,1.5224228891889196e-06,1.8729155752519423e-06,2.985051637842092e-06,1.5036809753393293e-06,1.8713025101697098e-06,1.5038840743014353e-06
117,2.282297750792368e-06,1.8107768991663569e-06,1.6236334527191776e-06,2.313334237657244e-06,1.9433415625970505e-06,1.3651283762518567e-06,1.1868188776867489e-06,1.6008273766700757e-06,1.8046476259133886e-06,8.381308573559786e-07,1.517701014380214e-06,1.9006747537347294e-06,2.995139880328299e-06,1.6573092049962098e-06,1.8873057233370925e-06,1.4987255437174623e-06
118,2.2191346565707227e-06,1.7942649558784153e-06,1.6675263542188776e-06,2.2870987040109175e-06,1.9324198213472637e-06,1.3276554314320906e-06,1.1844238796980658e-06,1.6079758782296629e-06,1.802020435977479e-06,8.349665718335437e-07,1.5087161896334869e-06,1.928716247152734e-06,3.0014051862912588e-06,1.8173798968310912e-06,1.8979989701217095e-06,1.4935571012300363e-06
119,2.1610149971165143e-06,1.7781455423868213e-06,1.7054736981912233e-06,2.2635041514271375e-06,1.922349202252814e-06,1.2946960473172499e-06,1.1807749842936664e-06,1.6185806639881513e-06,1.798566975933269e-06,8.574981911089514e-07,1.495482522606443e-06,1.956191526082019e-06,3.0045179024650322e-06,1.982758764094166e-06,1.9038585090973714e-06,1.4885492293849803e-06
120,2.1082883472853683e-06,1.7620896927979352e-06,1.7370683458392677e-06,2.2442479701392202e-06,1.9132763518536295e-06,1.2664197590925537e-06,1.175903438080824e-06,1.6318335289756901e-06,1.7943868090323114e-06,9.106877564669055e-07,1.4779796261783727e-06,1.9821617036605247e-06,3.005359950204185e-06,2.1521425783463244e-06,1.9056571956920114e-06,1.4836608065935596e-06
121,2.0609283910335567e-06,1.7457944314921019e-06,1.7620424192420416e-06,2.2307186337564858e-06,1.9058152785072588e-06,1.2427877471121748e-06,1.1699701854899475e-06,1.6467941042775448e-06,1.7896423404270643e-06,1.0000981100414893e-06,1.456321630142299e-06,2.0056606375177916e-06,3.004811686955706e-06,2.3240443745208163e-06,1.904174736662504e-06,1.478603938603488e-06
122,2.0186075255940294e-06,1.7290877489908855e-06,1.780114254361137e-06,2.22398081432693e-06,1.9010638922918138e-06,1.2235607905164602e-06,1.1632019921192256e-06,1.6626222871490243e-06,1.784432140969884e-06,1.1315760733023438e-06,1.4308626836030648e-06,2.025786910928953e-06,3.003541226647273e-06,2.496821174168381e-06,1.8999444699463542e-06,1.472908239478454e-06
123,1.980867177613619e-06,1.7120939868390788e-06,1.7910072213421466e-06,2.2247611614093353e-06,1.9003720835385365e-06,1.2083875747456293e-06,1.1557940319632944e-06,1.6788962533390054e-06,1.7786856839117906e-06,1.3110471571832614e-06,1.4021924462171526e-06,2.0418411162231167e-06,3.0019024192501153e-06,2.668659428749271e-06,1.8932340044141161e-06,1.4661224171090728e-06
124,1.9472339181093305e-06,1.6953766644824936e-06,1.7946698799774098e-06,2.2333907099356975e-06,1.9050042527364421e-06,1.1968626785750878e-06,1.1478405518748676e-06,1.6957558565420802e-06,1.7721618119806488e-06,1.5444882227322617e-06,1.3710816886146378e-06,2.053408677669787e-06,2.999996871226173e-06,2.8376077256020406e-06,1.8842033495861215e-06,1.4579903098512964e-06
125,1.9171602667150776e-06,1.6798917162049864e-06,1.7914532839467323e-06,2.249786872994895e-06,1.9159242404987504e-06,1.18858828981587e-06,1.13936540607795e-06,1.7137594348931467e-06,1.7645810433623674e-06,1.8380786665581627e-06,1.3383895335663434e-06,2.0603036361879994e-06,2.997760707753903e-06,3.0018140990313464e-06,1.8729998661431459e-06,1.4484285744553106e-06
126,1.8899672096548101e-06,1.6667424520342114e-06,1.7820419596675925e-06,2.273503169589425e-06,1.9337424917521126e-06,1.1832849952757641e-06,1.130412693512937e-06,1.7336090586672534e-06,1.7559107494969306e-06,2.1983945281357155e-06,1.3049524950175037e-06,2.0624556388603017e-06,2.9949645256084992e-06,3.1598804575107344e-06,1.8596704892859318e-06,1.4374095771785104e-06
127,1.8650027175841825e-06,1.6569129009827907e-06,1.7672220620691558e-06,2.30378361739849e-06,1.958743596424932e-06,1.1808142236533945e-06,1.1210787170355567e-06,1.7559338528184653e-06,1.746620924438623e-06,2.632400539790591e-06,1.2715333661241883e-06,2.059904554474571e-06,2.99119934065076e-06,3.3110681875287716e-06,1.8440353169797904e-06,1.4249351985557166e-06
128,1.8418885203964095e-06,1.651136986387315e-06,1.7476847726260182e-06,2.339608453045231e-06,1.9909335368230775e-06,1.1810839002719366e-06,1.111491388622658e-06,1.7811705680284732e-06,1.7376555713079526e-06,3.1471833005680822e-06,1.2388102393330568e-06,2.0529387664878157e-06,2.985881858613811e-06,3.455171248732905e-06,1.8257208568217734e-06,1.4110277797407636e-06
129,1.8205743563414677e-06,1.6498890298754316e-06,1.7239594800555953e-06,2.379729058081478e-06,2.0300589060029943e-06,1.1839904687144564e-06,1.1018442244985849e-06,1.8095305007239547e-06,1.7301360619857454e-06,3.7496534102112852e-06,1.2073377538966216e-06,2.042265578663396e-06,2.978314217405725e-06,3.5921520029532456e-06,1.804371277616906e-06,1.395629422940963e-06
130,1.8011496818457958e-06,1.6533841612198764e-06,1.6964552853757678e-06,2.4226907028013525e-06,2.075608731108026e-06,1.1894194965499478e-06,1.0924551151535707e-06,1.8410620345440247e-06,1.725069180137695e-06,4.446389235443179e-06,1.1775351873630993e-06,2.029096643221588e-06,2.967825406315153e-06,3.7218256960451288e-06,1.7798783215189006e-06,1.3785474000653262e-06
131,1.783631723227713e-06,1.661558241393328e-06,1.6655593769693098e-06,2.466883407536007e-06,2.126818159348477e-06,1.1972345629133134e-06,1.083766503063196e-06,1.8757239434786035e-06,1.7232271366972602e-06,5.243558221155946e-06,1.1497286224747688e-06,2.0150618978798467e-06,2.953850634643185e-06,3.843702231182623e-06,1.7524355793513179e-06,1.359556285944492e-06
132,1.7679287854491525e-06,1.6740483301057154e-06,1.6317458179705084e-06,2.5105496979816393e-06,2.1826472539929592e-06,1.2072465774199493e-06,1.0763245488974361e-06,1.913398693897033e-06,1.7251866359727304e-06,6.1468149501544814e-06,1.1241676557711408e-06,2.0019284325126985e-06,2.9358699636205746e-06,3.956853103086391e-06,1.7224205749534138e-06,1.3385074664041524e-06
133,1.7539051094630423e-06,1.690157367328452e-06,1.595636110825726e-06,2.5516578101005772e-06,2.241807600094195e-06,1.2191815630190884e-06,1.0707369816893141e-06,1.953994898852058e-06,1.7315179507084933e-06,7.161126853894302e-06,1.101038817744585e-06,1.9912870310000775e-06,2.9133672827550177e-06,4.059749139050672e-06,1.6903194503399763e-06,1.3153013626091933e-06
134,1.7413665967975867e-06,1.7088257083132696e-06,1.5579557850156677e-06,2.587766512814513e-06,2.302943979421949e-06,1.2327213015680137e-06,1.067566128524112e-06,1.997723596763933e-06,1.743058395350606e-06,8.290470419542425e-06,1.080528747754958e-06,1.9843952872495414e-06,2.885965184547202e-06,4.150207898075161e-06,1.6567457799117963e-06,1.2898312270319414e-06
135,1.7300141362105775e-06,1.7287049572904706e-06,1.5194265853098266e-06,2.616078327285159e-06,2.3649024751865783e-06,1.2476549617968743e-06,1.067235698220795e-06,2.045276726325723e-06,1.7610830189211434e-06,9.537415002790806e-06,1.062836471377792e-06,1.9821434148562696e-06,2.853610574862089e-06,4.225649898388882e-06,1.6223969219801108e-06,1.2620537255142948e-06
136,1.7195167397549343e-06,1.7484044365652501e-06,1.4807370020021233e-06,2.633758234404339e-06,2.426891538202592e-06,1.263988775140266e-06,1.0700213525593362e-06,2.097674029329065e-06,1.7872296729322215e-06,1.0902721057528005e-05,1.0480858181245835e-06,1.9850526624337896e-06,2.816560575533412e-06,4.283702353973198e-06,1.5879220943055995e-06,1.2320912546354251e-06
137,1.7096401679245109e-06,1.7668475855877967e-06,1.442616968900981e-06,2.6384933465643315e-06,2.4884064605181198e-06,1.2818770291866983e-06,1.0760736120222015e-06,2.155977819937949e-06,1.823243020797876e-06,1.2385068386867935e-05,1.0362604439071258e-06,1.9932990548639336e-06,2.775233443895126e-06,4.322778433734604e-06,1.553787927715721e-06,1.2001864398785087e-06
138,1.7002778017711563e-06,1.783543889136015e-06,1.40587557437117e-06,2.6290805548726476e-06,2.549013833440466e-06,1.3014635518987974e-06,1.0854485959840649e-06,2.2211676961273274e-06,1.8707698468673283e-06,1.3980948266068283e-05,1.0272518324414055e-06,2.0067338588999844e-06,2.7301706908975334e-06,4.3421772645005975e-06,1.5202050736719355e-06,1.1665861615235992e-06
139,1.691405558847167e-06,1.7985848476498244e-06,1.3713575180564604e-06,2.605602450383307e-06,2.6082564244852813e-06,1.3227803307606621e-06,1.0981772636791003e-06,2.2941187468589285e-06,1.9313314537876747e-06,1.5684575052124348e-05,1.020963189152013e-06,2.024878155814726e-06,2.6820264789461303e-06,4.341796920116075e-06,1.487205816733377e-06,1.131552612835336e-06
140,1.6830726150869243e-06,1.812345829063076e-06,1.3398914465569112e-06,2.5689966674578194e-06,2.665741428430722e-06,1.3457218085531729e-06,1.1143195985348505e-06,2.375511085940187e-06,2.0063422644391173e-06,1.7487515055515443e-05,1.0173293878382972e-06,2.046914968511058e-06,2.63138522465956e-06,4.321902441189181e-06,1.4548501846371468e-06,1.0954786192196555e-06
141,1.6754038151518606e-06,1.8251139473782574e-06,1.3122361948000952e-06,2.5204929046521687e-06,2.7211601858358705e-06,1.370064296418301e-06,1.1339460210360015e-06,2.4657260385529183e-06,2.0970357801080507e-06,1.9378002224743644e-05,1.0162253743234427e-06,2.0717366956688505e-06,2.5785468234987403e-06,4.283069694939348e-06,1.4233405438174817e-06,1.0589247253212313e-06
142,1.6685108921696979e-06,1.8368967150555298e-06,1.2890155580958943e-06,2.4614949874927997e-06,2.7741117751247094e-06,1.395527230482608e-06,1.1571314388236138e-06,2.5648229377376197e-06,2.2043524769575818e-06,2.1340272216865937e-05,1.017412720071789e-06,2.098080536921911e-06,2.5234857712978077e-06,4.226055166412761e-06,1.392972652917566e-06,1.0225135883086752e-06
143,1.6623921822089378e-06,1.8474226702583361e-06,1.2706769232764853e-06,2.39381616272448e-06,2.8240391652716257e-06,1.421805609213823e-06,1.1840189228210896e-06,2.6725345575311398e-06,2.3288878929004498e-06,2.3354039752036356e-05,1.0206091177132633e-06,2.124637979747393e-06,2.465995322539147e-06,4.151581047883279e-06,1.3641213386896507e-06,9.86798918815177e-07
144,1.6569544914307221e-06,1.8562094243848016e-06,1.2574783267483692e-06,2.319784008875151e-06,2.8705527740965614e-06,1.4484893823837163e-06,1.2148392889819257e-06,2.7882106646874773e-06,2.470912772931196e-06,2.5393947725897925e-05,1.025585116393431e-06,2.1500403991255293e-06,2.4059894891018517e-06,4.060431818699886e-06,1.337320131834062e-06,9.522217960147837e-07
145,1.6520630741173138e-06,1.8627233944650185e-06,1.249521580405343e-06,2.242017559187164e-06,2.9138241384322914e-06,1.4749457903825304e-06,1.249798316651502e-06,2.910756588195069e-06,2.6303941436106776e-06,2.7428994800072344e-05,1.0321768680778252e-06,2.1728819474206944e-06,2.3438163357036565e-06,3.953882469336957e-06,1.3132748778972885e-06,9.191157958536421e-07
146,1.647529831305617e-06,1.8666679228076658e-06,1.2468552553675912e-06,2.1630507438128796e-06,2.954552847363839e-06,1.5003301638754732e-06,1.2889288467353011e-06,3.0386206536036015e-06,2.8069284135715476e-06,2.9422409588563387e-05,1.0402059568964067e-06,2.191978995296036e-06,2.280285457351839e-06,3.833916735306814e-06,1.2927584388269737e-06,8.876848545240574e-07
147,1.643152366949385e-06,1.868222442189323e-06,1.2495505642918847e-06,2.0850494822912604e-06,2.993577468438946e-06,1.5237925783077863e-06,1.3320400253568566e-06,3.1697624564580046e-06,2.9996271869763937e-06,3.13331102704973e-05,1.049374361845145e-06,2.206734052920212e-06,2.216366701283068e-06,3.7030384829659936e-06,1.2764744066296615e-06,8.579694485626507e-07
148,1.638819033536858e-06,1.8680604700762039e-06,1.2576664696958486e-06,2.0097056154723515e-06,3.031534076454853e-06,1.5447770359069953e-06,1.3787518104504552e-06,3.301556012920917e-06,3.2070658010554376e-06,3.311994468198325e-05,1.059217231696122e-06,2.2172702318768824e-06,2.152871531416112e-06,3.564019410958465e-06,1.2649509190654372e-06,8.298548076466332e-07
149,1.6345330914359465e-06,1.867178754100491e-06,1.271203148669062e-06,1.9382391425839384e-06,3.0686698134156624e-06,1.563187916991578e-06,1.428561796646053e-06,3.4307633873966364e-06,3.4273129852944496e-06,3.4747965355834236e-05,1.0691603218242e-06,2.2242482170280653e-06,2.0903663473944755e-06,3.419814987639363e-06,1.2584715868347397e-06,8.031623010027496e-07
150,1.6303597386907676e-06,1.8666589782634593e-06,1.2901093513682288e-06,1.871451056035e-06,3.1047256188998104e-06,1.5792819230360606e-06,1.4809305504579909e-06,3.553727388747298e-06,3.658022357501256e-06,3.619323121715263e-05,1.0786479508347343e-06,2.228600234452594e-06,2.029296994285673e-06,3.273595321446786e-06,1.2570414459547614e-06,7.778121055590698e-07
151,1.6263849903286166e-06,1.8674859618250826e-06,1.314254177192063e-06,1.8097931451137858e-06,3.1389117104291684e-06,1.5934182523310984e-06,1.5352986176318852e-06,3.666733891221342e-06,3.896542183262936e-06,3.744222600037914e-05,1.0872505970810896e-06,2.231370627223519e-06,1.9701238296658343e-06,3.128794052982499e-06,1.2603887137038652e-06,7.539620213001297e-07
152,1.6226520916963137e-06,1.8704980996676084e-06,1.343364506165524e-06,1.7534016518308237e-06,3.1700343477476073e-06,1.6059105392902104e-06,1.5909865420450374e-06,3.7663814573445006e-06,4.139909484520242e-06,3.8486287260608953e-05,1.0947179217598933e-06,2.2335913776100078e-06,1.913272215513513e-06,2.9891065885769e-06,1.2680002279788326e-06,7.320453354299571e-07
153,1.619107353940286e-06,1.8764056251626031e-06,1.3770162248639216e-06,1.7021019283546995e-06,3.196680942605281e-06,1.6170058064313494e-06,1.6471199930824517e-06,3.849894094986735e-06,4.384688254472636e-06,3.9317768256186074e-05,1.1010140490995702e-06,2.2360961282319998e-06,1.859005241022176e-06,2.8583594751547327e-06,1.2791687602056799e-06,7.127099329795411e-07
154,1.615680772275082e-06,1.8857459322461158e-06,1.4146452313813391e-06,1.6554654375840808e-06,3.217272799009839e-06,1.6268437858261266e-06,1.7026769796064178e-06,3.915410483509658e-06,4.626944274221067e-06,3.993367088965935e-05,1.1063336441371092e-06,2.2393643729543394e-06,1.8075234420621809e-06,2.7402392321711685e-06,1.2930329848703138e-06,6.966961793667996e-07
155,1.6124645570364782e-06,1.898776179160102e-06,1.4555220994159161e-06,1.6129476055184776e-06,3.2300540015324908e-06,1.6353788729528632e-06,1.7565446892316417e-06,3.962200652643821e-06,4.862702344768668e-06,4.034363848791285e-05,1.1110509838515042e-06,2.2434944844315553e-06,1.7592384282316462e-06,2.638027816932973e-06,1.3086445518610778e-06,6.847149757760412e-07
156,1.6098382737881045e-06,1.915432701504233e-06,1.498744671902081e-06,1.573995469542312e-06,3.2333095879965217e-06,1.6423920301138646e-06,1.8075388895380078e-06,3.99062475377382e-06,5.0887864052938976e-06,4.057469645402465e-05,1.1155969204422537e-06,2.248290530201571e-06,1.7148277765264706e-06,2.5545068177500662e-06,1.325050245478939e-06,6.773878341348969e-07
157,1.6084483420957231e-06,1.9353968629947762e-06,1.5433216545509847e-06,1.538014340198413e-06,3.2258000225858685e-06,1.6475945968033267e-06,1.854524788460325e-06,4.001709412996855e-06,5.303534438751161e-06,4.0668553138453766e-05,1.1203198724993852e-06,2.2534378984616227e-06,1.6750039168108999e-06,2.4920111631939337e-06,1.3412967141302524e-06,6.752671535729221e-07
158,1.609037020035967e-06,1.9581540697883635e-06,1.5883268829209709e-06,1.504299581084628e-06,3.2070680907205856e-06,1.6507163306255786e-06,1.8966520665477999e-06,3.996566452495766e-06,5.5069196523932e-06,4.067335040536315e-05,1.1253868166354402e-06,2.2586529666825674e-06,1.6403299349670596e-06,2.4525035585635994e-06,1.356399413436443e-06,6.788889567557529e-07
159,1.6122318140131769e-06,1.983013146559093e-06,1.6329966005650144e-06,1.472137990720697e-06,3.1773904487873425e-06,1.651675599116282e-06,1.933497931611887e-06,3.976132667099731e-06,5.700042371166672e-06,4.063642987785769e-05,1.1307467177978127e-06,2.2636449652629683e-06,1.6112307816017962e-06,2.437591047008426e-06,1.3693963256288767e-06,6.887839510586062e-07
160,1.6184348161043758e-06,2.0092159870226783e-06,1.676661579267866e-06,1.441054908872056e-06,3.1374234645443603e-06,1.6509149375104422e-06,1.964976374927909e-06,3.941370904687795e-06,5.8843519940748795e-06,4.0602166203793575e-05,1.1361739758426213e-06,2.268005056316305e-06,1.5880265211576172e-06,2.4485117392964673e-06,1.3794425685475796e-06,7.05440745304513e-07
161,1.6278162858082833e-06,2.036152179831941e-06,1.7185987756708648e-06,1.4109539979869478e-06,3.0878333216363546e-06,1.649579497149898e-06,1.9910984827155795e-06,3.893557414420323e-06,6.061052135287328e-06,4.061181319224451e-05,1.141366424286405e-06,2.2712571089963615e-06,1.570874791936085e-06,2.486205828060524e-06,1.3858627236049678e-06,7.292627109861396e-07
162,1.6403317058348127e-06,2.0634827320555906e-06,1.7580189128880668e-06,1.3819988554909088e-06,3.029248855716088e-06,1.649282444684713e-06,2.0118367218930523e-06,3.8343113749409814e-06,6.2310991626029296e-06,4.0701644356287906e-05,1.145989218747455e-06,2.2729660869438544e-06,1.5597323982186354e-06,2.5515034360383734e-06,1.3881689681337425e-06,7.60561915323654e-07
163,1.6557455798193571e-06,2.0910610793555473e-06,1.7942485030781267e-06,1.3543811374103769e-06,2.9625164121274016e-06,1.6517357483283084e-06,2.027274916627005e-06,3.7653936718339823e-06,6.395755951142566e-06,4.0900326109861145e-05,1.149616600311954e-06,2.27268431705628e-06,1.554432716318104e-06,2.6452910982296823e-06,1.3860362587615565e-06,7.996459465160985e-07
164,1.6737180280284674e-06,2.1187799817192483e-06,1.8269317989876715e-06,1.3282305839360524e-06,2.8888999761061386e-06,1.6585576776458406e-06,2.0378974514579773e-06,3.688503844942675e-06,6.557025119367073e-06,4.122781748412243e-05,1.1516795632927572e-06,2.2698525450728814e-06,1.5547942240712653e-06,2.768641657371743e-06,1.3792606034005333e-06,8.469343392251715e-07
165,1.6939669535992376e-06,2.1465084731596274e-06,1.8561007225950235e-06,1.3037028840378687e-06,2.8100328046609646e-06,1.6711880439733261e-06,2.0446980550551676e-06,3.6052164570079576e-06,6.717439581789702e-06,4.169588301618602e-05,1.151536899719159e-06,2.2638249283143996e-06,1.5606577875913779e-06,2.923070203448151e-06,1.3678021645539067e-06,9.029419430809884e-07
166,1.7163747617138377e-06,2.1741204273063216e-06,1.882121920874064e-06,1.2810437220963643e-06,2.72771497966028e-06,1.6907992168518294e-06,2.04899163893648e-06,3.516980525290034e-06,6.879387704180313e-06,4.2308589746051624e-05,1.1486585166808419e-06,2.253910701692362e-06,1.5718493619584194e-06,3.1107585936850446e-06,1.3518835589262426e-06,9.681500522608626e-07
167,1.7409156046960597e-06,2.201523072808429e-06,1.9055758685475688e-06,1.2605092525045878e-06,2.6436869670463387e-06,1.7182388501055433e-06,2.0520755781249792e-06,3.4250564834852947e-06,7.044533590470911e-06,4.306184073043869e-05,1.142778874593381e-06,2.2393488733186945e-06,1.5880821666304144e-06,3.334362941411582e-06,1.331987470986171e-06,1.0429113580285233e-06
168,1.7675394591083939e-06,2.2286505948210084e-06,1.927112862361197e-06,1.2422406108158847e-06,2.5595088204670244e-06,1.754034070155351e-06,2.054943203156755e-06,3.3304003826868614e-06,7.213727228095366e-06,4.3942681353199684e-05,1.1338905080882567e-06,2.219329654786937e-06,1.6088407181895264e-06,3.596479542496566e-06,1.3087340090626094e-06,1.127425861733666e-06
169,1.7961995476423205e-06,2.2554333065517877e-06,1.947351120866024e-06,1.2262311899493098e-06,2.476660090568495e-06,1.7984318710541846e-06,2.058144706895405e-06,3.233593808778609e-06,7.387166784314754e-06,4.492917283231138e-05,1.122184159553062e-06,2.1931553037849486e-06,1.6333190312098664e-06,3.899184196777303e-06,1.2827936297531509e-06,1.2217919872861431e-06
170,1.8269183138237557e-06,2.2817131626974162e-06,1.9668258556499824e-06,1.212411197993424e-06,2.396730553554526e-06,1.8514120422810299e-06,2.0617788275219026e-06,3.1349201520628982e-06,7.56432335953075e-06,4.599132646587041e-05,1.1081058166543443e-06,2.1604821234944033e-06,1.6604199198250698e-06,4.243830755412645e-06,1.2549388895129343e-06,1.326150762243336e-06
171,1.8597259096593336e-06,2.3071048187547028e-06,1.985916439032545e-06,1.2007517699078659e-06,2.321414450133157e-06,1.91264532334397e-06,2.0655541668529873e-06,3.0346249350839313e-06,7.74383366059159e-06,4.70943772459546e-05,1.0924016495209025e-06,2.121520419449723e-06,1.6887952934197277e-06,4.631079487323784e-06,1.2261143449108532e-06,1.4408402888543188e-06
172,1.8945137865065128e-06,2.3309432418482286e-06,2.004744097167097e-06,1.191276161575237e-06,2.252272917176773e-06,1.98144662843822e-06,2.068835491776846e-06,2.9332461976641063e-06,7.923856469373257e-06,4.82044079951732e-05,1.0759755189954152e-06,2.077139976119482e-06,1.716932897858675e-06,5.061016011430866e-06,1.197359963692296e-06,1.5664105268211517e-06
173,1.9309269812330746e-06,2.352435836655543e-06,2.023102592656565e-06,1.1839755543245867e-06,2.1904967974503667e-06,2.0567968379284152e-06,2.0706303177847602e-06,2.8318033228787295e-06,8.102559876532603e-06,4.9293064032027026e-05,1.059686332763918e-06,2.0288620589384684e-06,1.7433121437212757e-06,5.533139898907825e-06,1.1696405017044303e-06,1.703452827591106e-06
174,1.9684136384176772e-06,2.3709021913341643e-06,2.0404226335682713e-06,1.178730838384621e-06,2.1368254425071896e-06,2.1374959106730965e-06,2.0696080371721555e-06,2.731716368974548e-06,8.278040714648075e-06,5.033777665873535e-05,1.0442521632694578e-06,1.9786664910937647e-06,1.766662005182746e-06,6.046210425410469e-06,1.1437293862028445e-06,1.8523887847883694e-06
175,2.0064600143960046e-06,2.385910753849032e-06,2.055770417694138e-06,1.175300965009871e-06,2.091573274400813e-06,2.2223748398826464e-06,2.064283757944578e-06,2.634506245599111e-06,8.447767957054782e-06,5.1317286617569756e-05,1.0302407504908237e-06,1.9286473363303664e-06,1.7862483402829392e-06,6.598104305118123e-06,1.1201738605349588e-06,2.0134427346352072e-06
176,2.04482049798255e-06,2.3972992201175415e-06,2.0679754599534495e-06,1.1733497680905806e-06,2.0546827534786545e-06,2.3103400229467963e-06,2.0533468644829228e-06,2.5414766358516342e-06,8.608250862732293e-06,5.2205608451127636e-05,1.0180864405536101e-06,1.8807324852525006e-06,1.8020210653569074e-06,7.185666085386411e-06,1.0992909489069379e-06,2.186866470037977e-06
177,2.0835288868338273e-06,2.4051806787789593e-06,2.075918992977734e-06,1.1724814895152464e-06,2.025784300875594e-06,2.40018178819935e-06,2.0359528960906553e-06,2.453560302701626e-06,8.755228341534298e-06,5.296848406300549e-05,1.0080981151149671e-06,1.8365973880148156e-06,1.8145556736965588e-06,7.80454592601605e-06,1.081192736246094e-06,2.3732248102339696e-06
178,2.122698246732234e-06,2.4099398260951924e-06,2.0788125860252755e-06,1.172261958688972e-06,2.0042452771971457e-06,2.490381264720844e-06,2.0117595070800642e-06,2.371302722886855e-06,8.884113745437231e-06,5.356439198041566e-05,1.0004294078918667e-06,1.797716378226691e-06,1.8248661982878255e-06,8.449204238273054e-06,1.0658754972409444e-06,2.573473183022794e-06
179,2.1622603720934954e-06,2.412147819556803e-06,2.076289865231638e-06,1.1722520493663583e-06,1.9892495471865575e-06,2.579135957969107e-06,1.9806990039177164e-06,2.294846811540838e-06,8.990430776419922e-06,5.394924483271477e-05,9.95051299370317e-07,1.765432392839523e-06,1.834197863854403e-06,9.113086345923442e-06,1.05334722695585e-06,2.788733539014152e-06
180,2.201780572343234e-06,2.4124247320162985e-06,2.068329043808897e-06,1.172119235238938e-06,1.9799541595729834e-06,2.6645566172469435e-06,1.9428473049836745e-06,2.223891910018983e-06,9.070088932865102e-06,5.4082948714554685e-05,9.918110645634142e-07,1.7409313839607644e-06,1.8438417323330676e-06,9.788722766014861e-06,1.0437048129700312e-06,3.0199127380730383e-06
181,2.240410049607838e-06,2.4113085980778323e-06,2.055125608562141e-06,1.171754491027145e-06,1.9756077847790624e-06,2.7448346124605472e-06,1.898604821466667e-06,2.157683926814706e-06,9.119411360319255e-06,5.393612251661681e-05,9.905654238519916e-07,1.7251440086035611e-06,1.854950861206024e-06,1.046754421183808e-05,1.0371018371576332e-06,3.2674003184713e-06
182,2.2769698821671304e-06,2.409131446126085e-06,2.0369853665051364e-06,1.1712637210782605e-06,1.97554755301081e-06,2.818271828261981e-06,1.848835643502955e-06,2.0950950468677896e-06,9.134952310865312e-06,5.3494611127591674e-05,9.91249513798209e-07,1.7186875241056083e-06,1.8683872788945053e-06,1.1139397494568317e-05,1.0336436161168566e-06,3.5309722614523785e-06
183,2.3101344013799183e-06,2.4059965418069505e-06,2.014249057509309e-06,1.17086960856532e-06,1.9791315239671117e-06,2.8832970904282923e-06,1.79464942592216e-06,2.0348640365990875e-06,9.113105636215653e-06,5.275952129359352e-05,9.93809297809011e-07,1.7218643720882813e-06,1.8846537257539e-06,1.1792048095579118e-05,1.0332967101284935e-06,3.8098343843010962e-06
184,2.33867654316085e-06,2.4019329227943166e-06,1.9872433238651763e-06,1.170858058013069e-06,1.985653759402929e-06,2.9386286918307243e-06,1.737052086610481e-06,1.9759876251347194e-06,9.049760294288687e-06,5.1742186026440224e-05,9.98096929637502e-07,1.7346761153192873e-06,1.903898370355554e-06,1.2411188978021566e-05,1.0358503061149143e-06,4.1026281130018424e-06
185,2.3617158244679844e-06,2.3970349460184937e-06,1.956225212747936e-06,1.1716127874313473e-06,1.9943736002117407e-06,2.983450718247301e-06,1.6768374052081497e-06,1.9180649294829973e-06,8.940867394508373e-06,5.045648361219484e-05,1.0038383915125357e-06,1.7568251718569957e-06,1.9259778621307453e-06,1.2981452284104154e-05,1.0409115649529348e-06,4.4073003719792005e-06
186,2.3788780664444243e-06,2.3913812984257503e-06,1.921301194592146e-06,1.1736517046083029e-06,2.004760780125515e-06,3.017320458347265e-06,1.614771723969585e-06,1.861350043749846e-06,8.78428187537249e-06,4.891453035105601e-05,1.0106956602903862e-06,1.7877032240953538e-06,1.950546966985115e-06,1.3488458215561052e-05,1.047928458313838e-06,4.7209259414885304e-06
187,2.3902516603822048e-06,2.384823574283523e-06,1.8824425874501954e-06,1.1775667449618172e-06,2.016687999777857e-06,3.0398540934619113e-06,1.551791210731415e-06,1.8064808987185918e-06,8.581625592198146e-06,4.7129624939417146e-05,1.0183975176577307e-06,1.8263930860883046e-06,1.977108417309876e-06,1.392108027567847e-05,1.0562623024949747e-06,5.0396000633759716e-06
188,2.396131272781903e-06,2.3768456627417253e-06,1.8397274611801446e-06,1.183896149681518e-06,2.0302806551700348e-06,3.0505708266852864e-06,1.4889703549415365e-06,1.7541132503502944e-06,8.338433290772735e-06,4.5122527056011843e-05,1.0268509738045066e-06,1.8716969254957105e-06,2.005015478983119e-06,1.4272721778486388e-05,1.0652804099300828e-06,5.358427092977743e-06
189,2.396812764383486e-06,2.366581325588164e-06,1.7936612780755543e-06,1.1930569714937024e-06,2.045604718234021e-06,3.0490330640356483e-06,1.4273800521273795e-06,1.704698278295222e-06,8.06243671174427e-06,4.292501470787475e-05,1.036133323987318e-06,1.922178361678163e-06,2.0334212760214574e-06,1.4540971732764056e-05,1.0743874860051442e-06,5.671603700070133e-06
190,2.3926918469695286e-06,2.353017693688909e-06,1.745274125615643e-06,1.2053631946160382e-06,2.0624962484414982e-06,3.035027000442182e-06,1.3680341246436565e-06,1.6584291165700812e-06,7.761701349916844e-06,4.0578939770540795e-05,1.0463681228297355e-06,1.9762039937818874e-06,2.0612267599297754e-06,1.4725820554054432e-05,1.0830461572844354e-06,5.9725198379669015e-06
191,2.3844934645053926e-06,2.3353526654425182e-06,1.69591288997028e-06,1.2210277128399983e-06,2.0805667857230207e-06,3.008617265027769e-06,1.311860918271905e-06,1.61530564055739e-06,7.4439420999656586e-06,3.8132075891891364e-05,1.0575823411963704e-06,2.0319742237960098e-06,2.0872164774204642e-06,1.482734242704735e-05,1.0908828200480297e-06,6.253854866163828e-06
192,2.373298832324244e-06,2.313334367215508e-06,1.6469440369980345e-06,1.2401413076178068e-06,2.0993092179572246e-06,2.970128712527337e-06,1.259646041865812e-06,1.5753139825379177e-06,7.1164695227027135e-06,3.563307073414316e-05,1.0696554120121678e-06,2.087571088744166e-06,2.110318776503624e-06,1.4844452891252208e-05,1.0977877824067467e-06,6.507955568576956e-06
193,2.3603478734663395e-06,2.2873869207700015e-06,1.5995783974915559e-06,1.2626889023373313e-06,2.1181912457627174e-06,2.9201219640411805e-06,1.2120681513963348e-06,1.5385877822185304e-06,6.785913050213583e-06,3.312744259012866e-05,1.082404686519285e-06,2.1411053930834083e-06,2.1296245714695982e-06,1.4775904136086969e-05,1.1039066231639366e-06,6.7276940948571575e-06
194,2.3468325108935915e-06,2.2584710266247937e-06,1.5548052013327006e-06,1.288550512793076e-06,2.136675526948746e-06,2.8594650097567015e-06,1.1698073060461028e-06,1.5053635131591638e-06,6.457905738125819e-06,3.0655125027269886e-05,1.0957296002008368e-06,2.190964227233195e-06,2.144112072462516e-06,1.4622775743460137e-05,1.1095489556851916e-06,6.907489139675915e-06
195,2.333783338063212e-06,2.2277701941462264e-06,1.513353640354763e-06,1.3174499203638054e-06,2.154318138753952e-06,2.7895452048200725e-06,1.133548101294074e-06,1.475799117828614e-06,6.137122593323218e-06,2.8249338130944488e-05,1.1096928826625375e-06,2.236036184083939e-06,2.1524228298762095e-06,1.4390505827984134e-05,1.115055613509171e-06,7.044034270549583e-06
196,2.321997824640243e-06,2.196352229865884e-06,1.4756708435819175e-06,1.3489507740901837e-06,2.1710025478909606e-06,2.712389723372161e-06,1.1038758312345003e-06,1.4498502155180939e-06,5.827463692983399e-06,2.5936482256145266e-05,1.1245015977155537e-06,2.275807212707233e-06,2.152974899330955e-06,1.408921276704741e-05,1.120681519393184e-06,7.1365261648230185e-06
197,2.3120535083793596e-06,2.1649595750955e-06,1.4419226258306297e-06,1.3825757655933993e-06,2.1870671266500683e-06,2.6304384513918456e-06,1.0812075705084477e-06,1.4272424235972685e-06,5.532016784577628e-06,2.3736568913828696e-05,1.1404282494941916e-06,2.3102824298499796e-06,2.1444251408128034e-06,1.3732440097374586e-05,1.126552771858732e-06,7.186355225018105e-06
198,2.3044217429352195e-06,2.133990542038837e-06,1.4120353012283114e-06,1.4179977313271253e-06,2.2031447601157283e-06,2.546107632156339e-06,1.0657870937463602e-06,1.4075084584407998e-06,5.2529120131284115e-06,2.1663898153811008e-05,1.1577171221656574e-06,2.3397378069996297e-06,2.1261892284061082e-06,1.3335211832210647e-05,1.1326795615277473e-06,7.196252271454825e-06
199,2.299487887737857e-06,2.103581852198896e-06,1.3858116350158138e-06,1.4552267564532498e-06,2.219847813548501e-06,2.4614787476406527e-06,1.0576862360493296e-06,1.3900599624069054e-06,4.991316169641792e-06,1.972788657751453e-05,1.1765138339223566e-06,2.3643844004679187e-06,2.0986524399946952e-06,1.29122132539743e-05,1.1389824583394636e-06,7.169144508817703e-06
200,2.2974538566418036e-06,2.07366808375697e-06,1.3630928019114976e-06,1.4947367132652678e-06,2.2375769064459957e-06,2.3781939267054024e-06,1.0567911766473044e-06,1.374220458639457e-06,4.747526533056924e-06,1.793366688784281e-05,1.196829324214831e-06,2.384114621344056e-06,2.063028476971476e-06,1.2476460423083935e-05,1.1453520197256931e-06,7.107486812879866e-06
201,2.298299464963653e-06,2.0439901825098363e-06,1.3438695758247994e-06,1.5374473417088789e-06,2.256539579882199e-06,2.297459367847413e-06,1.0627872455735663e-06,1.3592252927078026e-06,4.521126138276178e-06,1.6282275118843696e-05,1.2185044446802857e-06,2.3984813950695134e-06,2.0210965837742423e-06,1.2038508226946475e-05,1.1517647574528286e-06,7.013558955551794e-06
202,2.301796183841939e-06,2.0141270838486732e-06,1.3282730681412455e-06,1.5845245419425766e-06,2.276789967257206e-06,2.2200927371240386e-06,1.0751546765929576e-06,1.3443070746123417e-06,4.311213759446306e-06,1.4770803255863086e-05,1.2411779708575957e-06,2.406924345840297e-06,1.9749476282176704e-06,1.160623387303341e-05,1.1583815364972043e-06,6.890153390628696e-06
203,2.307528219378288e-06,1.983606705253193e-06,1.3164589092541973e-06,1.6371013002093876e-06,2.298166975492865e-06,2.146569103054536e-06,1.0931760100997663e-06,1.3288818905099876e-06,4.116639681857683e-06,1.3392892057464907e-05,1.264326423381342e-06,2.4090740023748683e-06,1.926745191697323e-06,1.1185217446378532e-05,1.1655509646555039e-06,6.740841277960873e-06
204,2.3149770408711277e-06,1.952033757263158e-06,1.3084630277037195e-06,1.696079084037426e-06,2.3202595906818054e-06,2.0770831287726573e-06,1.115976108927653e-06,1.3126902324189504e-06,3.936214746417509e-06,1.2139665552243668e-05,1.2874001207270693e-06,2.404848105730207e-06,1.8785598051709561e-06,1.077947673263559e-05,1.1737311054730026e-06,6.569693288673281e-06
205,2.3235897475423965e-06,1.9191624512326584e-06,1.3041117440725458e-06,1.7620611294177193e-06,2.3424556104276967e-06,2.011648381589268e-06,1.1426514790292471e-06,1.2957801804981357e-06,3.768853850632092e-06,1.1000885032426167e-05,1.3099740000915662e-06,2.3942906322951944e-06,1.8322901530916866e-06,1.0392107692621642e-05,1.1833790503571466e-06,6.380765328316108e-06
206,2.332721759930999e-06,1.8849365397441034e-06,1.3030007349556266e-06,1.8353411897797343e-06,2.3639382837312694e-06,1.9501578005865926e-06,1.172478914772917e-06,1.278360654284677e-06,3.6135434984700154e-06,9.965847921019009e-06,1.3317937159479358e-06,2.3774768230143233e-06,1.789621266195298e-06,1.0025593787917256e-05,1.1948863332563832e-06,6.177647618577149e-06
207,2.341622331370725e-06,1.8495197720623552e-06,1.3045081216023436e-06,1.915892215678352e-06,2.3836650183611593e-06,1.8923993499492092e-06,1.205039709458112e-06,1.2606586346056725e-06,3.469196943732561e-06,9.023935089937837e-06,1.352716907898644e-06,2.354658447473086e-06,1.7520444809101571e-06,9.68190424596153e-06,1.2085820001860538e-06,5.963235425075917e-06
208,2.3496331211681734e-06,1.8132932261681516e-06,1.3078474456063767e-06,2.003362991384924e-06,2.4004876551538592e-06,1.8381245381898706e-06,1.2401317792796977e-06,1.2428962036575712e-06,3.3347167113587106e-06,8.165275031204619e-06,1.3726789773169168e-06,2.3264203800463887e-06,1.7209098456327304e-06,9.36245738215057e-06,1.224718417448311e-06,5.739743477107988e-06
209,2.3564097919655198e-06,1.7768116408395782e-06,1.3121672756713504e-06,2.097081934089527e-06,2.4133500201801427e-06,1.7871580479069722e-06,1.2775909738420183e-06,1.2253243383857205e-06,3.20925280615195e-06,7.381764374089583e-06,1.3916972898814652e-06,2.293661432728809e-06,1.6974076716579667e-06,9.06786036782375e-06,1.2434429526515557e-06,5.508931061100398e-06
210,2.3619341685600866e-06,1.7407101575811186e-06,1.3166330575109097e-06,2.196093325818919e-06,2.42142268739111e-06,1.7394235147541193e-06,1.3172022576246393e-06,1.2081733543487798e-06,3.0922087728864423e-06,6.667879095399545e-06,1.4098100286558597e-06,2.2574562959635728e-06,1.6824923906644418e-06,8.797729452747548e-06,1.2648201326319746e-06,5.272455866906978e-06
211,2.3663476362070992e-06,1.7055660674813261e-06,1.320461252696439e-06,2.299273901178617e-06,2.4241283348950867e-06,1.694875258146659e-06,1.358673959804224e-06,1.1915660788061102e-06,2.9830598971696984e-06,6.020477104232829e-06,1.4269796251807636e-06,2.2188807789301425e-06,1.676815110447735e-06,8.551092754263387e-06,1.2888449975290016e-06,5.0321682998549385e-06
212,2.3697665624818057e-06,1.6718399006866673e-06,1.3229873209457496e-06,2.4054970347718e-06,2.4210166313153534e-06,1.6534872042074973e-06,1.4015729988248423e-06,1.175574080376433e-06,2.88146548694181e-06,5.437616352064016e-06,1.4430606173017919e-06,2.1788417273589366e-06,1.6806793670489878e-06,8.326991462865508e-06,1.3153956918979808e-06,4.790198018428475e-06
213,2.372230353057808e-06,1.6399977720773383e-06,1.3238218191035769e-06,2.5137571226999745e-06,2.4115878426766553e-06,1.615365227665262e-06,1.445259179304169e-06,1.160432475875085e-06,2.787521823222364e-06,4.917356575382953e-06,1.4578110956837864e-06,2.137952084678316e-06,1.6940292136425444e-06,8.124423091972704e-06,1.3441990374149252e-06,4.548890754695643e-06
214,2.3737928451988387e-06,1.6106605127141079e-06,1.322970376112542e-06,2.623186845500565e-06,2.3953336962622143e-06,1.5808258969978346e-06,1.4888898839521973e-06,1.146682536719744e-06,2.7016641100695354e-06,4.457366477594662e-06,1.4708973758017051e-06,2.096478693354612e-06,1.716473788255577e-06,7.94180927823298e-06,1.3748659196380677e-06,4.310681576428204e-06
215,2.3745984862179114e-06,1.5845728718181305e-06,1.3207503807600278e-06,2.7329166897382676e-06,2.3720453411025435e-06,1.550297313573925e-06,1.5314783899241412e-06,1.1350671924882452e-06,2.62427760816913e-06,4.055159080297133e-06,1.4819244763509573e-06,2.054348983133781e-06,1.747315676526754e-06,7.776797798970832e-06,1.4069395432779511e-06,4.077877438997453e-06
216,2.3748692878256415e-06,1.5624429797248902e-06,1.3175746860541317e-06,2.8418187632765974e-06,2.342091444183842e-06,1.52416135715487e-06,1.5720505847772182e-06,1.1263169929950286e-06,2.5554350970464867e-06,3.7082642899980006e-06,1.490467593467281e-06,2.0111906676643996e-06,1.7855747658720504e-06,7.626504347102587e-06,1.439867754869747e-06,3.852406991352046e-06
217,2.374881226802922e-06,1.5448314102946034e-06,1.3138022372066119e-06,2.94833651667226e-06,2.306418461365064e-06,1.5027495556567117e-06,1.6099591974856365e-06,1.1210325740218144e-06,2.4948887227002574e-06,3.414062060799287e-06,1.4960330668530137e-06,1.9664820116799123e-06,1.8300916526063592e-06,7.48782455380992e-06,1.472925508114729e-06,3.6357058536737026e-06
218,2.374938761034617e-06,1.5321202501793536e-06,1.3097038613307145e-06,3.0505637607564795e-06,2.26632094119813e-06,1.4864727937643765e-06,1.6451299680225957e-06,1.1196738643902784e-06,2.4421077887820644e-06,3.169576753789765e-06,1.4980623475386848e-06,1.9198432657226914e-06,1.879721706528933e-06,7.357502547106433e-06,1.505231942676993e-06,3.4287325746544504e-06
219,2.3753660771288577e-06,1.5244846464655363e-06,1.3054999358739672e-06,3.1464934036594513e-06,2.2231416361455086e-06,1.475887725270914e-06,1.677950922204732e-06,1.1226023271556297e-06,2.396224610060978e-06,2.971574017704531e-06,1.4961090419747224e-06,1.8712379836381853e-06,1.933425697722635e-06,7.231809879375929e-06,1.5358919080793302e-06,3.231970312799581e-06
220,2.3766013342113404e-06,1.521873517612649e-06,1.3014112262060065e-06,3.2342476939230592e-06,2.1779990806852223e-06,1.471641477132199e-06,1.7089235199700725e-06,1.1301246272170019e-06,2.3559972096732395e-06,2.8168073676742543e-06,1.490057739332708e-06,1.8209297948343587e-06,1.990145836923544e-06,7.106258415859946e-06,1.5640965348079376e-06,3.0454451530659948e-06
221,2.3792490735999285e-06,1.5240321762338162e-06,1.2976726823299658e-06,3.312240899706815e-06,2.131604767950754e-06,1.4743957019240062e-06,1.7384113500056663e-06,1.1424707152859418e-06,2.319972799278412e-06,2.7020133169633155e-06,1.4801566923942316e-06,1.7693872447849307e-06,2.04860720126324e-06,6.9760109710030585e-06,1.5891354519712244e-06,2.8688576660348937e-06
222,2.383884693201779e-06,1.5305125162118684e-06,1.2945675654133392e-06,3.379363755518435e-06,2.0842201403765787e-06,1.4847454247228592e-06,1.7665736845196257e-06,1.1597451263215766e-06,2.286868728038447e-06,2.623687685947069e-06,1.4668260778213178e-06,1.7172730788278767e-06,2.107204766880115e-06,6.836979604289628e-06,1.6104641841890581e-06,2.7017403594159523e-06
223,2.390785094955548e-06,1.5406482549317964e-06,1.2924923451182015e-06,3.435189531400853e-06,2.0357923834977175e-06,1.5030968353552542e-06,1.7933754770283611e-06,1.1819544743293183e-06,2.255926744349517e-06,2.5779174756702338e-06,1.450457954184354e-06,1.665404620798029e-06,2.1640721879661425e-06,6.68679063213618e-06,1.6277841142180118e-06,2.5435566664762504e-06
224,2.3999219879341066e-06,1.5535918158171184e-06,1.2919215175459228e-06,3.4800409978711286e-06,1.9862515438054957e-06,1.5295607453769868e-06,1.8186295819704034e-06,1.2091033990471132e-06,2.2269772333381143e-06,2.560325487732784e-06,1.4313853699305666e-06,1.6147111244512569e-06,2.217359072661944e-06,6.524765518606526e-06,1.6409553343079643e-06,2.393785400030237e-06
225,2.4112365810051766e-06,1.5685045093925719e-06,1.2932552375563294e-06,3.5148444162827794e-06,1.93581131837368e-06,1.5639040606242356e-06,1.842042855028335e-06,1.2412545961805208e-06,2.2002189534038418e-06,2.566203260577465e-06,1.4099096428651263e-06,1.56633229777994e-06,2.2655667850594626e-06,6.351259276322691e-06,1.6498239029437503e-06,2.2520042938053433e-06
226,2.424891421786079e-06,1.5848316094793027e-06,1.2967148595991155e-06,3.5409133171124705e-06,1.8850704391516807e-06,1.6055556450665597e-06,1.8632370752296505e-06,1.2784909733091976e-06,2.1759269759768246e-06,2.590905011505657e-06,1.3862535032488366e-06,1.521739735742219e-06,2.3077251396617426e-06,6.167520767368575e-06,1.654178698904094e-06,2.1179208778265944e-06
227,2.4412719907725356e-06,1.6024313021906965e-06,1.302396329247464e-06,3.559782929074508e-06,1.8348717894195408e-06,1.6537078353707898e-06,1.881845310607968e-06,1.320826908077613e-06,2.154296183914189e-06,2.630302297467287e-06,1.3605199206952023e-06,1.4826858086809262e-06,2.3433426937131503e-06,5.976101207645288e-06,1.6538725283555277e-06,1.991321012895314e-06
228,2.4608412103881156e-06,1.6214231690589619e-06,1.3104039862501539e-06,3.5730266992893557e-06,1.7861109364681418e-06,1.7075007989519845e-06,1.8977384821622228e-06,1.368155598521533e-06,2.1354954791938595e-06,2.6809926986913206e-06,1.332773754903916e-06,1.451010275692385e-06,2.372242923936066e-06,5.780852223542571e-06,1.6489737612058887e-06,1.8719595814818013e-06
229,2.4840743298066197e-06,1.6419474326224606e-06,1.3209102769628144e-06,3.5819858076256787e-06,1.739699525318867e-06,1.766134493976562e-06,1.911159871669804e-06,1.4202358840758144e-06,2.1198064639976687e-06,2.7401450217315552e-06,1.303229602607778e-06,1.4284298347184395e-06,2.394448563284165e-06,5.5863349099524704e-06,1.6397726181594433e-06,1.759443866368553e-06
230,2.5114887297785894e-06,1.6640592801200436e-06,1.3340826381450686e-06,3.5875095687963316e-06,1.6965971063647905e-06,1.828846094642154e-06,1.9225538863672373e-06,1.4766710276824172e-06,2.1076396386005743e-06,2.8053031780895538e-06,1.2724147398938674e-06,1.4163934396878822e-06,2.4101576961220325e-06,5.39723001969757e-06,1.6266018298950222e-06,1.6531781593042862e-06
231,2.5436023396553284e-06,1.6876832047648583e-06,1.3499468579088113e-06,3.5898384018561557e-06,1.65773064374066e-06,1.8948770945420316e-06,1.9322523254032837e-06,1.5369009181618256e-06,2.099446126637998e-06,2.874632251875123e-06,1.241183197721438e-06,1.4160575422319403e-06,2.419697839333621e-06,5.218085959408347e-06,1.6096609642783726e-06,1.5524518710145658e-06
232,2.5807862105599765e-06,1.7125073818707813e-06,1.3682871462006393e-06,3.5886213900872373e-06,1.6239007658484377e-06,1.963444954764719e-06,1.940330425894473e-06,1.6002217617433635e-06,2.0956936644846413e-06,2.947469877423895e-06,1.2105767283736614e-06,1.4283974727839966e-06,2.423421615581573e-06,5.053283803304861e-06,1.5890280828456088e-06,1.4566756758712508e-06
233,2.6231361864410887e-06,1.73787827996648e-06,1.3886226950703802e-06,3.5829409492992587e-06,1.5958006520032694e-06,2.0336264893232296e-06,1.9467084860253373e-06,1.6657745033982712e-06,2.096853646481836e-06,3.0245379701530257e-06,1.1816311373101973e-06,1.4543558629990906e-06,2.4217240573760775e-06,4.906941049943588e-06,1.5647990392387803e-06,1.3656256662437964e-06
234,2.67041538339349e-06,1.7627774873042346e-06,1.410228366789505e-06,3.5712793151379317e-06,1.5740168831704737e-06,2.104243848840556e-06,1.9513319182455555e-06,1.73251275795287e-06,2.103263675578056e-06,3.107572168469852e-06,1.1552217955184589e-06,1.4949027622594809e-06,2.415237557515897e-06,4.782644898923758e-06,1.5371987574967352e-06,1.2795105593229034e-06
235,2.7220460570062367e-06,1.785936005479591e-06,1.4321864927929564e-06,3.5515850042018812e-06,1.558939628746924e-06,2.173984715158331e-06,1.9542114004589387e-06,1.7992277629917214e-06,2.1149777230720963e-06,3.198682240599695e-06,1.1319830880443178e-06,1.5510871658050697e-06,2.4049582397710186e-06,4.683251459127377e-06,1.5066276418839152e-06,1.1988109229537814e-06
236,2.777123456018711e-06,1.806115483864284e-06,1.453538723781433e-06,3.521637805589304e-06,1.5506944020616132e-06,2.2417687856149235e-06,1.955312360268247e-06,1.864629330644846e-06,2.1318278391348717e-06,3.2998033171510643e-06,1.1122931623068907e-06,1.6241521907650434e-06,2.3921143786553763e-06,4.610962579841084e-06,1.473662525782991e-06,1.1240333634957986e-06
237,2.834403536245654e-06,1.822431161078395e-06,1.4735470338165455e-06,3.4796095016656135e-06,1.5491606330878277e-06,2.3070102980111317e-06,1.9545198625545575e-06,1.9274283677708818e-06,2.153716968930743e-06,3.4124131007740833e-06,1.0962916708646955e-06,1.71554858874186e-06,2.37786614798636e-06,4.5674629354689545e-06,1.4389985495583358e-06,1.0555564384743607e-06
238,2.8923442345024574e-06,1.8345198665763441e-06,1.4918940031334138e-06,3.424506608477148e-06,1.554063163172825e-06,2.369489056945986e-06,1.951773237990664e-06,1.986386936304345e-06,2.1808817017705346e-06,3.5374618185612108e-06,1.0838936748167827e-06,1.8268421452636658e-06,2.3630781436628053e-06,4.553850106047685e-06,1.403338296794767e-06,9.936080665979641e-07
239,2.949297916595995e-06,1.8424985541136062e-06,1.5086510363169528e-06,3.356337143672995e-06,1.5650661096900649e-06,2.4289965253898706e-06,1.9471642692379295e-06,2.0403271973205427e-06,2.2139021459743197e-06,3.675345838108603e-06,1.074795724630481e-06,1.9597319326266903e-06,2.348330647828705e-06,4.570522631453821e-06,1.367288182715562e-06,9.383306906892393e-07
240,3.003686613065792e-06,1.846770774217658e-06,1.524048325957587e-06,3.276093822318544e-06,1.581806429642637e-06,2.485153965569352e-06,1.940852887087862e-06,2.0881537179668503e-06,2.2535513543722734e-06,3.825935787867805e-06,1.068525873043817e-06,2.1161112838825748e-06,2.334100111773232e-06,4.617346252672607e-06,1.3313435871330582e-06,8.898728457608878e-07
241,3.054004475946858e-06,1.8477915126591664e-06,1.5382351995052863e-06,3.1856841789080983e-06,1.603922291750787e-06,2.5375747021089606e-06,1.9330130712342186e-06,2.1289877524404617e-06,2.300659019798303e-06,3.988715845545869e-06,1.0645566092425703e-06,2.297942936839936e-06,2.3209151802421927e-06,4.69398995806622e-06,1.29596149504432e-06,8.484203833073021e-07
242,3.098777649854739e-06,1.8459760586984053e-06,1.5511740322507697e-06,3.0877917239533564e-06,1.6310862181697752e-06,2.586148266175677e-06,1.9239990605245744e-06,2.1624035088034474e-06,2.3560326981170077e-06,4.16284824034054e-06,1.0623838727547001e-06,2.5070610386431182e-06,2.3093768069867097e-06,4.800004660062528e-06,1.261652373053161e-06,8.141681021396392e-07
243,3.1366313159346347e-06,1.8417985298608198e-06,1.562627407371809e-06,2.985590441629114e-06,1.6629598279794901e-06,2.63112064554739e-06,1.9144786208034285e-06,2.188601345008213e-06,2.420425819720767e-06,4.3470323686708354e-06,1.0615012143181226e-06,2.745110970557517e-06,2.300051313536592e-06,4.934637657572751e-06,1.2291415925427593e-06,7.873090579647482e-07
244,3.1664376957778976e-06,1.8358559990875576e-06,1.5721319684891555e-06,2.8823497559647405e-06,1.6991240775682741e-06,2.672914787688217e-06,1.9052581721263372e-06,2.208401539828601e-06,2.4944741177133796e-06,4.539348664044158e-06,1.0613498942456945e-06,3.0135464809456175e-06,2.2933192008729842e-06,5.096787001873563e-06,1.1996315216511263e-06,7.680266900871769e-07
245,3.1874321904047956e-06,1.828776377768594e-06,1.5790137726653552e-06,2.781064463442243e-06,1.7391002285523531e-06,2.711885100668078e-06,1.8969763822649082e-06,2.223131049931283e-06,2.578554971871264e-06,4.737221007718837e-06,1.0613672821365208e-06,3.313582809318556e-06,2.2893214471010775e-06,5.28511440229442e-06,1.1749516183465557e-06,7.564668670358497e-07
246,3.199164666928915e-06,1.8211580747683184e-06,1.582568035339521e-06,2.6842134226016537e-06,1.7824204607740604e-06,2.748233863728145e-06,1.8899901660849407e-06,2.2344880016472835e-06,2.6726590388087434e-06,4.937351178056762e-06,1.061146130562886e-06,3.6461750697255583e-06,2.288084446559445e-06,5.4980413124700386e-06,1.1574185426760484e-06,7.527774279875384e-07
247,3.2012413592369182e-06,1.8136411040103189e-06,1.5823336178922337e-06,2.5936705142232527e-06,1.8286337544317983e-06,2.782183742033764e-06,1.8844792390735242e-06,2.2443300764322258e-06,2.77631928522246e-06,5.13557850107743e-06,1.060577328268268e-06,4.012004384642471e-06,2.289647005745183e-06,5.733769367203004e-06,1.1495278573963677e-06,7.572297481579667e-07
248,3.193103325699683e-06,1.8069431336849353e-06,1.5782668091215918e-06,2.510715589128894e-06,1.877247460004993e-06,2.814218436405746e-06,1.880553382158368e-06,2.2543713063331023e-06,2.8885751190276288e-06,5.326887260711959e-06,1.059843787294574e-06,4.411341466036722e-06,2.2939747274130843e-06,5.990583537230832e-06,1.1536905937595827e-06,7.702762743613013e-07
249,3.174167553488082e-06,1.8017870624945492e-06,1.570732277313738e-06,2.4360628701772413e-06,1.9276935161646577e-06,2.845062936554579e-06,1.8782782535224021e-06,2.265947949950767e-06,3.0079657641845555e-06,5.505675727133801e-06,1.059274490034612e-06,4.843845770777462e-06,2.3007736929533033e-06,6.267245962299439e-06,1.1720976776002958e-06,7.924824591148289e-07
250,3.1442532876177858e-06,1.7988181465363673e-06,1.5603582790187002e-06,2.369898388176313e-06,1.979324062538652e-06,2.875375173197766e-06,1.8777467643680052e-06,2.2799801402696103e-06,3.132597104786133e-06,5.666006788261763e-06,1.0591740291433894e-06,5.308461289544083e-06,2.3094208624270566e-06,6.563179877243155e-06,1.2066950627133774e-06,8.244328622124223e-07
251,3.1038900874058742e-06,1.798531655966245e-06,1.5478231939585357e-06,2.3119982972995855e-06,2.0314369682686077e-06,2.9054433959097627e-06,1.8791932437595547e-06,2.297038076406337e-06,3.2603305370133146e-06,5.801597797649141e-06,1.0597108226524238e-06,5.803381450149318e-06,2.3189921044228303e-06,6.8783145995517725e-06,1.2592163539573324e-06,8.666806179285593e-07
252,3.0542635217347132e-06,1.8011843955712594e-06,1.5336489051545948e-06,2.261942351098769e-06,2.0833634266016186e-06,2.935042149709496e-06,1.8829610272168368e-06,2.317401920909977e-06,3.388973635704212e-06,5.906037282137305e-06,1.0608674286321444e-06,6.326038646382409e-06,2.3282900506266307e-06,7.212713185498734e-06,1.3312431783491599e-06,9.197605839437133e-07
253,2.996881529756865e-06,1.8067405319758963e-06,1.5180996029754478e-06,2.2193130059130445e-06,2.134500703533264e-06,2.9633793941893304e-06,1.8892899914121716e-06,2.341179443143602e-06,3.5162953644225964e-06,5.973821963437958e-06,1.0624383061078002e-06,6.873168708329282e-06,2.3359512131864443e-06,7.566682929419482e-06,1.4243171586548065e-06,9.842438596832365e-07
254,2.9331914079941198e-06,1.8148774286949586e-06,1.5012405650229114e-06,2.183744391729375e-06,2.184265427712794e-06,2.9891592565501133e-06,1.8981306611417396e-06,2.3685081827758154e-06,3.6398501317136876e-06,6.001480538972932e-06,1.0640837927400256e-06,7.440906184272956e-06,2.3407486345016255e-06,7.941753701943512e-06,1.540040431614812e-06,1.0607229345293306e-06
255,2.864365807809376e-06,1.8250102991137469e-06,1.4831043990173642e-06,2.1548024776578643e-06,2.2321609961797785e-06,3.0108626191681228e-06,1.9091944926722407e-06,2.3996537824227117e-06,3.7567509148025436e-06,5.987605196034604e-06,1.0654624968047606e-06,8.024789400605957e-06,2.3419682362375184e-06,8.341613455531008e-06,1.6800421246676654e-06,1.149717037896587e-06
256,2.7913181332406627e-06,1.8363131838903697e-06,1.4638247183676557e-06,2.131843656339645e-06,2.277953353590518e-06,3.0271346897029545e-06,1.9222310184414376e-06,2.434869335445167e-06,3.86366093281094e-06,5.9323918227363735e-06,1.0663960934415007e-06,8.619608217962594e-06,2.3395374722016817e-06,8.772124884063965e-06,1.8458989961131803e-06,1.2516364503080111e-06
257,2.714781545722819e-06,1.8477445726673531e-06,1.4436133778457151e-06,2.114005576328834e-06,2.321762680084475e-06,3.036959931850774e-06,1.937275764129115e-06,2.4741634848682334e-06,3.957123098960086e-06,5.83770525121955e-06,1.0669444133093728e-06,9.219102983850613e-06,2.3337999480499722e-06,9.24070458662302e-06,2.039154589351729e-06,1.3668222641576462e-06
258,2.6353308731336644e-06,1.8581656039742665e-06,1.4226110248813686e-06,2.1002670824248775e-06,2.3640306004425423e-06,3.0394870971200605e-06,1.9546239399994764e-06,2.517176739383102e-06,4.033866289979781e-06,5.706972217833243e-06,1.0673623266943896e-06,9.815693479308168e-06,2.325288795777969e-06,9.755592460268174e-06,2.261334061541128e-06,1.4955479477271186e-06
259,2.5534260615039956e-06,1.8666166487408805e-06,1.4007834489897365e-06,2.0894337753591937e-06,2.405397068088616e-06,3.0337433752141894e-06,1.9745968667816276e-06,2.5632195257167155e-06,4.090806942787771e-06,5.544580140163093e-06,1.068012790252878e-06,1.0400658328313594e-05,2.314755665845224e-06,1.0325013088580441e-05,2.5138261839005076e-06,1.6380019320932868e-06
260,2.4695250126275903e-06,1.8725872429712497e-06,1.3779954085156602e-06,2.080145639777503e-06,2.4464857177301237e-06,3.0185761009817094e-06,1.9974009122749207e-06,2.6114689584036783e-06,4.125167677565977e-06,5.355510244127806e-06,1.0692625881124118e-06,1.0964946799404266e-05,2.303209303632073e-06,1.095618511743635e-05,2.7976915654006658e-06,1.7943288414004302e-06
261,2.3841629496022355e-06,1.8760942088220934e-06,1.3541985260498776e-06,2.0710666829952968e-06,2.4877062396326114e-06,2.992932657550366e-06,2.02320935166055e-06,2.661235939230533e-06,4.135053538491334e-06,5.144987220585572e-06,1.0713647132718949e-06,1.1500147826416364e-05,2.2917515035175936e-06,1.1654632188103278e-05,3.113522769414189e-06,1.9646330168667516e-06
262,2.2978986721711933e-06,1.8776008837352785e-06,1.3295286643230395e-06,2.0611605270684614e-06,2.529212518885407e-06,2.9562781446029683e-06,2.052291666813906e-06,2.712124669709279e-06,4.120022076321398e-06,4.917897188842057e-06,1.0743717938610974e-06,1.1999054653450404e-05,2.2813352742685585e-06,1.2424127248243187e-05,3.4614319523913698e-06,2.148848769371442e-06
263,2.2112311971488877e-06,1.8778449707608388e-06,1.3042136236862554e-06,2.0498674152198475e-06,2.5709620122507877e-06,2.9087926374037847e-06,2.0850025997200663e-06,2.7640100502423712e-06,4.081120304894852e-06,4.678465050667789e-06,1.0781008629868676e-06,1.2455774534814669e-05,2.272592652119609e-06,1.326686540126232e-05,3.841091742348029e-06,2.3465948518655535e-06
264,2.1246866538299474e-06,1.8775939871425744e-06,1.27841864314569e-06,2.0370847130395114e-06,2.6127744556993866e-06,2.8511556414613863e-06,2.1216313537758304e-06,2.816911650232686e-06,4.020397267217273e-06,4.430267308704908e-06,1.0821299342557859e-06,1.2865665009183767e-05,2.2657634777040927e-06,1.4183417783848633e-05,4.251653574540605e-06,2.5571698696972404e-06
265,2.039008760572508e-06,1.8774357568041865e-06,1.2522177983423314e-06,2.0229514285609585e-06,2.6544319596773065e-06,2.784149148784747e-06,2.1622145913234102e-06,2.870882512568658e-06,3.940211424057522e-06,4.1764387853245414e-06,1.0858240465037066e-06,1.3225323758264702e-05,2.260707323208831e-06,1.5172533055711904e-05,4.69152764845188e-06,2.779653776830614e-06
266,1.9551811111194428e-06,1.8776928996306935e-06,1.2257146962324349e-06,2.0076480493490654e-06,2.6958361703289107e-06,2.708523084153934e-06,2.2064273704737567e-06,2.925955341132657e-06,3.842820618368612e-06,3.919980779419684e-06,1.0884066076883246e-06,1.3532521186043638e-05,2.256991834909561e-06,1.623094060549768e-05,5.158174621814512e-06,3.0129244213662778e-06
267,1.8742185759730585e-06,1.8784226050686908e-06,1.1991560260244304e-06,1.991411715585607e-06,2.7370509298829897e-06,2.62521150975323e-06,2.2536332817147783e-06,2.9820622264053656e-06,3.7305745902431983e-06,3.6638708924709796e-06,1.0890730824365863e-06,1.3785626388464961e-05,2.2540613955635763e-06,1.7353044370546267e-05,5.647990077508644e-06,3.2555111914504517e-06
268,1.7969151484938636e-06,1.8794552959269421e-06,1.1729194312216479e-06,1.97459949734143e-06,2.7781268351697536e-06,2.5355233301051306e-06,2.3030399807051253e-06,3.038851482897221e-06,3.606356488060608e-06,3.41097651596069e-06,1.087094850662031e-06,1.3982417443899144e-05,2.2513985986135813e-06,1.853038206548021e-05,6.1563020719721865e-06,3.50545860498907e-06
269,1.723722162131344e-06,1.8804305068734012e-06,1.14742069863455e-06,1.957596884385217e-06,2.8189503362449398e-06,2.4410072656413467e-06,2.3537626725298415e-06,3.095526243988856e-06,3.4736230771427113e-06,3.1641113148307996e-06,1.0818496210693816e-06,1.4119154860530356e-05,2.24859530997273e-06,1.9751150764575416e-05,6.677549251321554e-06,3.760378726220713e-06
270,1.6547874456423105e-06,1.8808392314464443e-06,1.123025341678975e-06,1.9407259894046764e-06,2.85932096868249e-06,2.343128388489034e-06,2.404697511185391e-06,3.1509380076613283e-06,3.33595850224199e-06,2.926255446122012e-06,1.0728404170379792e-06,1.4190946823112841e-05,2.24543172631187e-06,2.1000328926459497e-05,7.2055773294112255e-06,4.017625438334869e-06
271,1.590095615669723e-06,1.8801624767172146e-06,1.1000089299910588e-06,1.9242730443353086e-06,2.8990490101082193e-06,2.2430582445941617e-06,2.454371737073116e-06,3.2039370637691934e-06,3.19664483879386e-06,2.700668036626921e-06,1.0598205707672184e-06,1.4193291799038369e-05,2.2419739844088695e-06,2.226034872221548e-05,7.733733370615204e-06,4.274382738544148e-06
272,1.5296282923862003e-06,1.8780517612055536e-06,1.0785971207553601e-06,1.9084799368564533e-06,2.9378741329582116e-06,2.141706305001957e-06,2.5010020876258687e-06,3.2536597380549662e-06,3.0586709539595795e-06,2.490758960614149e-06,1.0429004890777451e-06,1.4123824046717176e-05,2.2385080221714957e-06,2.3511621696680423e-05,8.254575658556108e-06,4.527561483583049e-06
273,1.4734453389223321e-06,1.8743853520598217e-06,1.059036745173643e-06,1.8934603537633772e-06,2.975295685616057e-06,2.03994352500421e-06,2.542804928172464e-06,3.2994861230849393e-06,2.925074638431896e-06,2.2998303115592153e-06,1.022423449117721e-06,1.3983375770760933e-05,2.235386141783704e-06,2.4732454666705557e-05,8.759506915372676e-06,4.773563767051509e-06
274,1.4216626638157335e-06,1.8692130132553261e-06,1.041591043957541e-06,1.8791617215164054e-06,3.0104462533291146e-06,1.938826570546049e-06,2.578398378360943e-06,3.340797729395661e-06,2.7991321869506963e-06,2.130877969237363e-06,9.987267805200615e-07,1.3775990226392368e-05,2.2330047198671507e-06,2.5898415928991656e-05,9.238707945553736e-06,5.0080924102236884e-06
275,1.3744153992366614e-06,1.8627162893238544e-06,1.0264728923273454e-06,1.8654458400058841e-06,3.0420829586121705e-06,1.8396226773134315e-06,2.60706848500556e-06,3.3768571749814267e-06,2.6841686655042898e-06,1.9865026932783667e-06,9.720434970525566e-07,1.3508199632249898e-05,2.2318147699297255e-06,2.6981494339910438e-05,9.681399610370601e-06,5.2262796215066976e-06
276,1.3318207794012763e-06,1.8551955528059633e-06,1.0138085773004382e-06,1.8522717387131581e-06,3.0687382620112122e-06,1.7436704291759937e-06,2.6287730885313174e-06,3.4068995453814197e-06,2.5832630241165996e-06,1.8688972968016988e-06,9.425556358776918e-07,1.3188222786442472e-05,2.2321991193307218e-06,2.7950255514050007e-05,1.0076435523326414e-05,5.423293230627903e-06
277,1.2938990638544952e-06,1.8470250173717798e-06,1.0036560924684314e-06,1.8398386632412703e-06,3.0889652418920117e-06,1.6522349286092817e-06,2.643946967041841e-06,3.430267254377242e-06,2.4990799526264677e-06,1.779949837129098e-06,9.104469404940293e-07,1.2825432536438636e-05,2.234282715513511e-06,2.8772590616937476e-05,1.0413353179754734e-05,5.5951778270339215e-06
278,1.2605269074589524e-06,1.8385609543238106e-06,9.960607560838101e-07,1.8286156334114272e-06,3.10149933729109e-06,1.5664015484803723e-06,2.653280043272185e-06,3.4464568204725495e-06,2.433801506364662e-06,1.7214645925308275e-06,8.758849363179311e-07,1.242996571058836e-05,2.2378714042435527e-06,2.9420616156699423e-05,1.0683707429101324e-05,5.739447163402663e-06
279,1.2314976398229336e-06,1.830029822499156e-06,9.910965279479518e-07,1.819327266005588e-06,3.105188350128291e-06,1.4870115142511467e-06,2.6575737706865563e-06,3.4550941147336616e-06,2.389139305255807e-06,1.6953506205257139e-06,8.389940927979398e-07,1.2012159569490059e-05,2.242616636379328e-06,2.987489445853237e-05,1.0882048990367593e-05,5.855089861334208e-06
280,1.2066372177936176e-06,1.821477158971018e-06,9.888387383242517e-07,1.812871705153294e-06,3.0987965698629e-06,1.4146930859353e-06,2.6576184895323723e-06,3.455859710660539e-06,2.3663969125712193e-06,1.7036270355700259e-06,7.998547879038321e-07,1.1581680017814961e-05,2.2481991955792334e-06,3.0125420963391062e-05,1.1005814644151235e-05,5.941958743529071e-06
281,1.185862020002559e-06,1.8128399398705792e-06,9.893056863580284e-07,1.810128116884015e-06,3.0810325632720868e-06,1.349972015479402e-06,2.654004080242863e-06,3.4483309899711535e-06,2.366476891498236e-06,1.748327866036151e-06,7.584952107691089e-07,1.1146660285882126e-05,2.254285205178413e-06,3.01689327638448e-05,1.1054049360577269e-05,5.999970510759327e-06
282,1.169117898871389e-06,1.8040412915280911e-06,9.92430023430409e-07,1.811775326900045e-06,3.0509545411205013e-06,1.2933322565453574e-06,2.6469332577302536e-06,3.4318404698766347e-06,2.3898168048668424e-06,1.831502113952572e-06,7.148881372299114e-07,1.071335238535008e-05,2.260357074187403e-06,3.000439191956468e-05,1.1026154663634705e-05,6.028849887992686e-06
283,1.156299164143926e-06,1.7949788428463956e-06,9.980717919128911e-07,1.8182109102199236e-06,3.0084678667971725e-06,1.2451655335788638e-06,2.6361651895820862e-06,3.405641581791125e-06,2.4363652661334213e-06,1.955303361555446e-06,6.690046096816929e-07,1.0286287751673996e-05,2.2656638977138073e-06,2.963056965143838e-05,1.092204477846808e-05,6.028648593667146e-06
284,1.1472838238878977e-06,1.7854925828789253e-06,1.0060656261937376e-06,1.8295178518320499e-06,2.9545062140356225e-06,1.2057116646340028e-06,2.6211080807803247e-06,3.36945167220208e-06,2.505647973851957e-06,2.1221022721724603e-06,6.20946616868422e-07,9.86850617548489e-06,2.269393980595102e-06,2.904875358468966e-05,1.0743385552727838e-05,6.000479739703719e-06
285,1.1420257750602823e-06,1.7754740101190125e-06,1.0162472135801002e-06,1.8454853142371595e-06,2.890742897804373e-06,1.175090296696824e-06,2.601051225636625e-06,3.323969559157768e-06,2.5968260552542797e-06,2.33469237102594e-06,5.710699586979491e-07,9.461680009426057e-06,2.270938832090145e-06,2.826834976426895e-05,1.0494485379008389e-05,5.9468765241954585e-06
286,1.1405515863788457e-06,1.7650520808749608e-06,1.0284014400752293e-06,1.8657100752599256e-06,2.8191086340252924e-06,1.153372105754645e-06,2.575530016311778e-06,3.270944493328511e-06,2.708648449791804e-06,2.59653581154247e-06,5.199834060533411e-07,9.066311224101308e-06,2.2699346349490163e-06,2.7309809489991327e-05,1.0182304562750149e-05,5.871623440441292e-06
287,1.1428785735706137e-06,1.7546253967756443e-06,1.0421996945514325e-06,1.889658318803087e-06,2.7415525589720213e-06,1.1405933666972568e-06,2.54469823108354e-06,3.212813084928876e-06,2.839347814724801e-06,2.911834016362826e-06,4.684894482924868e-07,8.682138172731517e-06,2.2660381608264343e-06,2.6202493582700537e-05,9.815963628694214e-06,5.7791697783176635e-06
288,1.1489562658356209e-06,1.744672733394952e-06,1.0572412011633042e-06,1.9165857990625367e-06,2.6600610955629522e-06,1.1367189482711477e-06,2.509477901555899e-06,3.1522562783650707e-06,2.9866276154136517e-06,3.2853926329420877e-06,4.1755464073675955e-07,8.30866576927902e-06,2.258766122688153e-06,2.4979851418746757e-05,9.405971414057777e-06,5.673862017698969e-06
289,1.1586179909973714e-06,1.7355186381625412e-06,1.0731528909676756e-06,1.945413224353909e-06,2.5766124349116967e-06,1.1416043528008319e-06,2.4713543608701178e-06,3.0919760560846133e-06,3.147793965543551e-06,3.7224056881239764e-06,3.6826307378220504e-07,7.94556543627651e-06,2.2475807044498293e-06,2.3675142168823246e-05,8.963188371111854e-06,5.559323162964626e-06
290,1.171525348743593e-06,1.7272324527769974e-06,1.0896235670634395e-06,1.9747375877265743e-06,2.4929969340934436e-06,1.1549896287788218e-06,2.4319903974093274e-06,3.034681698419007e-06,3.319914032614615e-06,4.228152282869113e-06,3.217676756509942e-07,7.592783574839843e-06,2.232041498630319e-06,2.231886118718595e-05,8.497754677571261e-06,5.4382067657439445e-06
291,1.1871789693521619e-06,1.719667228567932e-06,1.1064454400553036e-06,2.003052288359795e-06,2.410678755831021e-06,1.17652691516131e-06,2.392971712538842e-06,2.983053786711224e-06,3.499890088651948e-06,4.807578630620264e-06,2.7929474892875095e-07,7.2504712685980695e-06,2.2118130020483686e-06,2.093744180146696e-05,8.018353700525777e-06,5.3122635152936035e-06
292,1.204987881152103e-06,1.7125395866154325e-06,1.1236594546619779e-06,2.029065994891857e-06,2.330754476900969e-06,1.2057847996173873e-06,2.3557210794016263e-06,2.9395545401088234e-06,3.6844976965133504e-06,5.464948219377309e-06,2.42162647092943e-07,6.918920260004394e-06,2.1866675672149744e-06,1.9552734433639723e-05,7.532055059240896e-06,5.182528091482648e-06
293,1.224281434162287e-06,1.7054578891012916e-06,1.1416293804901638e-06,2.0519129474666417e-06,2.2539749041754586e-06,1.2421941486791115e-06,2.3214613860205694e-06,2.9062067446580435e-06,3.870403618825601e-06,6.203790791945394e-06,2.1181526565318438e-07,6.598551349594333e-06,2.1567160141328185e-06,1.8182175184065384e-05,7.044649489061647e-06,5.049559681696176e-06
294,1.2442616218395531e-06,1.697903857516148e-06,1.1609059117851895e-06,2.071155379878837e-06,2.180853491668492e-06,1.2849829838536368e-06,2.2912570993439973e-06,2.884482574220151e-06,4.054076346983972e-06,7.027115234459876e-06,1.898946111296727e-07,6.289942239371682e-06,2.1226340791755623e-06,1.683948695798162e-05,6.561094146713887e-06,4.913725645499946e-06
295,1.264013511663992e-06,1.6893255119912818e-06,1.1820329421856092e-06,2.0866556409679675e-06,2.1118045680509837e-06,1.3331466345450568e-06,2.2661030823742905e-06,2.875257041957613e-06,4.231764642440578e-06,7.937539120511462e-06,1.782827330326092e-07,5.993868600380919e-06,2.085516266919379e-06,1.553543268956601e-05,6.085833751225274e-06,4.775429723347679e-06
296,1.2825600661978148e-06,1.679423275948586e-06,1.205447955935421e-06,2.098403512055724e-06,2.047153452424383e-06,1.385461237988975e-06,2.2468978054234983e-06,2.8787841082689785e-06,4.399845979303725e-06,8.937030033601197e-06,1.7909694772218955e-07,5.711294716650888e-06,2.0465194616198303e-06,1.427824613322648e-05,5.623023786637557e-06,4.6351953780575e-06
297,1.2988642269022387e-06,1.668405481221535e-06,1.2314614051497388e-06,2.10632111427393e-06,1.9870355742722333e-06,1.4405760805113443e-06,2.234322483200636e-06,2.894806172080912e-06,4.555402488477913e-06,1.0026357453939714e-05,1.9470203788624636e-07,5.44333776899584e-06,2.006724121983157e-06,1.3073835563610257e-05,5.176606421514978e-06,4.4936279724810595e-06
298,1.3118944272973334e-06,1.6569653173642488e-06,1.260284876801238e-06,2.1101428537538096e-06,1.9313874086316294e-06,1.4972099400063416e-06,2.2287705853783748e-06,2.922811013938329e-06,4.6966445926197825e-06,1.1204555497889292e-05,2.2771308462142753e-07,5.191308745661457e-06,1.967265311973569e-06,1.1926102565542367e-05,4.750166485590294e-06,4.351273869154904e-06
299,1.320937163690793e-06,1.646024415288708e-06,1.292068264665305e-06,2.1094851394328697e-06,1.8801002292496938e-06,1.5543634078831587e-06,2.230329126245224e-06,2.9621938035382003e-06,4.823027122511016e-06,1.2468513395930845e-05,2.809301967984109e-07,4.956804031820203e-06,1.9294313767942547e-06,1.0837528908522009e-05,4.3466982621574356e-06,4.2084013192829484e-06
300,1.3259847729659391e-06,1.6364424619977403e-06,1.3268612780176607e-06,2.104030200230111e-06,1.8331722000561302e-06,1.6114320169036472e-06,2.2387919203324286e-06,3.0121878243927285e-06,4.935072997613905e-06,1.3812664706758795e-05,3.5725514869578906e-07,4.741696297907379e-06,1.8945585441472882e-06,9.809881970364267e-06,3.96844111546889e-06,4.064893369297933e-06
301,1.3277947332126314e-06,1.6288214965106258e-06,1.3645188510715282e-06,2.093660309888869e-06,1.790675788675192e-06,1.668210533306784e-06,2.2537106295619196e-06,3.07178200863258e-06,5.034064218474807e-06,1.52287825188479e-05,4.596619001447404e-07,4.547918090853752e-06,1.863876602470725e-06,8.844722377088945e-06,3.6168045677558486e-06,3.920366338065118e-06
302,1.327540715040267e-06,1.623436576713076e-06,1.404651714131363e-06,2.0785049932907257e-06,1.7525718313024777e-06,1.72483120615192e-06,2.2743950375922135e-06,3.139800268391357e-06,5.1218270295895e-06,1.6705884599266356e-05,5.912076861944668e-07,4.377094848818763e-06,1.8384525292698803e-06,7.943367423879677e-06,3.292361985396465e-06,3.7743549907473984e-06
303,1.326412827651795e-06,1.6202650927342573e-06,1.4466765390881268e-06,2.058945047678667e-06,1.7185863770676112e-06,1.7816295739666374e-06,2.299861334286475e-06,3.2150105817457772e-06,5.200556995692537e-06,1.823012426245651e-05,7.550511959338258e-07,4.230285094863626e-06,1.8191480335881637e-06,7.1063400289988754e-06,2.99492722425135e-06,3.6264764125186217e-06
304,1.3254744900820352e-06,1.619038663804595e-06,1.4899878947100949e-06,2.035562885521923e-06,1.6883066216565564e-06,1.8389277098600551e-06,2.328821598430759e-06,3.296136016337196e-06,5.272432127520642e-06,1.9784512571018753e-05,9.544697338004577e-07,4.108046104062848e-06,1.8065373556151965e-06,6.3329798129514325e-06,2.7237535004659655e-06,3.476690406170817e-06
305,1.3257095778887211e-06,1.6192814410129408e-06,1.5341779511598898e-06,2.0090033650863215e-06,1.6614483761767326e-06,1.8968255080832263e-06,2.3596750046740523e-06,3.381860172653819e-06,5.3390763948502245e-06,2.1348495421047746e-05,1.1928867854275887e-06,4.010711393025014e-06,1.8008606561980429e-06,5.621789820742897e-06,2.47780905078657e-06,3.325653766342503e-06
306,1.3280600211156577e-06,1.6204495422815217e-06,1.5791281525675755e-06,1.9798113561131604e-06,1.638082277476752e-06,1.9551070490736836e-06,2.390478943911101e-06,3.470965425909315e-06,5.401276283366447e-06,2.2897462782353174e-05,1.4739246836365313e-06,3.93862326357728e-06,1.8020429860104479e-06,4.971178057374306e-06,2.2559532517781006e-06,3.1749096752543372e-06
307,1.3334264644771238e-06,1.6222274485653258e-06,1.62490692914027e-06,1.9483594245037644e-06,1.6186163125882052e-06,2.0132622951034367e-06,2.419095314158237e-06,3.562566248149637e-06,5.459122992086658e-06,2.440226947484207e-05,1.801431417323072e-06,3.892250348597138e-06,1.8097870677586419e-06,4.379852063275624e-06,2.056962648830178e-06,3.0266986554610435e-06
308,1.342694726090109e-06,1.624722497465947e-06,1.6715798730713853e-06,1.9148474373823133e-06,1.6035599770780193e-06,2.070589202219515e-06,2.443634283618681e-06,3.6562585429297273e-06,5.512264371047472e-06,2.582936142612756e-05,2.1794205194701984e-06,3.872239584616673e-06,1.8237854222723955e-06,3.846636798585737e-06,1.8795952671121163e-06,2.8834975512437775e-06
309,1.356737618302788e-06,1.6283535045927577e-06,1.719048558557384e-06,1.8793018424644522e-06,1.5932832282287338e-06,2.126359317230459e-06,2.4628784125136927e-06,3.7520933531987647e-06,5.559955885032058e-06,2.7142504998173282e-05,2.6119689754440845e-06,3.8794240317596785e-06,1.8439532807132254e-06,3.3700331519310133e-06,1.7227267453781926e-06,2.7475645861958885e-06
310,1.3763199529841517e-06,1.6336409610117042e-06,1.766961699432172e-06,1.8416104917519939e-06,1.5879184933604074e-06,2.1800067694701293e-06,2.476261371220355e-06,3.8504622171034484e-06,5.6010660567135695e-06,2.830636495992347e-05,3.103139248161559e-06,3.914825619681201e-06,1.8704352607090078e-06,2.9479115625084667e-06,1.5853520379868824e-06,2.6206704518066543e-06
311,1.4019737651383862e-06,1.6411054832956117e-06,1.8147109172614326e-06,1.8016200570688725e-06,1.5873752973964403e-06,2.23127800794885e-06,2.4835119949498536e-06,3.952022607983351e-06,5.634348219515992e-06,2.929094492783491e-05,3.6569154293221216e-06,3.9796890955520005e-06,1.9034017200064533e-06,2.5775161358145696e-06,1.466493630293006e-06,2.504027645177086e-06
312,1.4339381320096297e-06,1.6512312622190377e-06,1.8614922041820991e-06,1.7592307020462857e-06,1.5913497438224883e-06,2.280268383948827e-06,2.484409920153472e-06,4.057653532354464e-06,5.658861726028742e-06,3.0075240172247097e-05,4.277139808285119e-06,4.075505331193435e-06,1.9429013024868376e-06,2.255702295470316e-06,1.365250887573977e-06,2.3983199562059107e-06
313,1.4721689615427885e-06,1.664445877217617e-06,1.9063493711934802e-06,1.7144499050505724e-06,1.599303753845599e-06,2.327293650501426e-06,2.4787487359684453e-06,4.168280090934659e-06,5.674106409010404e-06,3.064844691020134e-05,4.967450917795797e-06,4.2039727140502585e-06,1.9888223132534016e-06,1.9791724026813682e-06,1.2809123402063613e-06,2.3037525157630586e-06
314,1.5164001274377506e-06,1.6810798522974298e-06,1.9481594498994164e-06,1.6674224352844333e-06,1.610519973214015e-06,2.3726466610213458e-06,2.4663496312986017e-06,4.2844935888864685e-06,5.6797922393193455e-06,3.100787979195078e-05,5.731163679228145e-06,4.366900047049381e-06,2.040841285331929e-06,1.7445418089885747e-06,1.2129114126023693e-06,2.220131674466371e-06
315,1.5662187137032027e-06,1.7012972809035938e-06,1.9857083651407697e-06,1.6184551879536789e-06,1.6242472325274325e-06,2.416380301894385e-06,2.4471314043085883e-06,4.406146692996883e-06,5.675640213747177e-06,3.115428685681803e-05,6.571028626261467e-06,4.566054772775574e-06,2.0983367768572053e-06,1.5483362545890874e-06,1.1606913524196736e-06,2.1469676777886418e-06
316,1.6210721607995085e-06,1.7250500894695533e-06,2.0179919598879228e-06,1.5680346299211704e-06,1.6397957302698612e-06,2.4582046627319565e-06,2.4212075097292545e-06,4.5321267471802545e-06,5.661471036408895e-06,3.1087058735665416e-05,7.488914826817941e-06,4.8029469340596426e-06,2.1603391736167526e-06,1.3870798637895727e-06,1.1236317856894286e-06,2.0835327584880075e-06
317,1.6801803469384048e-06,1.7520388080301877e-06,2.044586661925246e-06,1.5168113279331651e-06,1.6565676516517444e-06,2.4974777199392367e-06,2.3888311799028846e-06,4.660332779927227e-06,5.637418934531201e-06,3.0803127902466914e-05,8.485512130633023e-06,5.078578216930804e-06,2.2256387718510276e-06,1.2574647569797254e-06,1.1010374781698449e-06,2.0288887454502733e-06
318,1.7424435163447425e-06,1.781707404134399e-06,2.0658174416444665e-06,1.4655413049535396e-06,1.6741228252151327e-06,2.5332670572276153e-06,2.3502403521228895e-06,4.787825072522554e-06,5.604011662681146e-06,3.0301411015104984e-05,9.560091715372422e-06,5.393194691329968e-06,2.2930889367352104e-06,1.1565255577012418e-06,1.0921466123083193e-06,1.9819923609514544e-06
319,1.806462902570312e-06,1.8133993151709594e-06,2.082624774378029e-06,1.415003645652591e-06,1.6921885596174353e-06,2.564497986652265e-06,2.3056943278986864e-06,4.911081993099496e-06,5.561989570607665e-06,2.9589472782731856e-05,1.0710306398841658e-05,5.7460704958601655e-06,2.361838033344435e-06,1.0816971265034265e-06,1.0961196874487033e-06,1.9418879605705266e-06
320,1.870672172761137e-06,1.8466366823968535e-06,2.096221690281922e-06,1.3659206171573663e-06,1.7104966755946344e-06,2.590165726849048e-06,2.2557454040827668e-06,5.026220535209547e-06,5.511873692572611e-06,2.868693543320277e-05,1.193198493685125e-05,6.13542714331501e-06,2.431222486101218e-06,1.0306849285649715e-06,1.1120044209970351e-06,1.9078487016314988e-06
321,1.9334561104650783e-06,1.8812821868906965e-06,2.107717513756698e-06,1.318919103754819e-06,1.7285802370953654e-06,2.609511745284117e-06,2.2014208783372008e-06,5.129140516969881e-06,5.453480845568082e-06,2.7623742916270792e-05,1.3218874105714832e-05,6.558560849907329e-06,2.5005239275725313e-06,1.0013253297434884e-06,1.1387052314790825e-06,1.8793426067196626e-06
322,1.9932574050855444e-06,1.9174356498242097e-06,2.117861505832312e-06,1.2745570001756945e-06,1.7457345341015086e-06,2.6220161147542624e-06,2.144069810455134e-06,5.215718775389435e-06,5.385739287814391e-06,2.6435665341536376e-05,1.4562345819748762e-05,7.012002201632547e-06,2.5688980974548646e-06,9.916626770893478e-07,1.1749598005194549e-06,1.8558618952478144e-06
323,2.0488070772276404e-06,1.9551816887472986e-06,2.126945165979483e-06,1.2333581018957234e-06,1.761192001611648e-06,2.6271829535200493e-06,2.0850307786529616e-06,5.28213775704202e-06,5.307045940825987e-06,2.5160053195011208e-05,1.5951173676221645e-05,7.491482542396159e-06,2.6353735461367185e-06,1.0001267710950943e-06,1.2193174935490787e-06,1.8368062796695772e-06
324,2.0993506294248558e-06,1.9944068185889275e-06,2.134817563035103e-06,1.1957802399516121e-06,1.7743693975988074e-06,2.6243389501018782e-06,2.0254373091029444e-06,5.325294536769809e-06,5.215998789503973e-06,2.3832863603190345e-05,1.7371443092149872e-05,7.991739221691943e-06,2.698725574302697e-06,1.0254833406905897e-06,1.2701271860445138e-06,1.8215535289969498e-06
325,2.1445758586953506e-06,2.034755805019006e-06,2.1410066545951996e-06,1.1621595628558382e-06,1.784967271162142e-06,2.612629950055081e-06,1.9662330271804082e-06,5.343184668435609e-06,5.11193529517189e-06,2.2486641519432914e-05,1.8806489666117464e-05,8.506304734891372e-06,2.7573573588347312e-06,1.0665837672483881e-06,1.325552679070324e-06,1.8095856547301492e-06
326,2.1843542973920466e-06,2.075632121730807e-06,2.1449603863704764e-06,1.132734923635184e-06,1.7928600443836008e-06,2.591206185601325e-06,1.908232302315705e-06,5.335147232969204e-06,4.994851038270355e-06,2.11493519564628e-05,2.0236671837508834e-05,9.027292258700314e-06,2.809420852525092e-06,1.1222164459022085e-06,1.383613285644573e-06,1.8004546679622472e-06
327,2.218693361581832e-06,2.1161993599924156e-06,2.146308795236227e-06,1.1077487651146143e-06,1.797959812547941e-06,2.5595734024015833e-06,1.852099922796892e-06,5.301855559074103e-06,4.865023421728994e-06,1.9844167506515032e-05,2.1638897192035568e-05,9.545235886493667e-06,2.8530871114275126e-06,1.1911075249370686e-06,1.442265547974694e-06,1.7936416241152823e-06
328,2.2479503444296505e-06,2.155478869346651e-06,2.1449862528218506e-06,1.087526799337057e-06,1.8002488992607582e-06,2.5179729087089342e-06,1.7982736556745218e-06,5.245018919819641e-06,4.722988850764796e-06,1.858984560037273e-05,2.2986267485996958e-05,1.0049294177038606e-05,2.8867908989470424e-06,1.27195639150102e-06,1.4995836641280774e-06,1.788529219712766e-06
