,EMG1,EMG2,EMG3,EMG4,EMG5,EMG6,EMG7,EMG8,EMG9,EMG10,EMG11,EMG12,EMG13,EMG14,EMG15,EMG16
0,1.041747642492028e-07,1.2999082859271144e-07,-2.0255692881584586e-08,3.148835697973541e-07,4.557964051393238e-07,1.170983934256612e-07,8.298155172697301e-07,3.1313819942411415e-07,1.0941854322883501e-07,1.0502087762569063e-06,3.631024245323024e-07,1.694688208273955e-06,-3.3505370510400164e-08,4.703364613065153e-07,-4.262504108702807e-08,-1.4746486728293844e-07
1,1.9125751746147461e-07,2.1201914310448014e-07,1.4056391573958168e-07,4.6861478521356803e-07,6.237421977822176e-07,4.300994895747297e-07,9.374085926308284e-07,4.441537709265063e-07,3.6901323107394186e-07,3.5011660537414995e-06,4.066300782590543e-07,1.9010351818333524e-06,2.750240062761462e-07,3.4099272027967174e-06,2.100958468062145e-07,9.446493665629034e-07
2,2.786885000895367e-07,2.9262650152914763e-07,2.9459408066867827e-07,6.206372785007529e-07,7.926644274149723e-07,7.328174887943167e-07,1.0533495445890306e-06,5.75254710019221e-07,6.242575044141834e-07,5.8745048096937016e-06,4.501798037164996e-07,2.1127056772094575e-06,5.800946241098941e-07,6.222052549386748e-06,4.532697073305957e-07,1.9909381746367596e-06
3,3.6517918439694123e-07,3.695782883227015e-07,4.396515929477094e-07,7.698979047144232e-07,9.595627103297018e-07,1.0211727174530083e-06,1.176861243495695e-06,7.04783377371955e-07,8.68992456614622e-07,8.104476696308275e-06,4.936697297326591e-07,2.3273674508379627e-06,8.758430485672899e-07,8.822290131643168e-06,6.84372470880465e-07,2.962674589044642e-06
4,4.5014969501115404e-07,4.4155482041692946e-07,5.737438044946744e-07,9.153590370719716e-07,1.1213441015887956e-06,1.2917118028724063e-06,1.3073144135717445e-06,8.310523782085677e-07,1.0976393274598717e-06,1.0129497108047831e-05,5.369671460427721e-07,2.5427739271194367e-06,1.15774747671524e-06,1.1141698255399454e-05,9.013688725744469e-07,3.835800993933581e-06
5,5.335255949678746e-07,5.081071120142881e-07,6.951601448896462e-07,1.0559503716938057e-06,1.2749711601857008e-06,1.5415517187258642e-06,1.444113479602134e-06,9.523174704993011e-07,1.3058899437024384e-06,1.189864651014062e-05,5.798913300976073e-07,2.7569243867399243e-06,1.4232812022077539e-06,1.313521985921267e-05,1.102614049480124e-06,4.5928996848839515e-06
6,6.154073395685607e-07,5.693733517919611e-07,8.02595971810487e-07,1.190585116756558e-06,1.4178520355716873e-06,1.7683384335604792e-06,1.5865440766729446e-06,1.0668339424806656e-06,1.4912532143207417e-06,1.3380109618922076e-05,6.222432201118847e-07,2.968283036328198e-06,1.6718384466364751e-06,1.4783583795535433e-05,1.2867182830246167e-06,5.224472041661651e-06
7,6.958705054841688e-07,6.258092375846033e-07,8.952288890617885e-07,1.3182025133596638e-06,1.5482785681817121e-06,1.970442546233867e-06,1.7337017752183757e-06,1.1730828245250488e-06,1.6530247441215218e-06,1.4565443472056388e-05,6.638327909115281e-07,3.1758550171028672e-06,1.9040499798944073e-06,1.6089046228357322e-05,1.452438875721642e-06,5.728951416173173e-06
8,7.749141837596519e-07,6.780541823692128e-07,9.727633863600244e-07,1.437780042588094e-06,1.6655508369401388e-06,2.147269165247596e-06,1.8844932172928227e-06,1.2700786134779815e-06,1.7918678825404393e-06,1.5466418478827563e-05,7.044679352599138e-07,3.3790112290591578e-06,2.1212516291486023e-06,1.7069464943770877e-05,1.5986073257706437e-06,6.1114239342649395e-06
9,8.52472007152857e-07,7.268966851715334e-07,1.0354760969843113e-06,1.5483422656347989e-06,1.7696721256239094e-06,2.2993911070639823e-06,2.037622569634922e-06,1.3574666229826293e-06,1.909303396405576e-06,1.610705489551964e-05,7.439343660993766e-07,3.577196681881961e-06,2.325404507396903e-06,1.7753186455959465e-05,1.7241294775889092e-06,6.381627819996277e-06
10,9.284355097547244e-07,7.732296957816766e-07,1.0841761504331123e-06,1.6490072278112527e-06,1.8608990152224518e-06,2.42836501101878e-06,2.191513502884508e-06,1.435315898008993e-06,2.007212578184308e-06,1.651602252234921e-05,7.820045581121416e-07,3.76970772174876e-06,2.5190156155700857e-06,1.8174469913056864e-05,1.8281545908017139e-06,6.551870294038726e-06
11,1.002670108755997e-06,8.179465586903278e-07,1.1200230400639552e-06,1.7390477828267451e-06,1.9395593408587647e-06,2.536301271041521e-06,2.344245450365744e-06,1.5038673444263765e-06,2.0874967658848715e-06,1.6722331714720355e-05,8.184365310906628e-07,3.955588883317299e-06,2.7047463887833876e-06,1.8369186897429983e-05,1.910409416192685e-06,6.6352635129582446e-06
12,1.0750225730960016e-06,8.618386622179557e-07,1.1443059619956725e-06,1.81792194962088e-06,2.0062232739333727e-06,2.625387888391463e-06,2.4936291434653494e-06,1.5633958662509913e-06,2.151949333810063e-06,1.6753811364163458e-05,8.529672343423732e-07,4.133606037031037e-06,2.8849825524414403e-06,1.837145630553533e-05,1.9714978937815907e-06,6.644481261631715e-06
13,1.1453319929185065e-06,9.055474822085228e-07,1.1583070490035182e-06,1.8852964868320027e-06,2.061891316708112e-06,2.6975780149718618e-06,2.637421686193894e-06,1.614121519144842e-06,2.202235063273182e-06,1.663674009342048e-05,8.853312962804257e-07,4.3022320702169825e-06,3.061715556091878e-06,1.8211768472507595e-05,2.012941293513609e-06,6.591099106560839e-06
14,1.2135108872202865e-06,9.495530157745028e-07,1.163244390346158e-06,1.9411201836740527e-06,2.1079011973880213e-06,2.754508742749199e-06,2.7735566208914037e-06,1.6561437730477932e-06,2.239982983533573e-06,1.6395795135923952e-05,9.15241184502568e-07,4.459564655503457e-06,3.236692691951107e-06,1.7916432739160223e-05,2.0368874971985735e-06,6.485448572447532e-06
15,1.2797030996987424e-06,9.94194246990509e-07,1.1602684408625154e-06,1.985710391660935e-06,2.1456294499810444e-06,2.7975461643098295e-06,2.9002871869302115e-06,1.6894081322332832e-06,2.2669800715701835e-06,1.605410835162957e-05,9.423220079732704e-07,4.6031605702465604e-06,3.4115008759431985e-06,1.750782579524104e-05,2.0456715430352683e-06,6.3367554961691325e-06
16,1.344319331116297e-06,1.0397644751288536e-06,1.1505331154938981e-06,2.019733416234052e-06,2.1762449638212477e-06,2.8278246849832977e-06,3.016244284882458e-06,1.7137602629922625e-06,2.285216648518838e-06,1.563313125973135e-05,9.66103246214968e-07,4.7299815485263946e-06,3.5874066443126984e-06,1.7005001636057515e-05,2.04152787877436e-06,6.153289169955808e-06
17,1.4078403937644557e-06,1.0866600258527276e-06,1.1352879208437704e-06,2.0440148229720694e-06,2.200625029394139e-06,2.8462147574622166e-06,3.1204502373898e-06,1.7291533390112765e-06,2.2966617607537684e-06,1.5152093088328426e-05,9.861128694695404e-07,4.836708862173376e-06,3.7651164189880913e-06,1.6424411306936173e-05,2.0265178167592653e-06,5.942438235946524e-06
18,1.4705868677774416e-06,1.1354453895567634e-06,1.1158823524980508e-06,2.059266182441133e-06,2.2193612653260326e-06,2.85325045375771e-06,3.2122915290163806e-06,1.7358809197834838e-06,2.3029733978505127e-06,1.4627330205401732e-05,1.0020122363331645e-06,4.920378928454432e-06,3.944647235348056e-06,1.578064990983948e-05,2.002497860726146e-06,5.71079436725252e-06
19,1.532651269712471e-06,1.1867517983166504e-06,1.093669728713541e-06,2.0659241872161266e-06,2.2327798619433513e-06,2.84919615627764e-06,3.291433301466077e-06,1.7346374314822083e-06,2.3053556668245225e-06,1.4072038296872809e-05,1.0136892470417341e-06,4.979003637007223e-06,4.125333997380624e-06,1.5087179151057062e-05,1.9710533883666907e-06,5.464288243421371e-06
20,1.5939488752251257e-06,1.2411073319353961e-06,1.069889331973095e-06,2.064238570163579e-06,2.2409459693908674e-06,2.8343588009094033e-06,3.35765393835793e-06,1.7264017415637546e-06,2.304597429295884e-06,1.349665751514444e-05,1.0213081744601e-06,5.011875910735584e-06,4.305916956162982e-06,1.43568621917786e-05,1.9335049858839187e-06,5.208330641117956e-06
21,1.654241213182933e-06,1.2988296751809018e-06,1.0456129698677708e-06,2.054480266848899e-06,2.243692058836024e-06,2.8094307750004643e-06,3.4105999917141086e-06,1.7122887236177108e-06,2.301194812976534e-06,1.2909571406349294e-05,1.0253248425819246e-06,5.019471669228386e-06,4.484578971861575e-06,1.3602137905900044e-05,1.8910295317592842e-06,4.94785671289831e-06
22,1.7130988632140045e-06,1.3600069891936435e-06,1.021781334205719e-06,2.036993733330877e-06,2.240789944589296e-06,2.775604728893587e-06,3.449613181229293e-06,1.693439414876418e-06,2.295422142408556e-06,1.2317672021359027e-05,1.0264060193989082e-06,5.003080823687671e-06,4.658854172854157e-06,1.2834854789864846e-05,1.844750638413727e-06,4.6871936358056305e-06
23,1.7699406236087857e-06,1.4245427410815483e-06,9.99257436514464e-07,2.0121053890984715e-06,2.2322385956784504e-06,2.73447599557728e-06,3.473851345323265e-06,1.6708961122394872e-06,2.287335910339468e-06,1.1726590462362153e-05,1.0252755785911133e-06,4.964430686487137e-06,4.825606603662677e-06,1.2066010754386518e-05,1.7957383328421868e-06,4.429832431549373e-06
24,1.8242469192987228e-06,1.492232458861356e-06,9.788166824217208e-07,1.98011395680033e-06,2.2184490622028454e-06,2.687860106860927e-06,3.4826678406672074e-06,1.6454621767297496e-06,2.2768143998014153e-06,1.1140743195512698e-05,1.0226082948863052e-06,4.905518772346396e-06,4.9813533422649636e-06,1.130562199531549e-05,1.7450390478668267e-06,4.178322201192803e-06
25,1.875784863712442e-06,1.5628239966747243e-06,9.610918738932774e-07,1.9413691583205434e-06,2.2002095116403302e-06,2.6375699862513165e-06,3.4759702432654974e-06,1.617644669231761e-06,2.263726016530806e-06,1.0563499873574922e-05,1.018985200684083e-06,4.828660422327876e-06,5.122860948807823e-06,1.0562682955105043e-05,1.6937389183650705e-06,3.934414937145043e-06
26,1.9246113629755495e-06,1.636007277586177e-06,9.465432015920195e-07,1.8963484137774351e-06,2.1785024083492565e-06,2.585216343277995e-06,3.4543728281352013e-06,1.5877454216811026e-06,2.2481625184367345e-06,9.997505505196771e-06,1.014846615886033e-06,4.73655179378434e-06,5.247650767846428e-06,9.845089383334467e-06,1.6429491418312754e-06,3.699369347619306e-06
27,1.9709018366995047e-06,1.7113212271133108e-06,9.354953768575181e-07,1.845758279829123e-06,2.1542809828865154e-06,2.5321075759079604e-06,3.4191791257406903e-06,1.5560735556753569e-06,2.230516244745535e-06,9.444875945297787e-06,1.0104744896257621e-06,4.63216611461011e-06,5.354141786132897e-06,9.159511251415797e-06,1.5937064706637285e-06,3.474228399338641e-06
28,2.0148187265210004e-06,1.788059680181973e-06,9.282268241677559e-07,1.7906053454253847e-06,2.128309920486176e-06,2.4792081582673156e-06,3.3723142920176052e-06,1.5231345097501216e-06,2.211430560177424e-06,8.907167121576346e-06,1.0060716750726443e-06,4.518510977359483e-06,5.441456050066482e-06,8.511220269276989e-06,1.5468577414454585e-06,3.259962463061099e-06
29,2.0564679449695523e-06,1.865242106599494e-06,9.250329032255536e-07,1.7321064342714018e-06,2.101131356245399e-06,2.427148066844866e-06,3.3162321845453443e-06,1.489617191046614e-06,2.1917853021469045e-06,8.38537564252626e-06,1.001873901026143e-06,4.398417679890092e-06,5.509035282061366e-06,7.903924226241738e-06,1.5030149830325401e-06,3.057463741449985e-06
30,2.0959626047609217e-06,1.9416015931005635e-06,9.262346273238925e-07,1.671518126126388e-06,2.0730958848534035e-06,2.3763450127616247e-06,3.2537053678960676e-06,1.4562014528625255e-06,2.1726055055033304e-06,7.880100953794267e-06,9.98154343783823e-07,4.274415435038946e-06,5.556188633110874e-06,7.339716853406276e-06,1.462626108264823e-06,2.867448348257247e-06
31,2.1336211328370416e-06,2.0155887871753353e-06,9.32210928115496e-07,1.6100532147653995e-06,2.0444015613667753e-06,2.327148305317682e-06,3.1874855292998953e-06,1.423390708814942e-06,2.1549035807474157e-06,7.39164716259388e-06,9.951170587451186e-07,4.148643757349025e-06,5.5819077488329074e-06,6.819137927312194e-06,1.4260790607011885e-06,2.690347877194823e-06
32,2.1700513071400796e-06,2.0855095438298638e-06,9.434459612018274e-07,1.5488330667093702e-06,2.0151574023608077e-06,2.2798357648263597e-06,3.1200269238142288e-06,1.3914767226742405e-06,2.139631657648531e-06,6.919949364810044e-06,9.92810076487959e-07,4.022918877856648e-06,5.585254260466251e-06,6.34138913017253e-06,1.3937407316245747e-06,2.5262139567887845e-06
33,2.2059423698808043e-06,2.1498304094079512e-06,9.604826045059075e-07,1.488792461966679e-06,1.985493325602509e-06,2.2344698886939974e-06,3.0534438440180296e-06,1.3605959734098448e-06,2.1276683128887762e-06,6.464562946434013e-06,9.911234819790645e-07,3.898934787021368e-06,5.565948680439704e-06,5.904817784280413e-06,1.365928650858218e-06,2.3746307980555876e-06
34,2.241840793818924e-06,2.2074799998669734e-06,9.838155879334092e-07,1.4306290342985175e-06,1.9557397940338664e-06,2.1908191508534383e-06,2.9895936291946505e-06,1.3308347766880414e-06,2.1196956770650755e-06,6.024956848273996e-06,9.89826360269197e-07,3.7782336845340156e-06,5.524571857729203e-06,5.507462424980015e-06,1.3428425857096909e-06,2.234679624783536e-06
35,2.278176199180222e-06,2.257912414577636e-06,1.013831997706483e-06,1.374872192580604e-06,1.926607419137306e-06,2.148507619982977e-06,2.930059753779187e-06,1.3023259222744103e-06,2.1160531459674846e-06,5.601054425887412e-06,9.88615096591588e-07,3.6618904054884583e-06,5.462397247895005e-06,5.147303123461608e-06,1.3244753219128043e-06,2.1050373642123433e-06
36,2.315397734115326e-06,2.300878471441034e-06,1.050792843193359e-06,1.3220110917995742e-06,1.8991682389049164e-06,2.1073150751554283e-06,2.8760059543591084e-06,1.2752719339776774e-06,2.116753275829778e-06,5.193692633346642e-06,9.87170813653033e-07,3.5503034094833798e-06,5.381198367514088e-06,4.822235645468183e-06,1.3105536577338087e-06,1.984255378139955e-06
37,2.3539648628086188e-06,2.336138974614561e-06,1.0948170162871471e-06,1.2725696458403895e-06,1.8745961693052546e-06,2.0674310784738304e-06,2.828079293433671e-06,1.2499473203208796e-06,2.1216192074385132e-06,4.804609084071512e-06,9.851700909439647e-07,3.4432782293677036e-06,5.283084335763776e-06,4.530111396311692e-06,1.3005856014418938e-06,1.87111954248512e-06
38,2.3941819316801574e-06,2.3634333553944765e-06,1.1458722504040574e-06,1.227058457971993e-06,1.8539330857138938e-06,2.0295083118753535e-06,2.7865484026354127e-06,1.2267389403832782e-06,2.1303560246947624e-06,4.435893544473194e-06,9.822347940953282e-07,3.340269822695505e-06,5.170239244471832e-06,4.269048336206247e-06,1.2940266187670432e-06,1.7648277471481787e-06
39,2.436052615330789e-06,2.38270582187047e-06,1.20380406709643e-06,1.1858601503126644e-06,1.8380945850986655e-06,1.9944612912702327e-06,2.7516624264007357e-06,1.2061339799654199e-06,2.142557574461986e-06,4.089293306397021e-06,9.779051529057173e-07,3.2406409604990768e-06,5.044659966708314e-06,4.037894148032997e-06,1.2904519654173368e-06,1.6648371700782608e-06
40,2.479273488517649e-06,2.394255628184492e-06,1.2683870285592412e-06,1.1491859909195605e-06,1.8279575455743842e-06,1.9631409412118985e-06,2.7239509859507107e-06,1.1885974301384553e-06,2.1577100864186004e-06,3.7657872396407804e-06,9.716890499758715e-07,3.143844242552219e-06,4.908102018401142e-06,3.836540773320641e-06,1.2895972000232505e-06,1.5706351953333472e-06
41,2.5233642173248934e-06,2.39857451588527e-06,1.339314081678961e-06,1.1171237428285403e-06,1.8242937202071476e-06,1.936108116301843e-06,2.7042096641278433e-06,1.1744416439192932e-06,2.1751857987481655e-06,3.465553972440383e-06,9.631681311432803e-07,3.0494766155931037e-06,4.762229874325483e-06,3.665803548790421e-06,1.2912491253835224e-06,1.4817405082017087e-06
42,2.5678263995231173e-06,2.396014081031745e-06,1.41612891606759e-06,1.0896544174626418e-06,1.8276014066741587e-06,1.9135661923975854e-06,2.6932582223385616e-06,1.1637760871814069e-06,2.194259624519235e-06,3.1882559776693914e-06,9.521213378513907e-07,2.9572745146619577e-06,4.60877620712806e-06,3.526881854830221e-06,1.2950899567217552e-06,1.3978428341913572e-06
43,2.6121779985974913e-06,2.38662080586283e-06,1.4981753346074795e-06,1.066609674701155e-06,1.8380043153392984e-06,1.8953630959446443e-06,2.6917383827672557e-06,1.1565309124796267e-06,2.214105593550684e-06,2.933418857007484e-06,9.386112482580821e-07,2.867174617289405e-06,4.449521382501751e-06,3.4208545888348803e-06,1.30062731679234e-06,1.3188323133951315e-06
44,2.655829417272969e-06,2.370295884301403e-06,1.5845584321641747e-06,1.0476829153516543e-06,1.8552672286462382e-06,1.8810449784524627e-06,2.7000513158524682e-06,1.1525138670577524e-06,2.233752378204548e-06,2.7006303919670485e-06,9.229657759061056e-07,2.7794236889312623e-06,4.2860377952737756e-06,3.3485587919936214e-06,1.3072725830938836e-06,1.2446681759467673e-06
45,2.6979113759959645e-06,2.347109857080058e-06,1.674113865818036e-06,1.03250819463753e-06,1.8789158667722553e-06,1.869952558052037e-06,2.7183643250066087e-06,1.1514610653315105e-06,2.2521552092270043e-06,2.4894697851368835e-06,9.056515923727494e-07,2.694585367576264e-06,4.119396597633493e-06,3.310620590316162e-06,1.314478504457747e-06,1.1752243237421963e-06
46,2.7372354023408034e-06,2.3174972313425055e-06,1.7654524182318059e-06,1.0207143300809957e-06,1.908412870207425e-06,1.8612651004700117e-06,2.7466205972094142e-06,1.153095477458026e-06,2.2684104286139603e-06,2.2993162133004223e-06,8.871690021200188e-07,2.6134219256923855e-06,3.950167932996269e-06,3.3073142669966824e-06,1.3218010062092284e-06,1.1102734186257262e-06
47,2.7724909040259126e-06,2.2822311898048637e-06,1.8570711460480843e-06,1.011991323885977e-06,1.9432932950887166e-06,1.8540336488869246e-06,2.784514246520351e-06,1.1571948914227881e-06,2.281874253178918e-06,2.1292440762810465e-06,8.680636752453067e-07,2.536846188340937e-06,3.778783546682214e-06,3.3383363179580834e-06,1.328914859875779e-06,1.0496438606611915e-06
48,2.802539791163291e-06,2.2422471585429283e-06,1.947394460364378e-06,1.006228158351899e-06,1.983195524745434e-06,1.8473268617617873e-06,2.8313987179681976e-06,1.1636048625015742e-06,2.2920426642532108e-06,1.97810260365615e-06,8.489613858176451e-07,2.4660380598022332e-06,3.6059835354230396e-06,3.402729627164859e-06,1.3356508849642667e-06,9.933950870746117e-07
49,2.82662588693707e-06,2.198415064407552e-06,2.034723793333647e-06,1.0035933697540035e-06,2.0277879840972787e-06,1.8404140700541387e-06,2.886173706324719e-06,1.1721906228055964e-06,2.2983918099425945e-06,1.8446656679520222e-06,8.3052483812497e-07,2.4025162395267914e-06,3.433046042270211e-06,3.498986567584175e-06,1.3419750610794317e-06,9.417973072417455e-07
50,2.8445099658573795e-06,2.151383332658908e-06,2.1172495079260577e-06,1.0044552646504629e-06,2.0766840285219316e-06,1.8328715607144808e-06,2.9472567046054835e-06,1.1827803505885295e-06,2.3003613451197e-06,1.7276770227048598e-06,8.133653493768962e-07,2.3479649756780638e-06,3.261714052556118e-06,3.625202275088212e-06,1.347919016894194e-06,8.951558310862613e-07
51,2.8565535844618084e-06,2.1015708478857853e-06,2.193184982067514e-06,1.009224509157954e-06,2.1295042401521485e-06,1.824609902843227e-06,3.012644046495913e-06,1.1951211912178775e-06,2.297412781282183e-06,1.6258562275134052e-06,7.979778640547908e-07,2.303937647312776e-06,3.0939291771462373e-06,3.779191115639394e-06,1.3535914874003662e-06,8.537467070823788e-07
52,2.863605193571907e-06,2.0492420489578103e-06,2.2609586915187897e-06,1.0182389093566873e-06,2.1860472332052124e-06,1.8157911560271581e-06,3.079967423913323e-06,1.2088863881692312e-06,2.2892239387261053e-06,1.5380049682375808e-06,7.847188043347494e-07,2.2716889176640994e-06,2.931543422056918e-06,3.958521515084996e-06,1.3592375159535406e-06,8.179357413299085e-07
53,2.8666220120452633e-06,1.9946069958120835e-06,2.319404873206515e-06,1.0317228211636642e-06,2.2462915536219544e-06,1.8066737179837248e-06,3.146560909647462e-06,1.2237807996273454e-06,2.276034699064142e-06,1.4630902152749276e-06,7.738076978150034e-07,2.252166394838334e-06,2.776140187346334e-06,4.160435585465228e-06,1.3652244020023794e-06,7.882753545034995e-07
54,2.866273947276781e-06,1.937960635474275e-06,2.3678406271468854e-06,1.0497825523074515e-06,2.3101376829252618e-06,1.7975859951129752e-06,3.2096770875536867e-06,1.23967182627846e-06,2.2587375026458736e-06,1.400144778317575e-06,7.653335343788012e-07,2.2460031349069668e-06,2.6290010959346356e-06,4.381757245527092e-06,1.3719360037032226e-06,7.654491634856446e-07
55,2.862774380027225e-06,1.8798287359427817e-06,2.4059071246995193e-06,1.0724224131637185e-06,2.377115050992999e-06,1.7890380264469446e-06,3.266871200409192e-06,1.2565878372894652e-06,2.2385321302195854e-06,1.3481042391213507e-06,7.592780001690354e-07,2.253471925097547e-06,2.491132487623156e-06,4.618861010018767e-06,1.3796556982690932e-06,7.501945758870802e-07
56,2.8558884675694237e-06,1.821060811249002e-06,2.4332883369321603e-06,1.0995761441268488e-06,2.4462376936858564e-06,1.7817221741323123e-06,3.316357377060533e-06,1.274558258450534e-06,2.2165650941471537e-06,1.3057730962806373e-06,7.555819022273044e-07,2.2745136388353936e-06,2.3632393313271467e-06,4.867555676057464e-06,1.3885250976058242e-06,7.433099389465466e-07
57,2.844977761697358e-06,1.7628110547828062e-06,2.4496299673524786e-06,1.1311053904180816e-06,2.516006361308602e-06,1.7763964527599178e-06,3.3571177950705158e-06,1.2934679250412261e-06,2.193843349139165e-06,1.2718945864365704e-06,7.542104458492987e-07,2.308820859127221e-06,2.2456649903832017e-06,5.122908027136149e-06,1.3985874679326277e-06,7.456494123069321e-07
58,2.8291177844952698e-06,1.7063538652048936e-06,2.454775856931942e-06,1.1667419302951726e-06,2.5845016951184964e-06,1.7738207344357789e-06,3.3886858139369124e-06,1.3131106417562737e-06,2.1712659594927874e-06,1.2451947812312277e-06,7.551360254963715e-07,2.3558456369489898e-06,2.138436774266718e-06,5.379252449039324e-06,1.4098444069586784e-06,7.580666227082781e-07
59,2.8074537879489903e-06,1.6528345148259934e-06,2.449092621404571e-06,1.2060131533347677e-06,2.649473453146861e-06,1.7746866097594709e-06,3.4107069604053934e-06,1.3334076526001705e-06,2.1496222880860917e-06,1.2243967819557837e-06,7.582755077849835e-07,2.41478842431378e-06,2.0414285985529044e-06,5.630387646007671e-06,1.4222452705052797e-06,7.813720768124262e-07
60,2.7797303136771003e-06,1.6031704341482886e-06,2.433616983906015e-06,1.2482015416412058e-06,2.7083726565761777e-06,1.77948754316621e-06,3.4225826240691036e-06,1.3545542704210887e-06,2.1295345418591497e-06,1.2082776962864942e-06,7.634932707671355e-07,2.4846749571659988e-06,1.954440027715816e-06,5.8698433536234875e-06,1.4356560730707043e-06,8.1629374894522e-07
61,2.7466178151973502e-06,1.5581280251600306e-06,2.409914609551207e-06,1.292355350412575e-06,2.758501029027243e-06,1.7884181984043602e-06,3.423454220561798e-06,1.376958901424641e-06,2.111372190795056e-06,1.195781400480377e-06,7.706536494929886e-07,2.564403405390981e-06,1.8771503834830586e-06,6.091315883333914e-06,1.4498980814142694e-06,8.634352666300328e-07
62,2.7095833871678157e-06,1.5183860044533028e-06,2.379716393925164e-06,1.3373581602019904e-06,2.7974414264381297e-06,1.801318532236385e-06,3.412448497573504e-06,1.4010671558635314e-06,2.0952493367276395e-06,1.1861564159356086e-06,7.796112075823722e-07,2.6526695604495154e-06,1.809143286831028e-06,6.289345697236681e-06,1.4648139818088374e-06,9.232754749180291e-07
63,2.6704461391105463e-06,1.4844904700342348e-06,2.344545535176551e-06,1.3820775634774495e-06,2.8235613059540103e-06,1.8176685552791674e-06,3.3889570911190598e-06,1.4272033483895627e-06,2.081117821835883e-06,1.1790865304501998e-06,7.901401496848532e-07,2.747888198226452e-06,1.7500299641772173e-06,6.459952923605233e-06,1.4803018571268636e-06,9.961944149394743e-07
64,2.6309313393773074e-06,1.4567890779658956e-06,2.305505163175454e-06,1.4255332130861727e-06,2.8362453664883624e-06,1.8366811644321695e-06,3.3528356412130943e-06,1.455497170699079e-06,2.0688128787066126e-06,1.1747076052170413e-06,8.018896191104434e-07,2.8481781155636043e-06,1.6995037215522056e-06,6.6007904605786346e-06,1.4963204466736936e-06,1.0824878375013834e-06
65,2.5924072039802843e-06,1.4354299364969886e-06,2.2632649526105497e-06,1.4669611340282203e-06,2.8357932791741105e-06,1.8574809336881761e-06,3.304483686661755e-06,1.4858886740027751e-06,2.0580245085331954e-06,1.1734163660204204e-06,8.144010316378118e-07,2.951326994872925e-06,1.657240034612324e-06,6.710707333927314e-06,1.5128756445376509e-06,1.1823631043579026e-06
66,2.555835383115074e-06,1.4204113655468703e-06,2.2182320003804934e-06,1.5057973785153887e-06,2.8231573486018417e-06,1.8793115005797307e-06,3.244797526508969e-06,1.5181246616474014e-06,2.0483451621187473e-06,1.1756020651409024e-06,8.271816901843231e-07,3.054734228809691e-06,1.6227278404968093e-06,6.788983128771535e-06,1.5300154980387438e-06,1.2959143248035501e-06
67,2.5218971436365388e-06,1.4115968830318287e-06,2.1708284398517e-06,1.5417234232764238e-06,2.7996427823276326e-06,1.9016984002091312e-06,3.1750324896061153e-06,1.5517088995965669e-06,2.039456692421696e-06,1.1814943784383272e-06,8.39775438345827e-07,3.155469903361447e-06,1.595188404369653e-06,6.83467207767709e-06,1.5478548472094715e-06,1.423114425287996e-06
68,2.4911554036081676e-06,1.4086523184183036e-06,2.121719601572868e-06,1.5747526182978045e-06,2.7665848524052464e-06,1.9244559536798576e-06,3.096648787332896e-06,1.5858866463635436e-06,2.0312844570558324e-06,1.191128200150921e-06,8.517564274515791e-07,3.2504963634710482e-06,1.5736378451131424e-06,6.846639726759818e-06,1.56659128342979e-06,1.563855878950731e-06
69,2.4640761253162088e-06,1.4109810083289491e-06,2.0718505849682848e-06,1.6051816047683708e-06,2.725113000895529e-06,1.947504430808541e-06,3.0112296192455e-06,1.619758503402794e-06,2.0239447865094457e-06,1.2043362820399602e-06,8.626828495304152e-07,3.3369432864158647e-06,1.5570158707840362e-06,6.824393518390106e-06,1.5864446635395944e-06,1.7179809702470305e-06
70,2.440906650100191e-06,1.4177223109964252e-06,2.0222750050340024e-06,1.6334052228291716e-06,2.676175296564745e-06,1.970686139028717e-06,2.9205030527496795e-06,1.6525131326896801e-06,2.017620403522856e-06,1.2207356150015077e-06,8.720709448028957e-07,3.4123231661134714e-06,1.544301261243786e-06,6.7688775929019255e-06,1.6075292048872729e-06,1.885266945699824e-06
71,2.4216229193782833e-06,1.4278015272817819e-06,1.973926512375204e-06,1.6597831952642405e-06,2.620750719027044e-06,1.9937180614416026e-06,2.8263747976125786e-06,1.6836280910672853e-06,2.0125596552368337e-06,1.2397192489646809e-06,8.793687976624879e-07,3.474614390367604e-06,1.534613358496889e-06,6.682467146797007e-06,1.6297737925521957e-06,2.065402130013182e-06
72,2.4060811618386874e-06,1.440030730657412e-06,1.9275271046879197e-06,1.68460300075161e-06,2.5599669235594386e-06,2.0161359965949748e-06,2.730821157925738e-06,1.7128765887845578e-06,2.0090596387864047e-06,1.2604724120879374e-06,8.839274132149033e-07,3.522131180372818e-06,1.5272983569310221e-06,6.568320271047934e-06,1.6529290462065166e-06,2.2579338601691042e-06
73,2.394225013623927e-06,1.4532479894699672e-06,1.8836292457895617e-06,1.7080334797872373e-06,2.4950205255532447e-06,2.037177456260055e-06,2.6356450877282412e-06,1.740152111011251e-06,2.007282255581897e-06,1.2820322114308603e-06,8.849947114653023e-07,3.553262296186793e-06,1.5219535947427168e-06,6.42970928457943e-06,1.6765625502206293e-06,2.4621493513865372e-06
74,2.3861225117981383e-06,1.4664453965256212e-06,1.842615520716186e-06,1.7300493080523544e-06,2.4270782811062034e-06,2.0557912404363925e-06,2.5423108397882237e-06,1.765325007471573e-06,2.007080891092066e-06,1.303418856989255e-06,8.81739118569222e-07,3.5664879557240905e-06,1.5183849710126106e-06,6.269710540637969e-06,1.7000193503986943e-06,2.676940277158648e-06
75,2.3817996180089793e-06,1.4788780969344723e-06,1.8046089381062186e-06,1.7503822959025276e-06,2.357319452096197e-06,2.0708171792227064e-06,2.4519727278020786e-06,1.7882690591044895e-06,2.0080426643143253e-06,1.3238121814728375e-06,8.732912937598776e-07,3.560823877931112e-06,1.516514554024833e-06,6.091197022937702e-06,1.722394565467268e-06,2.9007341263958748e-06
76,2.381068426519201e-06,1.4901633273340624e-06,1.769412971189524e-06,1.768513104496501e-06,2.287034347372412e-06,2.08111994114205e-06,2.365539633805357e-06,1.8089110524297833e-06,2.0096841122637334e-06,1.3426852125836013e-06,8.587902300031631e-07,3.5360914246027225e-06,1.5162324468397033e-06,5.896890893471367e-06,1.7425017933621831e-06,3.1315387676221793e-06
77,2.3835350869177104e-06,1.5003102811562373e-06,1.7365851685360152e-06,1.7836739892953671e-06,2.2176006286352407e-06,2.0855322443125842e-06,2.2836401612900808e-06,1.8272004287519257e-06,2.011570405025968e-06,1.3598512969950876e-06,8.3748844118304e-07,3.492583174487592e-06,1.51724659919547e-06,5.689351640427501e-06,1.758879366783907e-06,3.367093078946757e-06
78,2.3886993374330957e-06,1.509605257364519e-06,1.7056360733174422e-06,1.7949041374372615e-06,2.1503379887853814e-06,2.0828048441166318e-06,2.2065744775851387e-06,1.8431095370023596e-06,2.013298510210231e-06,1.3754405449434027e-06,8.08930457480284e-07,3.430657102943411e-06,1.5190112818609397e-06,5.470963519426441e-06,1.7699856886691151e-06,3.6049828078857324e-06
79,2.3959570867332446e-06,1.5184089970634428e-06,1.6761740646313685e-06,1.8012438377087403e-06,2.0863715381224733e-06,2.0718420548652273e-06,2.134405001427178e-06,1.856646823599093e-06,2.0145250217168867e-06,1.3898399994019025e-06,7.730376416402534e-07,3.350847403350413e-06,1.5207567477186505e-06,5.244017633936935e-06,1.7746094095887957e-06,3.842552585788346e-06
80,2.4045237626226883e-06,1.5270440699924336e-06,1.6478536876770988e-06,1.8020081185309593e-06,2.0265452936824967e-06,2.0521197650864446e-06,2.067203660406512e-06,1.8677807294904761e-06,2.0150533267066994e-06,1.403614707344781e-06,7.299982084772992e-07,3.2542762862781873e-06,1.5216417266541597e-06,5.01082132098588e-06,1.7722438647991218e-06,4.076717043806206e-06
81,2.4134108730858358e-06,1.5358038701754962e-06,1.62028663791344e-06,1.7969900450727317e-06,1.971382379462159e-06,2.02390133700812e-06,2.0052704529062127e-06,1.8764136098355257e-06,2.0147728015016126e-06,1.417390078639916e-06,6.801595960414699e-07,3.142895751892382e-06,1.521017891984635e-06,4.773644157578138e-06,1.7631285489291226e-06,4.303903347062871e-06
82,2.421450720450206e-06,1.5449270063237294e-06,1.5931061272571397e-06,1.7865220676055213e-06,1.921161709307722e-06,1.9880599577771824e-06,1.9491186963401593e-06,1.8825740353921967e-06,2.0134983274719327e-06,1.4317135279987794e-06,6.241412162941813e-07,3.019401382896585e-06,1.518616008404474e-06,4.534436145196782e-06,1.7479550547244464e-06,4.520056594255805e-06
83,2.4273484162894844e-06,1.5545267962757828e-06,1.5661201724612948e-06,1.7713691904122219e-06,1.8761295957823222e-06,1.9457067871341124e-06,1.8992977272358854e-06,1.886666578840331e-06,2.0109980824632448e-06,1.4469619479598001e-06,5.630958620832209e-07,2.8869276844284334e-06,1.5144858135832728e-06,4.294477619362485e-06,1.7275267739260895e-06,4.720548690736955e-06
84,2.429832352897645e-06,1.564635508251158e-06,1.5394276421175137e-06,1.752480940627728e-06,1.8366680240209158e-06,1.8979900595740193e-06,1.8563084163252337e-06,1.8894793992303152e-06,2.0071955187515707e-06,1.463335826894013e-06,4.988957075448986e-07,2.7487807376302537e-06,1.50885737488375e-06,4.054180346214173e-06,1.7026035955282466e-06,4.900225388535009e-06
85,2.427786494780991e-06,1.5753477473594912e-06,1.5134181213332174e-06,1.73077893819378e-06,1.8032332252613095e-06,1.8461327025329263e-06,1.820642801300983e-06,1.891926622989707e-06,2.002253417646963e-06,1.480901253821598e-06,4.341018561305763e-07,2.608349460416211e-06,1.5021029488829587e-06,3.8131971493613077e-06,1.6738853944613434e-06,5.053921978800844e-06
86,2.4201889022491373e-06,1.5868673729728476e-06,1.4886235044725349e-06,1.7071207460209797e-06,1.7761779483197152e-06,1.7914316375860435e-06,1.7927533303379745e-06,1.8947728221956298e-06,1.996457967101145e-06,1.4995870831826966e-06,3.717366054648624e-07,2.4690686763312522e-06,1.4946741200369258e-06,3.570978110511086e-06,1.6420448160258223e-06,5.177313714517411e-06
87,2.4060450426567644e-06,1.5994356820720274e-06,1.4655657183941479e-06,1.6823186125423335e-06,1.755668596958391e-06,1.7351150152700822e-06,1.7729248499245759e-06,1.8985103354187555e-06,1.9900338097372767e-06,1.5191765011969673e-06,3.1502215157289565e-07,2.334285141888404e-06,1.4869587034584948e-06,3.327726790166347e-06,1.6078341408576474e-06,5.267644693230746e-06
88,2.3845679090449643e-06,1.6132958280101472e-06,1.4447342700443285e-06,1.6570890502759355e-06,1.7416769666180074e-06,1.678230873199025e-06,1.7612547978399784e-06,1.903377057534763e-06,1.982979546790541e-06,1.539431377574763e-06,2.6724536244293986e-07,2.207064834888351e-06,1.4792036765948998e-06,3.085266214675738e-06,1.5721829491316959e-06,5.324042528571998e-06
89,2.355424567653255e-06,1.6286827585169083e-06,1.4266256567139036e-06,1.632034870215444e-06,1.733971953034354e-06,1.6216513805437984e-06,1.7578272258338958e-06,1.9094624519437797e-06,1.974956520470999e-06,1.560255427632971e-06,2.3175467364877925e-07,2.0900652929871042e-06,1.4715254842946924e-06,2.8473095741006182e-06,1.536127937916475e-06,5.347420832786385e-06
90,2.318693752470335e-06,1.645719032354418e-06,1.4118205589558333e-06,1.6077013428063405e-06,1.7321054537528423e-06,1.5661427501749282e-06,1.7628743652987525e-06,1.9167975819356504e-06,1.965281027349503e-06,1.581712378307662e-06,2.1199252187261162e-07,1.985507773363167e-06,1.4639471909294899e-06,2.61922391679067e-06,1.500607261290363e-06,5.339987079460569e-06
91,2.2745250559838194e-06,1.664287291922501e-06,1.4010867378211286e-06,1.5845634912471444e-06,1.7353863409735019e-06,1.5124568791211017e-06,1.7767163000806228e-06,1.92532143518891e-06,1.9530995319104775e-06,1.6040374418046068e-06,2.1151262159866012e-07,1.8951893837038842e-06,1.4564605503978766e-06,2.407651298256383e-06,1.4662844867630603e-06,5.304427201333839e-06
92,2.2228336129803823e-06,1.684025842271139e-06,1.3953396455323737e-06,1.562918708280996e-06,1.7429105507406012e-06,1.4613744416764065e-06,1.79954086316094e-06,1.934786250450075e-06,1.9377384349554442e-06,1.627788291938424e-06,2.3398419754472036e-07,1.8204943542731082e-06,1.449067541103611e-06,2.22010021781208e-06,1.4334787567202788e-06,5.243280277136971e-06
93,2.163326094514384e-06,1.7044430207781657e-06,1.3954332440169022e-06,1.542827479931895e-06,1.7536641105560065e-06,1.4136520453969064e-06,1.8312327224692876e-06,1.9447345484250654e-06,1.9190456093568964e-06,1.6539098708814976e-06,2.831657503564436e-07,1.7624604790081353e-06,1.441770191032114e-06,2.064507005661437e-06,1.4021593827607168e-06,5.1589542939592735e-06
94,2.095879078646352e-06,1.7250554212068162e-06,1.4019739594935434e-06,1.5241798284421097e-06,1.7665876877543712e-06,1.3699764944252182e-06,1.8713586324450856e-06,1.9546261931231513e-06,1.8974663087707337e-06,1.6835621026665582e-06,3.628563492220836e-07,1.7219890432106494e-06,1.4345232136624924e-06,1.9488600594729774e-06,1.3719874405640605e-06,5.054054151923047e-06
95,2.021014864728421e-06,1.7454783010908672e-06,1.4152702826638267e-06,1.5068423064128924e-06,1.7806853213837753e-06,1.3309879279363356e-06,1.919252826951521e-06,1.9640608602955555e-06,1.873769975181132e-06,1.7179095218390111e-06,4.768768413142669e-07,1.7001249651877754e-06,1.4271649272406802e-06,1.880956968370365e-06,1.3424907480626548e-06,4.931510176232763e-06
96,1.9401118311921673e-06,1.765460999909567e-06,1.4353839166816175e-06,1.4907662645794053e-06,1.7953053594019443e-06,1.2972534911653673e-06,1.974081736293191e-06,1.972842823163305e-06,1.8486664674739744e-06,1.758022749974984e-06,6.290890387540097e-07,1.698164981304238e-06,1.4194484454596066e-06,1.8683097695451597e-06,1.3133888397304008e-06,4.794493857547631e-06
97,1.8552159477844099e-06,1.784912579320462e-06,1.4621954743945791e-06,1.4759514585077126e-06,1.8103267111095504e-06,1.269168055887752e-06,2.0348155481399833e-06,1.980793668255751e-06,1.8225981030698914e-06,1.804826868809895e-06,8.234020450830542e-07,1.7175028119511687e-06,1.4112696147060403e-06,1.9181988749201997e-06,1.2848439747887452e-06,4.646308954111092e-06
98,1.7686649339311485e-06,1.8039252762499346e-06,1.4954096722907966e-06,1.4623241884265133e-06,1.8259705713284618e-06,1.2468871119858307e-06,2.1001253113919323e-06,1.98753831170771e-06,1.7957729949980993e-06,1.859024437843599e-06,1.0637357794992456e-06,1.7594336617794876e-06,1.4028783701334547e-06,2.03777651349922e-06,1.2574043284836387e-06,4.490305420204627e-06
99,1.6827757608845831e-06,1.822732113698201e-06,1.5345272778399685e-06,1.4497108277223229e-06,1.842431959812094e-06,1.2303075247965575e-06,2.1682849387395854e-06,1.9924337044886313e-06,1.7683347162614026e-06,1.9210128795022466e-06,1.3539904083275688e-06,1.8251318434364565e-06,1.3948219353713632e-06,2.2341359299111704e-06,1.2317237835711109e-06,4.329758760982946e-06
100,1.59966527176171e-06,1.841562771470012e-06,1.5788826717522866e-06,1.4379511496786707e-06,1.8597190142261522e-06,1.2190704625224888e-06,2.2371701825562707e-06,1.99467007653327e-06,1.740455263312576e-06,1.990884047063578e-06,1.698082517330116e-06,1.9157313064508125e-06,1.3877782550947723e-06,2.514416717845592e-06,1.2083357250747708e-06,4.167703628474881e-06
101,1.5211675700111646e-06,1.8604552096155031e-06,1.627745646798385e-06,1.4269789032170283e-06,1.877814387184151e-06,1.2125899708117941e-06,2.304419190710106e-06,1.9935066669222506e-06,1.7122559493281762e-06,2.0685330898011164e-06,2.100010358169049e-06,2.032352524941776e-06,1.3825147726764538e-06,2.8859082908239504e-06,1.1875984042322274e-06,4.006834836111175e-06
102,1.448797683450728e-06,1.8791139554441198e-06,1.6803804419894329e-06,1.416731599295411e-06,1.896913895216678e-06,1.2100988563618774e-06,2.3677467689645868e-06,1.9884621633188014e-06,1.6837803522583486e-06,2.1537384758068774e-06,2.5638760943719496e-06,2.1760540191727058e-06,1.3798627996781985e-06,3.355936459941506e-06,1.1697260251156264e-06,3.849550939064259e-06
103,1.3837394926541683e-06,1.89687368851523e-06,1.7360547789490111e-06,1.4070043387882106e-06,1.917437821919021e-06,1.210698557659939e-06,2.4252903452007438e-06,1.9793477399751805e-06,1.6551799198285182e-06,2.2461563231790948e-06,3.0938696591729572e-06,2.3477418756378916e-06,1.3805916082388597e-06,3.931537224411409e-06,1.1548079728575068e-06,3.698011929668417e-06
104,1.3268670363843575e-06,1.912766393216033e-06,1.7940983023956132e-06,1.397466927346259e-06,1.9397919076066675e-06,1.2134239020758325e-06,2.4757406021156903e-06,1.966241928598799e-06,1.626877066069457e-06,2.345395595077875e-06,3.694220917567908e-06,2.5480592697384554e-06,1.385292157394087e-06,4.619208384560227e-06,1.1427938847405166e-06,3.5540590693381784e-06
105,1.2788009536583264e-06,1.925628885438843e-06,1.8539597674268993e-06,1.3878545241676815e-06,1.9641147500223247e-06,1.2173689112246913e-06,2.518169303576763e-06,1.9494404309679315e-06,1.5994801197481407e-06,2.4511858759183045e-06,4.369077515705003e-06,2.777344914041235e-06,1.3943876925065293e-06,5.424927665169827e-06,1.1334719545185253e-06,3.4190392159052528e-06
106,1.2399909285738404e-06,1.934220144006684e-06,1.9151216129127184e-06,1.3780955797774163e-06,1.990190693841539e-06,1.221876952980598e-06,2.5519485858437736e-06,1.929295673273316e-06,1.573574092388903e-06,2.5633848632991366e-06,5.1222914549047775e-06,3.0357217563459204e-06,1.408322786923708e-06,6.354315018563107e-06,1.1264912743163656e-06,3.2936887786535343e-06
107,1.2107777651274666e-06,1.9374179427014504e-06,1.976993692893662e-06,1.3682375378604207e-06,2.0174979038200637e-06,1.2266763676856666e-06,2.5770447139030734e-06,1.9060366917284253e-06,1.549587538236671e-06,2.681771498526162e-06,5.957112840655093e-06,3.3231597991953688e-06,1.4278074915030117e-06,7.412656879017991e-06,1.1214549615269087e-06,3.1782013851391143e-06
108,1.1913662317514067e-06,1.9345331825127524e-06,2.0390057476450063e-06,1.3583608440707802e-06,2.045274571460262e-06,1.2318450669446713e-06,2.594267662807864e-06,1.879784924125284e-06,1.52776295239117e-06,2.8059361260565086e-06,6.875798696228179e-06,3.639379041536531e-06,1.4538128172107108e-06,8.604662363201736e-06,1.1180119614922147e-06,3.0724757362041886e-06
109,1.1817518951859775e-06,1.9255999454218287e-06,2.10077328093125e-06,1.3486633202868316e-06,2.0725361951021786e-06,1.2376540585313205e-06,2.605071486496518e-06,1.8507857682709287e-06,1.508169473830424e-06,2.935505083201198e-06,7.879268180179334e-06,3.983819229598811e-06,1.487332530602879e-06,9.934113856957047e-06,1.1158653529326613e-06,2.9763656154133393e-06
110,1.1817309040433163e-06,1.9113999936028913e-06,2.1620703993435827e-06,1.3395681661019643e-06,2.098088787615071e-06,1.2444214661116324e-06,2.6110788359801157e-06,1.8196598220315228e-06,1.4907389464357102e-06,3.0705391757075067e-06,8.967020117611653e-06,4.355883247257608e-06,1.5292715986584891e-06,1.140358780171344e-05,1.1147371053411416e-06,2.8897319697091668e-06
111,1.1909929066290937e-06,1.8931569147129003e-06,2.222654624647129e-06,1.3316666121127847e-06,2.120648399111603e-06,1.2524132869908549e-06,2.613652629423769e-06,1.7874468237960155e-06,1.4753241601674437e-06,3.2117720261951063e-06,1.013728188889115e-05,4.7551719700268446e-06,1.580519844869845e-06,1.301416670280149e-05,1.114327064265261e-06,2.812291366171013e-06
112,1.2091631377149598e-06,1.8721541735663505e-06,2.2821337135499687e-06,1.3255618165790767e-06,2.1391164521967958e-06,1.2617783625686933e-06,2.6136786504375763e-06,1.7553987387538145e-06,1.461776946443706e-06,3.3605508220586953e-06,1.1387014334410117e-05,5.1813479744881675e-06,1.64196393159891e-06,1.4765030022710846e-05,1.114269448076567e-06,2.7434847766203474e-06
113,1.2357535491902333e-06,1.8495475998727855e-06,2.339873684817468e-06,1.3217878588727376e-06,2.15294561233517e-06,1.272579075734146e-06,2.6115990883044107e-06,1.7247322145924722e-06,1.450119510454695e-06,3.518656995216398e-06,1.2711576482434096e-05,5.6337353038551854e-06,1.7143805863766314e-06,1.665303518674857e-05,1.1141345657324292e-06,2.6825695697784893e-06
114,1.2701154889436199e-06,1.8263403636796903e-06,2.3949070830920434e-06,1.3208179032313067e-06,2.1624067054563474e-06,1.2849267252618687e-06,2.6075859914255717e-06,1.6965011371066279e-06,1.4407952894698498e-06,3.6882744215513314e-06,1.4104356301591347e-05,6.1110110775303365e-06,1.7983368208474738e-06,1.8672360596755635e-05,1.1134668928803001e-06,2.628799931999136e-06
115,1.3114277649906186e-06,1.803380034101397e-06,2.4458817591712423e-06,1.3230556146929903e-06,2.1685145505795706e-06,1.2990509862551918e-06,2.60162749485936e-06,1.671550043156427e-06,1.4347476821098972e-06,3.872086709355731e-06,1.555665957601741e-05,6.6110287148096175e-06,1.894171165902692e-06,2.0814028745854375e-05,1.1118523341818599e-06,2.581417583375163e-06
116,1.3586819566216502e-06,1.7813644912901882e-06,2.491089637267877e-06,1.328811134862414e-06,2.172593867865826e-06,1.3151906614376941e-06,2.593464443081264e-06,1.6504921266712238e-06,1.4331893806258717e-06,4.073194573218059e-06,1.705767944527337e-05,7.130548737274938e-06,2.0020561214689876e-06,2.3065376892724485e-05,1.1090484318593155e-06,2.5395269181944106e-06
117,1.4107057431789612e-06,1.7608653350988042e-06,2.528677036029542e-06,1.3382945952539936e-06,2.1758056513684808e-06,1.3334416129372218e-06,2.5826182504676223e-06,1.6336813833175612e-06,1.4372841863846413e-06,4.29472487974211e-06,1.859423524491514e-05,7.66489505544502e-06,2.122082223976609e-06,2.5410133049722643e-05,1.1050531431154535e-06,2.5021286613378347e-06
118,1.4662949887809767e-06,1.7423173711046455e-06,2.5570908021795133e-06,1.3515704658287148e-06,2.1789218704623834e-06,1.3537095291276983e-06,2.568647244693533e-06,1.621180919514058e-06,1.4479924431325174e-06,4.5394624584446215e-06,2.0150302538708653e-05,8.207752954428961e-06,2.254253074088822e-06,2.782964193072682e-05,1.0999692824376465e-06,2.468278790459335e-06
119,1.524420629361255e-06,1.7259558163085206e-06,2.575550438881094e-06,1.3684802226380932e-06,2.182316572449817e-06,1.375741877563483e-06,2.5513456638380317e-06,1.6127779549089867e-06,1.466083229704844e-06,4.809856648082661e-06,2.1706575979296595e-05,8.75118303573142e-06,2.3983493564751455e-06,3.0304883021066088e-05,1.0938026721562521e-06,2.4371477388909136e-06
120,1.584403125051305e-06,1.7117659917534782e-06,2.584223555132737e-06,1.3886123075242153e-06,2.1860651145276304e-06,1.3991900442192487e-06,2.5306633026169206e-06,1.608027561560115e-06,1.4921880175714969e-06,5.108271262306285e-06,2.3240108046809517e-05,9.285805678803443e-06,2.5537752844252814e-06,3.281820880833061e-05,1.0864488436395689e-06,2.407943362516799e-06
121,1.6459363190177313e-06,1.699490396623678e-06,2.583988941277618e-06,1.4113286797225383e-06,2.190141619630998e-06,1.4237056459790384e-06,2.506605235776021e-06,1.6062392993690752e-06,1.5268072241115852e-06,5.437111596875316e-06,2.472383250152578e-05,9.801147019400326e-06,2.7194885124987938e-06,3.535377942342917e-05,1.0779003397626993e-06,2.379839535191755e-06
122,1.7089167653666253e-06,1.6886627699462448e-06,2.5759591532569114e-06,1.4358461750461501e-06,2.194633811224723e-06,1.4490063902563343e-06,2.479306658623933e-06,1.6064155747572264e-06,1.5702542084878411e-06,5.798702372392747e-06,2.6126129708540092e-05,1.028625201063678e-05,2.893966811491269e-06,3.789617405399055e-05,1.0684424494653368e-06,2.3520216173418346e-06
123,1.7732125561110067e-06,1.6787092275611437e-06,2.5610585462472207e-06,1.4614042155337244e-06,2.199844514956684e-06,1.474817646637513e-06,2.449056941172123e-06,1.6072601900739145e-06,1.6225862587111467e-06,6.195044681810109e-06,2.7411347528094876e-05,1.0730684113974934e-05,3.075197818020158e-06,4.042756573891804e-05,1.058619810070079e-06,2.3238089960880445e-06
124,1.8385628684443565e-06,1.6691993677986036e-06,2.5398781225760926e-06,1.4874175163777783e-06,2.206281840712103e-06,1.5007535517902365e-06,2.416209525374555e-06,1.6073422458734298e-06,1.6835934094018307e-06,6.627571706181622e-06,2.8542150270832214e-05,1.1125787457592481e-05,3.2607746275015144e-06,4.292537756457151e-05,1.049045690310653e-06,2.2947509719750532e-06
125,1.904643636800679e-06,1.6600757522841073e-06,2.5128284834887376e-06,1.513476510146082e-06,2.214601252264307e-06,1.526257013166078e-06,2.3812456969473457e-06,1.6053835845799667e-06,1.7528835426719296e-06,7.096875023801158e-06,2.948346417363129e-05,1.1465809409834565e-05,3.448066846942707e-06,4.5362602041442324e-05,1.0402649363328385e-06,2.264682488750888e-06
126,1.9711686009382193e-06,1.6515941703222099e-06,2.4804107795711825e-06,1.53934871737202e-06,2.2254927386947744e-06,1.5506003238685904e-06,2.3449796980681042e-06,1.600479824378987e-06,1.8300030986350357e-06,7.602411246343894e-06,3.020684769225723e-05,1.1748474485401715e-05,3.6343443641409265e-06,4.771015705568751e-05,1.0327061825655477e-06,2.2337576423840413e-06
127,2.0378781654773796e-06,1.644096071596169e-06,2.443365343808038e-06,1.5651204553747463e-06,2.239509040085814e-06,1.5729571619052454e-06,2.3085709801710155e-06,1.5920829106527372e-06,1.9144536500723657e-06,8.142390830528557e-06,3.0693751697106645e-05,1.1974773820607127e-05,3.816867055212912e-06,4.9937702344624665e-05,1.0266581488331552e-06,2.2024065206621576e-06
128,2.1044334700314556e-06,1.637888774766575e-06,2.4026077686977556e-06,1.5912332135522392e-06,2.2569012115247714e-06,1.5925696500454734e-06,2.2732546703039235e-06,1.5799322418569518e-06,2.0056013837483082e-06,8.713946719382799e-06,3.093588346335353e-05,1.2147840582825567e-05,3.993035978357196e-06,5.2011450880674316e-05,1.022295278376658e-06,2.171175638532934e-06
129,2.1703915612245567e-06,1.6332027021943146e-06,2.3591109098389396e-06,1.6182758419067049e-06,2.277521635563669e-06,1.6089174089077805e-06,2.240026257913248e-06,1.5641678584708536e-06,2.1026208131893216e-06,9.31336852765095e-06,3.0931916676863674e-05,1.2271231094666273e-05,4.1605199578849975e-06,5.389345705972424e-05,1.0197521209738733e-06,2.1405108537590186e-06
130,2.2353085204427285e-06,1.6301408652425068e-06,2.3139240326532466e-06,1.6467549457019252e-06,2.300801356937992e-06,1.6217998939192063e-06,2.2094985081467526e-06,1.5454146015638133e-06,2.2044859436668116e-06,9.936170259750095e-06,3.0683412132204636e-05,1.2347883676326963e-05,4.317138158575032e-06,5.554648198281104e-05,1.019141306639967e-06,2.110604006379244e-06
131,2.2987860694217607e-06,1.6287064440693411e-06,2.2682662911216875e-06,1.6769762278762169e-06,2.3257793482279254e-06,1.6313442767594625e-06,2.1819584793479085e-06,1.5246221841632342e-06,2.309909359135961e-06,1.057693219940537e-05,3.019460733716924e-05,1.2380789831330012e-05,4.460583022412715e-06,5.694065471997051e-05,1.0204882327041248e-06,2.0814042425616773e-06
132,2.3603735719758546e-06,1.6289324385992082e-06,2.2234776791595547e-06,1.7090059856403574e-06,2.3511369389055055e-06,1.6379543343032899e-06,2.157484816411053e-06,1.502832446065653e-06,2.4172798354554335e-06,1.1228930996960619e-05,2.947603594580487e-05,1.2374628401542703e-05,4.588446770761303e-06,5.805536682154359e-05,1.0236675647894649e-06,2.052726646532459e-06
133,2.4194860696885315e-06,1.630987537129705e-06,2.180794895524148e-06,1.7427348879443637e-06,2.37523737338084e-06,1.6421953745174868e-06,2.1359723474200747e-06,1.4810624472838832e-06,2.52477344309462e-06,1.188380119198529e-05,2.8547228483484414e-05,1.2336852869942153e-05,4.6987630113359455e-06,5.8874903206695645e-05,1.0283892558305307e-06,2.0242595954082046e-06
134,2.4754076595605533e-06,1.6351323057006494e-06,2.1411648804195973e-06,1.778004649001426e-06,2.3962632662121146e-06,1.6446559225219513e-06,2.117082027910834e-06,1.4602837315791115e-06,2.6305673603706998e-06,1.2531835873961417e-05,2.7435910562093232e-05,1.2277611539216157e-05,4.790685278908691e-06,5.938225641827346e-05,1.0342432997387947e-06,1.99544644890156e-06
135,2.5272787333118963e-06,1.6415461981416997e-06,2.105231100589078e-06,1.8146476590541652e-06,2.412457982220865e-06,1.6458532553657026e-06,2.1002789468454766e-06,1.4413967593075743e-06,2.7328471023512683e-06,1.3163184272376317e-05,2.617514717299614e-05,1.220873973893331e-05,4.864747811585437e-06,5.955811095721687e-05,1.0408058696840067e-06,1.9653855798762494e-06
136,2.574087518552196e-06,1.6501956439583234e-06,2.073400498664059e-06,1.8524139871688734e-06,2.4223393125637144e-06,1.6462099392435473e-06,2.0850101490303918e-06,1.4251600991605432e-06,2.8296361480983653e-06,1.3769228148926483e-05,2.4800340297121143e-05,1.21423624736674e-05,4.922484687241591e-06,5.938743385040785e-05,1.04772792235841e-06,1.932818473267146e-06
137,2.6147016384039097e-06,1.6608560095898725e-06,2.045970218110337e-06,1.8908938266405117e-06,2.424863121738799e-06,1.6460693321527621e-06,2.0708231243930527e-06,1.4121528065699927e-06,2.9188091492030054e-06,1.4343159416398708e-05,2.334666649171866e-05,1.2089614023229052e-05,4.965801303778899e-06,5.8868385364164434e-05,1.054726495121043e-06,1.896251297870511e-06
138,2.647888132326756e-06,1.6731839154085542e-06,2.023365283556879e-06,1.929492765215416e-06,2.4196128855805883e-06,1.6456969263699616e-06,2.0572746958270794e-06,1.4028182845533232e-06,2.9982905003552524e-06,1.4879302294927088e-05,2.184694268883247e-05,1.2059727960330312e-05,4.99668458908832e-06,5.801675357488273e-05,1.0615735331812089e-06,1.8542459380504054e-06
139,2.6724214501902344e-06,1.686707851467987e-06,2.0062789756464744e-06,1.967486064382459e-06,2.406914410275448e-06,1.6453011531982337e-06,2.0438351311469055e-06,1.3974940790806307e-06,3.0661442770762183e-06,1.5371406533689134e-05,2.033004758012455e-05,1.2059511151259588e-05,5.0171973670075304e-06,5.6863491756072075e-05,1.06815974689185e-06,1.8057787376912644e-06
140,2.6873798151947113e-06,1.700805055701809e-06,1.995521976880315e-06,2.00415132082314e-06,2.387660373722441e-06,1.6451407143432474e-06,2.030012470262399e-06,1.3963678810702448e-06,3.120703059346444e-06,1.5811093220967338e-05,1.8820133789260194e-05,1.2093154259519979e-05,5.029349687842558e-06,5.5447085893897e-05,1.07451962129665e-06,1.7505068167215191e-06
141,2.692450120285252e-06,1.714746646159474e-06,1.9917816205912116e-06,2.038868048749061e-06,2.362888534121579e-06,1.6456075864541922e-06,2.015552102706875e-06,1.39942165925118e-06,3.161013547099427e-06,1.6188016504077437e-05,1.733665029327276e-05,1.21623443364185e-05,5.0348352953588695e-06,5.380459846974233e-05,1.080785482374588e-06,1.6888464093366805e-06
142,2.688013188681226e-06,1.727757345174668e-06,1.9955114183467117e-06,2.0710871515193985e-06,2.3334954279936444e-06,1.647154288734888e-06,2.000470094856429e-06,1.406402472416662e-06,3.187150074817175e-06,1.6492109360679963e-05,1.589491188364589e-05,1.2266505401943689e-05,5.034770521858822e-06,5.196569622476791e-05,1.08713070076281e-06,1.6218567844056966e-06
143,2.67500942410814e-06,1.7391185051355902e-06,2.0068854592079255e-06,2.1002927265046852e-06,2.3003538059368105e-06,1.6501621586738586e-06,1.9849039123238813e-06,1.4168230708885288e-06,3.1999443384251146e-06,1.671624148655682e-05,1.4506863989770134e-05,1.2402878780524733e-05,5.029442144510084e-06,4.9951853410536036e-05,1.0936795637955375e-06,1.550985220890129e-06
144,2.654690617155067e-06,1.7483600352742606e-06,2.025737736916382e-06,2.12614266221776e-06,2.264644462916883e-06,1.654876751244115e-06,1.968908362057908e-06,1.430053996068589e-06,3.200611715162024e-06,1.6856761048837264e-05,1.3181746899069178e-05,1.2566500062358182e-05,5.018214937532811e-06,4.777951939995364e-05,1.1004326722515085e-06,1.4777561125167904e-06
145,2.6283239047846344e-06,1.7553770967170846e-06,2.0515274223446348e-06,2.1486409107019875e-06,2.2280261947556318e-06,1.6614009459563877e-06,1.952344860601116e-06,1.4455489010516137e-06,3.1907472630275826e-06,1.691159892327873e-05,1.1926518064153678e-05,1.2750532009307156e-05,4.999820766514242e-06,4.546486591332758e-05,1.1072836711621788e-06,1.4035360216469393e-06
146,2.5969749223465383e-06,1.7603223020047198e-06,2.0833542693945567e-06,2.1680405743562627e-06,2.1924865192465697e-06,1.6697138459911853e-06,1.934939613110258e-06,1.4630742045313269e-06,3.1724181590399336e-06,1.6878658509815853e-05,1.0746132698638553e-05,1.2947106698779259e-05,4.972944770048082e-06,4.302812316768159e-05,1.1140761071377651e-06,1.329465035231963e-06
147,2.5615291875474853e-06,1.7633960585081037e-06,2.1200245641502583e-06,2.184573029202837e-06,2.160006143100259e-06,1.6797575659724884e-06,1.9164155339390947e-06,1.4827469437830855e-06,3.1480765933052636e-06,1.6756493316722423e-05,9.64385321458827e-06,1.3148279470599005e-05,4.936732988705032e-06,4.049544500289522e-05,1.1206358236776312e-06,1.2565056259845554e-06
148,2.5228921833695593e-06,1.7647532233429413e-06,2.1601970176602585e-06,2.1982822563636484e-06,2.1322726623008018e-06,1.6915709742097872e-06,1.8965580024433117e-06,1.5048665035149991e-06,3.120369063435815e-06,1.654649927258448e-05,8.621587284633592e-06,1.3346740460685064e-05,4.890915655051294e-06,3.7897096691858506e-05,1.1267721722125703e-06,1.1855150056796188e-06
149,2.4821169711982097e-06,1.7645668507706272e-06,2.20256675415945e-06,2.208980071958602e-06,2.1105528738876132e-06,1.705274630540661e-06,1.8752420689593919e-06,1.5296922355901383e-06,3.0919202019396576e-06,1.6255255634373624e-05,7.680128624926398e-06,1.3536281917903312e-05,4.8355305669338545e-06,3.5263322314475786e-05,1.132316324132251e-06,1.1172768070989594e-06
150,2.4403260239395952e-06,1.763136635799221e-06,2.2459456289456465e-06,2.216317958340824e-06,2.095677725372546e-06,1.7208662154350044e-06,1.8525227605839975e-06,1.5572983652980334e-06,3.06511465981149e-06,1.5895897543935614e-05,6.8192251607009355e-06,1.3712107254868932e-05,4.770502801045538e-06,3.262148688662683e-05,1.137254963437987e-06,1.052494785425723e-06
151,2.398528879602648e-06,1.7609022091583844e-06,2.289172864147626e-06,2.2200294113649374e-06,2.088066664020442e-06,1.7380316111121788e-06,1.8287317322178375e-06,1.5875762686983909e-06,3.0419777177483835e-06,1.548739968480291e-05,6.037518444671555e-06,1.3870907616097151e-05,4.695545445209412e-06,2.9996751598520927e-05,1.1418467717477223e-06,9.918089312455539e-07
152,2.357510926282235e-06,1.7582891936572809e-06,2.3309425367334375e-06,2.2201450464973357e-06,2.087764872255256e-06,1.7560774016202853e-06,1.804415486020556e-06,1.6203632562430899e-06,3.0242519412024985e-06,1.5051879614620933e-05,5.332468351621309e-06,1.401050475120627e-05,4.610607166225745e-06,2.7413925749432773e-05,1.1465964096978365e-06,9.358192938797027e-07
153,2.3178453954677283e-06,1.755513811155381e-06,2.369698346832955e-06,2.2169352467079294e-06,2.0945289098671235e-06,1.7739815282880753e-06,1.7801168845539193e-06,1.6555528172943157e-06,3.0135330782035373e-06,1.4611449505046455e-05,4.700380327432216e-06,1.4128923444504113e-05,4.5163243861614195e-06,2.4897018848454843e-05,1.1521239768946314e-06,8.850645577021888e-07
154,2.2799285015804894e-06,1.7525515833020873e-06,2.403706833587068e-06,2.2106700983848363e-06,2.107944695125965e-06,1.7905593651803e-06,1.7562241678489914e-06,1.693094939242028e-06,3.0112345900136516e-06,1.4186031897988507e-05,4.136614612089816e-06,1.4223140431609305e-05,4.413825282766571e-06,2.246741039472111e-05,1.1590117017204587e-06,8.400004313036285e-07
155,2.243936073181369e-06,1.7492591203729336e-06,2.431283231408416e-06,2.201477219890497e-06,2.127470762367368e-06,1.804650922156501e-06,1.7330411373024363e-06,1.732947935372019e-06,3.0184736322079047e-06,1.3792455008520595e-05,3.6359406326905917e-06,1.4288365607783576e-05,4.304138656259781e-06,2.0143224034098e-05,1.1676806717327294e-06,8.010104617278211e-07
156,2.209728745187021e-06,1.7454483920445157e-06,2.4510493540632225e-06,2.189395929742084e-06,2.152424714984331e-06,1.8152005968786991e-06,1.7109821324037035e-06,1.7750397787588376e-06,3.0360825027667472e-06,1.3444375135385258e-05,3.1928825385598184e-06,1.4318601686281222e-05,4.187919967051537e-06,1.7939469542480715e-05,1.1783453950356118e-06,7.683967034389955e-07
157,2.176819337705431e-06,1.740849521342501e-06,2.4621522203666596e-06,2.1744714860833614e-06,2.1819824921783564e-06,1.8212735108732614e-06,1.6906953691999305e-06,1.8192497885424044e-06,3.0646213635360536e-06,1.3152562277081676e-05,2.801970580488776e-06,1.4308123933202658e-05,4.06564990485631e-06,1.5867793915287585e-05,1.1910488019174479e-06,7.42347626329444e-07
158,2.144483335565663e-06,1.7351200224792285e-06,2.4644194969301295e-06,2.1567174214540436e-06,2.2151717141354165e-06,1.8221675380236946e-06,1.6729930324356494e-06,1.8654437297783025e-06,3.104232611048099e-06,1.2925284107331429e-05,2.457972973459914e-06,1.4252848984247172e-05,3.937950065076957e-06,1.3936332911412955e-05,1.205714579947595e-06,7.229226086292108e-07
159,2.112001337990601e-06,1.72800112728818e-06,2.4584081161678365e-06,2.1359797013927975e-06,2.250984183562744e-06,1.8175813181607783e-06,1.6586264414116648e-06,1.913549012525357e-06,3.154466557446458e-06,1.2768556469417797e-05,2.156167409833926e-06,1.415096926524585e-05,3.8057743994012645e-06,1.215001197819655e-05,1.2221591892651366e-06,7.100472906721635e-07
160,2.0789195536340323e-06,1.7195166132836902e-06,2.445293654532218e-06,2.11192536125179e-06,2.2887120845255386e-06,1.8075961758960434e-06,1.6480724912421726e-06,1.9635811431818796e-06,3.2142438286703434e-06,1.2686109925528985e-05,1.892564800064312e-06,1.4002898819847671e-05,3.6704381840371975e-06,1.051084837142207e-05,1.2400717983763337e-06,7.035139612312174e-07
161,2.0451714701945973e-06,1.7100211908722776e-06,2.4265800600050206e-06,2.0842813644187077e-06,2.3282359038115024e-06,1.7924380179169218e-06,1.641460886759056e-06,2.0155675445918467e-06,3.2819151191902785e-06,1.2679193510367225e-05,1.6639604571661854e-06,1.3810918121849004e-05,3.5334527467954872e-06,9.018131129332159e-06,1.2589959221150052e-06,7.03005763247192e-07
162,2.0110035188856963e-06,1.700030820429153e-06,2.4037236416139e-06,2.053152931295801e-06,2.3699571843108398e-06,1.7723044706989594e-06,1.6386481529589862e-06,2.0694325725833525e-06,3.3552623209651428e-06,1.27467376998167e-05,1.46778310174985e-06,1.3578853415829739e-05,3.396314536317284e-06,7.668746791524392e-06,1.2783158184094467e-06,7.081581016643017e-07
163,1.9767854378725747e-06,1.690039866281454e-06,2.3779035087243213e-06,2.0191622952737693e-06,2.4144413587839023e-06,1.747420913280433e-06,1.6393385017621278e-06,2.1249909565974308e-06,3.4314447461686567e-06,1.2886412961838631e-05,1.3018085869029596e-06,1.3311850325627263e-05,3.26048293293866e-06,6.457692818742718e-06,1.2972714994143487e-06,7.186250214047462e-07
164,1.9428558812378435e-06,1.6804956321302456e-06,2.3500754454207517e-06,1.983322097787125e-06,2.462055489684162e-06,1.7181650617186938e-06,1.643158432226685e-06,2.1820308696484915e-06,3.507152878670821e-06,1.3096242591389036e-05,1.1638593919310548e-06,1.3016050549852053e-05,3.1273881854080227e-06,5.378567287997425e-06,1.3150501440660498e-06,7.340786060048611e-07
165,1.909550276609446e-06,1.6717829058515345e-06,2.321137379449367e-06,1.9467569054706814e-06,2.512823713215698e-06,1.6850984191056136e-06,1.649745539814245e-06,2.2402878494348344e-06,3.5791770994121713e-06,1.3375547161561156e-05,1.0516199112836096e-06,1.2697952132235461e-05,2.998238383908375e-06,4.423980260673107e-06,1.3308824501882737e-06,7.541450114385097e-07
166,1.877352488487858e-06,1.6641123185120688e-06,2.2919480515437295e-06,1.9104873392437436e-06,2.5665419665247914e-06,1.6489054300154867e-06,1.6588701284708508e-06,2.2993446674043037e-06,3.645207419620452e-06,1.3724542037695767e-05,9.626230948635918e-07,1.2363533084762846e-05,2.873858776653149e-06,3.5860774016757298e-06,1.3440596191847247e-06,7.783630067688133e-07
167,1.8469073965933375e-06,1.6574505300555149e-06,2.263209026331325e-06,1.8753921735838428e-06,2.6230375149418655e-06,1.610276522816239e-06,1.67041601428831e-06,2.35860626797603e-06,3.704349520184365e-06,1.4143482560401286e-05,8.943326076024117e-07,1.2017561096478523e-05,2.754861171474425e-06,2.8570723286558548e-06,1.3539928402542208e-06,8.06191630964849e-07
168,1.8188288603896302e-06,1.6515617174550146e-06,2.235395591493646e-06,1.842236684565471e-06,2.682400824676148e-06,1.5697972907819659e-06,1.6842169322903662e-06,2.4172634402241013e-06,3.756958454296491e-06,1.4632568699799451e-05,8.441997417851577e-07,1.1663425307888746e-05,2.6419932203306273e-06,2.2293561452276776e-06,1.3604028695200738e-06,8.370306188672779e-07
169,1.7935246917840848e-06,1.6460710475246201e-06,2.2087579311321497e-06,1.8116361210928266e-06,2.745039329438002e-06,1.5279547041072518e-06,1.6999823473486877e-06,2.474208061430141e-06,3.8039661518635743e-06,1.5192193385861591e-05,8.096915928976055e-07,1.1303347542405406e-05,2.536257925235417e-06,1.6952200501756788e-06,1.363451470912369e-06,8.702487962479781e-07
170,1.7712143291191505e-06,1.640493592598179e-06,2.183324658463085e-06,1.7840229445034796e-06,2.8115379175495494e-06,1.4852676182947732e-06,1.7173678323009638e-06,2.5280298400975477e-06,3.846409553090413e-06,1.58224145639498e-05,7.883542304666382e-07,1.0938450025967052e-05,2.438671303828171e-06,1.2466847792705409e-06,1.3636251405782479e-06,9.052223039922267e-07
171,1.7521173928474727e-06,1.6342471139017048e-06,2.158988541111125e-06,1.7597072839706084e-06,2.882482420062143e-06,1.4424001180457454e-06,1.7360112939498218e-06,2.5771790396238092e-06,3.885621126920696e-06,1.6522175186744016e-05,7.778610255599779e-07,1.0568460019773755e-05,2.3499331357461888e-06,8.756780025812928e-07,1.3614583331038335e-06,9.41360117025669e-07
172,1.7366722410045054e-06,1.626720394934506e-06,2.1357041697241407e-06,1.7389347556543666e-06,2.9583860213224264e-06,1.4001634319373728e-06,1.755439816596765e-06,2.620317626623281e-06,3.923646244826736e-06,1.728944136702242e-05,7.759664754531922e-07,1.0191670796882324e-05,2.2702620142668088e-06,5.744332614837644e-07,1.3573347395474431e-06,9.781151978116295e-07
173,1.7256363063090879e-06,1.61747903493803e-06,2.113621703256161e-06,1.7218509409775615e-06,3.0396945878067627e-06,1.3594344617323246e-06,1.7749727906752313e-06,2.6567266583102854e-06,3.9631702514375715e-06,1.8121625855406835e-05,7.804358507501771e-07,9.805714923289113e-06,2.1994124909928622e-06,3.3585799671227247e-07,1.3514996801856847e-06,1.014994777094007e-06
174,1.7200009578018023e-06,1.6064987237526675e-06,2.0930405585445334e-06,1.708507599050225e-06,3.126755307846351e-06,1.3210442272105459e-06,1.7937942287418758e-06,2.686447769470166e-06,4.006979029336186e-06,1.901502401025746e-05,7.891111178019717e-07,9.408651866560419e-06,2.136858394091376e-06,1.536521603733491e-07,1.3441786290021966e-06,1.0515805581734266e-06
175,1.7207772554969825e-06,1.594164568149305e-06,2.0742600935595912e-06,1.6990263486761475e-06,3.2196764987503826e-06,1.2856926540606618e-06,1.8111664386430188e-06,2.710005894370461e-06,4.057526310069472e-06,1.996377188227959e-05,8.001459401497593e-07,8.999643486379629e-06,2.082093493326509e-06,2.2142109555786398e-08,1.3355785264459006e-06,1.087554154278075e-06
176,1.7288095193843062e-06,1.5810142682425029e-06,2.05744237387125e-06,1.693762898886461e-06,3.3181419572502805e-06,1.253949843451818e-06,1.8265516313833118e-06,2.7280220095960326e-06,4.116818832406879e-06,2.0959610477590555e-05,8.122111958318733e-07,8.579142070036273e-06,2.034849926890255e-06,-6.39577694868187e-08,1.3257817306441686e-06,1.122674300206136e-06
177,1.7447036944247759e-06,1.5675057601518033e-06,2.042527085404352e-06,1.6933007131410264e-06,3.421301161807947e-06,1.2263354636474928e-06,1.8395472108288424e-06,2.741132183021384e-06,4.186371261620674e-06,2.19922280362108e-05,8.244599381426263e-07,8.148811926670381e-06,1.9950682028158624e-06,-1.0963520771795667e-07,1.3147774539401233e-06,1.1566888934289285e-06
178,1.7687888151020326e-06,1.5539651557318038e-06,2.0291760114905984e-06,1.6982980157066533e-06,3.5277367174743476e-06,1.2033744901794594e-06,1.849868595409708e-06,2.750184144639204e-06,4.2670728403843115e-06,2.304903360534373e-05,8.36298736590738e-07,7.711318680524574e-06,1.9627448329720528e-06,-1.1958127656135604e-07,1.3026584881575556e-06,1.189281594195803e-06
179,1.8010675830602239e-06,1.5406004317650748e-06,2.0167655412423604e-06,1.709296840951108e-06,3.635470361532018e-06,1.185554939326228e-06,1.8575105557489964e-06,2.7563582257897955e-06,4.359048204598959e-06,2.4114457031562335e-05,8.47199912104967e-07,7.270060366427851e-06,1.93791206596843e-06,-9.824211479672785e-08,1.289712968703403e-06,1.2201370665875435e-06
180,1.8412508063452603e-06,1.5275618091267276e-06,2.0045123727938118e-06,1.7265850581807714e-06,3.742017546779566e-06,1.1732570994079569e-06,1.862826424876182e-06,2.7610483117861515e-06,4.461689096632971e-06,2.5170213629669128e-05,8.567031010833222e-07,6.828916697792923e-06,1.9207279269234798e-06,-4.9889039676471845e-08,1.2762795862236193e-06,1.2490874899684592e-06
181,1.8888909234385797e-06,1.515111362941165e-06,1.9917132530111267e-06,1.7501261172639481e-06,3.84442423389668e-06,1.1667511390400387e-06,1.8663334461057385e-06,2.7656515570616847e-06,4.573932235718218e-06,2.619719181580276e-05,8.645282698115296e-07,6.392042145749928e-06,1.9114696627848367e-06,2.1356703153362504e-08,1.2625460225273333e-06,1.2762379382289377e-06
182,1.94347372016669e-06,1.5037237673094525e-06,1.977932823859087e-06,1.779540734337546e-06,3.939280046519102e-06,1.166219313439852e-06,1.8684264903336329e-06,2.7714309516923673e-06,4.69455465832546e-06,2.7177845484073386e-05,8.706185387037216e-07,5.963651562828658e-06,1.910415397975613e-06,1.1154044186111958e-07,1.248467558628876e-06,1.30195681631979e-06
183,2.0043874172671523e-06,1.4939821813797501e-06,1.96304179179489e-06,1.81415312827002e-06,4.022849905773785e-06,1.1717205364844218e-06,1.8692238852773522e-06,2.779414791774287e-06,4.822192560136152e-06,2.8097757796515953e-05,8.750698948613675e-07,5.547802859384041e-06,1.9177542846272917e-06,2.1689314911379035e-07,1.2337882819489938e-06,1.326701870279499e-06
184,2.0708547785725934e-06,1.4864796683807572e-06,1.9471306260634037e-06,1.8530577550399485e-06,4.091329647273063e-06,1.1831443584946451e-06,1.8685935996123163e-06,2.790271981243492e-06,4.955175822451391e-06,2.8946065022004227e-05,8.780592391292958e-07,5.148258993524945e-06,1.933583734261378e-06,3.338222340306147e-07,1.218115723897111e-06,1.3508192339011127e-06
185,2.141895796162274e-06,1.4818646868808172e-06,1.9303312015174642e-06,1.8951534333768734e-06,4.141153218294861e-06,1.2002472045980617e-06,1.866344686116465e-06,2.8042111574848123e-06,5.091542359357319e-06,2.9714785181388305e-05,8.798081923880848e-07,4.768435865794021e-06,1.957938510656896e-06,4.5894911622666966e-07,1.2010447349991648e-06,1.374466885262906e-06
186,2.21629627293826e-06,1.480854841392174e-06,1.912635604098567e-06,1.9392409274219206e-06,4.169429898354538e-06,1.22273016755681e-06,1.8624869536659766e-06,2.8209253750534772e-06,5.229303721698632e-06,3.0397003710051672e-05,8.805200173213215e-07,4.411369335013692e-06,1.990825990774313e-06,5.892785821766159e-07,1.1822632596502199e-06,1.3976760288228758e-06
187,2.2926629378892467e-06,1.4841374932472382e-06,1.8938491152368172e-06,1.984234332588922e-06,4.174483600197987e-06,1.250235057424102e-06,1.8573478237027736e-06,2.839606991109897e-06,5.3666413501219235e-06,3.098518588668557e-05,8.802965460590889e-07,4.079653189106026e-06,2.0322864796898298e-06,7.22391935732418e-07,1.1615812998141042e-06,1.4204936873366036e-06
188,2.3696428995532633e-06,1.4922870169136085e-06,1.8736773546358648e-06,2.029286419424629e-06,4.156141772722472e-06,1.2822596146416976e-06,1.8514438504032688e-06,2.8591115598485195e-06,5.501844376673362e-06,3.1472128416592037e-05,8.790928040801321e-07,3.775321867117656e-06,2.0823932954257333e-06,8.565232363529388e-07,1.1389617791218882e-06,1.4430976851904039e-06
189,2.4460825075967643e-06,1.505766683541723e-06,1.8518291984364446e-06,2.073751655967924e-06,4.115433930841625e-06,1.31812555968286e-06,1.8452716461408493e-06,2.878232062259233e-06,5.6331398085381496e-06,3.185443035157703e-05,8.76738194913105e-07,3.4997286264674584e-06,2.141126691739611e-06,9.905237131578114e-07,1.1146391393920542e-06,1.4657625615266398e-06
190,2.52087883961746e-06,1.5249719788326205e-06,1.8280685797169746e-06,2.1172160089410484e-06,4.053842870950336e-06,1.3571127913421996e-06,1.8392466776796282e-06,2.8959294504697242e-06,5.7585390652081776e-06,3.213490690462348e-05,8.730327158889972e-07,3.2535248980531024e-06,2.2082437079900694e-06,1.1237383844806743e-06,1.0892425853653144e-06,1.4887353740841678e-06
191,2.5926774516945838e-06,1.5502369247562741e-06,1.8022355690221042e-06,2.159599560981026e-06,3.972720614876187e-06,1.3987466110164698e-06,1.8337840900054263e-06,2.911441102994684e-06,5.875652039483979e-06,3.2321560687018736e-05,8.67880705770247e-07,3.0367548392878443e-06,2.2832337201727057e-06,1.2558840055978263e-06,1.0637484193152734e-06,1.5121603100128833e-06
192,2.6597679615473337e-06,1.5817982678429727e-06,1.7742942443930224e-06,2.201043707751886e-06,3.8733116496372644e-06,1.4430451766809249e-06,1.8293280498974767e-06,2.924276010571625e-06,5.981643832782848e-06,3.2423931745233734e-05,8.613857528686056e-07,2.848976767704733e-06,2.3653063594957285e-06,1.3870183819776066e-06,1.039260078313403e-06,1.5360378269381514e-06
193,2.7202554888946492e-06,1.6197772203163608e-06,1.7444277469009003e-06,2.2416041628673434e-06,3.7571546453389994e-06,1.4904884392461993e-06,1.8262340266852786e-06,2.9340769901024374e-06,6.073842607206451e-06,3.2448801067499855e-05,8.538520565099876e-07,2.6893055717132354e-06,2.453357794294275e-06,1.5174474491306872e-06,1.016822037669596e-06,1.5602127065199264e-06
194,2.7722317751179583e-06,1.6641758347397241e-06,1.713105754566367e-06,2.281066472632553e-06,3.626353285856723e-06,1.541713270426486e-06,1.824594627448566e-06,2.940377775257908e-06,6.15096297590009e-06,3.239714477099521e-05,8.456995769116191e-07,2.5563629859014117e-06,2.545897001690973e-06,1.6474980189795817e-06,9.973732407243247e-07,1.5844767115221473e-06
195,2.813771130903051e-06,1.714860497423858e-06,1.6810252428463513e-06,2.318969642876374e-06,3.4835474516484516e-06,1.5972051337221454e-06,1.8241323175414517e-06,2.9424466717915137e-06,6.213919748505267e-06,3.226383983778029e-05,8.373700065566525e-07,2.4482460997803733e-06,2.640979424957842e-06,1.7773966902151995e-06,9.817450054739869e-07,1.6087328118965129e-06
196,2.842985447491922e-06,1.7715181056937001e-06,1.6489309940120812e-06,2.354691345086788e-06,3.3317298069721585e-06,1.6572078439289846e-06,1.8241900119740486e-06,2.9393380293214263e-06,6.265391658846007e-06,3.204042718513339e-05,8.292800184921703e-07,2.3625664587103804e-06,2.7362363466849537e-06,1.907356475991318e-06,9.706416819912958e-07,1.6330659829353642e-06
197,2.8583285027825404e-06,1.833612421784169e-06,1.6174250002889818e-06,2.3875508190607964e-06,3.174047575033424e-06,1.7218106233865014e-06,1.8238191657449604e-06,2.930075718050775e-06,6.308559813031792e-06,3.1719416045417904e-05,8.217984791908707e-07,2.296509658430607e-06,2.8290176873684206e-06,2.0376422430396545e-06,9.646747728066407e-07,1.6576866531902205e-06
198,2.8589560328374808e-06,1.9003943147806986e-06,1.5868643635437352e-06,2.416999468702116e-06,3.013635752482948e-06,1.791019812242085e-06,1.822012298755545e-06,2.9139359140577526e-06,6.346205356867501e-06,3.129728355781692e-05,8.15235361499877e-07,2.2469314263854973e-06,2.9165993549424543e-06,2.168471077125319e-06,9.645339699184716e-07,1.682851823406983e-06
199,2.8449411060688145e-06,1.9709303003911254e-06,1.5573790109659263e-06,2.442860034677166e-06,2.853460429206691e-06,1.8646996483949413e-06,1.8180502127833992e-06,2.8907865342239123e-06,6.380680841890851e-06,3.077386134312357e-05,8.09842859090155e-07,2.2105177327538214e-06,2.9963873076088706e-06,2.2999247081692148e-06,9.71232293997261e-07,1.7089030546137113e-06
200,2.8173066077725237e-06,2.044127433316082e-06,1.5289819931220285e-06,2.4654475312058306e-06,2.696152929179072e-06,1.942431953473063e-06,1.811770165009295e-06,2.861271910152417e-06,6.4140879290408955e-06,3.014879404176503e-05,8.057910262258039e-07,2.1839304686319335e-06,3.0660866420174e-06,2.4320014909114878e-06,9.861940521443022e-07,1.7364150554174776e-06
201,2.7778076255720445e-06,2.1188133379569007e-06,1.5016892031735637e-06,2.4854835357707384e-06,2.543899754165636e-06,2.0234047028647625e-06,1.803592762740479e-06,2.8267147166998e-06,6.448038852254056e-06,2.9418833571267745e-05,8.031249245061756e-07,2.1639068842020166e-06,3.1238708784127586e-06,2.5646370502339153e-06,1.0110816896815262e-06,1.7662521573028938e-06
202,2.7284949442304117e-06,2.193816859668053e-06,1.4755454378267802e-06,2.5038830900505972e-06,2.3984360159987536e-06,2.106372405990392e-06,1.7943492721690243e-06,2.7888689851170978e-06,6.483325014432377e-06,2.8578644430685687e-05,8.017573156502321e-07,2.1474055687126226e-06,3.168554461197836e-06,2.6975757993789767e-06,1.0475590408496386e-06,1.7994184040824546e-06
203,2.671369333847112e-06,2.2679696329954713e-06,1.450565094288575e-06,2.5215189438568815e-06,2.2611217279752407e-06,2.1896877419741314e-06,1.785049593298918e-06,2.749700375315971e-06,6.5199288392483206e-06,2.7624218811584515e-05,8.015147245179651e-07,2.131853486445495e-06,3.1996777915452e-06,2.8302439908175923e-06,1.0972037245374674e-06,1.8368322723341224e-06
204,2.6083714094084095e-06,2.3401791384508498e-06,1.4267192298760305e-06,2.5390292627927845e-06,2.1330663035818187e-06,2.2714379201003127e-06,1.776667402099563e-06,2.7112048185642687e-06,6.557186112602905e-06,2.655687536271577e-05,8.022238955649325e-07,2.11542524052156e-06,3.217409780096244e-06,2.9617693629669993e-06,1.1615804100249577e-06,1.879180176105496e-06
205,2.5414834403963786e-06,2.4096078433483744e-06,1.4039919663046023e-06,2.5568056447714627e-06,2.0151926165916602e-06,2.349705130172617e-06,1.7699589005437238e-06,2.6751994844063675e-06,6.593818849307658e-06,2.5385961254867258e-05,8.037855387610177e-07,2.0972347300903217e-06,3.2222398022273974e-06,3.091094362824131e-06,1.2423391744167522e-06,1.9268822200599238e-06
206,2.4726121294504933e-06,2.4756678271149036e-06,1.382383278411158e-06,2.575234410959588e-06,1.908182162959835e-06,2.4228840389374563e-06,1.765341114917797e-06,2.6431071157088457e-06,6.627912928638627e-06,2.412856712644475e-05,8.061533896457303e-07,2.0773336992117324e-06,3.214566839344544e-06,3.2171000952252376e-06,1.3411912050604304e-06,1.980152956437957e-06
207,2.4033529395580272e-06,2.5378232594474607e-06,1.3618507364332271e-06,2.59497052458592e-06,1.8124296181190216e-06,2.4899365067174498e-06,1.7628496124091225e-06,2.6158304184765175e-06,6.6569725530354126e-06,2.280655400619737e-05,8.092369534533018e-07,2.0564565430028402e-06,3.1944853553487595e-06,3.338762118402096e-06,1.4597752108471886e-06,2.0391105666812234e-06
208,2.3349129110855124e-06,2.595470664659261e-06,1.3423017473420066e-06,2.6169564877897755e-06,1.7280787506862807e-06,2.550468955575629e-06,1.7621472595135513e-06,2.593752904065093e-06,6.678063351920197e-06,2.144309000228671e-05,8.128529898540575e-07,2.035590477326064e-06,3.1619642027994347e-06,3.455294097960966e-06,1.5995550461749999e-06,2.1038965250639767e-06
209,2.2682131178760144e-06,2.647920346884776e-06,1.3236214174661265e-06,2.6421812706113544e-06,1.6550563110495396e-06,2.604608221254496e-06,1.7625483817889154e-06,2.576805939961861e-06,6.6879770203582384e-06,2.0060199827659165e-05,8.167633109403033e-07,2.0156177472945497e-06,3.1172234867571257e-06,3.5661308013011866e-06,1.7618026444030588e-06,2.174836918350934e-06
210,2.2040001968396132e-06,2.6944821186683093e-06,1.3056450496918422e-06,2.6714199984785675e-06,1.5931207352566001e-06,2.652802017776833e-06,1.7630848828718888e-06,2.5646050770376337e-06,6.683255155939709e-06,1.8677262093927386e-05,8.207258819186675e-07,1.9972104708796198e-06,3.0609913341861348e-06,3.670712631290981e-06,1.9475972145947455e-06,2.252618209242414e-06
211,2.142845180984523e-06,2.7347131620873345e-06,1.288137104804288e-06,2.705161152685102e-06,1.542010434211924e-06,2.695662476080005e-06,1.7626745772778055e-06,2.556720383694939e-06,6.66015664509336e-06,1.731025943161305e-05,8.245434686249761e-07,1.980921878951199e-06,2.9945053271885807e-06,3.768184009492568e-06,2.157776605441948e-06,2.3383277777862515e-06
212,2.085112337917979e-06,2.7686498585299752e-06,1.2708397363398371e-06,2.7437224858855385e-06,1.5015727754415123e-06,2.733796748929218e-06,1.7603848553529672e-06,2.552928358628078e-06,6.615141994366464e-06,1.597195027474608e-05,8.281204548465936e-07,1.9673260314877113e-06,2.9193177013103337e-06,3.8571934173265755e-06,2.3928481618721054e-06,2.433269505099363e-06
213,2.03103482123498e-06,2.7968183646465273e-06,1.253490950667224e-06,2.787434208570216e-06,1.471733588152443e-06,2.7675758817037197e-06,1.75566825924937e-06,2.553182548251203e-06,6.545973908941658e-06,1.4672652722367824e-05,8.314750421544181e-07,1.9570790397595655e-06,2.8371136782337076e-06,3.93594021030659e-06,2.6529140035573957e-06,2.538635185920496e-06
214,1.9808145978426454e-06,2.820006859306649e-06,1.2358351735082698e-06,2.8367759944639725e-06,1.452428904824164e-06,2.797009908174374e-06,1.7483916227560425e-06,2.5573883454184074e-06,6.452511963562188e-06,1.3420993322858946e-05,8.346864649579507e-07,1.9508338324473985e-06,2.7497285940836787e-06,4.002411451393185e-06,2.9376477695189364e-06,2.6552136350691895e-06
215,1.934575481997661e-06,2.838901616667524e-06,1.217760238530431e-06,2.892376029943167e-06,1.4436110493165284e-06,2.821864531341762e-06,1.7386577760917437e-06,2.565288020911426e-06,6.336553837066697e-06,1.222432835896084e-05,8.378271959148715e-07,1.949115013882243e-06,2.659305918806403e-06,4.05465102502063e-06,3.2462659324722393e-06,2.7832590863230966e-06
216,1.8922007996946836e-06,2.85376728574981e-06,1.1994601817707904e-06,2.9548392038422913e-06,1.4452665328713052e-06,2.8418565569857695e-06,1.726712787732433e-06,2.576473277566248e-06,6.201084487862708e-06,1.1088847416010081e-05,8.409243904770259e-07,1.9522834638739357e-06,2.5683570791404233e-06,4.091014323498496e-06,3.577432071961998e-06,2.922472829135498e-06
217,1.8532639242476533e-06,2.864318963555678e-06,1.1814213023565314e-06,3.0245165119599694e-06,1.4574516431233846e-06,2.8567312062288857e-06,1.7130694315742527e-06,2.5903225801769466e-06,6.049526231969109e-06,1.001944791079535e-05,8.439478021660758e-07,1.960515677575713e-06,2.479579695431507e-06,4.11043768655936e-06,3.929183763993917e-06,3.0720176009647984e-06
218,1.8172034603940677e-06,2.8698005201070466e-06,1.1642438119971808e-06,3.1014151096014384e-06,1.4803311745607219e-06,2.866277763328436e-06,1.6985474497273292e-06,2.605826324242176e-06,5.885255688207276e-06,9.019501751642062e-06,8.468037625082835e-07,1.973726153359818e-06,2.3955364527202747e-06,4.112552968853296e-06,4.298983688631744e-06,3.2305852084909354e-06
219,1.7836657985490486e-06,2.869184646595336e-06,1.148497277223868e-06,3.1853115176906342e-06,1.514084614579108e-06,2.870407396356021e-06,1.6840744064422425e-06,2.6214461312622996e-06,5.71131067531065e-06,8.090665102653334e-06,8.493466288909009e-07,1.9915067389627063e-06,2.3184105264933814e-06,4.097390056041968e-06,4.683799622936925e-06,3.3965357718015272e-06
220,1.7527365437811415e-06,2.8613434809227414e-06,1.134725799689959e-06,3.275885213262863e-06,1.558715112931224e-06,2.8692400096402262e-06,1.6704558054176455e-06,2.635154552366571e-06,5.53020405834273e-06,7.232977030583096e-06,8.514059257448155e-07,2.0131465865773026e-06,2.2499163793870873e-06,4.064947089743373e-06,5.080040406955538e-06,3.5680324089495576e-06
221,1.7248630010618801e-06,2.8451030524196563e-06,1.1235091973620807e-06,3.37265907721272e-06,1.613941476968565e-06,2.8630839890296563e-06,1.6582390098289825e-06,2.644728013151427e-06,5.344111207972091e-06,6.4453420932124e-06,8.528000022752834e-07,2.0377300593280604e-06,2.191288053757832e-06,4.01524730532274e-06,5.483332890840093e-06,3.743043441863803e-06
222,1.7005844708567243e-06,2.819327118051689e-06,1.1154670544136368e-06,3.4747632850899742e-06,1.6791932038144234e-06,2.8523300257261945e-06,1.6476359593944148e-06,2.648264896065574e-06,5.155516356518376e-06,5.726043969062729e-06,8.533498619697067e-07,2.0642136723156613e-06,2.1432885548117986e-06,3.9489089995637256e-06,5.888273857124541e-06,3.919173619223785e-06
223,1.6803229897589999e-06,2.7831929568468912e-06,1.1112011803387982e-06,3.5807060819116525e-06,1.7536086583968575e-06,2.8373794577961403e-06,1.638503477314785e-06,2.6447593486483724e-06,4.967727268924009e-06,5.073072669907097e-06,8.52915529754732e-07,2.091400044815053e-06,2.1062336938057943e-06,3.867658200263256e-06,6.288273169828142e-06,4.093505849975704e-06
224,1.6643040868891035e-06,2.7364550210427813e-06,1.111218228359608e-06,3.688297083653171e-06,1.8360169037061156e-06,2.818688292925471e-06,1.630414187251956e-06,2.6344572124448047e-06,4.784712338976507e-06,4.4845997081768414e-06,8.5145414139982e-07,2.1179435346798276e-06,2.0800274957530448e-06,3.7743429583981633e-06,6.675541479976679e-06,4.262596376002951e-06
225,1.6525152080332744e-06,2.6793602062365915e-06,1.115871040714598e-06,3.7947893086357247e-06,1.924972688339925e-06,2.7968758020107433e-06,1.622821357833297e-06,2.618781654947431e-06,4.610439262276595e-06,3.959599311188842e-06,8.490822510217926e-07,2.142553676065583e-06,2.0641992973626427e-06,3.67246995081392e-06,7.041277422281468e-06,4.422504198083288e-06
226,1.6446731618508313e-06,2.612366937730696e-06,1.1253287865801645e-06,3.897217334944746e-06,2.0188571026688074e-06,2.772709660835605e-06,1.6152196529562281e-06,2.5998679657897164e-06,4.448285935257857e-06,3.4980435094042316e-06,8.460751774144422e-07,2.1643005340402754e-06,2.0579152944662383e-06,3.565577864077374e-06,7.376107907731317e-06,4.568836211265784e-06
227,1.6402443559340138e-06,2.5361036932178034e-06,1.1395774424894935e-06,3.99278648772532e-06,2.1159262924873286e-06,2.7468886232011193e-06,1.6071586605092913e-06,2.580005703456488e-06,4.300893653354813e-06,3.100578388628549e-06,8.427794866183611e-07,2.1827699484791614e-06,2.0599793849110296e-06,3.4567448340720936e-06,7.67076445056197e-06,4.697015160457168e-06
228,1.638506782097553e-06,2.451557434544884e-06,1.158444514626917e-06,4.079147395599532e-06,2.214253466459052e-06,2.719850045183356e-06,1.5981430559008807e-06,2.56130977011583e-06,4.170375932048048e-06,2.7681750809449794e-06,8.395130248067359e-07,2.1979877648361385e-06,2.0688522823103212e-06,3.3483466605620822e-06,7.916922497442511e-06,4.80280220435941e-06
229,1.6386278146437624e-06,2.3601493637494726e-06,1.1816168138112786e-06,4.154500553285006e-06,2.311712285457361e-06,2.6917732393320075e-06,1.5876109808410345e-06,2.5457092962773104e-06,4.058492334900191e-06,2.5020265011660615e-06,8.36493046335352e-07,2.2102617900352386e-06,2.0826771629751682e-06,3.2420180472758693e-06,8.108070723051677e-06,4.882815993258309e-06
230,1.6397840171392862e-06,2.263560589817049e-06,1.2086399726413908e-06,4.217579857651573e-06,2.406135401289608e-06,2.6626070211313978e-06,1.5750572067490187e-06,2.5350655822780017e-06,3.966543876205492e-06,2.303574715788742e-06,8.337818288865732e-07,2.2200695372154586e-06,2.099376783577629e-06,3.138705125265538e-06,8.24005319994021e-06,4.9347063923917085e-06
231,1.641311029464578e-06,2.1634435306593114e-06,1.2388981218453367e-06,4.267599554834235e-06,2.4955968490150155e-06,2.6319937663529955e-06,1.5601916962474902e-06,2.531162213006041e-06,3.8951432826137875e-06,2.1744992363009795e-06,8.312743356261681e-07,2.2279570215145437e-06,2.1169425981371496e-06,3.03875013038303e-06,8.31072767440316e-06,4.956831608537426e-06
232,1.6428012575601386e-06,2.061266768582557e-06,1.27157964497519e-06,4.304231682483881e-06,2.578684555631289e-06,2.599237426992747e-06,1.543002161771003e-06,2.535516519042991e-06,3.8441421473937245e-06,2.1166325891715527e-06,8.287574391833109e-07,2.234374442347189e-06,2.1338678839079715e-06,2.942074355874314e-06,8.318819022031477e-06,4.947847729953736e-06
233,1.6441396500511226e-06,1.9583999880887116e-06,1.3057002065678148e-06,4.327608988641459e-06,2.6546557897654165e-06,2.563452286381055e-06,1.5236661165153986e-06,2.5491773061693424e-06,3.8127738925001898e-06,2.131857004276889e-06,8.259960355418938e-07,2.239484123502052e-06,2.1494818598904716e-06,2.8485615247496537e-06,8.263343667128105e-06,4.906890486345684e-06
234,1.6455605065764e-06,1.856274829439511e-06,1.340265177547057e-06,4.338265977847006e-06,2.7234353729747744e-06,2.523841456026652e-06,1.5024286421824034e-06,2.572635430448122e-06,3.7998210010157454e-06,2.2219871764272973e-06,8.227557510276002e-07,2.243046912280156e-06,2.1639509809723748e-06,2.7584917701994156e-06,8.144597390218265e-06,4.834307219127434e-06
235,1.6476813746661579e-06,1.7564389631241922e-06,1.374520649864115e-06,4.336942884663553e-06,2.785482820925487e-06,2.4799675969730708e-06,1.4796094173035327e-06,2.6058306850513145e-06,3.8036293870417052e-06,2.388637934944997e-06,8.187665303825544e-07,2.244432390502516e-06,2.1779380046105267e-06,2.6726478864344245e-06,7.96560902059716e-06,4.732169493679916e-06
236,1.6513718640451252e-06,1.6604718315377918e-06,1.4080750373875378e-06,4.324271016361186e-06,2.841578960486673e-06,2.431914388643552e-06,1.4556753021051605e-06,2.6481951728713286e-06,3.822061180406258e-06,2.6331275044990698e-06,8.137283304972841e-07,2.242725683475412e-06,2.1922057229002115e-06,2.5919975561435216e-06,7.732483133358984e-06,4.6041238882796724e-06
237,1.6575450209036565e-06,1.569817607572679e-06,1.4407592655289513e-06,4.3004352488003745e-06,2.8925838219143214e-06,2.3802943248932183e-06,1.4312238145593729e-06,2.6987098270705242e-06,3.852564558658562e-06,2.956396584971291e-06,8.074017752533352e-07,2.236885913286716e-06,2.207456293759948e-06,2.5172816270607123e-06,7.453485163923695e-06,4.454824902797943e-06
238,1.6670563788722483e-06,1.4856404430753348e-06,1.472404466573357e-06,4.264979467503012e-06,2.939198990926407e-06,2.326089062214562e-06,1.4069146354063413e-06,2.756091296559093e-06,3.892413639878564e-06,3.358889671063169e-06,7.997291726814563e-07,2.225909798217996e-06,2.224339133719678e-06,2.4487928492367766e-06,7.1376993097625814e-06,4.289338272234043e-06
239,1.6806590421428391e-06,1.4087667160379457e-06,1.502731788599089e-06,4.216922799772803e-06,2.9817506588015036e-06,2.2703756341322843e-06,1.3834489119740155e-06,2.8192284094867776e-06,3.9391208117446575e-06,3.8404222787114994e-06,7.908895349223882e-07,2.2089714319622825e-06,2.2433953427963798e-06,2.3863331372177965e-06,6.794002367248378e-06,4.112650620059446e-06
240,1.6989522093153621e-06,1.3396898332156206e-06,1.5312985502716287e-06,4.155163890908138e-06,3.0200381652139137e-06,2.2141323026649727e-06,1.3615513229357669e-06,2.887610098253301e-06,3.990796560385677e-06,4.400048895627549e-06,7.812369119736375e-07,2.185508284545134e-06,2.2649137799078607e-06,2.3293003314179056e-06,6.4305661551312605e-06,3.9292727240581975e-06
241,1.7223927956453858e-06,1.2786247218207134e-06,1.5574412413743855e-06,4.078962417875213e-06,3.053350371329213e-06,2.1583203324892973e-06,1.3418752344297836e-06,2.961314446508842e-06,4.046037976632788e-06,5.035938456343114e-06,7.711991905904082e-07,2.1552040600710873e-06,2.2888137776810872e-06,2.276954395161006e-06,6.054668707907528e-06,3.7429950123206885e-06
242,1.751328896100549e-06,1.225606599020865e-06,1.5802587003411985e-06,3.988327224669703e-06,3.08075895770881e-06,2.1041387941418228e-06,1.3248808276274573e-06,3.0405961293141366e-06,4.1033777875772694e-06,5.7453254940266225e-06,7.612368834447342e-07,2.1179086955277667e-06,2.314630685089298e-06,2.2287858266143998e-06,5.672580865064298e-06,3.5568927623111736e-06
243,1.7859551450974174e-06,1.1805693494398605e-06,1.5986711736314173e-06,3.88424622740298e-06,3.1015989938719655e-06,2.0531055782695818e-06,1.3107776892693405e-06,3.125506486378504e-06,4.160892808469963e-06,6.524585090855788e-06,7.518585688874455e-07,2.0736607790652316e-06,2.3416139538822766e-06,2.184691741762394e-06,5.289591271957842e-06,3.373489434295884e-06
244,1.8262157264637512e-06,1.1433630506487156e-06,1.6116196971348808e-06,3.7687004464818382e-06,3.1157790528114454e-06,2.006827089831544e-06,1.2995446245822999e-06,3.215729832396436e-06,4.2163757660583194e-06,7.369337638275788e-06,7.436483643475773e-07,2.022868692404117e-06,2.3688318233010804e-06,2.1447879196739436e-06,4.9102765965792905e-06,3.1948544256752566e-06
245,1.8717516517062714e-06,1.1137547002705966e-06,1.6184127226939347e-06,3.6444061473446714e-06,3.123652422577419e-06,1.966689417591038e-06,1.2910171980012626e-06,3.310554495929765e-06,4.267804963266548e-06,8.274383483443926e-06,7.372545853397709e-07,1.9664678678551244e-06,2.3951644123500025e-06,2.109091573800397e-06,4.538820373957748e-06,3.0226402632473185e-06
246,1.9219700616341402e-06,1.091439138983823e-06,1.6190260267178863e-06,3.5143385562803633e-06,3.125594772656396e-06,1.9336969879975587e-06,1.2850252220848875e-06,3.4090520959092565e-06,4.3136365429041106e-06,9.233383374640512e-06,7.333066976210958e-07,1.905884944478006e-06,2.4192587439784326e-06,2.0773475513310224e-06,4.1791083126198265e-06,2.858175154308961e-06
247,1.9762151579563375e-06,1.07602532111578e-06,1.6140941356174222e-06,3.381257133687786e-06,3.1216585139479733e-06,1.908440530709777e-06,1.2815030065458088e-06,3.5105210248116224e-06,4.352852061186546e-06,1.023839998098026e-05,7.323262693632076e-07,1.8428719027428442e-06,2.4395947951310353e-06,2.048987900906239e-06,3.834566958115026e-06,2.702516734873822e-06
248,2.033901439511576e-06,1.0670204470546576e-06,1.6045650746620325e-06,3.2474774618359225e-06,3.1115147229187233e-06,1.8911232620924751e-06,1.280502929369802e-06,3.614933507672798e-06,4.384987752065685e-06,1.1279470894218694e-05,7.347142386623654e-07,1.7793738190500618e-06,2.454760653277372e-06,2.0232126057314996e-06,3.5079168766091574e-06,2.55643125536609e-06
249,2.09452021689422e-06,1.063903275676653e-06,1.5913135905817747e-06,3.1149513386988624e-06,3.0947283814673226e-06,1.8816396626772208e-06,1.2821179545630064e-06,3.723052658384972e-06,4.410230568685063e-06,1.234429531824411e-05,7.407928287662323e-07,1.7174605407813547e-06,2.463910166305682e-06,1.99920106326878e-06,3.201045959965723e-06,2.420474300434767e-06
250,2.1575538182674852e-06,1.0662701242075511e-06,1.5750142107455805e-06,2.985504302105556e-06,3.0712803158690973e-06,1.879679159192966e-06,1.286366741128872e-06,3.836131327176581e-06,4.429468567258437e-06,1.3417973268858688e-05,7.508218603679616e-07,1.6592189100407795e-06,2.4670339274052695e-06,1.9763169888664226e-06,2.915099144146748e-06,2.295219852978917e-06
251,2.222354311114476e-06,1.073896455435465e-06,1.556285800322584e-06,2.860983957585644e-06,3.0419619100157145e-06,1.8847980013596362e-06,1.2931173858357698e-06,3.9553820907520334e-06,4.4441160422311704e-06,1.4482790038661032e-05,7.649661557614826e-07,1.6065779556499118e-06,2.464698766810411e-06,1.954183328238519e-06,2.650709805787609e-06,2.1814810835061876e-06
252,2.2880910413664554e-06,1.0866379150316025e-06,1.5358862411516178e-06,2.7431701977088442e-06,3.0083095599332674e-06,1.8964614650454453e-06,1.302085039461057e-06,4.0815300849188225e-06,4.455654513419884e-06,1.551826083815684e-05,7.832722031412448e-07,1.5611724487356117e-06,2.4574897608460033e-06,1.932604805045361e-06,2.408202375965332e-06,2.0804189782706224e-06
253,2.3538426541133484e-06,1.104295854249175e-06,1.514726345278779e-06,2.6335798924817733e-06,2.9721809786579666e-06,1.91407231989025e-06,1.312870314923462e-06,4.214663770297886e-06,4.465128932773283e-06,1.6501437153410767e-05,8.056880152755035e-07,1.5243327890857972e-06,2.4456005274815753e-06,1.9114324285628614e-06,2.1876779244482644e-06,1.9935672447866594e-06
254,2.4186886719813604e-06,1.126585579156192e-06,1.4936980445897705e-06,2.5334232105747914e-06,2.9353256737718274e-06,1.936946992356796e-06,1.3250305523361782e-06,4.354404901542309e-06,4.472851555618064e-06,1.7407459965435248e-05,8.321008709528734e-07,1.4971898563872328e-06,2.4287346550125083e-06,1.8905772399083516e-06,1.9890151786736497e-06,1.9228368923081095e-06
255,2.4816363224235084e-06,1.1532152146856903e-06,1.4735184265232094e-06,2.4437507903573456e-06,2.899258775374192e-06,1.9642865743943635e-06,1.3381561234208976e-06,4.500305166249643e-06,4.478281766010087e-06,1.821141259974912e-05,8.623709994429759e-07,1.480805604114661e-06,2.406336838650948e-06,1.8702081667194612e-06,1.8118245306903166e-06,1.8705341968378942e-06
256,2.5415007535965427e-06,1.1840163849711323e-06,1.454723422641729e-06,2.3656329163833106e-06,2.8654311722624245e-06,1.9952740554938166e-06,1.3518640469102652e-06,4.6523105897665975e-06,4.4800506257646815e-06,1.889222789525837e-05,8.963371376387089e-07,1.4762318510639122e-06,2.3780741018789137e-06,1.850861125164932e-06,1.6553906443860338e-06,1.8393495858328198e-06
257,2.5969815366213175e-06,1.219023057940096e-06,1.4377853399860381e-06,2.300237798418986e-06,2.8353340976924017e-06,2.029224388880493e-06,1.3657642704059275e-06,4.811026218735086e-06,4.476255023854751e-06,1.943670345914647e-05,9.337702975179308e-07,1.4844767415180796e-06,2.344258676373749e-06,1.8332860923218302e-06,1.5186783787965075e-06,1.8322373899578153e-06
258,2.6469545470801905e-06,1.2583988188707937e-06,1.423240747707328e-06,2.2487544353729172e-06,2.8103424427010295e-06,2.065562805418688e-06,1.3795474565589554e-06,4.9775328344778186e-06,4.464995544851319e-06,1.9840444443514184e-05,9.743157280609747e-07,1.506425512344522e-06,2.305933231991053e-06,1.8182054306334483e-06,1.4004467283005966e-06,1.852193811992254e-06
259,2.690761399260524e-06,1.3022503759246562e-06,1.411695712366444e-06,2.2122082024583758e-06,2.791542948105442e-06,2.1036647373947328e-06,1.3931154927500559e-06,5.152815924928125e-06,4.44482640030626e-06,2.0105191601364204e-05,1.0175130669441628e-06,1.5427659646192648e-06,2.2646351245772185e-06,1.8061501085807546e-06,1.299423727894276e-06,1.9020373779259202e-06
260,2.7283165125147393e-06,1.3504695393233143e-06,1.4037021891855873e-06,2.1913287199419965e-06,2.77980605358254e-06,2.142772891437091e-06,1.4065447157219396e-06,5.337166641386633e-06,4.4147715138261646e-06,2.0236312356698152e-05,1.0629078480599637e-06,1.593959839011085e-06,2.2220235184562895e-06,1.7973881614426747e-06,1.2144495328426748e-06,1.9842913530577567e-06
261,2.7600219155970712e-06,1.4026797686795288e-06,1.3996582297032602e-06,2.1865453817307704e-06,2.776002702598303e-06,2.1819979306101466e-06,1.419914907501434e-06,5.5298240468329216e-06,4.374014737840585e-06,2.0244106778031693e-05,1.1101320677574718e-06,1.660260683882007e-06,2.1795469799165624e-06,1.791991411112176e-06,1.144522500534679e-06,2.1011681959790424e-06
262,2.786558230206992e-06,1.4582416246614437e-06,1.399814919087658e-06,2.1980031262005648e-06,2.7810767002937723e-06,2.220350932440537e-06,1.4332029962660824e-06,5.728845135514785e-06,4.32177724559678e-06,2.014649440861847e-05,1.158852676771348e-06,1.741745826377948e-06,2.1382675818775447e-06,1.7899943245163407e-06,1.088733482690921e-06,2.2545908851453088e-06
263,2.8086149253147375e-06,1.516258062554366e-06,1.4042957869476111e-06,2.2255287295201113e-06,2.795860035252736e-06,2.256932742001151e-06,1.4462911457040394e-06,5.9311055373173205e-06,4.257571438749292e-06,1.9968049133625925e-05,1.2086520871733401e-06,1.83838832525235e-06,2.098857344294581e-06,1.7914692824231926e-06,1.0461516052100165e-06,2.446242965241957e-06
264,2.8266717462063107e-06,1.5756202693320013e-06,1.4130548847190961e-06,2.26864165765478e-06,2.8207894721499283e-06,2.291250812957624e-06,1.4590499560660426e-06,6.132368997667733e-06,4.18139919681791e-06,1.973535892326401e-05,1.2589625334267065e-06,1.9501550479872055e-06,2.0616974491051744e-06,1.7964735538219535e-06,1.015809581911656e-06,2.6776152931349386e-06
265,2.8409988370135876e-06,1.6351561288593432e-06,1.4258358933928436e-06,2.3266742497396764e-06,2.8557257860604796e-06,2.3233186485386568e-06,1.4715028281756722e-06,6.327402706591819e-06,4.093675917816914e-06,1.9472677478461378e-05,1.3090630295339864e-06,2.0769919625162027e-06,2.0270341686006854e-06,1.8049476479837216e-06,9.96848404784454e-07,2.949936803658431e-06
266,2.8518743078407e-06,1.693812448524198e-06,1.4422397951089231e-06,2.3988612540808657e-06,2.8999180057017286e-06,2.3534013499949883e-06,1.4840021031209303e-06,6.510239852162829e-06,3.995305631290665e-06,1.920000731073617e-05,1.3580568013915432e-06,2.2186690079963856e-06,1.995171777518495e-06,1.8166397824283011e-06,9.88677306910458e-07,3.2640110418804824e-06
267,2.8597644898181855e-06,1.7507404393584187e-06,1.4619241011541575e-06,2.4842662410384336e-06,2.952045022840579e-06,2.381787701130134e-06,1.4972489338157457e-06,6.674698618201969e-06,3.887909730520291e-06,1.8932765385691604e-05,1.4048180935263077e-06,2.3746223742006716e-06,1.9665650912982878e-06,1.831154669249189e-06,9.909875281837642e-07,3.620091389703228e-06
268,2.865243213630681e-06,1.8052551062507043e-06,1.4847853105849671e-06,2.5816868192954853e-06,3.0103021268763027e-06,2.40886043616848e-06,1.51210186918614e-06,6.815049170423254e-06,3.7736050298253714e-06,1.868184050317466e-05,1.447997146136816e-06,2.5438814358821475e-06,1.9417134513158465e-06,1.848114645174364e-06,1.003609058451427e-06,4.0178176692246225e-06
269,2.868698376848442e-06,1.856736112497875e-06,1.5109435627929434e-06,2.689710025655704e-06,3.0725492519607664e-06,2.435160981355788e-06,1.5293271665993222e-06,6.9265846543499156e-06,3.654487816588083e-06,1.8453830383113607e-05,1.486142603558249e-06,2.725104052797345e-06,1.9209809730976775e-06,1.8672629587320567e-06,1.0263275257978178e-06,4.45618730760883e-06
270,2.870063589870147e-06,1.9045376168681342e-06,1.5405463460715771e-06,2.806847812359365e-06,3.136487414489428e-06,2.461177204289495e-06,1.549459939222234e-06,7.005956748912419e-06,3.5325222530052925e-06,1.82515174925334e-05,1.5179142122377772e-06,2.916719213852858e-06,1.9044738505022928e-06,1.8884699769680313e-06,1.0587788174282847e-06,4.9335110517401304e-06
271,2.8687509115624065e-06,1.947919888536912e-06,1.5735571303551124e-06,2.9316227246208013e-06,3.199752509473456e-06,2.487051303402255e-06,1.5727924996749197e-06,7.051348814857438e-06,3.409720818994674e-06,1.8074229646944293e-05,1.5422426601284487e-06,3.117094535737813e-06,1.892066833768179e-06,1.9117005868584807e-06,1.1004280569533354e-06,5.44727286587403e-06
272,2.86379316355327e-06,1.985979919753534e-06,1.609653316751733e-06,3.062533826862409e-06,3.259880754192418e-06,2.5124592894276323e-06,1.5994146696731943e-06,7.0626729140376455e-06,3.288080481756604e-06,1.7917745357086193e-05,1.5582950090719999e-06,3.3246180349178376e-06,1.883651841497478e-06,1.9369185277860767e-06,1.150581791694077e-06,5.993978669561402e-06
273,2.854113928715017e-06,2.017622405456635e-06,1.6482857352283383e-06,3.1978867957593222e-06,3.314289127142173e-06,2.5367056570237503e-06,1.6292405826283536e-06,7.0417957209533066e-06,3.1693280241053157e-06,1.7774187555217064e-05,1.5654192151766098e-06,3.537636746298751e-06,1.8794466640655494e-06,1.963974375427349e-06,1.208393289773922e-06,6.56910803940178e-06
274,2.838792669265024e-06,2.0417024620489264e-06,1.6888838005083652e-06,3.3356619570563705e-06,3.3603936105744526e-06,2.5589368970213055e-06,1.6620265727409361e-06,6.99249335972013e-06,3.054821695566291e-06,1.7632672952678432e-05,1.5633019230611319e-06,3.754281649709326e-06,1.8801089831397751e-06,1.9926110939536376e-06,1.2728411988619535e-06,7.1670455976911936e-06
275,2.8171905869642854e-06,2.0573604349627226e-06,1.7310465630097935e-06,3.47365920765498e-06,3.395714489263373e-06,2.5782718326009392e-06,1.6974543525462808e-06,6.919890328096287e-06,2.94559860458528e-06,1.7480786806516253e-05,1.5521417538665186e-06,3.972309283971479e-06,1.8866167093774318e-06,2.0225931245289987e-06,1.3427023130336711e-06,7.78091116015722e-06
276,2.7889300503642767e-06,2.0643458772274806e-06,1.7745359372039962e-06,3.6098678920534384e-06,3.417897059795476e-06,2.593811702259406e-06,1.7352785300205683e-06,6.82952649134992e-06,2.842373543742583e-06,1.7306354703294287e-05,1.532556212009886e-06,4.189084187519716e-06,1.900026105012011e-06,2.053758417496365e-06,1.416544925883655e-06,8.402531371286343e-06
277,2.7538628539335326e-06,2.0631196024672115e-06,1.8191424246073015e-06,3.7427839842396298e-06,3.4249521176872237e-06,2.6047780401887714e-06,1.7754137712415474e-06,6.7264454699192605e-06,2.745486421408028e-06,1.7098975365714452e-05,1.5053017931976914e-06,4.401699488311527e-06,1.9212404096663264e-06,2.085894635534057e-06,1.492772059299683e-06,9.022749279063526e-06
278,2.7121331705189768e-06,2.05468380821743e-06,1.8646356146193534e-06,3.871536860606755e-06,3.4158103754121675e-06,2.61082442804048e-06,1.8178693933377487e-06,6.614699807717748e-06,2.654945337445327e-06,1.6850919698845994e-05,1.4710451305654195e-06,4.607151432023548e-06,1.9509022423584645e-06,2.1186956872618482e-06,1.5697488768765527e-06,9.631806656872332e-06
279,2.66426674006473e-06,2.040251081246768e-06,1.9107782311061856e-06,3.995886742948319e-06,3.3907764746010273e-06,2.61221211057445e-06,1.8625882149893715e-06,6.49745255883385e-06,2.5706804043157966e-06,1.6557151503383475e-05,1.4302919636763463e-06,4.802494251575978e-06,1.9894125166474394e-06,2.1519867986180707e-06,1.6459324465236834e-06,1.0219309491578138e-05
280,2.6110987489036427e-06,2.0210138613907985e-06,1.95723591400294e-06,4.116121455490086e-06,3.351562245804087e-06,2.6096923457968258e-06,1.9093684848453523e-06,6.377461704673716e-06,2.492917480282974e-06,1.621429637403648e-05,1.3833996177698781e-06,4.984937814643259e-06,2.0369647449940043e-06,2.185955117455111e-06,1.7198662910742673e-06,1.0773710897192863e-05
281,2.5535033588707756e-06,1.9981736911576643e-06,2.0034182481588296e-06,4.232766639119468e-06,3.3009490996692254e-06,2.6042470885094786e-06,1.957947801944663e-06,6.25754087901593e-06,2.422342784142136e-06,1.581904301889546e-05,1.3305839942356793e-06,5.1519181403212185e-06,2.093521409004076e-06,2.221086691925865e-06,1.790095298361769e-06,1.1281990391384566e-05
282,2.49221105140815e-06,1.9730225780788994e-06,2.0484267582568975e-06,4.346117752925159e-06,3.242239190659596e-06,2.59684596448851e-06,2.008105739439818e-06,6.140741896692268e-06,2.359894102202152e-06,1.5368026516241056e-05,1.2719695733109036e-06,5.301161621786696e-06,2.1588048130270157e-06,2.257942623386162e-06,1.8551406828342218e-06,1.1730289256330327e-05
283,2.427931499874038e-06,1.946830912854259e-06,2.0911520489410287e-06,4.455833058883733e-06,3.1786927283253894e-06,2.5882567050552933e-06,2.0596662749316086e-06,6.030221505437544e-06,2.306508594392229e-06,1.4860505481021642e-05,1.207726543581086e-06,5.430582096647437e-06,2.232365325575836e-06,2.297019900973868e-06,1.913516123024305e-06,1.2105530677156639e-05
284,2.36158207099774e-06,1.9206384169207505e-06,2.1304302584187827e-06,4.560825947385349e-06,3.113159334787035e-06,2.5789085971356144e-06,2.112420510229043e-06,5.928875509776169e-06,2.2630963417638905e-06,1.4301524638313852e-05,1.1382006606100929e-06,5.537968173912184e-06,2.3136484449682228e-06,2.3386620078262854e-06,1.9638030447229945e-06,1.2397419754164243e-05
285,2.2943670682635805e-06,1.8951409975752478e-06,2.1651883474139084e-06,4.65946351918892e-06,3.047915758658595e-06,2.5688653821714057e-06,2.165994551605024e-06,5.838883934386161e-06,2.230511472087677e-06,1.3702427990329733e-05,1.0639326305080507e-06,5.620922002280907e-06,2.4020080443422034e-06,2.38296744961842e-06,2.0048942040709426e-06,1.2599851833034495e-05
286,2.2276819813496116e-06,1.8707089338484336e-06,2.1945320254379075e-06,4.749951972218124e-06,2.984613491415542e-06,2.557959221662228e-06,2.2197017485398337e-06,5.761356353357952e-06,2.209383373817604e-06,1.307866872258787e-05,9.855698464995998e-07,5.677373553350612e-06,2.496667827472943e-06,2.429747987380619e-06,2.036245302047795e-06,1.2710741231726336e-05
287,2.1629177881631536e-06,1.8475184615944986e-06,2.2177080121387315e-06,4.8308016705513065e-06,2.9243997752622736e-06,2.5460125254161353e-06,2.272458910498631e-06,5.696230920460055e-06,2.199998368477529e-06,1.2446965261688305e-05,9.037783724593851e-07,5.706260580124963e-06,2.5965881367791128e-06,2.478533027212119e-06,2.0578400452989276e-06,1.273022599497381e-05
288,2.101288732690616e-06,1.8257293039850028e-06,2.233932239885619e-06,4.90125719002242e-06,2.8682392627940263e-06,2.533046848347135e-06,2.322831324612825e-06,5.642412816673062e-06,2.2022915386126505e-06,1.1823301544014402e-05,8.192829915460889e-07,5.707880216353964e-06,2.7002812676223936e-06,2.528655862847351e-06,2.069888152113024e-06,1.2658697453849733e-05
289,2.0437801163469406e-06,1.8055528476884318e-06,2.242235896117072e-06,4.9615306348818145e-06,2.8171887010603662e-06,2.5194308584298805e-06,2.369240069264752e-06,5.597993498997015e-06,2.2158294259557394e-06,1.1222058410438968e-05,7.330028837624475e-07,5.683855637171033e-06,2.8057338349612217e-06,2.5793816654484753e-06,2.072536273228526e-06,1.2496461115860854e-05
290,1.991157037634936e-06,1.7871488600619823e-06,2.2415513530892196e-06,5.012676198151132e-06,2.772383726758967e-06,2.5059021478194704e-06,2.410268652129525e-06,5.560424437279492e-06,2.2397673739876657e-06,1.0656025582263304e-05,6.461039490329192e-07,5.636830573547529e-06,2.9105030476761983e-06,2.629904882474568e-06,2.0658644477945905e-06,1.2245216248532094e-05
291,1.943919049317005e-06,1.7704803160413009e-06,2.2310831763379196e-06,5.0560784015959415e-06,2.734810406539229e-06,2.4934393417017685e-06,2.444907861681134e-06,5.526667210058468e-06,2.272907274725397e-06,1.0136879858611839e-05,5.599031042438017e-07,5.569989149600509e-06,3.0118483268296996e-06,2.679247467535986e-06,2.05017442102193e-06,1.1909817574320516e-05
292,1.9022197592627873e-06,1.7552715358060816e-06,2.2107300523633124e-06,5.0927929972698356e-06,2.705141664723924e-06,2.48308706905349e-06,2.4726540200201693e-06,5.4934594837057535e-06,2.3138966796734085e-06,9.675586542512298e-06,4.7576533483349116e-07,5.4865024141753e-06,3.1067671222745725e-06,2.7261933796407297e-06,2.026216328917098e-06,1.1498931063550282e-05
293,1.865862168375187e-06,1.741125563516912e-06,2.1812155493913008e-06,5.123186902394863e-06,2.6837851757863326e-06,2.47586972043425e-06,2.493532976765468e-06,5.457801851053771e-06,2.361417869570614e-06,9.282349876278779e-06,3.951313817968031e-07,5.389092023097912e-06,3.1921472087992197e-06,2.7693003338352665e-06,1.9950920756010735e-06,1.1024380015504458e-05
294,1.8343909127951615e-06,1.7277615809291642e-06,2.1438063100159945e-06,5.14711388434636e-06,2.6709785537272963e-06,2.4728319474144026e-06,2.5081316086709382e-06,5.417558212638326e-06,2.4142022758904116e-06,8.966173425803927e-06,3.196294524023003e-07,5.279991990879471e-06,3.2652752416516828e-06,2.807095301014456e-06,1.958043061840345e-06,1.0499715138632915e-05
295,1.8072126786059933e-06,1.7151607619357177e-06,2.099910684778206e-06,5.164377697524672e-06,2.666745599282213e-06,2.475102305719517e-06,2.517548610164612e-06,5.371872279633882e-06,2.4708975982898804e-06,8.734388838764833e-06,2.511256437058229e-07,5.1612405108506595e-06,3.3244156337536426e-06,2.8384654420336105e-06,1.9164230118527908e-06,9.938626973123743e-06
296,1.783727574347334e-06,1.7034716376617854e-06,2.05091178979772e-06,5.1750853632979855e-06,2.670843462039507e-06,2.4838264442049426e-06,2.523132688960901e-06,5.321200214651917e-06,2.5300351194606656e-06,8.592477540827645e-06,1.9166307937451322e-07,5.034822685665117e-06,3.369005761866358e-06,2.862990022425784e-06,1.8717790968435294e-06,9.353670594629282e-06
297,1.763504379057768e-06,1.6929103491892791e-06,1.998219803685704e-06,5.179700431268626e-06,2.6828780856785253e-06,2.4999529517739407e-06,2.5261477926864096e-06,5.267073334768682e-06,2.590257368302623e-06,8.544173366155072e-06,1.4337118138584274e-07,4.902565444276003e-06,3.3993972200079287e-06,2.8809237406306266e-06,1.8258281560938036e-06,8.755677395727872e-06
298,1.74646226546508e-06,1.683887256591713e-06,1.94333645492104e-06,5.17882884204235e-06,2.7024583479687268e-06,2.524035759118337e-06,2.527609153441153e-06,5.211839067117849e-06,2.65061417712179e-06,8.591540510962915e-06,1.0843330990487323e-07,4.766152877566541e-06,3.4163408198710008e-06,2.8928219823818323e-06,1.7803645848993645e-06,8.15387208186489e-06
299,1.732941335524224e-06,1.6771400022429458e-06,1.8878104135832164e-06,5.172945028340375e-06,2.7291797331901794e-06,2.5561929156139367e-06,2.5282677486806514e-06,5.158436909621285e-06,2.7106702813053438e-06,8.734882031369849e-06,8.910366627630949e-08,4.627324306433168e-06,3.420458517275476e-06,2.899177052485836e-06,1.7371893954430266e-06,7.5562044373372365e-06
300,1.723581521364221e-06,1.673616133576774e-06,1.8330882944262047e-06,5.1623345542081205e-06,2.7624494003107565e-06,2.596175287345642e-06,2.5286206712452448e-06,5.1100928253517034e-06,2.770450738685683e-06,8.97258769828779e-06,8.77116261837446e-08,4.4879912599628586e-06,3.4119610939570197e-06,2.9002953557907453e-06,1.698009075225096e-06,6.9695072481592794e-06
301,1.7190677658211106e-06,1.6742235902855166e-06,1.7803763733187507e-06,5.147370109202583e-06,2.801377149131254e-06,2.643454851216349e-06,2.5289493322826937e-06,5.069883106783988e-06,2.8303936428313472e-06,9.300998458470668e-06,1.0664056394473387e-07,4.350197932402865e-06,3.3907376092505574e-06,2.8962207084481487e-06,1.664303349934495e-06,6.399578863689015e-06
302,1.7199024003023885e-06,1.6796605839043665e-06,1.7305944605734771e-06,5.1289094006589e-06,2.844953641952107e-06,2.6973003662913034e-06,2.529406609719651e-06,5.040302889602031e-06,2.8912652132394076e-06,9.71430333680802e-06,1.4832178631096635e-07,4.21604369138591e-06,3.3566824548708457e-06,2.886626657484404e-06,1.6372489231723846e-06,5.851375274539458e-06
303,1.7263089300173732e-06,1.690372341763203e-06,1.6843990391506386e-06,5.108441277558614e-06,2.8924090830080435e-06,2.756813644194765e-06,2.5301505243903547e-06,5.023124648742699e-06,2.9538895707321307e-06,1.020446342999858e-05,2.1528443275571199e-07,4.0876621894078224e-06,3.3100311195925847e-06,2.870911436023562e-06,1.6177112967477612e-06,5.3292138999134745e-06
304,1.7382350596335973e-06,1.7066071684849218e-06,1.6422392234618655e-06,5.087850449895892e-06,2.943392567718119e-06,2.8210438518479224e-06,2.5315327570849646e-06,5.019649902240817e-06,3.0188784538374146e-06,1.076112202624951e-05,3.102457938320064e-07,3.967245358635707e-06,3.2514890045699177e-06,2.848642590141898e-06,1.6062615094647896e-06,4.8367841602848124e-06
305,1.7553885879794214e-06,1.7285002973443625e-06,1.6044182203686354e-06,5.0690174080701425e-06,2.9979086547609053e-06,2.8893007882849884e-06,2.5342933366398898e-06,5.031008932809293e-06,3.0865974245470336e-06,1.137148266326905e-05,4.361716335107571e-07,3.856963376835325e-06,3.182036715041334e-06,2.820062083489953e-06,1.6032051961881436e-06,4.3770020017614374e-06
306,1.7772849704178954e-06,1.7560747407461967e-06,1.5711367138376048e-06,5.053495993312144e-06,3.0563168565490264e-06,2.9614490592176836e-06,2.5396206149199797e-06,5.058122683753403e-06,3.157195362344015e-06,1.202016825757858e-05,5.962747041647372e-07,3.7587376691626518e-06,3.1026264174333994e-06,2.786144758720705e-06,1.6086033946255914e-06,3.9519098336581656e-06
307,1.8032701612289208e-06,1.7891642481900948e-06,1.5425185277370426e-06,5.042300886193548e-06,3.11947982804959e-06,3.0379218268704936e-06,2.548965485003615e-06,5.1013906339417975e-06,3.230532626045003e-06,1.2689069233945577e-05,7.939694468684755e-07,3.674152198306203e-06,3.0141326458726394e-06,2.7481725640825537e-06,1.6222667439288697e-06,3.5626725128223123e-06
308,1.8324814231696517e-06,1.8273555545665928e-06,1.5186441179708226e-06,5.035726099984739e-06,3.188760214332207e-06,3.1194786302242818e-06,2.563683368567453e-06,5.160454026598119e-06,3.3061215612348447e-06,1.335727421574967e-05,1.0327836274047417e-06,3.6047012495986195e-06,2.917621665734258e-06,2.7072861942723503e-06,1.6437427975281258e-06,3.209607779586496e-06
309,1.86382390662253e-06,1.8699583433377248e-06,1.499630325544941e-06,5.033230493928206e-06,3.265684700298933e-06,3.206840336477283e-06,2.5847283533340946e-06,5.234177107004691e-06,3.3830920985723984e-06,1.4001420813284306e-05,1.3162289077682732e-06,3.552112180927166e-06,2.8146650323748224e-06,2.6643550579402813e-06,1.6723124352769876e-06,2.8922733100256932e-06
310,1.8960478910917234e-06,1.915974426466657e-06,1.485752412901416e-06,5.0335805600762924e-06,3.3514770557953486e-06,3.30032016946077e-06,2.6125533199916985e-06,5.320692289867463e-06,3.4600978293773606e-06,1.4596903141663181e-05,1.647677943463047e-06,3.5184167399756256e-06,2.707350459488998e-06,2.620082466226099e-06,1.7069985622883116e-06,2.6096431261805513e-06
311,1.9278493000704165e-06,1.9640914933796943e-06,1.477511558526682e-06,5.035293973693123e-06,3.4467530345274316e-06,3.3995894446340608e-06,2.6471910421495985e-06,5.417370369448646e-06,3.5352701789835042e-06,1.5120007215499199e-05,2.030318846825682e-06,3.505799374146118e-06,2.597932074491455e-06,2.5750733854186105e-06,1.7465820938309665e-06,2.3603305254234595e-06
312,1.957944219716834e-06,2.0127406011966802e-06,1.4755565849439765e-06,5.037100905737715e-06,3.5514319911205685e-06,3.503699533962923e-06,2.6884006997404407e-06,5.520781139938457e-06,3.6063778189311345e-06,1.555044815930321e-05,2.4671994952566055e-06,3.516454128895216e-06,2.488493084250609e-06,2.5298407674029294e-06,1.7896259593972398e-06,2.1428313637305846e-06
313,1.9852584362028554e-06,2.0601945527171437e-06,1.480538236973156e-06,5.038148616628339e-06,3.6647137889400773e-06,3.611334441430974e-06,2.735753321567304e-06,5.626855831295681e-06,3.671123093710744e-06,1.587343157578971e-05,2.9612683094186893e-06,3.55253768756286e-06,2.3808901920009008e-06,2.484966361802824e-06,1.834510925998121e-06,1.955761489936525e-06
314,2.009276531794571e-06,2.1046078946714593e-06,1.4930393090788015e-06,5.037982282942671e-06,3.7850227672697595e-06,3.721036630360266e-06,2.7885870890127728e-06,5.731307841932643e-06,3.727334203476865e-06,1.6080379687300103e-05,3.5153158675166614e-06,3.6160886053610944e-06,2.2767744500042257e-06,2.4413972561736585e-06,1.8794798547394082e-06,1.797974883095706e-06
315,2.0302792423564854e-06,2.1440443226087293e-06,1.5135483672651224e-06,5.036475173655986e-06,3.910003100850229e-06,3.831149437064673e-06,2.845908132814095e-06,5.83006522181032e-06,3.7729065360420517e-06,1.616769284580004e-05,4.1318499484853985e-06,3.7088213025169946e-06,2.177520941144764e-06,2.400561838578786e-06,1.9227580882568264e-06,1.6684843115675944e-06
316,2.049203002157593e-06,2.1766765696070315e-06,1.5423745212331692e-06,5.033758166037485e-06,4.0367372639352e-06,3.9395832667211e-06,2.9063942425685797e-06,5.919506437674292e-06,3.8057212505191927e-06,1.6134064887269428e-05,4.812999286127605e-06,3.8318932751488304e-06,2.0842053331044477e-06,2.364141553170333e-06,1.9627856048562363e-06,1.5662917810923315e-06
317,2.067231921035769e-06,2.20108963925081e-06,1.5795409633649695e-06,5.030081856037114e-06,4.162259420087937e-06,4.043754739676376e-06,2.9685248132467942e-06,5.9965350053719135e-06,3.823944579624538e-06,1.5978904233328325e-05,5.560431319615384e-06,3.9857769985459735e-06,1.997686443230927e-06,2.33368681541685e-06,1.998427478697457e-06,1.4902894837295868e-06
318,2.085448446564939e-06,2.216371575736493e-06,1.6247385168885107e-06,5.0256136847877625e-06,4.284184201956703e-06,4.140835272983167e-06,3.030719223857558e-06,6.058602203688718e-06,3.826563402781734e-06,1.5703693597728722e-05,6.375176148304633e-06,4.170300500935706e-06,1.9186652011376393e-06,2.310361167447013e-06,2.0290555876655355e-06,1.4392329711225337e-06
319,2.1047042087637696e-06,2.221895784267561e-06,1.6773358430105273e-06,5.020296081988794e-06,4.4010757588472265e-06,4.228127023661123e-06,3.091461967916212e-06,6.103748192866274e-06,3.8135104368446983e-06,1.5314360037416102e-05,7.257348843595028e-06,4.384879474664939e-06,1.8476763888298932e-06,2.2949292858936914e-06,2.0544736897888347e-06,1.4116985904280355e-06
320,2.1256472924902754e-06,2.2171286324618324e-06,1.736403199862015e-06,5.0138662866591935e-06,4.512341336846827e-06,4.3033350316883605e-06,3.1494927650993574e-06,6.130680382765482e-06,3.7852920303644233e-06,1.4821851742688165e-05,8.205876691783819e-06,4.6288063811485245e-06,1.7851413622248699e-06,2.287898637403872e-06,2.0746676199291267e-06,1.4060308086176565e-06
321,2.148795841839125e-06,2.201772394576373e-06,1.8007509738952068e-06,5.005996027425412e-06,4.617863434037522e-06,4.364714266484339e-06,3.2040177993699828e-06,6.138851045813296e-06,3.742783540165809e-06,1.4240843618540435e-05,9.21826824039252e-06,4.9012849450986445e-06,1.7315354216102291e-06,2.289608170801539e-06,2.089538026940468e-06,1.4203253726389662e-06
322,2.1745843500152e-06,2.176043977665606e-06,1.8690374632874852e-06,4.996422946016754e-06,4.7176955752182985e-06,4.411190786777667e-06,3.254773613817261e-06,6.128511982435996e-06,3.6874625592449205e-06,1.3588065373604272e-05,1.0290357829669158e-05,5.201086422651716e-06,1.6874930137219443e-06,2.300141006170435e-06,2.098808772917824e-06,1.452431969981116e-06
323,2.203331714112338e-06,2.1407347769297957e-06,1.9399185570217045e-06,4.985007348715806e-06,4.811806767312802e-06,4.442375763869845e-06,3.3018675238174903e-06,6.10078283268486e-06,3.621637225023924e-06,1.2881099402656946e-05,1.1415996390441753e-05,5.526090592019005e-06,1.6536960994415658e-06,2.319155866002786e-06,2.102086287774588e-06,1.4999725532774712e-06
324,2.235146204430494e-06,2.097076941345033e-06,2.0120808851800675e-06,4.971780062097136e-06,4.899770407935313e-06,4.458272772807997e-06,3.345488101504623e-06,6.05771075973346e-06,3.548391666162915e-06,1.2137465641791067e-05,1.2586746704462596e-05,5.873002325275258e-06,1.6306779239979505e-06,2.345810676471103e-06,2.099038276427186e-06,1.5604187711962903e-06
325,2.2698554452855955e-06,2.0466323775897162e-06,2.0840910368692533e-06,4.957045951987114e-06,4.980594271361367e-06,4.4587806784270604e-06,3.3856253758777346e-06,6.002158467076494e-06,3.4712950193163456e-06,1.1373645122627347e-05,1.3791608236700232e-05,6.2372574961086264e-06,1.6187371263967895e-06,2.3788534016511892e-06,2.089676865536588e-06,1.6312270055829884e-06
326,2.306992192209841e-06,1.9912091174786113e-06,2.154235876044969e-06,4.9414332504779315e-06,5.052867063501108e-06,4.443507021382046e-06,3.4219342441905887e-06,5.9373597662587026e-06,3.3939288910341766e-06,1.0604316873874403e-05,1.501673958328807e-05,6.613034258364209e-06,1.6179305363899304e-06,2.4168109263642364e-06,2.074512840052803e-06,1.7099609690909153e-06
327,2.3457771997631594e-06,1.9326832842499087e-06,2.220601002496012e-06,4.925716933437411e-06,5.115109036329429e-06,4.412181117075965e-06,3.4538080567193e-06,5.866289606103872e-06,3.319453226500165e-06,9.842119805570056e-06,1.624527099356787e-05,6.993402904430572e-06,1.628048414473978e-06,2.4581233436250005e-06,2.054386353300037e-06,1.7943491935188134e-06
328,2.385119065899252e-06,1.8727624727802818e-06,2.281426187255676e-06,4.910448747207507e-06,5.166189116653369e-06,4.365218535191758e-06,3.4805104914825475e-06,5.7913325612792665e-06,3.2504548588899356e-06,9.097627907921614e-06,1.745734634604879e-05,7.370601412448386e-06,1.648614044801155e-06,2.5011533189112407e-06,2.0301665926769483e-06,1.882267990557279e-06
