,EMG1,EMG2,EMG3,EMG4,EMG5,EMG6,EMG7,EMG8,EMG9,EMG10,EMG11,EMG12,EMG13,EMG14,EMG15,EMG16
0,7.927093291186024e-07,2.236580419843537e-07,1.2718069126701088e-07,2.55274393672161e-07,1.1380963681367127e-06,1.039917303251368e-07,1.3861098294327943e-07,-7.209066060294515e-09,2.050776449478342e-06,1.0420336512516563e-05,3.402377475625116e-07,1.0439866783058863e-06,4.3664747988828297e-07,1.2996702126246707e-07,-4.073620284068263e-08,2.2001900537281348e-07
1,9.555659157644912e-07,2.9381711001998597e-07,2.4688958867750793e-07,3.985207520035902e-07,1.2150774539841319e-06,3.049598553432449e-07,3.0890501314614145e-07,1.8388907444154993e-07,2.785308987787916e-06,1.4517027761929842e-05,3.903086616264337e-07,1.1813373552314694e-06,7.544897424835024e-07,3.4151324118556397e-06,8.759627932906227e-08,3.348273615934499e-07
2,1.1128962315855426e-06,3.656903585283531e-07,3.6466654410723565e-07,5.383395768065433e-07,1.2964826689766368e-06,4.997384201036492e-07,4.775880931106116e-07,3.7114393193293124e-07,3.542653704156672e-06,1.8572219074333196e-05,4.412288586041138e-07,1.3189236693547801e-06,1.0602170811325876e-06,6.544164054343294e-06,2.1471776119756968e-07,4.4710679275410686e-07
3,1.2629377657422991e-06,4.3831079995916793e-07,4.795671824830271e-07,6.740075117888118e-07,1.3808118397066513e-06,6.86854114167442e-07,6.431894644795638e-07,5.51913319682479e-07,4.316542869694899e-06,2.254589396549529e-05,4.923403056372448e-07,1.453807096764416e-06,1.3504046705723321e-06,9.443349101640403e-06,3.398939532786383e-07,5.535471454481551e-07
4,1.4038249845523144e-06,5.109577827524741e-07,5.907799247468808e-07,8.047619104558926e-07,1.4666363679489492e-06,8.653470064208977e-07,8.043964503048778e-07,7.239922571842836e-07,5.101459715777653e-06,2.6400842266284087e-05,5.430059831331263e-07,1.583557719476189e-06,1.6225372009564192e-06,1.2052595531520334e-05,4.626514525515695e-07,6.519078203533344e-07
5,1.5336600416087647e-06,5.831223361982336e-07,6.975977794905571e-07,9.297972646976836e-07,1.5527369826119382e-06,1.0346725602925544e-06,9.599552954403975e-07,8.856396889423529e-07,5.8924438806723905e-06,3.0107257396534413e-05,5.926230500298299e-07,1.7064888704943108e-06,1.8751095584963463e-06,1.433110817439044e-05,5.826671613223137e-07,7.411515207579596e-07
6,1.6506777066349195e-06,6.543731465561239e-07,7.993395982600276e-07,1.048245026607417e-06,1.6382706158577444e-06,1.1945477668719433e-06,1.1086478155139334e-06,1.0355888625996584e-06,6.6844879678299595e-06,3.364470473569914e-05,6.406430970987329e-07,1.821848604886906e-06,2.1074286753250877e-06,1.6258849526907248e-05,6.996361269421832e-07,8.211496756380827e-07
7,1.7534627833118689e-06,7.242417759574983e-07,8.952941686551521e-07,1.1592229531897923e-06,1.722723072744569e-06,1.3448611505918568e-06,1.2494215025043746e-06,1.1730583589110654e-06,7.471973887045873e-06,3.699872361849467e-05,6.866072666643232e-07,1.9297619511101434e-06,2.3192036899185004e-06,1.7833703510169137e-05,8.132073786977904e-07,8.922343499777299e-07
8,1.8411644524682234e-06,7.921856671233888e-07,9.847639305741804e-07,1.2620271020368781e-06,1.8056376344442896e-06,1.4855937524029766e-06,1.3815227393437567e-06,1.297696283655751e-06,8.248419901399304e-06,4.0155452380307135e-05,7.301498633314629e-07,2.0308329661872045e-06,2.5101607345428357e-06,1.906716111291008e-05,9.230308171049708e-07,9.54887240546669e-07
9,1.913623929017521e-06,8.575776603585212e-07,1.0671783833009595e-06,1.3563469564067921e-06,1.8863624730355637e-06,1.616817742564731e-06,1.5044392871241103e-06,1.4094694094399033e-06,9.006401327204664e-06,4.309966484996795e-05,7.709209137341016e-07,2.1256819658001627e-06,2.6799830516130776e-06,1.998083734761345e-05,1.0288682712929995e-06,1.0096048872612553e-06
10,1.9712774690733547e-06,9.196921743829471e-07,1.1421751831361357e-06,1.4423319492866306e-06,1.963967868329536e-06,1.7388728711737073e-06,1.617752151041129e-06,1.5085677444753942e-06,9.73763881725875e-06,4.5816556174200014e-05,8.08501354920057e-07,2.214705092474436e-06,2.8286224067089412e-06,2.060378718406487e-05,1.1306742220319854e-06,1.056843086053976e-06
11,2.014831005008654e-06,9.777505259089885e-07,1.2096280147829634e-06,1.520483802723285e-06,2.0373650694066885e-06,1.85253041165888e-06,1.721082754470351e-06,1.5953075387739876e-06,1.0433868794379039e-05,4.8292612127135605e-05,8.424033975851064e-07,2.298012619554717e-06,2.9566724595448744e-06,2.096960575302948e-05,1.2285770838529539e-06,1.0970150657068655e-06
12,2.04497604288018e-06,1.0310665950637844e-06,1.269665326779027e-06,1.591452322362413e-06,2.105610645270967e-06,1.958934291424791e-06,1.8140785317528453e-06,1.670005317169535e-06,1.1088666016894692e-05,5.051317195931544e-05,8.721746885136981e-07,2.3754479501254246e-06,3.0654965846146224e-06,2.1113155994460214e-05,1.3227513503299759e-06,1.1305510021586367e-06
13,2.062363015572575e-06,1.0792074353115833e-06,1.3226498140880644e-06,1.6558455309638753e-06,2.168216076444033e-06,2.05937023399401e-06,1.896403198788743e-06,1.7329516442087478e-06,1.169886618579182e-05,5.246112060460777e-05,8.975714368676003e-07,2.446705911583801e-06,3.1570906627873307e-06,2.106769467930002e-05,1.4132730469958271e-06,1.1579423042898626e-06
14,2.067720361605449e-06,1.122032691609319e-06,1.3690704205539568e-06,1.714140441632372e-06,2.2252328251535847e-06,2.155023128516106e-06,1.9678358129949134e-06,1.7845234027426624e-06,1.2264089044377755e-05,5.4120563462773093e-05,9.186913332647204e-07,2.5114417052318763e-06,3.2337872052878132e-06,2.0863079398929417e-05,1.5000464195159527e-06,1.1797076205535824e-06
15,2.0619766816952056e-06,1.1595750931314054e-06,1.4094147340821424e-06,1.7666487355882875e-06,2.2770681739165035e-06,2.2468823063304542e-06,2.0284569269328513e-06,1.8252100712594751e-06,1.2784915142688183e-05,5.548144661392142e-05,9.359422314565029e-07,2.5692019257879973e-06,3.2979181030721455e-06,2.0525019868794118e-05,1.5827546315438608e-06,1.1963660576944138e-06
16,2.0463956503669704e-06,1.1918641659822566e-06,1.4441155364676495e-06,1.8134474757689486e-06,2.3241481634892545e-06,2.335808363667549e-06,2.0787707918262683e-06,1.855517946470248e-06,1.326169482215928e-05,5.6539827179546405e-05,9.498528861477876e-07,2.619252649702795e-06,3.351604848229024e-06,2.00748529284802e-05,1.660790177858702e-06,1.208488152686104e-06
17,2.0226645136569135e-06,1.2188604843309981e-06,1.4735745507239683e-06,1.8543251590176853e-06,2.3666216017987167e-06,2.4225479766413594e-06,2.1196832316407695e-06,1.8759717871645151e-06,1.3694569952344656e-05,5.7293888452712775e-05,9.60879112318129e-07,2.660542954091473e-06,3.3966752618135645e-06,1.9529583159590115e-05,1.7332255545684228e-06,1.2167400461455433e-06
18,1.9927914495424255e-06,1.2405776551217663e-06,1.4982352380427053e-06,1.8888485166507308e-06,2.404307914425067e-06,2.5075832087482926e-06,2.1523749414176863e-06,1.8872053337605397e-06,1.4083493739039153e-05,5.773989249047614e-05,9.693245334212084e-07,2.6919129543285973e-06,3.4345434574634938e-06,1.890243067032642e-05,1.7989020325698933e-06,1.2218742062029456e-06
19,1.9588125401573376e-06,1.2572839562742064e-06,1.5186652712257558e-06,1.916546604674658e-06,2.4369344254395954e-06,2.5909836029801754e-06,2.178127766608287e-06,1.8899640849893644e-06,1.4427539566821464e-05,5.7873177447193664e-05,9.753579745005986e-07,2.712442063242724e-06,3.466076164955379e-06,1.8203994112291067e-05,1.8566633099902297e-06,1.2247100540816802e-06
20,1.922506475471898e-06,1.2695932024475305e-06,1.53555256608796e-06,1.9371312495620515e-06,2.46446204307553e-06,2.672422371454505e-06,2.198124117648157e-06,1.8850275113992296e-06,1.4724176974556261e-05,5.769459818156345e-05,9.790818157531953e-07,2.7217358206998983e-06,3.4916308356896177e-06,1.7443624831787336e-05,1.9056316880495878e-06,1.226083507195866e-06
21,1.885314201154167e-06,1.2783518342160911e-06,1.5495670496002865e-06,1.950669409022431e-06,2.4872198856742138e-06,2.751303898111062e-06,2.2132755992396575e-06,1.8731859562232192e-06,1.4969430864073878e-05,5.721720562908002e-05,9.80612464618579e-07,2.7200196034958203e-06,3.51130948477451e-06,1.6630486612286187e-05,1.9453486454195676e-06,1.226733399387225e-06
22,1.8484794931579399e-06,1.28441319742733e-06,1.5611918188114442e-06,1.957625208124781e-06,2.5057462030527807e-06,2.826860963153401e-06,2.2241962301463515e-06,1.855269063918675e-06,1.5159008162164272e-05,5.6468775762904316e-05,9.8009435413421e-07,2.708070021032234e-06,3.525214934747292e-06,1.5774091921155917e-05,1.975737254079283e-06,1.2271826353970284e-06
23,1.813238456999802e-06,1.2884807810228609e-06,1.5706334496289511e-06,1.958713078419174e-06,2.520485983829989e-06,2.8981790416399225e-06,2.2313414686429397e-06,1.8320975367595933e-06,1.5289606538954633e-05,5.548848526906733e-05,9.776204971360355e-07,2.68708864454018e-06,3.5335221076919293e-06,1.4884413129451603e-05,1.9969636932188073e-06,1.2276787607467946e-06
24,1.7808632603527578e-06,1.2911198592514919e-06,1.5777983707286884e-06,1.954622819952621e-06,2.531630903885809e-06,2.964195503009105e-06,2.2351665458794577e-06,1.8043994014233116e-06,1.5359645852104375e-05,5.431887397131788e-05,9.731757506484854e-07,2.658560276416722e-06,3.536446885229441e-06,1.3971728686475181e-05,2.00931537871122e-06,1.228192425920404e-06
25,1.7525751109208613e-06,1.2928581569520718e-06,1.5823156443615766e-06,1.9458169359349602e-06,2.539248310637518e-06,3.023677281212629e-06,2.236186660590047e-06,1.7728154735580343e-06,1.5369372622441472e-05,5.299920850847982e-05,9.667227443512598e-07,2.624077564446656e-06,3.5341736272088484e-06,1.3046390093685768e-05,2.0132911464959146e-06,1.2284675338032947e-06
26,1.7294800203151533e-06,1.2942141684838362e-06,1.583665391794187e-06,1.932522989393616e-06,2.543535431126548e-06,3.075207369481099e-06,2.2349927224890534e-06,1.737912138722048e-06,1.5320357951705083e-05,5.1563799423544134e-05,9.583359332192994e-07,2.5851166255980765e-06,3.526724972320393e-06,1.2118721106515776e-05,2.009866847501556e-06,1.2281453919068931e-06
27,1.7125369129016225e-06,1.295661901734174e-06,1.581410840931728e-06,1.914845358569943e-06,2.5449659041098832e-06,3.1173129351086157e-06,2.232297671828003e-06,1.7001354044744318e-06,1.521440375724492e-05,5.004092331115193e-05,9.482119627478768e-07,2.542806498720295e-06,3.5139766392816438e-06,1.1198994397614212e-05,2.0005605800055084e-06,1.2269207515940744e-06
28,1.7024909269336259e-06,1.2976435645881085e-06,1.5753865547479497e-06,1.8929019975706413e-06,2.544295995589395e-06,3.1487093695171556e-06,2.228947988313984e-06,1.6598152268676776e-06,1.5053183756682565e-05,4.84508441110316e-05,9.366121975265085e-07,2.4978225650355653e-06,3.4958879356222624e-06,1.029715858720632e-05,1.987169443809212e-06,1.2245937459112706e-06
29,1.6998024648960436e-06,1.3005824694109371e-06,1.5657370808045925e-06,1.8669485250957764e-06,2.542509965348752e-06,3.1684549109485684e-06,2.225814974864784e-06,1.617215722855847e-06,1.483967729979168e-05,4.680784938173406e-05,9.238529455904902e-07,2.450492890625415e-06,3.4725673755843603e-06,9.42231387052226e-06,1.971435320183316e-06,1.2209794255641257e-06
30,1.704608662364905e-06,1.3048415429496435e-06,1.5528407170594412e-06,1.8374406267017663e-06,2.5407256239483482e-06,3.175996531186533e-06,2.2236815644770587e-06,1.5725393868422992e-06,1.4579754084646996e-05,4.512679128855313e-05,9.102788326875055e-07,2.4010115374457276e-06,3.4439846603513842e-06,8.58238260020275e-06,1.9548390980509635e-06,1.2158681838860028e-06
31,1.7167077788186407e-06,1.3107221853772834e-06,1.5371758262116234e-06,1.8050184854500844e-06,2.540035568892823e-06,3.171255159934204e-06,2.2233032588071666e-06,1.5259683570924149e-06,1.4282053634735e-05,4.342782124738379e-05,8.961880239158147e-07,2.3496020588664948e-06,3.4096982250250654e-06,7.784118100083783e-06,1.938513352704821e-06,1.2091852266728453e-06
32,1.7355730713308763e-06,1.3185162146941218e-06,1.5192251191075376e-06,1.7704586946625008e-06,2.5413089882191284e-06,3.1547229657805267e-06,2.225546671209379e-06,1.477804456796483e-06,1.3956549925404926e-05,4.1735151229345195e-05,8.817999659943074e-07,2.2966375918624306e-06,3.368916915615857e-06,7.033094378522837e-06,1.9231970777788997e-06,1.2011730602343653e-06
33,1.7604160944318704e-06,1.328520853217887e-06,1.4995303345211172e-06,1.7346193934008423e-06,2.5450559772761165e-06,3.1273483855459057e-06,2.231351891196292e-06,1.4285472213539497e-06,1.3612971122688884e-05,4.007199228501899e-05,8.672799116522278e-07,2.2427272924565237e-06,3.3207407418546957e-06,6.333519171490112e-06,1.9092228687708227e-06,1.192365206109286e-06
34,1.7902645313477771e-06,1.341090774181638e-06,1.4787942777997664e-06,1.6983578833101169e-06,2.551469054961452e-06,3.090169834213407e-06,2.241501646773597e-06,1.3788069537844672e-06,1.3259627315232576e-05,3.845591767894708e-05,8.527424326266147e-07,2.1886578195727517e-06,3.2642629741536725e-06,5.68812999824219e-06,1.8965498161060717e-06,1.1833982227258086e-06
35,1.8239689196605693e-06,1.3568110945506024e-06,1.4578306680756213e-06,1.6624354407330854e-06,2.560612905804212e-06,3.0440399919481703e-06,2.2564134133849366e-06,1.3291532218632053e-06,1.2902651468177118e-05,3.689677544086805e-05,8.382172307623593e-07,2.1352415965233317e-06,3.198547683866767e-06,5.098349876161261e-06,1.884834789020914e-06,1.1748435020623888e-06
36,1.8601412509128806e-06,1.3765988269051227e-06,1.4374508129960477e-06,1.6274613303913277e-06,2.572584006790668e-06,2.989680262821884e-06,2.276114919047545e-06,1.2800302443391927e-06,1.2545587301249389e-05,3.5397148995354554e-05,8.236710103228426e-07,2.083231696549699e-06,3.122799084533367e-06,4.564538096340438e-06,1.873536171940251e-06,1.1671290066887428e-06
37,1.8971534580435214e-06,1.4015935446579883e-06,1.4184612630359371e-06,1.5938730994067326e-06,2.5875662108065097e-06,2.9278771714011436e-06,2.3004296400052257e-06,1.2318133804484246e-06,1.21894894928406e-05,3.3955410878912975e-05,8.091316865660523e-07,2.0332793125239767e-06,3.0367052934366096e-06,4.086140678159654e-06,1.8619806562824e-06,1.1605305598751927e-06
38,1.9332832190609703e-06,1.433019761925614e-06,1.4016667127724125e-06,1.5619430672984956e-06,2.605848750047783e-06,2.8596403920142815e-06,2.3293127055230273e-06,1.1849651329509933e-06,1.1833650020436921e-05,3.257039091039503e-05,7.947800917972201e-07,1.9859502149413634e-06,2.940536390877501e-06,3.6618010599306465e-06,1.849373132880458e-06,1.1551913707846812e-06
39,1.9669300674215006e-06,1.4721383850756719e-06,1.3877621451670788e-06,1.5318546349743196e-06,2.6278058232835944e-06,2.7863502416220876e-06,2.3631375520978257e-06,1.140124797936126e-06,1.147668449737835e-05,3.1243708216527977e-05,7.808895021187012e-07,1.94186207003639e-06,2.8349677654443834e-06,3.2895040512123664e-06,1.834908139669606e-06,1.1511260963297142e-06
40,1.9967143045991243e-06,1.5201656144187679e-06,1.3772214141908182e-06,1.5038209245700354e-06,2.65380263734797e-06,2.7098411795370094e-06,2.402709480173229e-06,1.0980297021735978e-06,1.1117517572677066e-05,2.9977882985505728e-05,7.677252021342788e-07,1.9017776726725216e-06,2.7210720725060048e-06,2.9666462551865885e-06,1.8180438417072838e-06,1.1482228098333594e-06
41,2.021354377580633e-06,1.5781294664526611e-06,1.3702671244301536e-06,1.4781468476862367e-06,2.6840915988442433e-06,2.6322751141715203e-06,2.4490509364535424e-06,1.0593470299652025e-06,1.0755897771008464e-05,2.8773381529290027e-05,7.555433886686607e-07,1.8665121559259603e-06,2.6005518313235077e-06,2.6900513663630145e-06,1.7987055245358031e-06,1.1462599069807114e-06
42,2.03948185012682e-06,1.6467934537609313e-06,1.3668726399806337e-06,1.455226705655186e-06,2.7187534766396966e-06,2.555814453448397e-06,2.503225388139728e-06,1.0245485593267442e-06,1.0392264759395602e-05,2.76269708552562e-05,7.446263903189369e-07,1.836751366643094e-06,2.475763385451713e-06,2.456148790483773e-06,1.777200037732874e-06,1.1449273042854687e-06
43,2.0497166087464365e-06,1.7266967029078385e-06,1.3667746190654597e-06,1.4355134474069248e-06,2.757630615388662e-06,2.482300768463539e-06,2.566309185587534e-06,9.938775802478352e-07,1.0027071758739276e-05,2.653112719386823e-05,7.352533466104954e-07,1.8129392211857877e-06,2.349359905145184e-06,2.2613386865887724e-06,1.7539316940552831e-06,1.1439068181700649e-06
44,2.051111576080979e-06,1.818208334420754e-06,1.3695190561769995e-06,1.4194351083649859e-06,2.80025892729561e-06,2.413109193632292e-06,2.6393581814084244e-06,9.674049241349035e-07,9.660139555948685e-06,2.5474305152089124e-05,7.276508047901556e-07,1.7952627081063185e-06,2.223901361733968e-06,2.10225114157829e-06,1.729158188529865e-06,1.1430111076998909e-06
45,2.0436426276206413e-06,1.9215004413151813e-06,1.374518236578274e-06,1.4072654771510021e-06,2.8459383117919084e-06,2.3491720267987176e-06,2.723245318504168e-06,9.45172123334485e-07,9.290940848078525e-06,2.444139134376838e-05,7.220034260008142e-07,1.7836436845795628e-06,2.1016807852200043e-06,1.975676549614395e-06,1.70290454368635e-06,1.1422336378200414e-06
46,2.0282644789540096e-06,2.036511538293188e-06,1.381094344661284e-06,1.3990267671297808e-06,2.8939785736159736e-06,2.291106310653709e-06,2.81844333414467e-06,9.273629268126973e-07,8.91988378349084e-06,2.341422918990618e-05,7.184850115746604e-07,1.7777246665006217e-06,1.984709711761674e-06,1.878306745225536e-06,1.6750043376966162e-06,1.1416512278291496e-06
47,2.0064661029288964e-06,2.163030514471121e-06,1.3884985915236383e-06,1.394468187615158e-06,2.9439585610425736e-06,2.2393735408026605e-06,2.9248950696310755e-06,9.143809097331912e-07,8.549301714106258e-06,2.2374487157101036e-05,7.172406196635153e-07,1.7768903139933676e-06,1.8747545369686727e-06,1.8066005726407041e-06,1.6451915427915861e-06,1.1413348706718386e-06
48,1.9797771752983292e-06,2.3008642392843352e-06,1.3958987907637894e-06,1.3930880655493221e-06,2.9958265450410292e-06,2.1943508940722333e-06,3.0420566979978645e-06,9.067759979628099e-07,8.18305063151562e-06,2.1309512172462467e-05,7.183557450199958e-07,1.7802706206512987e-06,1.7733422252924434e-06,1.7569382275768023e-06,1.6132168070432448e-06,1.1414177974486463e-06
49,1.949552903977206e-06,2.4499314341856844e-06,1.4024446516927173e-06,1.3941647746369597e-06,3.049784337005129e-06,2.1563108296615846e-06,3.1690738497833913e-06,9.050891538539694e-07,7.825102270720212e-06,2.0216900181417076e-05,7.218577646963995e-07,1.7867139966773762e-06,1.6817318739487953e-06,1.726006336305134e-06,1.5789765765418673e-06,1.1422138222102238e-06
50,1.9169259667722494e-06,2.610210596009128e-06,1.407515134851769e-06,1.3968348788899324e-06,3.10602232120764e-06,2.1254934141967343e-06,3.3048881771706904e-06,9.097270613494222e-07,7.478335665728666e-06,1.9103786822039695e-05,7.27729232532327e-07,1.7948412812980492e-06,1.6008938882572065e-06,1.71117351174178e-06,1.5425941542808217e-06,1.1441686881869248e-06
51,1.8828042651885323e-06,2.7816166132066716e-06,1.4109670427902862e-06,1.4002314653996018e-06,3.1645089236969525e-06,2.1023102857555556e-06,3.4481247197129193e-06,9.209259489185418e-07,7.144294936715925e-06,1.798241672054601e-05,7.359062281534949e-07,1.8032530137850935e-06,1.5314886922586325e-06,1.7105407461250544e-06,1.5044226573068367e-06,1.1476822828851055e-06
52,1.8479115734786427e-06,2.963897694063426e-06,1.4131091577263163e-06,1.4035701182470376e-06,3.2249961478027087e-06,2.087448148719939e-06,3.5968969367807015e-06,9.387767212015798e-07,6.82369404410143e-06,1.6866137271172355e-05,7.462520606920701e-07,1.8108181602014595e-06,1.4738471407417443e-06,1.7226243795737628e-06,1.4649784404141615e-06,1.1530185252330854e-06
53,1.812795014624421e-06,3.156526081069463e-06,1.414420966385757e-06,1.4061605191864224e-06,3.2870939690153384e-06,2.081725551278943e-06,3.748772446747206e-06,9.632427922158466e-07,6.516888555732084e-06,1.5767490502961073e-05,7.585359805383319e-07,1.8168792988862199e-06,1.4279798793732028e-06,1.746027262002617e-06,1.4248076560041565e-06,1.160345304476458e-06
54,1.7777485229041577e-06,3.358544071965472e-06,1.4152731576177184e-06,1.4075163067640177e-06,3.3501637921023424e-06,2.085829026553861e-06,3.9010155080201276e-06,9.941566561729138e-07,6.223888456022826e-06,1.4697383580478612e-05,7.724528497170562e-07,1.821239491854364e-06,1.393610915535941e-06,1.7793491802955996e-06,1.3843592073297001e-06,1.1697756830508385e-06
55,1.7427624761902859e-06,3.5684772631948506e-06,1.415826480546016e-06,1.4075565383725511e-06,3.4131086482561593e-06,2.1001122614201105e-06,4.051000401806843e-06,1.0312189758312765e-06,5.944148954812376e-06,1.3664375009367147e-05,7.876564752216847e-07,1.8239184631366757e-06,1.3702422618252647e-06,1.82118317479336e-06,1.3439567270294477e-06,1.1813539269130553e-06
56,1.7076699270907956e-06,3.7844192519173394e-06,1.4160906974196467e-06,1.4066202073316047e-06,3.474348797940227e-06,2.1245239458076426e-06,4.196455150020266e-06,1.0739855370117727e-06,5.676434106315529e-06,1.2674299526720932e-05,8.037879394182018e-07,1.8248321256676988e-06,1.357264494799995e-06,1.870032235830472e-06,1.303847929383648e-06,1.1950224876901992e-06
57,1.672442700254103e-06,4.004181510338374e-06,1.4160407992844014e-06,1.4052196116562106e-06,3.5320676120744956e-06,2.158672189631299e-06,4.335376348438466e-06,1.1218369835704458e-06,5.418762240616425e-06,1.1730640786223475e-05,8.205263631276212e-07,1.8236274588536822e-06,1.354066251247729e-06,1.9242121282661882e-06,1.2643089612717385e-06,1.2105808752980883e-06
58,1.6373292825903924e-06,4.225352890552621e-06,1.4157157809858325e-06,1.4037807811195696e-06,3.584554680887515e-06,2.2020167400306202e-06,4.465890163010634e-06,1.173951246795896e-06,5.168613391041699e-06,1.083555243387154e-05,8.376354724697604e-07,1.819788822726612e-06,1.3601212071548218e-06,1.9818024976648835e-06,1.2257793564855115e-06,1.227658462104877e-06
59,1.602720975335598e-06,4.445313245917412e-06,1.4152954774720742e-06,1.402554032262699e-06,3.630450766630352e-06,2.2541085288662214e-06,4.586271586581765e-06,1.2292894139069007e-06,4.923622029357574e-06,9.990998488534492e-06,8.5495921016406e-07,1.812929170788435e-06,1.3750751751828029e-06,2.0406340008694824e-06,1.1888679302180285e-06,1.2457266715755257e-06
60,1.5690044719668571e-06,4.661386708089187e-06,1.4151644057994974e-06,1.4016407031951314e-06,3.6688140373570523e-06,2.314768171504584e-06,4.694982302395168e-06,1.2866579467714308e-06,4.682340774961431e-06,9.199407748557664e-06,8.72406481455065e-07,1.8030385056522094e-06,1.3987706174080034e-06,2.0983527148227327e-06,1.1541909144887176e-06,1.264145594365865e-06
61,1.536589789718231e-06,4.871152898405556e-06,1.4159029790042555e-06,1.4010397619499527e-06,3.699018630740879e-06,2.3841426334220847e-06,4.790648764715879e-06,1.3449145649396602e-06,4.4444453188779975e-06,8.463682681574515e-06,8.899618129282973e-07,1.7905027870619546e-06,1.4311370781948256e-06,2.152608875640208e-06,1.1222314316861477e-06,1.2822874549843245e-06
62,1.5060328549156382e-06,5.072639286125673e-06,1.4181601904122806e-06,1.400716679665028e-06,3.720580543283141e-06,2.462632697644671e-06,4.872164573478489e-06,1.4032349146634e-06,4.21039126107164e-06,7.786815747004015e-06,9.076655942355903e-07,1.775925982831299e-06,1.4720102157910093e-06,2.2013611921380063e-06,1.09332667182912e-06,1.299734064347538e-06
63,1.4780990691289656e-06,5.264131706297953e-06,1.4224765855011746e-06,1.4006894250869963e-06,3.7330734786638634e-06,2.550752286788889e-06,4.9389427470410485e-06,1.4612316897946325e-06,3.981011281696883e-06,7.171361991694783e-06,9.255379873388063e-07,1.7599607809565904e-06,1.5210034013528831e-06,2.243211135151719e-06,1.0677125265002704e-06,1.3163959603752436e-06
64,1.4536829273518013e-06,5.4436856891513285e-06,1.429156677669854e-06,1.4010943361267458e-06,3.7361714893736797e-06,2.649004045858195e-06,4.990946092450091e-06,1.5188115907259603e-06,3.757378946431087e-06,6.618985049145225e-06,9.435100538137298e-07,1.7432788769221215e-06,1.5774821224716105e-06,2.27760810775439e-06,1.0455293777076924e-06,1.3324250486012288e-06
65,1.4336478982417693e-06,5.608740707550856e-06,1.4382282071325573e-06,1.4022304989942394e-06,3.72963687531416e-06,2.7577633838062842e-06,5.028319855934596e-06,1.5759002681106174e-06,3.5408749382279876e-06,6.130313498885613e-06,9.613960708035274e-07,1.7266051779687829e-06,1.6405926256244586e-06,2.304844603465276e-06,1.0267853948974344e-06,1.3479963735423657e-06
66,1.418722842071903e-06,5.756297182493434e-06,1.4494749247486703e-06,1.4045572466992634e-06,3.713234442653951e-06,2.877126994501991e-06,5.051129912702852e-06,1.6322407889494928e-06,3.333210670558857e-06,5.705182953360263e-06,9.788850003885968e-07,1.7106770701553355e-06,1.7092712647587054e-06,2.3259042842174295e-06,1.0113334996039678e-06,1.3631418322706887e-06
67,1.4094683774455137e-06,5.883733602166443e-06,1.4625052054105976e-06,1.408600169904334e-06,3.6868759708897066e-06,3.006802969095192e-06,5.059540396288693e-06,1.687305862302673e-06,3.136284309738889e-06,5.343057467246748e-06,9.955482280628315e-07,1.696104045456782e-06,1.7822485813533512e-06,2.3422096730379645e-06,9.988842567475143e-07,1.377695622761217e-06
68,1.4062608733283911e-06,5.989697635613069e-06,1.4768205469195025e-06,1.4148151178532932e-06,3.6510160181375494e-06,3.146118537468508e-06,5.053989029440878e-06,1.740283218103943e-06,2.951955119532907e-06,5.043296132255809e-06,1.0108937762850387e-06,1.6832361983238311e-06,1.8581657881320188e-06,2.3553032809314383e-06,9.890373700006575e-07,1.3913081737778213e-06
69,1.4092912923753156e-06,6.074350662889329e-06,1.491872160602776e-06,1.4235348751069614e-06,3.6068592523694713e-06,3.294027894720359e-06,5.035083107142522e-06,1.7901884213432256e-06,2.7818684464561837e-06,4.805090361541365e-06,1.024460250820921e-06,1.6721666311606074e-06,1.9358538451584656e-06,2.3666700671579213e-06,9.812946044473742e-07,1.4035649208553087e-06
70,1.4185641763529164e-06,6.138787614455715e-06,1.5071200221477915e-06,1.4350171271679086e-06,3.556148582953521e-06,3.449010959734223e-06,5.003489479487014e-06,1.8361300412320382e-06,2.6273492626401994e-06,4.627151932546606e-06,1.0358916791626361e-06,1.6628443454167593e-06,2.01460898184076e-06,2.3778023522006866e-06,9.750478537356373e-07,1.4142063929584382e-06
71,1.433912498146601e-06,6.1841106027489575e-06,1.5220906886940138e-06,1.4494646837191762e-06,3.5007189131903276e-06,3.6089707516367278e-06,4.9599290191400815e-06,1.8775392627572476e-06,2.4893449313795907e-06,4.507384360132928e-06,1.0449890238164875e-06,1.6551331256230038e-06,2.094212751910431e-06,2.3902422154249593e-06,9.69599263176326e-07,1.423241909988478e-06
72,1.4550869225393038e-06,6.210928979042923e-06,1.5363754878406124e-06,1.4669472866703363e-06,3.442063546898593e-06,3.7712242997253056e-06,4.9051202683195534e-06,1.9141461061055706e-06,2.368426107349923e-06,4.442752733922763e-06,1.0517605353247344e-06,1.6487556096784846e-06,2.1746552091117975e-06,2.40547733312869e-06,9.64276470967375e-07,1.4308388250043657e-06
73,1.4818493086465676e-06,6.219625645159361e-06,1.5495740888500102e-06,1.487310032269808e-06,3.3810968408762963e-06,3.932583455020265e-06,4.839660919923458e-06,1.9457818945349384e-06,2.2648182949185077e-06,4.429338375665502e-06,1.056404923986042e-06,1.6432944971258783e-06,2.2558038136551154e-06,2.42486203010541e-06,9.58590464081727e-07,1.4371571641320796e-06
74,1.513933760127226e-06,6.210886765014062e-06,1.5613175378078475e-06,1.5101600069294286e-06,3.318178265280631e-06,4.089651301972042e-06,4.763992687016887e-06,1.9723235673373675e-06,2.178433660135704e-06,4.462377537536069e-06,1.0591911375495377e-06,1.6384026360404178e-06,2.337233392414503e-06,2.4495835491006044e-06,9.522959428863147e-07,1.4422502372000494e-06
75,1.550913297398441e-06,6.18586361675836e-06,1.5713898900710397e-06,1.5348998038128314e-06,3.2532852697319543e-06,4.23932872922507e-06,4.6784845660691606e-06,1.9938664139351092e-06,2.108907558993233e-06,4.536200012833837e-06,1.0603409490540261e-06,1.6340819043033542e-06,2.418176622456528e-06,2.4806130980917768e-06,9.453386645797195e-07,1.4460055794267428e-06
76,1.592126097672288e-06,6.145947440403837e-06,1.5797520834587291e-06,1.5607472719276146e-06,3.1861448446020845e-06,4.379057294029531e-06,4.58350952520651e-06,2.0108149033035904e-06,2.0556794296180023e-06,4.644172456479445e-06,1.0599909377960685e-06,1.6307590695580414e-06,2.4975028914989827e-06,2.5187275529473383e-06,9.377688414522781e-07,1.4481949003335953e-06
77,1.6366919672194481e-06,6.092495590528934e-06,1.5863980250912073e-06,1.5868089923154541e-06,3.116249107450855e-06,4.506542247155642e-06,4.479470220150113e-06,2.023687275199968e-06,2.0180991335126446e-06,4.778710874032128e-06,1.0581935756973074e-06,1.6290950178197287e-06,2.5737752975474635e-06,2.5646358030434718e-06,9.297024901142715e-07,1.4486483099001487e-06
78,1.6835470633213527e-06,6.0266968960439475e-06,1.5912641853868788e-06,1.6122790534182862e-06,3.043012990761307e-06,4.619544185548303e-06,4.366924123063643e-06,2.032852956912646e-06,1.995424111252532e-06,4.931347054373033e-06,1.0549291495126781e-06,1.629708749340625e-06,2.645475992453349e-06,2.6190723361914685e-06,9.213810150695629e-07,1.4473631993021863e-06
79,1.7315439244962793e-06,5.9495134342678655e-06,1.5943286179472254e-06,1.6366573072602561e-06,2.96630521686049e-06,4.716236407712018e-06,4.246887009618432e-06,2.0384244897116733e-06,1.9867191089130293e-06,5.093079822932416e-06,1.050119972793173e-06,1.633028208335005e-06,2.711350077189458e-06,2.682738252403321e-06,9.132023097545408e-07,1.444431943232695e-06
80,1.779692454276362e-06,5.861537385100053e-06,1.595703692065578e-06,1.6598437831452252e-06,2.8869614270481432e-06,4.795685544543341e-06,4.121085561507842e-06,2.040274943609739e-06,1.9908193579096527e-06,5.255394674711932e-06,1.0436522920349456e-06,1.639352484160134e-06,2.770636902195146e-06,2.7561386224914556e-06,9.056086960103786e-07,1.439903562238171e-06
81,1.827395696669123e-06,5.762719199464731e-06,1.5955406957370448e-06,1.68207363919285e-06,2.8067459952821283e-06,4.85789372502618e-06,3.991859782999336e-06,2.0381897623090062e-06,2.00636858129955e-06,5.411682010256129e-06,1.0354472970062155e-06,1.6489972638044178e-06,2.8230474633756754e-06,2.8394696265969226e-06,8.989631756297901e-07,1.4337221089932718e-06
82,1.8744913178641906e-06,5.652229888879467e-06,1.5938485780198453e-06,1.7037248677419244e-06,2.727864524083917e-06,4.9034760150527435e-06,3.861717429895284e-06,2.0321831317967244e-06,2.0318682405826286e-06,5.5580451088671726e-06,1.0255344025563207e-06,1.6622971075281514e-06,2.868689903929827e-06,2.9326436074399265e-06,8.935497684147544e-07,1.4257490271650035e-06
83,1.92108591058074e-06,5.528808140760447e-06,1.5904179523972423e-06,1.725088736936977e-06,2.652514863624919e-06,4.9333496232676395e-06,3.7328433565438335e-06,2.0227612459440587e-06,2.0657532702657086e-06,5.6928571234890876e-06,1.0140199829470282e-06,1.679489244302794e-06,2.908137434965338e-06,3.0353667231618827e-06,8.896229201116716e-07,1.4158378813562849e-06
84,1.9672852664889285e-06,5.391531480075001e-06,1.5849308317497866e-06,1.7462292825362411e-06,2.5826993495019783e-06,4.9486948210611044e-06,3.6068643832709034e-06,2.010856243462836e-06,2.106502415221114e-06,5.815517854829057e-06,1.0009696868675927e-06,1.700684814373633e-06,2.9424112354787292e-06,3.1472320970420946e-06,8.873879662615004e-07,1.4039448584686963e-06
85,2.0130094665685343e-06,5.240569815297389e-06,1.5771644797331378e-06,1.7669677461989599e-06,2.520161074477499e-06,4.951162016927764e-06,3.484889021640033e-06,1.997481411324307e-06,2.1527564641978953e-06,5.925531912899835e-06,9.86325950743558e-07,1.7259198806516807e-06,2.972682364635818e-06,3.2680161725749423e-06,8.869766514357815e-07,1.390191757671525e-06
86,2.058016057953407e-06,5.077583337212197e-06,1.5670727666985196e-06,1.7869004510512176e-06,2.4663382560266285e-06,4.943011058107794e-06,3.3676540585080097e-06,1.9834388543238292e-06,2.203436452410823e-06,6.022603282265509e-06,9.699470614224826e-07,1.7551446945124116e-06,3.000016985717669e-06,3.3981385474607845e-06,8.885554410515584e-07,1.3747985642892838e-06
87,2.1020322755526266e-06,4.9057058584951e-06,1.5546710387964535e-06,1.805409464968294e-06,2.422419606879674e-06,4.9268856685230965e-06,3.255724133698803e-06,1.9692721167194008e-06,2.257851956426867e-06,6.107191798630911e-06,9.517402017944241e-07,1.788173351680328e-06,3.0254380533957488e-06,3.538815332426813e-06,8.924933211602789e-07,1.3579532128029748e-06
88,2.1448394018314584e-06,4.729148677585804e-06,1.5398839290389636e-06,1.8217239480525687e-06,2.389495126705633e-06,4.905293847261162e-06,3.1497491894904483e-06,1.9553538060609884e-06,2.3157467793053093e-06,6.1804531435023874e-06,9.317494481507125e-07,1.8247188697898174e-06,3.0500253267518262e-06,3.691693812556091e-06,8.993763055262376e-07,1.3398066379976832e-06
89,2.186249402740392e-06,4.552506114052389e-06,1.522479945453215e-06,1.8349930078165924e-06,2.3686268405301745e-06,4.880145315394775e-06,3.0506712031439983e-06,1.9419291864390623e-06,2.377215196756536e-06,6.243432303017599e-06,9.101073090416236e-07,1.8644670033209356e-06,3.0747963798892036e-06,3.858355743805326e-06,9.098550954271498e-07,1.3206358980398744e-06
90,2.2260375503204457e-06,4.380039597477607e-06,1.5021096734170676e-06,1.8442685424067313e-06,2.360768112997201e-06,4.852579983277915e-06,2.959756778278481e-06,1.9290833746747108e-06,2.4424795730830827e-06,6.296357108389025e-06,8.869397223562355e-07,1.907019162381264e-06,3.1005841491595276e-06,4.040063519192328e-06,9.245111651158603e-07,1.3009643583428343e-06
91,2.263994421065968e-06,4.2152889191549395e-06,1.4784065645328286e-06,1.8484742554576306e-06,2.366633797284119e-06,4.823001659047791e-06,2.8784124684956457e-06,1.9167910909300054e-06,2.511612816693823e-06,6.338722588325547e-06,8.623336004855116e-07,1.9517506987426008e-06,3.1281354437680697e-06,4.237654763237193e-06,9.438412077132931e-07,1.2814828885720948e-06
92,2.300122549878386e-06,4.061032285517821e-06,1.451051302633803e-06,1.8465354042899524e-06,2.386611914718202e-06,4.79110816151502e-06,2.807850047618934e-06,1.9051552310281671e-06,2.5843235540687067e-06,6.3699676587902896e-06,8.363529419718175e-07,1.9978002407308626e-06,3.1582270174391364e-06,4.451389143627376e-06,9.682860912080558e-07,1.2628707188209385e-06
93,2.334726656667551e-06,3.919319684208455e-06,1.4198303089380549e-06,1.8376627983921347e-06,2.4207653609796862e-06,4.755959723163491e-06,2.748800256846699e-06,1.89464079282185e-06,2.659845007911734e-06,6.389949816194581e-06,8.090664333386891e-07,2.044242253229473e-06,3.1915200725888567e-06,4.680859842191429e-06,9.982100574373644e-07,1.2456945408091662e-06
94,2.368210287299833e-06,3.7914568534378505e-06,1.3847211469578646e-06,1.8216210175760857e-06,2.468920956581398e-06,4.716287537777683e-06,2.701450306829746e-06,1.886061469084924e-06,2.736922978963627e-06,6.398914055177819e-06,7.805523724420083e-07,2.0902520876118408e-06,3.2282715501476425e-06,4.925101653205801e-06,1.0338543814918165e-06,1.2304116546815132e-06
95,2.4007556759748093e-06,3.6780193378285104e-06,1.3458801613160304e-06,1.798843294989011e-06,2.5307076616464046e-06,4.670947476951765e-06,2.6655960830054293e-06,1.8803416613933016e-06,2.8139332344373895e-06,6.397446474264594e-06,7.508567574930524e-07,2.1350674694493524e-06,3.2682011141974797e-06,5.18269727267846e-06,1.0753230116248914e-06,1.2173605610240815e-06
96,2.43217281678e-06,3.5789480737188755e-06,1.303585394518144e-06,1.7703335203426035e-06,2.605458450351726e-06,4.619215825267469e-06,2.6408510395297754e-06,1.878261019992674e-06,2.8890899184641e-06,6.386718473581359e-06,7.199686901577824e-07,2.177861290261485e-06,3.3105499825321956e-06,5.451642366127741e-06,1.122575918918421e-06,1.2066996770083346e-06
97,2.4620138271074573e-06,3.4937150016916755e-06,1.2582436353160884e-06,1.7373860521084375e-06,2.6921097900929027e-06,4.560834604653489e-06,2.626719769964419e-06,1.8803148873315108e-06,2.960630323178056e-06,6.368667051119565e-06,6.878609852913227e-07,2.2178055979945484e-06,3.3541629289685853e-06,5.72910802048067e-06,1.1754088839891208e-06,1.198369126981951e-06
98,2.489864736768226e-06,3.4214527565958385e-06,1.2103447575974976e-06,1.7012927792235562e-06,2.789195942430229e-06,4.495939994613624e-06,2.622467952391645e-06,1.8866613806498955e-06,3.0269349999496732e-06,6.34573159430734e-06,6.545321207921224e-07,2.254330326125099e-06,3.397607922822785e-06,6.011551322386113e-06,1.2334404100484274e-06,1.1921405755367863e-06
99,2.5155814739261654e-06,3.3609318196619425e-06,1.1603887928153185e-06,1.6631989941391118e-06,2.894860016793021e-06,4.4250204681041615e-06,2.626932187918754e-06,1.897117864067579e-06,3.0865950557291736e-06,6.3202470294742735e-06,6.200299697110696e-07,2.2873300185878277e-06,3.4394678745093705e-06,6.295400430637252e-06,1.2961010200722382e-06,1.187750959499705e-06
100,2.539241396363979e-06,3.310444620984935e-06,1.108954534360996e-06,1.624078210801127e-06,3.0068785203763448e-06,4.348927972653648e-06,2.638484680069378e-06,1.9112158045907197e-06,3.138417828077541e-06,6.293836513111043e-06,5.845084410738134e-07,2.3171273786569505e-06,3.4786435898745336e-06,6.5778152558696935e-06,1.3626227589758818e-06,1.1850398289293541e-06
101,2.5608440187564207e-06,3.267742483623113e-06,1.056818619547755e-06,1.5847609561270726e-06,3.1227752652627762e-06,4.268838249070298e-06,2.655247358171743e-06,1.9282623133959237e-06,3.181375638722167e-06,6.267023819174379e-06,5.482672146146548e-07,2.3442059727554073e-06,3.51439390654498e-06,6.85674002357979e-06,1.432067562941193e-06,1.1840141135595782e-06
102,2.5800268429078643e-06,3.230092985265413e-06,1.0049298740584892e-06,1.5460313414950787e-06,3.239913423534257e-06,4.186079186368441e-06,2.675455180135118e-06,1.9473637087230255e-06,3.2145338143674157e-06,6.2390914923449094e-06,5.117039647751376e-07,2.368929234970514e-06,3.5460949557438637e-06,7.130367039234141e-06,1.503432374606702e-06,1.1848187305489538e-06
103,2.595969866125538e-06,3.1944619505292193e-06,9.542488218483277e-07,1.5087038734255212e-06,3.355429164329742e-06,4.1018920685405765e-06,2.697731497678722e-06,1.9674655573503435e-06,3.237005831538846e-06,6.208083543988218e-06,4.7524504565614364e-07,2.3914765371348186e-06,3.5729028679656735e-06,7.396926665158201e-06,1.575801177485738e-06,1.1876399114110809e-06
104,2.6074650403012213e-06,3.1578038225932366e-06,9.056064977125662e-07,1.4735790174252196e-06,3.4661194108915653e-06,4.017255345015799e-06,2.7211039806440183e-06,1.98739396492677e-06,3.247917504361847e-06,6.170912504638532e-06,4.393243551766321e-07,2.411994527405881e-06,3.5936102071122578e-06,7.65500729789023e-06,1.6484452390663507e-06,1.1926291426866844e-06
105,2.6131249942447958e-06,3.1174086885584714e-06,8.596808414897024e-07,1.441361068372522e-06,3.5684129060410705e-06,3.932827310296878e-06,2.7448103670376353e-06,2.00580972260858e-06,3.246368710334581e-06,6.123662530455485e-06,4.043754377934285e-07,2.430741456185469e-06,3.6068238125441724e-06,7.903677200586481e-06,1.7208076171642487e-06,1.1998786993088552e-06
106,2.611710942477481e-06,3.0712055053955037e-06,8.170530480947252e-07,1.4126118459605143e-06,3.65846923789658e-06,3.849001083882672e-06,2.768087855100638e-06,2.021177593987628e-06,3.2316270848246443e-06,6.062099911904725e-06,3.7081908039608196e-07,2.4480666774877436e-06,3.611252439507778e-06,8.14196030432548e-06,1.7923802473300218e-06,1.2093749057146994e-06
107,2.6024400006266342e-06,3.01792278076629e-06,7.782554536704447e-07,1.3876959383886195e-06,3.732549995164893e-06,3.766044187399394e-06,2.790090190398993e-06,2.0319133833951535e-06,3.2036797670818686e-06,5.982336940262152e-06,3.390940604272866e-07,2.4642904778005172e-06,3.6059069696719434e-06,8.368014816984113e-06,1.8625127421817758e-06,1.2209337222046162e-06
108,2.5851015658445246e-06,2.9570984566704943e-06,7.437674051490623e-07,1.3667326217602447e-06,3.787630286693922e-06,3.6842216255155896e-06,2.8099220303456018e-06,2.0366194536734275e-06,3.1636673508859167e-06,5.881585648543036e-06,3.0975087468330473e-07,2.47958127840808e-06,3.5901431358033837e-06,8.578660404968604e-06,1.93023999114428e-06,1.2342082642894603e-06
109,2.5599611765170656e-06,2.8890207402064525e-06,7.139777860373797e-07,1.349598400170471e-06,3.821902256219098e-06,3.6037694001936814e-06,2.826710508460428e-06,2.0342534226635846e-06,3.113693046188192e-06,5.758650998785253e-06,2.8356981749249726e-07,2.4938554262661977e-06,3.5635081189423405e-06,8.769652084330677e-06,1.9942414942600364e-06,1.2487663234748762e-06
110,2.5275907002409134e-06,2.8146388448925284e-06,6.891637331422676e-07,1.335942505647375e-06,3.83498993129988e-06,3.5246982199387568e-06,2.8396741583634264e-06,2.0242601162880615e-06,3.0561992179361e-06,5.613705652464712e-06,2.6166516368432413e-07,2.50675262266597e-06,3.525651370787408e-06,8.93678655936909e-06,2.0529700940416086e-06,1.2641599719547858e-06
111,2.4887528481334147e-06,2.735349515667105e-06,6.695081508617668e-07,1.3252007376786003e-06,3.827912154428102e-06,3.4465564632724493e-06,2.8481146450523292e-06,2.00668505209015e-06,2.993465158860573e-06,5.447486791165067e-06,2.4557967321009417e-07,2.517700137660999e-06,3.476591526386624e-06,9.077493910376228e-06,2.1048272240860435e-06,1.2799536948523633e-06
112,2.4443508953580363e-06,2.6526378691494364e-06,6.551356953564036e-07,1.3166636670911848e-06,3.802697791676722e-06,3.3683755718735275e-06,2.851279961566079e-06,1.982130108101528e-06,2.9274894841200105e-06,5.260706018870677e-06,2.3734445948414038e-07,2.5260032592505457e-06,3.4170588902598994e-06,9.191870168313455e-06,2.1482195721269303e-06,1.2957324677568562e-06
113,2.39540709701974e-06,2.5678425288142535e-06,6.461343342499998e-07,1.3095918554645534e-06,3.761725505065266e-06,3.2889331926594436e-06,2.848317813226606e-06,1.951529553384462e-06,2.8601575633308914e-06,5.054188291291741e-06,2.3941137498609824e-07,2.5309691340608916e-06,3.3484418001263333e-06,9.282167425860727e-06,2.1816280223803722e-06,1.3111213950902635e-06
114,2.3430155864393266e-06,2.482241159305712e-06,6.425436357429556e-07,1.3032750457340134e-06,3.7073344275029615e-06,3.207179150338306e-06,2.8385095094487357e-06,1.9159707350325894e-06,2.793390143469354e-06,4.829297771601963e-06,2.544666715294634e-07,2.5321149269139303e-06,3.272356504723382e-06,9.351185495006736e-06,2.2039465247716034e-06,1.3258050917113997e-06
115,2.288210065922081e-06,2.3972215161097782e-06,6.443253458225585e-07,1.2970148866213118e-06,3.6420155227540616e-06,3.1225218995487335e-06,2.8215475435379424e-06,1.8766912382436776e-06,2.7290487906624715e-06,4.58792324540819e-06,2.852986292507237e-07,2.5294008076813054e-06,3.190321996938666e-06,9.401112200789382e-06,2.214900653197201e-06,1.33952180081959e-06
116,2.231826919165356e-06,2.3142489107492896e-06,6.513439888374034e-07,1.2901459976246885e-06,3.568724860033307e-06,3.034839716991956e-06,2.7975940955944663e-06,1.8351019123903187e-06,2.6687387430211568e-06,4.331987007877391e-06,3.348257003450109e-07,2.523351133472828e-06,3.1038495256796417e-06,9.433481243360314e-06,2.215157977928669e-06,1.3520809044304227e-06
117,2.1745433636241883e-06,2.234648906735855e-06,6.633601039248007e-07,1.2821007125622404e-06,3.49078596099636e-06,2.944324024537774e-06,2.7671641863813324e-06,1.792677534492814e-06,2.613704407778777e-06,4.062973121896605e-06,4.062052128370027e-07,2.5150207432701375e-06,3.0146460660863198e-06,9.449542677782567e-06,2.2061349849606215e-06,1.3634336714880085e-06
118,2.1170586874581103e-06,2.159395137551478e-06,6.80023489719302e-07,1.2723762576853617e-06,3.4114325339057135e-06,2.8513523276495687e-06,2.730949372527295e-06,1.7507966630819213e-06,2.564793274847899e-06,3.781892612119939e-06,5.028942216513975e-07,2.505904784175044e-06,2.9245460531144212e-06,9.450479712270057e-06,2.1896998806582797e-06,1.3737237593255575e-06
119,2.060169253212463e-06,2.089045507217539e-06,7.008627068911412e-07,1.260417051029652e-06,3.3333929908658743e-06,2.7564976090259737e-06,2.689671321223352e-06,1.7107002463554955e-06,2.5224270633776587e-06,3.489739057636061e-06,6.286097385128798e-07,2.497894008992945e-06,2.835244494037206e-06,9.437691829982851e-06,2.167839951853587e-06,1.3832592963427456e-06
120,2.0046412239216205e-06,2.0238618532875865e-06,7.252928054968648e-07,1.2455773423439135e-06,3.2587794271911762e-06,2.6606367762480748e-06,2.64405425405169e-06,1.6735410022957253e-06,2.4865573897740953e-06,3.1880893381213532e-06,7.872182126069943e-07,2.493248606986757e-06,2.7480765821274704e-06,9.413376255840775e-06,2.1423442279752308e-06,1.392430149713463e-06
121,1.9510498112464273e-06,1.964030327377829e-06,7.526644620111734e-07,1.2272177384706977e-06,3.189211811563234e-06,2.5650392863051047e-06,2.5948580691208112e-06,1.640358822472207e-06,2.456630191299362e-06,2.8794007867995415e-06,9.826217453703107e-07,2.494490869634707e-06,2.6639665116482902e-06,9.381044075662027e-06,2.114595787929394e-06,1.40160803244499e-06
122,1.8997594150652828e-06,1.909779302466853e-06,7.823139141254675e-07,1.2048741760370312e-06,3.125948455509991e-06,2.471319342259355e-06,2.5428235157929633e-06,1.6119774011853376e-06,2.4316157325425124e-06,2.566844348043073e-06,1.2186877056342365e-06,2.504213965980585e-06,2.5835929629503322e-06,9.345324294526453e-06,2.0854985956252626e-06,1.4110640413260637e-06
123,1.851050205042096e-06,1.861285405645465e-06,8.135450130251986e-07,1.178431914230963e-06,3.0699186397477158e-06,2.3812154534647253e-06,2.4886210329527954e-06,1.5889704834351978e-06,2.4101469289141603e-06,2.253984153176594e-06,1.4991980826518293e-06,2.5249368993099123e-06,2.507627846663925e-06,9.311000744490301e-06,2.0555054630602305e-06,1.420959598578733e-06
124,1.8052716178331975e-06,1.8185189497520889e-06,8.455862445396108e-07,1.1482200282287075e-06,3.021728405775407e-06,2.2962906315776413e-06,2.4329474925408097e-06,1.571721332867775e-06,2.390753509649304e-06,1.944706250949524e-06,1.8277662055197881e-06,2.5590933117960337e-06,2.436801662593428e-06,9.28203887913772e-06,2.024753134187802e-06,1.4313897475634526e-06
125,1.7629247602092647e-06,1.7812088398492907e-06,8.776404287687398e-07,1.1149414116208149e-06,2.9816732061676293e-06,2.217721595685325e-06,2.3765847481845862e-06,1.5604514159561157e-06,2.372010988576609e-06,1.643285320380909e-06,2.2077398026895456e-06,2.609070570323431e-06,2.371882290022449e-06,9.261323781683664e-06,1.9932890162647774e-06,1.4423874102162297e-06
126,1.724674613722544e-06,1.7489183947035982e-06,9.089877259176826e-07,1.0794790919887505e-06,2.949677725712612e-06,2.1462571091453714e-06,2.3203015656166515e-06,1.5552000905197221e-06,2.352472702244131e-06,1.3542587915983083e-06,2.6421399064188152e-06,2.6771868383675275e-06,2.3137065900092894e-06,9.251019300102262e-06,1.961250017890621e-06,1.453915713443556e-06
127,1.6913057287159955e-06,1.7211268763710006e-06,9.389993605156379e-07,1.0427612396601551e-06,2.925177972530684e-06,2.0822630341606245e-06,2.2647625986004574e-06,1.5558501918256048e-06,2.330656801622708e-06,1.0821995047866976e-06,3.1336529251811935e-06,2.7656121712768676e-06,2.263078756717097e-06,9.252902106062873e-06,1.928841145579869e-06,1.465904420111005e-06
128,1.6636245880639574e-06,1.6973233650248585e-06,9.671146209849307e-07,1.0057587553611922e-06,2.907088640631173e-06,2.0257696519434764e-06,2.2104846874750405e-06,1.5621887506814097e-06,2.305378658431754e-06,8.316905893803996e-07,3.68474025099395e-06,2.8762553876783632e-06,2.2205426431353817e-06,9.268291564023147e-06,1.8961526378171265e-06,1.478260711804043e-06
129,1.6423579175808383e-06,1.6771694543824817e-06,9.929000447100715e-07,9.694867655507795e-07,2.8939411823423864e-06,1.976549376904422e-06,2.157834226617628e-06,1.5739489143874312e-06,2.2761532980399724e-06,6.074820421864487e-07,4.297908088455751e-06,3.0106140656524793e-06,2.186295232281119e-06,9.297703657688082e-06,1.8630548342521309e-06,1.4908101871680488e-06
130,1.628085328332504e-06,1.6605966854038924e-06,1.0161157477673438e-06,9.349331008180262e-07,2.8841666556930124e-06,1.934227739597897e-06,2.1071005826959366e-06,1.5908474044683843e-06,2.243193669561435e-06,4.145535991502544e-07,4.97594686765834e-06,3.1696967989423372e-06,2.160226394934919e-06,9.34043626142774e-06,1.8293706261506073e-06,1.5032271362497947e-06
131,1.6212031874495511e-06,1.6477678391135872e-06,1.036707952905584e-06,9.029798250310784e-07,2.8763741178792568e-06,1.8983281316088498e-06,2.0585443512744644e-06,1.6125761726674075e-06,2.207070817548465e-06,2.5804714638910167e-07,5.7218386575094835e-06,3.3541562580695756e-06,2.1419166930319006e-06,9.394167447888781e-06,1.7952212532828756e-06,1.5150502885479824e-06
132,1.6219075136247543e-06,1.639116317860104e-06,1.0547516859030896e-06,8.743702292608981e-07,2.8693917847615557e-06,1.868197032115221e-06,2.0124327256923707e-06,1.6387089784978909e-06,2.1684409733169357e-06,1.4329926230484135e-07,6.538297151302675e-06,3.564522827909415e-06,2.130601296714048e-06,9.45471920721143e-06,1.7611819773343488e-06,1.525815121659472e-06
133,1.6301633280892479e-06,1.6355303591142274e-06,1.0703562987568227e-06,8.497027300744931e-07,2.862030913050284e-06,1.8429404082555645e-06,1.9691464606964994e-06,1.6686222800354735e-06,2.1279058609179835e-06,7.601294110189418e-08,7.4272096550423235e-06,3.80123718864687e-06,2.1251516660593035e-06,9.516268759960688e-06,1.7280739531446576e-06,1.535149230421849e-06
134,1.645668760177943e-06,1.6384617443140809e-06,1.0835846987056126e-06,8.294242122936729e-07,2.8528842062876968e-06,1.8215752778114818e-06,1.929214620929406e-06,1.7015808152822736e-06,2.0858859475517854e-06,6.235916514051369e-08,8.389210669188624e-06,4.064422326325001e-06,2.124102289928697e-06,9.572096710287006e-06,1.6966438397358293e-06,1.5426849035495802e-06
135,1.6678666735144961e-06,1.6498122362312082e-06,1.094466078383426e-06,8.13822247737193e-07,2.8404395686000546e-06,1.8033651803817375e-06,1.8931857122921336e-06,1.7370132968249044e-06,2.0425890260482834e-06,1.0894934069093259e-07,9.423373604835363e-06,4.353681207927125e-06,2.1258197421648943e-06,9.615491825762683e-06,1.6673933089791756e-06,1.5479185884903329e-06
136,1.6959776168800461e-06,1.671652035290997e-06,1.103050485732129e-06,8.03023109423971e-07,2.8233903990615953e-06,1.788033298446679e-06,1.8614764233229167e-06,1.7747595563808105e-06,1.9981622554682705e-06,2.228503213129413e-07,1.0526934619673433e-05,4.6680642144976465e-06,2.1288171969047675e-06,9.640253916472193e-06,1.6405782429927244e-06,1.5502677526746729e-06
137,1.728994924253174e-06,1.7059572061541463e-06,1.109390110132816e-06,7.970028115827936e-07,2.800907355410619e-06,1.775652228337652e-06,1.8342918411751854e-06,1.8150260042328401e-06,1.9529330490024194e-06,4.1166355398448537e-07,1.1695098055293634e-05,5.006028036764169e-06,2.1319729942877377e-06,9.640680614379313e-06,1.6163549905181805e-06,1.5493496511356823e-06
138,1.7656894996827865e-06,1.7545633726426716e-06,1.113480203553925e-06,7.956097586721506e-07,2.7728503220812234e-06,1.766342784629541e-06,1.8115926703523708e-06,1.858081394148062e-06,1.9075276544341485e-06,6.83457013388405e-07,1.2921026692884374e-05,5.3653370721434034e-06,2.1345265430561218e-06,9.611530560040858e-06,1.5949522495798697e-06,1.5451972049798607e-06
139,1.804772025765728e-06,1.8193222213350972e-06,1.1152486750405663e-06,7.985912704751824e-07,2.739940100086236e-06,1.7600306053027404e-06,1.793158770835589e-06,1.9039768417100074e-06,1.8627662615995518e-06,1.0465595435028893e-06,1.4195982657343393e-05,5.742992780820433e-06,2.136026293067963e-06,9.548421597239503e-06,1.57665226933834e-06,1.5381674028639527e-06
140,1.8452434684211783e-06,1.9022096421585703e-06,1.1145991459858475e-06,8.056617722625518e-07,2.7037243179475767e-06,1.7563978011549117e-06,1.7787935538306166e-06,1.952481993838047e-06,1.8194700770951371e-06,1.5095288433437834e-06,1.5509447921839586e-05,6.13510678014419e-06,2.1362854898887226e-06,9.44849877986492e-06,1.5616195743910898e-06,1.5286618618320994e-06
141,1.8866291077200243e-06,2.0052040372741575e-06,1.111518752960643e-06,8.166210262670761e-07,2.6662182584367958e-06,1.7550769051764307e-06,1.7685141529717706e-06,2.0031725285983513e-06,1.7783110493679356e-06,2.0813789537664686e-06,1.6849076260844923e-05,6.536744134321161e-06,2.1352648189968987e-06,9.310795312827362e-06,1.5497975204476684e-06,1.5169272136034745e-06
142,1.9287957299974776e-06,2.1300477720183895e-06,1.1062157469692217e-06,8.314072475512176e-07,2.6294930096214553e-06,1.7560074116088986e-06,1.7625530525012246e-06,2.0554928222657893e-06,1.7397329520246685e-06,2.771738685366472e-06,1.8200458006128214e-05,6.941882737536919e-06,2.132955939728132e-06,9.135911418450326e-06,1.5409346477214958e-06,1.5030410820771833e-06
143,1.9715614008973057e-06,2.2780988885969965e-06,1.09914297912982e-06,8.500274901087581e-07,2.5955219496561594e-06,1.7596797028921812e-06,1.7612050046523752e-06,2.1087103999324655e-06,1.7040236259411383e-06,3.5906574656590555e-06,1.9546740656497544e-05,7.3433946276163325e-06,2.1294155679019225e-06,8.925148178447042e-06,1.5346688763571937e-06,1.4870528267642474e-06
144,2.0145081909234033e-06,2.4502961934915583e-06,1.0908782638752362e-06,8.724809121395691e-07,2.5661514685784924e-06,1.7670401045082551e-06,1.7647123924746504e-06,2.1618842841406695e-06,1.6716004034950712e-06,4.548226133087298e-06,2.086807791109597e-05,7.732996224535095e-06,2.1249869914152354e-06,8.679528031859393e-06,1.5305902427639295e-06,1.4691773277535473e-06
145,2.057015454728485e-06,2.6471459143360895e-06,1.0820279672815731e-06,8.987516473122952e-07,2.5429863113547806e-06,1.7791587461670115e-06,1.7732924267803764e-06,2.2140446410832133e-06,1.6433974023227455e-06,5.654366820696922e-06,2.21409489220293e-05,8.101406257163919e-06,2.120454860042494e-06,8.399206363432968e-06,1.5282839004262273e-06,1.4498956541074478e-06
146,2.0983006962785805e-06,2.8687202262408234e-06,1.0732299669958943e-06,9.288137346304206e-07,2.527275660169831e-06,1.7969540382902823e-06,1.787157299228235e-06,2.2645467131801237e-06,1.6211136866342395e-06,6.9187425595537286e-06,2.333785707255966e-05,8.438916160779893e-06,2.116871639264749e-06,8.083607831188851e-06,1.527411221240846e-06,1.4298978101496603e-06
147,2.137510313979056e-06,3.114726755579799e-06,1.0651364678052685e-06,9.626078468479177e-07,2.5199445888550156e-06,1.821088900380409e-06,1.806395239148023e-06,2.3133034207654947e-06,1.6071187439571645e-06,8.350426705901573e-06,2.4428235269117987e-05,8.736324905402662e-06,2.115288483223564e-06,7.73207273467905e-06,1.5277567685823806e-06,1.4099434413242838e-06
148,2.1739820222087712e-06,3.3846516118018034e-06,1.0583288390121753e-06,1.0000020203260948e-06,2.5217769534942305e-06,1.851928649946223e-06,1.8308131629506024e-06,2.3606665427504967e-06,1.604062830475615e-06,9.957290826020143e-06,2.538092030164593e-05,8.985986703354889e-06,2.1167162933749024e-06,7.344564218471727e-06,1.529162966523743e-06,1.3907335499619198e-06
149,2.207489957456074e-06,3.6779046457909947e-06,1.053246983021777e-06,1.040744429830512e-06,2.5335749922019006e-06,1.8894959820092379e-06,1.859863295948127e-06,2.407046793688499e-06,1.6144988745056375e-06,1.1745395951983486e-05,2.616776556315656e-05,9.182615967109605e-06,2.1221682378130268e-06,6.922294512546679e-06,1.5314527845755626e-06,1.372816087232943e-06
150,2.2382498351509087e-06,3.99391540606208e-06,1.0501736258519962e-06,1.0844417975949318e-06,2.5560802966083103e-06,1.933460501184136e-06,1.89267292539247e-06,2.4526018990014305e-06,1.640733526384989e-06,1.3718533215323173e-05,2.6767372652192395e-05,9.3235359956252e-06,2.1325593925066915e-06,6.468255286804942e-06,1.5344022281142646e-06,1.356538473877846e-06
151,2.2667469460155618e-06,4.332186122887853e-06,1.049279819825438e-06,1.1305778719899193e-06,2.589713320152334e-06,1.9831628159575295e-06,1.928178355795873e-06,2.497226736300111e-06,1.6848304465180804e-06,1.587790194618262e-05,2.7167454765355096e-05,9.40824337326527e-06,2.1486109836697436e-06,5.98748230725983e-06,1.5377115102764205e-06,1.342044297416933e-06
152,2.293568871422121e-06,4.692273643267128e-06,1.0507004256175386e-06,1.1785275889501193e-06,2.634372952773808e-06,2.037650909853566e-06,1.9652947412195403e-06,2.54074591944069e-06,1.7486247784209313e-06,1.8221989024336255e-05,2.7364226219126904e-05,9.437342280917137e-06,2.1709210359718636e-06,5.486812186070215e-06,1.5410426715820332e-06,1.3292602771161552e-06
153,2.319367452737085e-06,5.073608837267179e-06,1.0545599544373515e-06,1.2275947705737627e-06,2.689394974981785e-06,2.0957943712932825e-06,2.0029657112686877e-06,2.5830013602616188e-06,1.8337434427845483e-06,2.0746737061666005e-05,2.7358713586659178e-05,9.411245577530278e-06,2.200052825420723e-06,4.9740914926301175e-06,1.5441955745852028e-06,1.317858093491242e-06
154,2.3449409445768354e-06,5.475157009711829e-06,1.0609892648709124e-06,1.2771260076429726e-06,2.7536202067029052e-06,2.156506132233143e-06,2.0401159128109246e-06,2.6236977680721553e-06,1.9416375030203935e-06,2.3445934053678584e-05,2.71530864755775e-05,9.329582825507484e-06,2.236499215943942e-06,4.457281902901052e-06,1.5472474106573653e-06,1.307227546157296e-06
155,2.3712679737122148e-06,5.895082938789274e-06,1.0701967487202914e-06,1.3266177301017808e-06,2.825470878103675e-06,2.21890169372886e-06,2.0757363694898404e-06,2.662200330627306e-06,2.073581060682502e-06,2.631156542588265e-05,2.6750630293786408e-05,9.191865963374002e-06,2.280617328739485e-06,3.9440364670269425e-06,1.5504766082072392e-06,1.296492980588208e-06
156,2.3993594831848657e-06,6.3305320541575805e-06,1.082475148195056e-06,1.3757202188019366e-06,2.902961111785129e-06,2.282250117845083e-06,2.109129638807173e-06,2.6974771413717725e-06,2.2306710302069787e-06,2.933379104965006e-05,2.6158696717170846e-05,8.998713938029925e-06,2.3326144835458518e-06,3.441723852763766e-06,1.5541416490879532e-06,1.284630105113026e-06
157,2.4300479234298433e-06,6.777524531826483e-06,1.0980868913834233e-06,1.4241555061770816e-06,2.9837143832117287e-06,2.3457849150283143e-06,2.140054676217046e-06,2.7281288606799128e-06,2.4138886497908074e-06,3.2500314325263304e-05,2.5390999184589115e-05,8.752735164549451e-06,2.3925634192928216e-06,2.9574627355477403e-06,1.5582868258553277e-06,1.2707009178658223e-06
158,2.463916071021434e-06,7.231071066368654e-06,1.1171924724915562e-06,1.4716469317802945e-06,3.065082439362871e-06,2.408542100783226e-06,2.168599377935e-06,2.7524662957653194e-06,2.6241601618811595e-06,3.5795078485199926e-05,2.4467526501135822e-05,8.458855505162647e-06,2.4604729938829185e-06,2.4980114825866317e-06,1.562652574422779e-06,1.2540825907453476e-06
159,2.5013468831999735e-06,7.685594801960306e-06,1.1399413758118185e-06,1.5179600919486795e-06,3.144341816092812e-06,2.469414732219468e-06,2.194874717406859e-06,2.76876936544239e-06,2.8622988535613402e-06,3.919651369280106e-05,2.341286185238602e-05,8.124105124905294e-06,2.53634069129125e-06,2.069647510989947e-06,1.5666602379272102e-06,1.2345434403700302e-06
160,2.542554620116961e-06,8.135415663483352e-06,1.1666193608981852e-06,1.5630199642961425e-06,3.2189481949565805e-06,2.527482008474217e-06,2.218729300350684e-06,2.775761543878404e-06,3.128829307189056e-06,4.267612509577707e-05,2.2254065468094166e-05,7.756902538416116e-06,2.6200156938281166e-06,1.6781376231133528e-06,1.5694713599709119e-06,1.2121391547365146e-06
161,2.5875810614842274e-06,8.575026293991949e-06,1.1976613024087152e-06,1.60697756815956e-06,3.2868314562886e-06,2.5823972611848363e-06,2.2396341312974385e-06,2.773059952428967e-06,3.4238412587612464e-06,4.619805887947755e-05,2.1018747073871984e-05,7.36609900372278e-06,2.710971470495344e-06,1.328801132484814e-06,1.5701655945875806e-06,1.1870291108966152e-06
162,2.6363300311554897e-06,8.999217143424149e-06,1.2335055146666516e-06,1.6501862917025084e-06,3.3466112726933287e-06,2.6345802096301623e-06,2.2568235694855646e-06,2.761299493984264e-06,3.7469630798293027e-06,4.971904653891706e-05,1.9733518646190393e-05,6.960146805210532e-06,2.8082189425568106e-06,1.026632851539784e-06,1.5679498954866608e-06,1.159402236575354e-06
163,2.6886489804161746e-06,9.403242546051241e-06,1.2744412958216705e-06,1.693110918375706e-06,3.3976090917024744e-06,2.6851318518839013e-06,2.269642308949007e-06,2.741896289137408e-06,4.097352671565882e-06,5.318847455218142e-05,1.8422731010837906e-05,6.546581338712201e-06,2.910424543216126e-06,7.764745072583181e-07,1.562236140575664e-06,1.1295887162264732e-06
164,2.74437254555575e-06,9.783083187002767e-06,1.320552528098705e-06,1.7361795828926987e-06,3.4396236738152123e-06,2.7355149083937676e-06,2.277828876023597e-06,2.716678846322885e-06,4.473584032853034e-06,5.6550315169760846e-05,1.7107461306440716e-05,6.131761201330986e-06,3.0162247362650484e-06,5.832183432490546e-07,1.5526010006727097e-06,1.0981732030238717e-06
165,2.803247925942222e-06,1.013569416178743e-05,1.3717236027576034e-06,1.7796207196583557e-06,3.4725561845468676e-06,2.787182490475031e-06,2.281489299144929e-06,2.687558239606626e-06,4.873483837460685e-06,5.974740312102347e-05,1.580508157423038e-05,5.720768990246339e-06,3.1245366208098657e-06,4.5197189609031297e-07,1.5387322824399523e-06,1.0659290885102157e-06
166,2.8647693014032106e-06,1.0459068516277849e-05,1.4276507679706808e-06,1.8233736829612134e-06,3.496181556303233e-06,2.841340641197311e-06,2.2808419630155614e-06,2.656262099432819e-06,5.2940882191179404e-06,6.272440255004853e-05,1.4529578009758343e-05,5.3175253526016585e-06,3.234580483310335e-06,3.881101994480766e-07,1.5203701468010528e-06,1.0336360949801742e-06
167,2.928077780563056e-06,1.0752032192457845e-05,1.4878705111245778e-06,1.8671641844168476e-06,3.5103302273220116e-06,2.8987949348946452e-06,2.275971723166795e-06,2.624175413158416e-06,5.731812915400149e-06,6.542612246811491e-05,1.3292166218044446e-05,4.925146610750991e-06,3.3457820969362624e-06,3.9724908516999285e-07,1.4973197234205115e-06,1.0019459338528465e-06
168,2.9920866869712676e-06,1.1013790317812388e-05,1.5518114680866602e-06,1.910731430675344e-06,3.5152561287674925e-06,2.959803254355646e-06,2.266716057070083e-06,2.592309568304323e-06,6.18274634373826e-06,6.779456011778788e-05,1.2101726906799027e-05,4.546332080023602e-06,3.457866988083171e-06,4.852523815540605e-07,1.4696425447855157e-06,9.713508544227117e-07
169,3.0557433798894826e-06,1.1243203459135337e-05,1.6188035044837073e-06,1.9540186162802074e-06,3.511736263849076e-06,3.0240169584091284e-06,2.252787699317394e-06,2.5613463811624397e-06,6.642816464348561e-06,6.977194254310885e-05,1.0965048070253838e-05,4.183517179387554e-06,3.5709529409850622e-06,6.582743949744743e-07,1.4378695135218874e-06,9.42193315964582e-07
170,3.1181116999870776e-06,1.1437909082648998e-05,1.6880479219685962e-06,1.9971433749016127e-06,3.500856743524463e-06,3.0905135617242456e-06,2.2341475747820565e-06,2.531752037902097e-06,7.1076160727752065e-06,7.13109271045344e-05,9.887044208428068e-06,3.8387783645596316e-06,3.6853457261746097e-06,9.227746526083692e-07,1.4029785633009512e-06,9.146771463618624e-07
171,3.1781898219492145e-06,1.1593898447407194e-05,1.758674608513488e-06,2.0401848845160855e-06,3.4837556187882575e-06,3.1578095404166233e-06,2.2112988682739754e-06,2.5039741654207258e-06,7.571992950039237e-06,7.2385280424861e-05,8.871050937109033e-06,3.513688779771919e-06,3.8012034190635422e-06,1.2856093052566664e-06,1.366133332395916e-06,8.888858338783303e-07
172,3.2347680695135286e-06,1.1706048418033432e-05,1.82990248112273e-06,2.082990216703742e-06,3.4614203310232817e-06,3.2238928460590944e-06,2.185175253360712e-06,2.478644170082937e-06,8.029764550422963e-06,7.299381527047027e-05,7.919180418294413e-06,3.2092856639598494e-06,3.918315634670575e-06,1.7542985202328513e-06,1.328402294103275e-06,8.647979116484071e-07
173,3.286534331440156e-06,1.1769239477818835e-05,1.9011384201444311e-06,2.125133719929041e-06,3.434546287733187e-06,3.286470221731891e-06,2.1567853582783933e-06,2.456647725617249e-06,8.47371653695121e-06,7.315448396902718e-05,7.032653653070603e-06,2.9261486903001695e-06,4.035965377215755e-06,2.337268269728501e-06,1.2906404036219988e-06,8.423125998907638e-07
174,3.332313716322575e-06,1.177947019143501e-05,1.9719059077523305e-06,2.1660060029518436e-06,3.403629854616922e-06,3.3434680598803426e-06,2.1270233279847255e-06,2.438974735271302e-06,8.895906923482574e-06,7.289337654857342e-05,6.212055953915244e-06,2.6645208696963046e-06,4.152871592118526e-06,3.043763029927345e-06,1.2535363971660432e-06,8.213130125804131e-07
175,3.371324637800457e-06,1.1734859255207557e-05,2.0416717481533484e-06,2.2049868643353233e-06,3.3693352313762767e-06,3.393508774620593e-06,2.096752776605287e-06,2.426421737590787e-06,9.288338857285052e-06,7.22401530964615e-05,5.4574965519502665e-06,2.42442906963468e-06,4.2673106343921915e-06,3.883422950078679e-06,1.2177326546766058e-06,8.017182488938784e-07
176,3.403388217170651e-06,1.1636484960499854e-05,2.109730171425539e-06,2.2416318998712696e-06,3.3327829557273758e-06,3.436015494529236e-06,2.0669026535975727e-06,2.419356180264224e-06,9.643502555318455e-06,7.123266271552762e-05,4.768646852502137e-06,2.205740304687765e-06,4.377399533270202e-06,4.865808217839999e-06,1.1839140724214188e-06,7.834742684523587e-07
177,3.4289313356134985e-06,1.1488628024135469e-05,2.1752608118025603e-06,2.275716783418536e-06,3.2954123121631703e-06,3.4708810745966227e-06,2.0383779181659935e-06,2.4176856953382165e-06,9.954338320612212e-06,6.991880435219029e-05,4.144672201057568e-06,2.008089149653986e-06,4.481497893835952e-06,6.000058129231009e-06,1.1527906830463295e-06,7.665465145353543e-07
178,3.4486866765656156e-06,1.1297872624707401e-05,2.2374776546985856e-06,2.3071097136540673e-06,3.2585221498928307e-06,3.4979616562342377e-06,2.0119259045059363e-06,2.4209876277655318e-06,1.0214544724265485e-05,6.834895368752719e-05,3.5841453749834804e-06,1.8307607736816383e-06,4.578661553650862e-06,7.2946553041117316e-06,1.1250116420336174e-06,7.509644535838132e-07
179,3.463268797080159e-06,1.1071325522375202e-05,2.2956736103880653e-06,2.335675691804059e-06,3.2228839004332054e-06,3.516758777634795e-06,1.9881448884728505e-06,2.4286710753054214e-06,1.0419842849092795e-05,6.656728615213867e-05,3.085032671776434e-06,1.6727106942574458e-06,4.668921921831227e-06,8.75730935861276e-06,1.1011001488481094e-06,7.368664600989686e-07
180,3.4729270981438237e-06,1.0815391681963878e-05,2.349160302721676e-06,2.361358003782473e-06,3.1886337912337457e-06,3.5265221889834498e-06,1.96759101569123e-06,2.4400815592867345e-06,1.0568710673597691e-05,6.460876663393223e-05,2.6447569239136476e-06,1.5327407148902147e-06,4.753172970238765e-06,1.0395022712684965e-05,1.0814170128361e-06,7.245125058158107e-07
181,3.477517543595095e-06,1.0535999222125838e-05,2.397248437216309e-06,2.3843156418812e-06,3.155373301803029e-06,3.5266605941525287e-06,1.950865055423301e-06,2.4544876356165266e-06,1.0661417735930997e-05,6.24984677695036e-05,2.2602739747308793e-06,1.4096463288094763e-06,4.832673826106118e-06,1.2214140654698899e-05,1.0661278565201457e-06,7.142641031444861e-07
182,3.4765064736312866e-06,1.0239335034092779e-05,2.4392408427039335e-06,2.4049178614361533e-06,3.122345560895933e-06,3.517053530886755e-06,1.9385973933336307e-06,2.470970118554849e-06,1.0698835438595929e-05,6.025068080118402e-05,1.9281582157191845e-06,1.3022028495172657e-06,4.90844194860139e-06,1.4219975937256824e-05,1.055192750405349e-06,7.06526615391429e-07
183,3.4690637312916425e-06,9.931966620026221e-06,2.474336161335932e-06,2.4235678055830682e-06,3.0885696456332324e-06,3.498005685250123e-06,1.9313261828373585e-06,2.488373906332033e-06,1.068277477024072e-05,5.7871653401550865e-05,1.644769804678487e-06,1.2090988980051214e-06,4.9809800567519915e-06,1.6415955768321157e-05,1.0484247226661684e-06,7.016959827423617e-07
184,3.454440587988049e-06,9.620355344757838e-06,2.5015739324314953e-06,2.4405336553851492e-06,3.0528880639950693e-06,3.4699891804313566e-06,1.92942849713601e-06,2.5054051950950092e-06,1.0617128520292794e-05,5.536850477387757e-05,1.406479441461098e-06,1.1289910115986007e-06,5.050471393561235e-06,1.8802849794868253e-05,1.0456127838895448e-06,7.001326086242248e-07
185,3.4324538460594793e-06,9.310210951888442e-06,2.519967846397221e-06,2.456006591486882e-06,3.014044675381057e-06,3.4334705217186345e-06,1.9332088139457827e-06,2.5207508519270274e-06,1.0508239698687187e-05,5.275875474233682e-05,1.2097895273113872e-06,1.060625562547854e-06,5.117050143863899e-06,2.1378385944080362e-05,1.0465919169978677e-06,7.021270175669628e-07
186,3.4037396791688193e-06,9.006024321875953e-06,2.5287151445697596e-06,2.4703378600935662e-06,2.970928494655945e-06,3.3889528024811615e-06,1.942977692939177e-06,2.5331510242303874e-06,1.0364229096178539e-05,5.007176798194999e-05,1.0512789629100576e-06,1.0028500241269073e-06,5.180869221608956e-06,2.4136917414436568e-05,1.051174518660398e-06,7.078738267747774e-07
187,3.369690190565562e-06,8.71094629002358e-06,2.5273603358008963e-06,2.4841288628059137e-06,2.9229079542205223e-06,3.3371627821158096e-06,1.9589626941003774e-06,2.5415387132614302e-06,1.019375145458087e-05,4.734203288145746e-05,9.27479766707684e-07,9.54519346520441e-07,5.242124673674049e-06,2.7069361189937037e-05,1.0590281092916582e-06,7.174958987168736e-07
188,3.332138690395527e-06,8.426941762396493e-06,2.515894020883548e-06,2.498017401587822e-06,2.8700026981637153e-06,3.279226139889476e-06,1.981156612667831e-06,2.5453112799590386e-06,1.0004705630880691e-05,4.460218151678002e-05,8.348064411091665e-07,9.144118956957922e-07,5.301173435647737e-06,3.0163808415677945e-05,1.069638683473644e-06,7.310884457897564e-07
189,3.292929654434348e-06,8.155009197128796e-06,2.494690705737931e-06,2.5123490214248077e-06,2.8127109391671558e-06,3.216679497650051e-06,2.0092710406777313e-06,2.5445710035532206e-06,9.803579755387253e-06,4.187974474041611e-05,7.695763443235781e-07,8.812167840281821e-07,5.358635395581584e-06,3.3405916040842785e-05,1.0824246243328147e-06,7.487281682105978e-07
190,3.253584214807075e-06,7.895314549770106e-06,2.46423394924363e-06,2.5269563010055687e-06,2.7516120026138234e-06,3.15127901653388e-06,2.042841693478415e-06,2.5400870589789146e-06,9.595666408743467e-06,3.919598351692474e-05,7.281074229723984e-07,8.536758575570356e-07,5.4153014482122705e-06,3.677822529961804e-05,1.0969313370410236e-06,7.704388096186228e-07
191,3.2151807189983358e-06,7.647198699130881e-06,2.4248311649784777e-06,2.541108766110812e-06,2.6871459624296762e-06,3.084737236380432e-06,2.0813812246848708e-06,2.532939607923282e-06,9.385513893476454e-06,3.656554580394007e-05,7.068472631590793e-07,8.308270808432113e-07,5.471815197526248e-06,4.025895345777827e-05,1.1129552442109413e-06,7.96165406564509e-07
192,3.1783654009265306e-06,7.409060662814677e-06,2.376566483177195e-06,2.553624933744003e-06,2.6197732117146652e-06,3.018546758753749e-06,2.124384456953899e-06,2.524084763677864e-06,9.176991300497697e-06,3.3997591790532966e-05,7.024931111570696e-07,8.120768433272965e-07,5.528423391563959e-06,4.3821029382594664e-05,1.1305750462261855e-06,8.258199040016179e-07
193,3.1433447645034436e-06,7.1781766389236415e-06,2.319500882908821e-06,2.563129508183185e-06,2.5502005413155366e-06,2.953900042713339e-06,2.1711890076220734e-06,2.5140893229418136e-06,8.973010456347856e-06,3.149895489074998e-05,7.121101838747421e-07,7.970385353282706e-07,5.585149896841063e-06,4.743122286341542e-05,1.1501773179722047e-06,8.593541498080922e-07
194,3.1098844400621434e-06,6.9507363772729e-06,2.253969896204025e-06,2.5683593392330817e-06,2.479339650722897e-06,2.891627410462876e-06,2.2208723417231672e-06,2.503072498960725e-06,8.775218824179225e-06,2.9077599531230606e-05,7.332413006777278e-07,7.854109636422819e-07,5.642239911228868e-06,5.1048950026501826e-05,1.1724637120884144e-06,8.967413327272223e-07
195,3.077496383225787e-06,6.722527473599922e-06,2.180786909596334e-06,2.568320527932909e-06,2.4080622486396472e-06,2.832147330333919e-06,2.2722486235773613e-06,2.490821406277013e-06,8.583827206263542e-06,2.674375647732865e-05,7.639221036956029e-07,7.770646518082975e-07,5.7003856220713975e-06,5.46259008416472e-05,1.1983737451216811e-06,9.378787904651457e-07
196,3.0458228335385023e-06,6.490256360751716e-06,2.101178575066966e-06,2.562173422493265e-06,2.3369521597355884e-06,2.7754708695411364e-06,2.3239867606440783e-06,2.4770416268077545e-06,8.397557694562797e-06,2.4508300018169e-05,8.025442680608686e-07,7.721592434737702e-07,5.760560842277026e-06,5.810860104933414e-05,1.2289925033558663e-06,9.825722691195774e-07
197,3.0149271236030506e-06,6.252748512003719e-06,2.0165460998412724e-06,2.5490059314740522e-06,2.266178834190905e-06,2.7212264470364938e-06,2.3748558818999215e-06,2.4615552965495502e-06,8.213822999532572e-06,2.238020686723945e-05,8.476337124544978e-07,7.710601349913421e-07,5.823687340833269e-06,6.144394746691165e-05,1.2655935804736066e-06,1.0306755949352865e-06
198,2.985257608195577e-06,6.011181060563321e-06,1.9283755727074423e-06,2.52780025197056e-06,2.19558784790863e-06,2.6686689241648134e-06,2.4239432126074025e-06,2.4442743298139474e-06,8.029416996921013e-06,2.0365243021400342e-05,8.976701552761767e-07,7.741250753965078e-07,5.890401300496138e-06,6.458559815814776e-05,1.3097769311505538e-06,1.0822433846703605e-06
199,2.9573905061721454e-06,5.768227646700145e-06,1.8383537763632252e-06,2.4976523686271545e-06,2.1249692678439777e-06,2.616757257070355e-06,2.4707004765208418e-06,2.4250144207470194e-06,7.841556687853521e-06,1.846626532562474e-05,9.510260645949953e-07,7.815776118815511e-07,5.9610012114369695e-06,6.749899106947248e-05,1.3634707055812316e-06,1.137505409828555e-06
200,2.931775525307349e-06,5.526768372134349e-06,1.748392359269838e-06,2.4580379735934288e-06,2.0542726430435467e-06,2.5643446087332148e-06,2.5148742682350776e-06,2.4033450444623646e-06,7.64855382632878e-06,1.6684170752407634e-05,1.0060108939405276e-06,7.934948722608818e-07,6.035472911909276e-06,7.016293389795819e-05,1.4287164907261186e-06,1.196683566782243e-06
201,2.908550715482244e-06,5.288962328059059e-06,1.660417704448541e-06,2.408978336244714e-06,1.983701125087021e-06,2.510378754351464e-06,2.5564109180361313e-06,2.3786154952676797e-06,7.449587854261837e-06,1.5018678032685172e-05,1.0609526911717411e-06,8.098177071354629e-07,6.113469165941589e-06,7.256596781229365e-05,1.5074189655468502e-06,1.259848534421076e-06
202,2.887454048735939e-06,5.055980196368239e-06,1.576124577757781e-06,2.3511103658688953e-06,1.913858800645016e-06,2.4540435160869814e-06,2.595317156325431e-06,2.3501445417578267e-06,7.2439095985574905e-06,1.3468424787015293e-05,1.1142339967915986e-06,8.303497833721635e-07,6.194206887399312e-06,7.46983087242365e-05,1.6012544755914022e-06,1.3269003419127348e-06
203,2.867907801556224e-06,4.828181418914721e-06,1.4968708259030036e-06,2.285667262088206e-06,1.845853736390768e-06,2.3948408113987537e-06,2.631538843829181e-06,2.3174480904350236e-06,7.03047660458508e-06,1.2030538138825458e-05,1.1642642481911782e-06,8.547519801780307e-07,6.276294320302972e-06,7.654491635126432e-05,1.7117601860444492e-06,1.3976003904715107e-06
204,2.8492334536646035e-06,4.605459320092424e-06,1.423696283577156e-06,2.2143211533119653e-06,1.781087393161472e-06,2.3325979754864636e-06,2.6650192515447823e-06,2.2803994111852913e-06,6.808500278628475e-06,1.0700680106288113e-05,1.209504016808039e-06,8.825377752923733e-07,6.357623345222293e-06,7.808559262576959e-05,1.8404755616431843e-06,1.4716540856484103e-06
205,2.830849335104659e-06,4.387578831992118e-06,1.3574159852386572e-06,2.1388947418106083e-06,1.72087062788461e-06,2.2674458221723556e-06,2.6958539107175315e-06,2.2392586015446443e-06,6.5782859045619165e-06,9.473956959677608e-06,1.2486034369012578e-06,9.130820180002031e-07,6.4355064530918e-06,7.9301236390311e-05,1.9889681555027803e-06,1.5488845070310877e-06
206,2.812344833742156e-06,4.174355646180727e-06,1.298724865895784e-06,2.0611099921970574e-06,1.6662044488329013e-06,2.1998560649546393e-06,2.724280018483481e-06,2.194525277335426e-06,6.341652650203563e-06,8.34583507260683e-06,1.2805381366885488e-06,9.456390885041108e-07,6.5069393074571664e-06,8.01803777021995e-05,2.1587003818766712e-06,1.629414605881306e-06
207,2.793406492228338e-06,3.9656607183877836e-06,1.2482129923065936e-06,1.9825277689226243e-06,1.6177901429627824e-06,2.1306984621168816e-06,2.750490467162464e-06,2.146699545941394e-06,6.101825283452333e-06,7.312372389287795e-06,1.304681093696192e-06,9.79358798830354e-07,6.568778825497628e-06,8.072190588664365e-05,2.3508815432149154e-06,1.7137979406026942e-06
208,2.7736890714383112e-06,3.7614347662802216e-06,1.2062975939805519e-06,1.9045744416387415e-06,1.5761248967182314e-06,2.0611867616645333e-06,2.7744994421115764e-06,2.096144424563561e-06,5.862949738306407e-06,6.370001610499019e-06,1.3208797125006816e-06,1.013332079513903e-06,6.617938675609451e-06,8.093368473644577e-05,2.566421354966692e-06,1.8031112042469382e-06
209,2.752772712559685e-06,3.5618656521659436e-06,1.1731952164995987e-06,1.8284816387045572e-06,1.5415728278487893e-06,1.9926947474764917e-06,2.7961694110938022e-06,2.043080672336078e-06,5.629381110093159e-06,5.5153066604984174e-06,1.3295034990939824e-06,1.0466872089857852e-06,6.651655882307123e-06,8.082900864864966e-05,2.805949588232507e-06,1.898925493247498e-06
210,2.730212379959869e-06,3.3676258392721127e-06,1.1489879896147563e-06,1.755198955395444e-06,1.51442068917631e-06,1.9265510617823316e-06,2.81529604251306e-06,1.9876387675448043e-06,5.404968896229773e-06,4.744922458107668e-06,1.3313219520277489e-06,1.0786820820623092e-06,6.667484385764802e-06,8.042223682006651e-05,3.0698997848996973e-06,2.0030829683761444e-06
211,2.7055921480874577e-06,3.1799368831023884e-06,1.1336955305972755e-06,1.6854259107823147e-06,1.4949141873082272e-06,1.8638997944953192e-06,2.831648534357238e-06,1.9300065840289096e-06,5.1926478405231165e-06,4.055478146863687e-06,1.3272297364140547e-06,1.1087372675561606e-06,6.662898459006001e-06,7.972360547736228e-05,3.3586388928092218e-06,2.1173967562609094e-06
212,2.67856938164295e-06,3.0003868115549826e-06,1.1272523330248485e-06,1.6197285717093765e-06,1.4832113404680813e-06,1.805630619218044e-06,2.8450073738741272e-06,1.8706051858236578e-06,4.994442231613929e-06,3.443482457039065e-06,1.3180151281173072e-06,1.136396372926861e-06,6.635180057846858e-06,7.873622672888339e-05,3.6724446312483933e-06,2.2434366769759103e-06
213,2.6488823725743957e-06,2.8306426218100057e-06,1.1294238242086822e-06,1.5586113228916798e-06,1.4792910720256166e-06,1.7523532114090197e-06,2.8552576084726257e-06,1.810078448846208e-06,4.811658639404959e-06,2.9051875338640788e-06,1.3042856865588597e-06,1.161233617635423e-06,6.582068874389143e-06,7.746000689368368e-05,4.0112508144268924e-06,2.382416335019982e-06
214,2.616246362979548e-06,2.6722330584451165e-06,1.13975845076096e-06,1.5025204158779497e-06,1.4829139303031952e-06,1.7044004426777206e-06,2.8624716945675397e-06,1.7491503765416713e-06,4.645029231883559e-06,2.4366080991543797e-06,1.2865272501349786e-06,1.182795619621277e-06,6.5025249841057385e-06,7.590057517083319e-05,4.374371615129298e-06,2.5351223075288143e-06
215,2.5802516724622264e-06,2.5264374174420607e-06,1.1575909561561052e-06,1.4518399557188008e-06,1.4936304465356229e-06,1.6618333105085599e-06,2.8668811540023387e-06,1.6886032349156031e-06,4.494722039270064e-06,2.0337029211345317e-06,1.26521642481922e-06,1.2006330544906803e-06,6.396805393338578e-06,7.407511226912345e-05,4.760359950328322e-06,2.7018643854315525e-06
216,2.5404428165787003e-06,2.394208158672616e-06,1.1820850841726581e-06,1.4069029096179712e-06,1.5107825634636855e-06,1.6244249261515715e-06,2.868741633871126e-06,1.629335977784819e-06,4.3602150638468935e-06,1.6924615846131522e-06,1.2408394251341743e-06,1.214388313851651e-06,6.265865421494368e-06,7.201004194388823e-05,5.166987166602347e-06,2.88243731116268e-06
217,2.49649265208205e-06,2.2761227219833403e-06,1.212339032468677e-06,1.3679897517227216e-06,1.5334873086395583e-06,1.591681373003368e-06,2.8681541915821482e-06,1.5722741957347323e-06,4.24018615444887e-06,1.4087864754869162e-06,1.2137782088135574e-06,1.2239514630896322e-06,6.1106788188208315e-06,6.973490309665962e-05,5.5912766596596696e-06,3.0760929940916094e-06
218,2.44834771658912e-06,2.1723985593880886e-06,1.2475113089441146e-06,1.3352913018700094e-06,1.560607303597162e-06,1.5630039093367252e-06,2.8649171363064965e-06,1.5181823149097375e-06,4.132612533239136e-06,1.1783717282219908e-06,1.1842453523943226e-06,1.229665416230254e-06,5.932210812114499e-06,6.72810730647302e-05,6.029451451200024e-06,3.2815288240674173e-06
219,2.396365659807097e-06,2.0829006452383454e-06,1.2868544477393316e-06,1.3088392322051707e-06,1.5907562216398417e-06,1.5379806981030676e-06,2.858575063892851e-06,1.4676026376063698e-06,4.035052798626705e-06,9.96742999482511e-07,1.1523936370338617e-06,1.2324232059929027e-06,5.732143028601061e-06,6.468499660246956e-05,6.47676803791631e-06,3.4968541676056796e-06
220,2.3413456919126617e-06,2.0071029845281336e-06,1.3296421681708582e-06,1.2884387789777044e-06,1.622452380873394e-06,1.516618641424964e-06,2.8487171555169675e-06,1.4209465572439373e-06,3.945001914124276e-06,8.593639270674736e-07,1.1184790904304292e-06,1.2335578165023083e-06,5.513497167098704e-06,6.198757330623602e-05,6.927383018407963e-06,3.719507060680069e-06
221,2.284309326347639e-06,1.94411327830432e-06,1.3751147835798846e-06,1.2736618368423408e-06,1.6543978922670538e-06,1.4993249732910037e-06,2.8352151439337356e-06,1.3785706323015842e-06,3.860303916675822e-06,7.616650060459524e-07,1.0828930042253043e-06,1.2345960910179257e-06,5.280506087869009e-06,5.9228306797585305e-05,7.374270179995613e-06,3.946157353809101e-06
222,2.2261648460429417e-06,1.892823649721658e-06,1.4224957137604814e-06,1.2639330470805607e-06,1.685689382153283e-06,1.4866958374846438e-06,2.818114648589951e-06,1.3407310245820413e-06,3.7795075789446634e-06,6.990220037055252e-07,1.0460594766082167e-06,1.2370234002066465e-06,5.038055437247799e-06,5.6440207808583616e-05,7.809067900297053e-06,4.172644905138379e-06
223,2.1675138257533635e-06,1.8520698829149415e-06,1.470978285739277e-06,1.2586455773487374e-06,1.715868934483567e-06,1.4793403535009814e-06,2.797332345014654e-06,1.3075182214044543e-06,3.7019059170315e-06,6.667598848547294e-07,1.0083474249155537e-06,1.2421542774993323e-06,4.79116647303447e-06,5.364783035704718e-05,8.221931722692212e-06,4.394004732794633e-06
224,2.1086979116623103e-06,1.820662887083027e-06,1.5196346138505332e-06,1.2571854316498496e-06,1.7448623260262736e-06,1.4778154705749597e-06,2.7725203884890713e-06,1.2788906767358023e-06,3.627177342482401e-06,6.60168807360154e-07,9.700595407354472e-07,1.251091072953794e-06,4.5445384121400275e-06,5.086662039880511e-05,8.601710318545661e-06,4.6046344438446295e-06
225,2.0500200761605956e-06,1.7973366629274769e-06,1.5673502417946734e-06,1.2588532650308334e-06,1.7728432307205283e-06,1.4825965935003435e-06,2.7432484794449545e-06,1.2547247063821047e-06,3.554871543782658e-06,6.745578867595452e-07,9.314259106529042e-07,1.2647154139724536e-06,4.302187583317034e-06,4.810399187478348e-05,8.936658634093884e-06,4.798619851427816e-06
226,1.99192792954225e-06,1.7807336645232591e-06,1.6129148925134124e-06,1.2627962907313108e-06,1.8000990592593782e-06,1.4940583324108968e-06,2.7093337650589374e-06,1.2347711694720294e-06,3.484044037407163e-06,7.054502548774459e-07,8.925903737224066e-07,1.283692943872032e-06,4.067321559915502e-06,4.536364902949729e-05,9.215599977182208e-06,4.9702296907950075e-06
227,1.9349573590153725e-06,1.7694167424877367e-06,1.6552724835704035e-06,1.2680139557270044e-06,1.8269862465856821e-06,1.5124795112970824e-06,2.6710404892680543e-06,1.2185830775061956e-06,3.4131876814990967e-06,7.488714551989899e-07,8.536291315551061e-07,1.3084764400271592e-06,3.842345927048934e-06,4.265076799694811e-05,9.429280165723419e-06,5.114550401659017e-06
228,1.8795081417160183e-06,1.7618829174354855e-06,1.6937639054871647e-06,1.2734560530207488e-06,1.853922623694225e-06,1.538072331869793e-06,2.629013926618258e-06,1.2055428678639665e-06,3.340511124273574e-06,8.014688025547374e-07,8.145698349132081e-07,1.3392901537464687e-06,3.6288924912714386e-06,3.997426096078142e-05,9.571503378433751e-06,5.228005643038216e-06
229,1.8256813127710824e-06,1.7566870584920818e-06,1.7281855881367622e-06,1.2782433102078838e-06,1.8813144171101992e-06,1.5710059454338367e-06,2.5840133005505754e-06,1.1950273265466844e-06,3.2644583258280045e-06,8.60313963596399e-07,7.754128676449825e-07,1.3761252614178353e-06,3.427889393322803e-06,3.7345389238728714e-05,9.639394634117302e-06,5.30830559882948e-06
230,1.7733227485757482e-06,1.7526721745740444e-06,1.758664481181477e-06,1.2818902663322218e-06,1.9094431817170347e-06,1.611428635084188e-06,2.5366426714133384e-06,1.186633161648943e-06,3.1841025097857224e-06,9.225876375702706e-07,7.361926704118404e-07,1.4188095751436242e-06,3.2396622022606265e-06,3.477451054719774e-05,9.632396580761217e-06,5.353778665968636e-06
231,1.7222630896083889e-06,1.7490600242805053e-06,1.7854694179578621e-06,1.2842986867889915e-06,1.9383870270673074e-06,1.6595358527264004e-06,2.4872356719796677e-06,1.18031372561992e-06,3.0990968568746586e-06,9.85448988033889e-07,6.970262044802759e-07,1.4671349171561779e-06,3.064162724270145e-06,3.2269088050836844e-05,9.550827715606083e-06,5.362922926901086e-06
232,1.6725336407579163e-06,1.7452786653471173e-06,1.8088372941985804e-06,1.2855221521381404e-06,1.9680022509113955e-06,1.7156113137271672e-06,2.435842948561464e-06,1.176311051906743e-06,3.009333723427696e-06,1.04614950243641e-06,6.58104199345579e-07,1.520907295241436e-06,2.9013625182501674e-06,2.9835346178742507e-05,9.395590236120629e-06,5.334874288103499e-06
233,1.6243398767061911e-06,1.740760167432804e-06,1.8288798081276826e-06,1.2855661569500238e-06,1.9979946581594807e-06,1.7799987122827117e-06,2.3822284617796727e-06,1.1749361618690894e-06,2.9147162813130468e-06,1.1022067576457913e-06,6.196856253978194e-07,1.5798443021583304e-06,2.7514544798615617e-06,2.7481869487808403e-05,9.16931997731404e-06,5.2702187015103966e-06
234,1.5779365751556715e-06,1.7349564914047839e-06,1.8456345012490936e-06,1.2843970444226834e-06,2.0280477215511776e-06,1.8531709155579298e-06,2.3259033403217064e-06,1.1763954711094846e-06,2.815217501393874e-06,1.1514719785265564e-06,5.821608959210269e-07,1.6434282132039441e-06,2.614634133735087e-06,2.5220985355856997e-05,8.877599224135802e-06,5.171237585975804e-06
235,1.5336468156480663e-06,1.7274891252686111e-06,1.8591700626990912e-06,1.2820558331823837e-06,2.0578992108295156e-06,1.9359011255242907e-06,2.2662944478861914e-06,1.1807803130549555e-06,2.7112145882874135e-06,1.1921303857101812e-06,5.461420000317139e-07,1.7108407717567479e-06,2.490834238994579e-06,2.3066525436598923e-05,8.529106830858749e-06,5.041534948148116e-06
236,1.491935902384149e-06,1.7182057354578997e-06,1.8695701302000107e-06,1.2786776409342576e-06,2.0873877113302693e-06,2.0292533681209394e-06,2.203134405431709e-06,1.188127447951968e-06,2.6038274468842547e-06,1.2227672656354123e-06,5.124581623612989e-07,1.7810084469091701e-06,2.379829017135823e-06,2.103031080521964e-05,8.13477253370731e-06,4.885495443529505e-06
237,1.4533817174904448e-06,1.707096715266428e-06,1.8768015885622397e-06,1.274376853246925e-06,2.1165747913899442e-06,2.1343081294761598e-06,2.136909344378492e-06,1.1984124480142817e-06,2.494794459122772e-06,1.2424621018052721e-06,4.82034193848848e-07,1.8527988338791435e-06,2.281601139877113e-06,1.912017722450993e-05,7.706511004683404e-06,4.7077837223967105e-06
238,1.418587553610299e-06,1.6941860332434774e-06,1.8806329594748724e-06,1.26914539355487e-06,2.1458680091253236e-06,2.2518767751781765e-06,2.068980753890695e-06,1.2114856285459438e-06,2.386014869963955e-06,1.2507223803681254e-06,4.557712339072706e-07,1.925355925696064e-06,2.1965677899377394e-06,1.7340182956830174e-05,7.2560332415247245e-06,4.512854034685773e-06
239,1.3880977245447615e-06,1.6794987753293735e-06,1.8806554363200425e-06,1.2628947954466886e-06,2.175949628391116e-06,2.3824158256460955e-06,2.0012774748291034e-06,1.2270456034702996e-06,2.2792564644208026e-06,1.2472498519787112e-06,4.345328683558748e-07,1.9983584486358865e-06,2.1254789345244915e-06,1.5691700361430552e-05,6.794018558662033e-06,4.304619909829163e-06
240,1.3623184878587712e-06,1.6631131914044672e-06,1.876295728846064e-06,1.2555944849291926e-06,2.207493538379223e-06,2.526112213192947e-06,1.9358395186210045e-06,1.2446602465110274e-06,2.1760334951172294e-06,1.231758322436157e-06,4.192437812750299e-07,2.0719707871378197e-06,2.0691457486828968e-06,1.4174147663583008e-05,6.329727209921855e-06,4.086553532849987e-06
241,1.3414809296314382e-06,1.645226899164915e-06,1.8667720436046729e-06,1.2473603670640664e-06,2.2409158370882513e-06,2.6829726646385886e-06,1.874493581659783e-06,1.2637800615067072e-06,2.07750736927221e-06,1.203932243162942e-06,4.1101029578869285e-07,2.146515326528243e-06,2.0282047461699046e-06,1.2785244873079779e-05,5.8709860987846985e-06,3.862111008784062e-06
242,1.3256460441920086e-06,1.62616152339185e-06,1.8511375945578777e-06,1.2384213464268142e-06,2.276444969559904e-06,2.8527764162940848e-06,1.8187284360674722e-06,1.283767075905813e-06,1.9844507194200312e-06,1.1634584294979512e-06,4.1115025029957457e-07,2.2221720176081448e-06,2.0029773623006594e-06,1.1521242609079226e-05,5.424351154066167e-06,3.6350305961701867e-06
243,1.314690917394915e-06,1.6062834627171454e-06,1.8285571708937597e-06,1.2290140719284094e-06,2.314491702347734e-06,3.034917743484997e-06,1.7697089123658777e-06,1.3040232547996084e-06,1.8972907392461761e-06,1.1101784063319099e-06,4.211448416655773e-07,2.2990425688573237e-06,1.9934199255928977e-06,1.0377390343650548e-05,4.99522642542813e-06,3.4092227703127683e-06
244,1.3082754335590936e-06,1.5858936246374582e-06,1.7986962317608037e-06,1.2192970631058338e-06,2.3559434472144915e-06,3.2282674010655005e-06,1.728333125341035e-06,1.324190465976359e-06,1.8162784946497863e-06,1.0443442449141695e-06,4.4258920388540345e-07,2.3775457520700624e-06,1.999168739093397e-06,9.34849197025843e-06,4.58789731829971e-06,3.1883790146094946e-06
245,1.3058266135162487e-06,1.565218009184452e-06,1.761929761950897e-06,1.2093285016955476e-06,2.402099491900638e-06,3.43110771798233e-06,1.6952749435362783e-06,1.344245715135863e-06,1.7417509851702557e-06,9.667056271627497e-07,4.771583265646013e-07,2.458683178251576e-06,2.019658056329246e-06,8.429148613229412e-06,4.205566401185365e-06,2.9756253014094e-06
246,1.3065447476886224e-06,1.5445474945283856e-06,1.7192346688113514e-06,1.1991075453727153e-06,2.4543725168706804e-06,3.641185266609651e-06,1.6710483530872056e-06,1.3643916793931317e-06,1.6742262218179856e-06,8.78330251677485e-07,5.266000243153682e-07,2.5438475010516817e-06,2.054192257604338e-06,7.613546772517287e-06,3.850434809174394e-06,2.7734388235301536e-06
247,1.3094431368327497e-06,1.524331376960862e-06,1.6718750033826288e-06,1.1886624536153212e-06,2.514039508589103e-06,3.855918760268014e-06,1.6560977978265736e-06,1.384866286036613e-06,1.6142436521490506e-06,7.804480598544009e-07,5.927530369535047e-07,2.6343851319458792e-06,2.101864291637643e-06,6.895193386552113e-06,3.523848749154353e-06,2.583784633303347e-06
248,1.3134455596523437e-06,1.5050622441461922e-06,1.6210786795698963e-06,1.1781238819795857e-06,2.5821271153697384e-06,4.07255949051126e-06,1.6508103792660442e-06,1.4058201905050306e-06,1.5622103994946496e-06,6.745065643094996e-07,6.775608974621483e-07,2.731285709039784e-06,2.161419412140854e-06,6.267074456646541e-06,3.2264783108236013e-06,2.4082502379699252e-06
249,1.3175593293527929e-06,1.48708968090228e-06,1.5678586884695162e-06,1.1677016591749615e-06,2.659318990254013e-06,4.288115347026051e-06,1.6554285039002535e-06,1.4272800432651478e-06,1.5184309270905853e-06,5.622901781721873e-07,7.831632067278983e-07,2.8350740602582134e-06,2.2312365535212355e-06,5.722149837514035e-06,2.9584244056040893e-06,2.248049458822952e-06
250,1.321096295273283e-06,1.4705578585262859e-06,1.5129950827028128e-06,1.1575870035755965e-06,2.745825180225551e-06,4.499364912956542e-06,1.6699709232758528e-06,1.4492057983677367e-06,1.4832322858173645e-06,4.460420735577299e-07,9.121289996697862e-07,2.9458054421351605e-06,2.3093960116328373e-06,5.253665411532664e-06,2.719286210490879e-06,2.1039732431119732e-06
251,1.323822102810599e-06,1.4554749762948983e-06,1.4570822289687288e-06,1.1478877815081972e-06,2.841289054467212e-06,4.703342880629678e-06,1.6942376579609376e-06,1.4716160491665776e-06,1.45704466009626e-06,3.28669480898844e-07,1.0676451415973098e-06,3.0630925733631514e-06,2.3937250190077045e-06,4.855008952327125e-06,2.5082863966402205e-06,1.9763692687092145e-06
252,1.32592269905082e-06,1.4417961876685544e-06,1.4006159043851237e-06,1.1386163231981003e-06,2.9447742269140613e-06,4.898034525938587e-06,1.7278743950839378e-06,1.4946214715714147e-06,1.4404179263174682e-06,2.138607542905653e-07,1.2534729601937282e-06,3.18614133961327e-06,2.4818890211143344e-06,4.519339476831252e-06,2.324361546854051e-06,1.8651347015019828e-06
253,1.3278191249573742e-06,1.4294256826059934e-06,1.3441606096346123e-06,1.12967056188385e-06,3.054781007212338e-06,5.082776997773849e-06,1.7703986388255286e-06,1.5182859471647427e-06,1.434078279233134e-06,1.0594390262720277e-07,1.473761330080268e-06,3.3138827500352773e-06,2.571591631247777e-06,4.239380072885094e-06,2.1661588943999663e-06,1.7697327619518509e-06
254,1.3299583003084023e-06,1.4181692121368932e-06,1.2885175214987865e-06,1.120833952271816e-06,3.1692677943494224e-06,5.2582230296315074e-06,1.8211383049663365e-06,1.5424694449503906e-06,1.438999945643231e-06,9.691123053870826e-09,1.7328974987580697e-06,3.4453277641873414e-06,2.6607470698996296e-06,4.007537485021216e-06,2.0320989241940183e-06,1.6892986357530736e-06
255,1.3326964599064918e-06,1.4077101700776646e-06,1.2347435931228645e-06,1.1118854536719154e-06,3.285757898818325e-06,5.425969674716971e-06,1.8792163191292879e-06,1.5668519615494104e-06,1.4563068113124217e-06,-6.976380709327031e-08,2.0354371955188665e-06,3.5800653513946856e-06,2.747517225738129e-06,3.816243831298631e-06,1.9205644023835095e-06,1.622816986505688e-06
256,1.3363152369101418e-06,1.3976008931640763e-06,1.1840064222955817e-06,1.1027936135607403e-06,3.401698359484771e-06,5.5879519558526064e-06,1.9437504578642668e-06,1.5911515011392366e-06,1.4870405876504542e-06,-1.2699493465567683e-07,2.3860144781108918e-06,3.718606232572126e-06,2.830290201811154e-06,3.6583509389245514e-06,1.8300359816497033e-06,1.5692205250428592e-06
257,1.341085113058291e-06,1.387258740390568e-06,1.1373994620851248e-06,1.0938333508538025e-06,3.515084933169702e-06,5.745786995464356e-06,2.014149991197425e-06,1.615320298865383e-06,1.5320473479687715e-06,-1.5638244461442851e-07,2.789139535102815e-06,3.862360465251735e-06,2.9076817850963615e-06,3.527394035733964e-06,1.7590382095211303e-06,1.5273380525819264e-06
258,1.347282274979007e-06,1.376001410911148e-06,1.0958355608963159e-06,1.0855361964550316e-06,3.625031385687181e-06,5.900439800816125e-06,2.0901756049502362e-06,1.6395206771182878e-06,1.592055681060449e-06,-1.5217864353269609e-07,3.2489304139113143e-06,4.013324938059755e-06,2.9784735632021705e-06,3.4175142554783517e-06,1.7060112813512171e-06,1.4958313481194324e-06
259,1.3551679162997944e-06,1.3631587042684633e-06,1.060055339499695e-06,1.0785390770073911e-06,3.731942691930982e-06,6.052336070558857e-06,2.1717065975004194e-06,1.6639777131890309e-06,1.6677750233321143e-06,-1.08528419488659e-07,3.768887084761363e-06,4.173686938784029e-06,3.041403673195617e-06,3.3231688878045544e-06,1.6693114444473827e-06,1.47322460121081e-06
260,1.364944206040682e-06,1.348264293119882e-06,1.0307182145835832e-06,1.073439943786787e-06,3.8372326509689345e-06,6.201552949139872e-06,2.2585192056298988e-06,1.6888977338259573e-06,1.7598770307709442e-06,-1.9418083296222134e-08,4.351728300547749e-06,4.345431940474408e-06,3.095026955662253e-06,3.2391533317175954e-06,1.647335933576355e-06,1.4579445202058159e-06
261,1.3767102171821432e-06,1.3311788948564227e-06,1.0084827242838701e-06,1.0707520259728505e-06,3.942726927992537e-06,6.347819260844005e-06,2.350259394732279e-06,1.7144357573992116e-06,1.8689117833316933e-06,1.2151664040678546e-07,4.9992480205631164e-06,4.529977022226354e-06,3.1379019911676907e-06,3.161071412286481e-06,1.638576045918809e-06,1.4483585819167143e-06
262,1.390456417328135e-06,1.3120271168699033e-06,9.939988981154556e-07,1.0709441525719195e-06,4.0500321221822455e-06,6.4904682082992345e-06,2.4465268697634513e-06,1.7406513693067147e-06,1.9952184073296753e-06,3.212957611570358e-07,5.712170979239438e-06,4.727944363265471e-06,3.1689491030685506e-06,3.0857965565161374e-06,1.6415140293619546e-06,1.4429572278503323e-06
263,1.4060618885444594e-06,1.2911427038815576e-06,9.87856831141468e-07,1.0744371387394105e-06,4.1601468101551734e-06,6.628449678713918e-06,2.5469901068845292e-06,1.767464761173862e-06,2.1388446809966965e-06,5.87841816719014e-07,6.490031951882101e-06,4.9391709951295274e-06,3.187656467670588e-06,3.0115842743824604e-06,1.6545178204031282e-06,1.440681235670329e-06
264,1.4232922789120067e-06,1.2691708846433951e-06,9.905498492793379e-07,1.0815345210123348e-06,4.273319876082426e-06,6.7602616614764264e-06,2.651483828452028e-06,1.7946340175462632e-06,2.299586962157812e-06,9.300238680638328e-07,7.331125792450229e-06,5.162908642311271e-06,3.1940861364370645e-06,2.9378015593742267e-06,1.6758875043827171e-06,1.4411591509998992e-06
265,1.4418407546743896e-06,1.247127047620948e-06,1.0024331731186078e-06,1.092373312209172e-06,4.389007077425359e-06,6.883819532687954e-06,2.75998411851203e-06,1.8217770401216183e-06,2.4772216222718756e-06,1.3575306092349368e-06,8.232514164978435e-06,5.398095531456905e-06,3.1888272890960697e-06,2.8643446584173037e-06,1.7039788886859474e-06,1.444688145446519e-06
266,1.4613478599085527e-06,1.2262411134547635e-06,1.0236943467570565e-06,1.1068939714859796e-06,4.505870122705123e-06,6.996519418598465e-06,2.8724197230742423e-06,1.8483975897040409e-06,2.6718092783431817e-06,1.8806558113466452e-06,9.190011315261567e-06,5.64355794359106e-06,3.1729578470944366e-06,2.791027890806417e-06,1.7372232837878157e-06,1.452029047784529e-06
267,1.4813315558588829e-06,1.2077029972401015e-06,1.054375478435972e-06,1.1248158508456405e-06,4.621849296903488e-06,7.095425471800639e-06,2.988447063678944e-06,1.8738880857952899e-06,2.8838181602267707e-06,2.5100523558354743e-06,1.0198124871293914e-05,5.89801886596432e-06,3.1479511655532785e-06,2.7172494768105245e-06,1.7740022334452306e-06,1.464151919035083e-06
268,1.5010897771743732e-06,1.1924902205100336e-06,1.0944058470496e-06,1.145671603856162e-06,4.7344446628827315e-06,7.177463663121384e-06,3.1073823774535692e-06,1.8975740194554938e-06,3.113904240213189e-06,3.256616986201678e-06,1.1249984215750717e-05,6.1598662995785006e-06,3.115482739366765e-06,2.641978353450871e-06,1.8125047301281533e-06,1.481997042925265e-06
269,1.519701932416661e-06,1.1813317603252387e-06,1.1435918929796836e-06,1.1689326731312863e-06,4.841267231292499e-06,7.2399752405831925e-06,3.2283514039006568e-06,1.918818406546608e-06,3.362555280171214e-06,4.131504766703846e-06,1.233718890353789e-05,6.426737922660754e-06,3.0771571228856852e-06,2.5640305184254226e-06,1.8507089885044754e-06,1.5062943788720473e-06
270,1.5362337059105905e-06,1.1747748674773138e-06,1.2015922521973355e-06,1.1941846016955554e-06,4.9405847983863325e-06,7.2815527344972335e-06,3.350497359429526e-06,1.937142902401553e-06,3.6298789356763813e-06,5.1459215781204086e-06,1.3449450750371548e-05,6.695150394096037e-06,3.034208842388042e-06,2.4825404778348104e-06,1.886476345689331e-06,1.5374797185594638e-06
271,1.5500965919764134e-06,1.1732996448231943e-06,1.2679575590399127e-06,1.2212503046849799e-06,5.0315320598263835e-06,7.302314918679305e-06,3.473002619282535e-06,1.9523373079817635e-06,3.915536737758392e-06,6.3105884344095425e-06,1.457420121444991e-05,6.960463158610059e-06,2.987281222821015e-06,2.397248201536396e-06,1.917640345138282e-06,1.5756933711801775e-06
272,1.561261905904105e-06,1.1774026694212756e-06,1.342310309281168e-06,1.250176422978989e-06,5.113908378480357e-06,7.303251437811462e-06,3.594898684487055e-06,1.964502756486658e-06,4.218757756347154e-06,7.63519802173904e-06,1.5696518555162707e-05,7.217258782667349e-06,2.9363934963708663e-06,2.3083229888745704e-06,1.9421298045914904e-06,1.6208067025864119e-06
273,1.5701104946351796e-06,1.18758592354545e-06,1.4245777167216112e-06,1.2811100067380996e-06,5.187660149497034e-06,7.2853316971797205e-06,3.714937163131591e-06,1.973964831521628e-06,4.53834977158054e-06,9.128094598305363e-06,1.679932169968827e-05,7.45993891094354e-06,2.8811336058302817e-06,2.2160557320519326e-06,1.9582713603363545e-06,1.6724618432643129e-06
274,1.5771485075130635e-06,1.204261995571346e-06,1.5150283972661342e-06,1.314175876782414e-06,5.252326882155012e-06,7.249249365139754e-06,3.831659227276889e-06,1.9811002016821264e-06,4.872687952727673e-06,1.079623923137312e-05,1.7863492839936736e-05,7.683167088817623e-06,2.8210376974792064e-06,2.1207794579304682e-06,1.965161748131196e-06,1.730147605406082e-06
275,1.5828747079367951e-06,1.2276467607534097e-06,1.6140913642875827e-06,1.3494190717168342e-06,5.306873835612306e-06,7.1958326518924625e-06,3.943495087262293e-06,1.9861986310071277e-06,5.219902882291203e-06,1.264541514137564e-05,1.886789262032009e-05,7.881800953474887e-06,2.7560037698600438e-06,2.0228349509712964e-06,1.96276482939605e-06,1.793258045674593e-06
276,1.587744667123855e-06,1.2577031716060354e-06,1.722173897213769e-06,1.3867894710331554e-06,5.350042423273241e-06,7.126538078295691e-06,4.04883820554241e-06,1.9893887645862826e-06,5.578296245721842e-06,1.4680323007059278e-05,1.9789660159769115e-05,8.050367945910598e-06,2.6865102611482696e-06,1.922458886875483e-06,1.9516219620480716e-06,1.8610508601388913e-06
277,1.5921561001734818e-06,1.2941415157358982e-06,1.8395449142222974e-06,1.4261251253010749e-06,5.380841284124883e-06,7.043649187660344e-06,4.146188793047447e-06,1.990586565800725e-06,5.946555717527804e-06,1.6904152174188557e-05,2.0605419798399378e-05,8.182871774231394e-06,2.613549049333421e-06,1.8197394259361403e-06,1.9325131657423286e-06,1.93257477687778e-06
278,1.596459319023215e-06,1.3364566009306746e-06,1.966237892838856e-06,1.4671247747240944e-06,5.39872999301873e-06,6.95010166624553e-06,4.234339273022661e-06,1.989555511674222e-06,6.323458683112761e-06,1.9317679106578746e-05,2.129371530516978e-05,8.273624073027576e-06,2.538387628408873e-06,1.714626396997709e-06,1.9064383997623628e-06,2.0067198056515e-06
279,1.6009391685142466e-06,1.3840137790996423e-06,2.101983146617977e-06,1.5093735384494478e-06,5.403388367849209e-06,6.848985030768374e-06,4.31253738908906e-06,1.986174507516892e-06,6.707281980310559e-06,2.191834275181988e-05,2.183789355845561e-05,8.318599573300633e-06,2.462322806542539e-06,1.60699339385256e-06,1.874827482870728e-06,2.0823797759455803e-06
280,1.6058315160572663e-06,1.4361570755899215e-06,2.246168745453657e-06,1.552487595097562e-06,5.394286605673398e-06,6.742942660797456e-06,4.380568083820065e-06,1.9807470588190798e-06,7.095342272045194e-06,2.4699593138303662e-05,2.222753942329751e-05,8.316183385646874e-06,2.3865215283777704e-06,1.496838211366107e-06,1.8395859769057589e-06,2.1585677713788017e-06
281,1.611444476496187e-06,1.4922258265882895e-06,2.397816821490849e-06,1.5962666414545861e-06,5.370417209930119e-06,6.633777751254974e-06,4.438580915608674e-06,1.974098428502137e-06,7.483861583496504e-06,2.765046589226072e-05,2.245699550448653e-05,8.266698264742929e-06,2.3119507396074062e-06,1.384485625314518e-06,1.8028245138664156e-06,2.234399846329222e-06
282,1.6182241382783057e-06,1.551434859060048e-06,2.555639143951267e-06,1.6406637303897192e-06,5.330437837764041e-06,6.522397714912683e-06,4.486595477494315e-06,1.967422252386774e-06,7.868139074140542e-06,3.075531769420032e-05,2.2522248983091566e-05,8.171142092593095e-06,2.239358808273971e-06,1.2705963836608615e-06,1.7664982897223988e-06,2.308996686624675e-06
283,1.6266436219859472e-06,1.6127500305894894e-06,2.718227683807509e-06,1.6856147209636129e-06,5.273082106525075e-06,6.40888428368954e-06,4.523966600448323e-06,1.9620222817453736e-06,8.243019189433715e-06,3.399384839227813e-05,2.241982949104546e-05,8.030527612855823e-06,2.169320960989431e-06,1.1560342100969347e-06,1.732210540998493e-06,2.381405596348075e-06
284,1.6370525359707451e-06,1.6749435944323506e-06,2.88425974110714e-06,1.7309648422758113e-06,5.197340020874881e-06,6.292423075811519e-06,4.549114424800691e-06,1.959097032292203e-06,8.603602108423648e-06,3.734173239033432e-05,2.2149173575482916e-05,7.846598728390704e-06,2.1023139988602347e-06,1.041795580242079e-06,1.7011826629664878e-06,2.45061762921711e-06
285,1.6496279019387735e-06,1.7368753708913945e-06,3.0525498476351803e-06,1.7765806357565872e-06,5.10220576147205e-06,6.171273872105812e-06,4.559608222977312e-06,1.9596096788344236e-06,8.945928898054561e-06,4.0772473579317914e-05,2.1715779312611975e-05,7.622912945826337e-06,2.0387118547926006e-06,9.290955661878966e-07,1.6742752582872658e-06,2.515676235619159e-06
286,1.6644191854251971e-06,1.7978392648165765e-06,3.2219425335496694e-06,1.822480223466077e-06,4.986588226022653e-06,6.043162730086215e-06,4.552704877841632e-06,1.9642091763965974e-06,9.267182686854212e-06,4.426072927382553e-05,2.1132363972742804e-05,7.365035629534279e-06,1.9787686739600426e-06,8.194536761517239e-07,1.6520551180209891e-06,2.5758136831763024e-06
287,1.681498677220328e-06,1.857745494976594e-06,3.39112899136475e-06,1.8688025457334209e-06,4.849903879833886e-06,5.90601664141715e-06,4.526312465887371e-06,1.973196338214008e-06,9.565138172408417e-06,4.7785103613094095e-05,2.0417817624884123e-05,7.079811315919295e-06,1.922698549731182e-06,7.146128787963736e-07,1.63496290145738e-06,2.630552991910744e-06
288,1.7011523735039647e-06,1.9170485862594507e-06,3.5584333816899824e-06,1.9156402528287195e-06,4.6928957480915836e-06,5.758599908331285e-06,4.479893523746741e-06,1.9865777778294646e-06,9.837417812030249e-06,5.1327784857009724e-05,1.9594981405420166e-05,6.774318223180028e-06,1.8707069792026092e-06,6.163911390325054e-07,1.623511005286947e-06,2.6797435099182893e-06
289,1.7238870902152994e-06,1.976495810906825e-06,3.7216276990671768e-06,1.9628872820815126e-06,4.517998487998807e-06,5.600768817235394e-06,4.414695134545896e-06,2.0041958967589358e-06,1.008163305160879e-05,5.487390172344001e-05,1.868816184060637e-05,6.45497976554932e-06,1.8229049006243104e-06,5.266522772379994e-07,1.6183346226971639e-06,2.723513811687053e-06
290,1.7502782111726254e-06,2.0368446969872407e-06,3.877897933170911e-06,2.0101697849879215e-06,4.329115372442452e-06,5.433387199183194e-06,4.333154298131684e-06,2.0258046091055787e-06,1.0296507415992022e-05,5.841553782849454e-05,1.7720896196182545e-05,6.127134206246691e-06,1.7792818205601564e-06,4.473871487935418e-07,1.6200419391193414e-06,2.7621404098367844e-06
291,1.7808826506739607e-06,2.098746032264781e-06,4.024031365813959e-06,2.0568468298969536e-06,4.130970277250436e-06,5.258129834613159e-06,4.237937436507313e-06,2.050993280220323e-06,1.048280848062506e-05,6.195586817278667e-05,1.6714248304341457e-05,5.795173985609095e-06,1.739770839244141e-06,3.807503308212634e-07,1.6290191387136174e-06,2.795855199560402e-06
292,1.8161808714363732e-06,2.1628579870747848e-06,4.156774455432361e-06,2.102112584563916e-06,3.9283468163168375e-06,5.077302517387334e-06,4.131306529970872e-06,2.0790532841602164e-06,1.0643181035740709e-05,6.550483192075523e-05,1.568592968879786e-05,5.463012500270427e-06,1.7043068294282667e-06,3.290099521525732e-07,1.645330852276921e-06,2.8246371964174054e-06
293,1.8564400773222924e-06,2.229958322121509e-06,4.273283822286074e-06,2.1451904236625436e-06,3.7256126756101202e-06,4.893588957261566e-06,4.015097408529797e-06,2.108933430165475e-06,1.0781010605185537e-05,6.906869745286595e-05,1.4650329850116912e-05,5.134447789942136e-06,1.6729035851844523e-06,2.9454437598585564e-07,1.6686945392297494e-06,2.848087760679238e-06
294,1.9015833339175653e-06,2.3008341846927094e-06,4.3715753894915715e-06,2.185467327582466e-06,3.526585981511791e-06,4.709625883296932e-06,3.890998663959271e-06,2.13929909371379e-06,1.0898959836545325e-05,7.26428163565156e-05,1.3619067687014737e-05,4.813212748237103e-06,1.64573791707358e-06,2.799579530540838e-07,1.6984681008804552e-06,2.8654950742680843e-06
295,1.951135260556874e-06,2.376056028657613e-06,4.450796896217448e-06,2.2224394114371863e-06,3.334467301845017e-06,4.5275349522377215e-06,3.7607597895654404e-06,2.1685990865244436e-06,1.099785275415833e-05,7.621036653481097e-05,1.2601592488490946e-05,4.502859658602321e-06,1.623118213589693e-06,2.882704733239912e-07,1.733666578121132e-06,2.876068750361117e-06
296,2.0042238109600013e-06,2.4558608629484077e-06,4.511166417446253e-06,2.2555131107884e-06,3.1517785875557468e-06,4.34872366133808e-06,3.6262880993792146e-06,2.195077410267833e-06,1.1076168060773985e-05,7.974287844225506e-05,1.1605675487015943e-05,4.206699661650183e-06,1.605353515761649e-06,3.2316185073500985e-07,1.7730924280066129e-06,2.879211063095914e-06
297,2.0596597381080554e-06,2.5401667409839214e-06,4.553617908707676e-06,2.283833436592488e-06,2.980466363642929e-06,4.174074606612672e-06,3.4897228360888445e-06,2.2168493394116013e-06,1.1130047213191132e-05,8.320002343393242e-05,1.0637812020293501e-05,3.927792075920157e-06,1.5926478995304739e-06,3.891271410878706e-07,1.8155539145763347e-06,2.8746809910809873e-06
298,2.1160981236319493e-06,2.628565373893814e-06,4.5793871996418955e-06,2.30630172529298e-06,2.8221367807661515e-06,4.004254967017114e-06,3.3534098919302704e-06,2.232183962369434e-06,1.115412520404975e-05,8.653104502827817e-05,9.703504256090322e-06,3.668883214731077e-06,1.585043458315521e-06,4.913140385127239e-07,1.859951363904969e-06,2.862595915540621e-06
299,2.172143475341637e-06,2.7202466910145705e-06,4.5897242122358415e-06,2.3218149347904568e-06,2.6782335881202083e-06,3.839870977757628e-06,3.219673164677759e-06,2.2398962895996594e-06,1.114340894260546e-05,8.967865286028386e-05,8.807360671257722e-06,3.432344643008725e-06,1.5823932980920783e-06,6.351579769677094e-07,1.9051531450253042e-06,2.8433529708542544e-06
300,2.226326597636395e-06,2.8140314168672564e-06,4.585674372156907e-06,2.329613208491928e-06,2.5500422089486595e-06,3.681473737014441e-06,3.0905740712424905e-06,2.239595260643938e-06,1.1095238105988134e-05,9.258118336749881e-05,7.953080601964176e-06,3.2202192467226278e-06,1.584383101245156e-06,8.26112079623229e-07,1.9498966322109343e-06,2.817567733183006e-06
301,2.277171941124305e-06,2.9086727763627708e-06,4.567802213533184e-06,2.329547505162462e-06,2.4385503514038973e-06,3.5295220585974297e-06,2.9678593174836297e-06,2.2315802376530744e-06,1.101003596136358e-05,9.51728319391022e-05,7.143498925834237e-06,3.034315122349739e-06,1.590615566805451e-06,1.0695290093350616e-06,1.9929031121529575e-06,2.786028277741216e-06
302,2.323529781082034e-06,3.003334100422681e-06,4.535975113394356e-06,2.3221152657519645e-06,2.344321361764005e-06,3.3843331433353937e-06,2.8529973424328473e-06,2.2164231147727633e-06,1.0890688280569221e-05,9.738996137821074e-05,6.380767242377372e-06,2.876180913819213e-06,1.6007178091834378e-06,1.3706186670501561e-06,2.0330954687662905e-06,2.7495850232432025e-06
303,2.364953972085869e-06,3.097989827409569e-06,4.489425960293885e-06,2.3082686630790213e-06,2.2674742499261975e-06,3.24600745671806e-06,2.7471842024093827e-06,2.1945839393896343e-06,1.0741201501717888e-05,9.918454344834669e-05,5.666590566959505e-06,2.746985983164906e-06,1.6143536994805991e-06,1.7344196480749518e-06,2.0696721206580374e-06,2.7089239035847365e-06
304,2.4018083782749614e-06,3.193553879911537e-06,4.427096167654386e-06,2.289147124116181e-06,2.2076896224995905e-06,3.1143585494272808e-06,2.6512685694056912e-06,2.1663627841423657e-06,1.0565248868641486e-05,0.0001005311218208777,5.00237076974306e-06,2.6475051212668597e-06,1.6311460913394334e-06,2.1657353572793554e-06,2.1019457484969827e-06,2.6643467875367157e-06
305,2.4350687402185657e-06,3.2916875009928943e-06,4.34813561878341e-06,2.2658682558539802e-06,2.1641848460094366e-06,2.9889416906640773e-06,2.5656282719224996e-06,2.1321224060685297e-06,1.0365253422934888e-05,0.00010141875442756608,4.3891743561213705e-06,2.5782176244808383e-06,1.6506795388271266e-06,2.669042162353696e-06,2.1291229523737837e-06,2.615789924981107e-06
306,2.466001791980771e-06,3.3944073513475907e-06,4.2524195488461346e-06,2.2393956896993282e-06,2.1357320236884095e-06,2.8692313468933686e-06,2.490190331050301e-06,2.092509912690313e-06,1.0142529268077789e-05,0.00010183978558407946,3.827596380040049e-06,2.53932678059461e-06,1.6725976478815844e-06,3.2484078101528592e-06,2.150253976211735e-06,2.5631381847649246e-06
307,2.495871869167031e-06,3.5036974694660837e-06,4.140865023136102e-06,2.210505514165556e-06,2.1207872893794077e-06,2.7548545137185107e-06,2.424638872256171e-06,2.0484692799827844e-06,9.898364742157397e-06,0.00010179225120792255,3.31765732597571e-06,2.530690232917078e-06,1.6966611821058776e-06,3.907447490568702e-06,2.164380167733448e-06,2.5065814222096585e-06
308,2.5257023999165796e-06,3.621225400660433e-06,4.015396682686816e-06,2.1799355608597815e-06,2.1176577779384038e-06,2.6457223205588063e-06,2.3685661437569935e-06,2.00103245436545e-06,9.635462972588455e-06,0.00010129482364501353,2.8587949051712884e-06,2.5518641145041165e-06,1.7227332701430025e-06,4.649289036870565e-06,2.1707596093501253e-06,2.446667481008821e-06
309,2.5560858116240984e-06,3.748138416376957e-06,3.878652320556737e-06,2.148643433374797e-06,2.124540977231676e-06,2.5419987221475093e-06,2.321408182497491e-06,1.9510860280432143e-06,9.358773298716393e-06,0.00010039760226606111,2.4499196034050737e-06,2.6023309210131696e-06,1.7507169989986796e-06,5.47646214076224e-06,2.16902466670031e-06,2.384078225512055e-06
310,2.5870879416010503e-06,3.884961722491561e-06,3.733651008065266e-06,2.117899391121676e-06,2.139454593242934e-06,2.4439758113002578e-06,2.2823193283775196e-06,1.8992703112800381e-06,9.074850734569222e-06,9.917677380748876e-05,2.089470917819882e-06,2.681749644924614e-06,1.7804658250918467e-06,6.390732131912164e-06,2.1591282758721386e-06,2.319494301822569e-06
311,2.618313559135291e-06,4.031663445506551e-06,3.5835556518785972e-06,2.0890891563959363e-06,2.1602878804193562e-06,2.351963867356488e-06,2.250129018562917e-06,1.8459512100168564e-06,8.790224350310721e-06,9.771682578521364e-05,1.7754544334991347e-06,2.790026662197565e-06,1.811746901778064e-06,7.393013439470503e-06,2.141135927407078e-06,2.2536454210764598e-06
312,2.6491241479931303e-06,4.187787805417707e-06,3.4314870356248958e-06,2.0634136051837694e-06,2.1850880928321904e-06,2.2662462556078353e-06,2.223319639038331e-06,1.7912069064029977e-06,8.510264997092788e-06,9.609364415673514e-05,1.5054977558909747e-06,2.9271618596159636e-06,1.8442946540641494e-06,8.48331062296397e-06,2.1151977848790572e-06,2.1872988565528845e-06
313,2.6788670709473425e-06,4.352458859065885e-06,3.280297798640191e-06,2.041743274549541e-06,2.2124407542817575e-06,2.1870709466922297e-06,2.2000665363545833e-06,1.7349180612795195e-06,8.239209771347748e-06,9.436691404319448e-05,1.2769459479940153e-06,3.0930165041368297e-06,1.8778703716762989e-06,9.660474299194642e-06,2.0818374849182254e-06,2.1211188032838103e-06
314,2.706948554176296e-06,4.524316407947735e-06,3.132348968757457e-06,2.024689470473312e-06,2.2416847832748986e-06,2.1146421301559123e-06,2.1785067646227043e-06,1.6770144141750321e-06,7.980584971082492e-06,9.257912381261123e-05,1.0869541484703056e-06,3.2871470218963362e-06,1.9122510276673694e-06,1.0921867770306302e-05,2.0421953254778337e-06,2.055594942306572e-06
315,2.732761348889711e-06,4.701651791100626e-06,2.9893900775798843e-06,2.012729681233381e-06,2.2727806668211006e-06,2.0491078151691636e-06,2.157169931308653e-06,1.6176898587831743e-06,7.737211921941562e-06,9.075629030851441e-05,9.325278241160735e-07,3.5087012107671576e-06,1.9471810620087396e-06,1.226327861986265e-05,1.9978789319949476e-06,1.9911330629676332e-06
316,2.755655882211787e-06,4.882738503478151e-06,2.8525334357397724e-06,2.0062083706519003e-06,2.3059031487791075e-06,1.9905145673658973e-06,2.1352583682468655e-06,1.5573634399182235e-06,7.511000046221908e-06,8.891003904645857e-05,8.105227289989021e-07,3.7563798170834947e-06,1.982461635170766e-06,1.367909222995389e-05,1.9505559450466463e-06,1.928185950665322e-06
317,2.775090645915466e-06,5.0660669679832585e-06,2.7223065459972293e-06,2.0052175490416434e-06,2.3410421566336795e-06,1.9386928411627175e-06,2.1125465546074795e-06,1.496531760193167e-06,7.302931719252646e-06,8.704173131374994e-05,7.176542815867269e-07,4.028544346340066e-06,2.018198528911591e-06,1.5162461736606394e-05,1.9016407104807685e-06,1.8673078579553883e-06
318,2.7909066958377406e-06,5.250329725056553e-06,2.5988198076183992e-06,2.0095017656415313e-06,2.377824306768082e-06,1.8931223519436983e-06,2.0890149008859178e-06,1.4357381885088346e-06,7.11320280907706e-06,8.514763366021782e-05,6.505500891758759e-07,4.323460748833688e-06,2.0548624461738056e-06,1.6705346594284763e-05,1.852210756253048e-06,1.8091423511920043e-06
319,2.8035499200394143e-06,5.434243059384045e-06,2.4819684902894586e-06,2.0185187110820513e-06,2.415506644371381e-06,1.852876710057177e-06,2.0646296669430767e-06,1.3755729342431998e-06,6.94159332380995e-06,8.322387071932864e-05,6.058484300461015e-07,4.639587356060086e-06,2.0929923683035533e-06,1.8298456293229475e-05,1.8030658347762569e-06,1.7543703048992362e-06
320,2.814081457274176e-06,5.61635105003502e-06,2.371507533621399e-06,2.0316549105960534e-06,2.4529985695871605e-06,1.8167159533621513e-06,2.039494390040973e-06,1.3166263027635565e-06,6.787988181809272e-06,8.127025071148921e-05,5.803191179358048e-07,4.975795771381912e-06,2.1328370130327565e-06,1.9931081805811548e-05,1.7548578801939869e-06,1.703612870432616e-06
321,2.8239431013320053e-06,5.794895479988359e-06,2.267037731438847e-06,2.048399592091762e-06,2.4889455828483814e-06,1.7833213239043473e-06,2.014093173605443e-06,1.2594551404556329e-06,6.652485883642048e-06,7.929089071028994e-05,5.709810912881415e-07,5.331339232553205e-06,2.1742056609142934e-06,2.15907278152306e-05,1.7082201981110994e-06,1.6573226353322398e-06
322,2.834600332746414e-06,5.967709548046141e-06,2.168100349872988e-06,2.0682741400164964e-06,2.5219942654158186e-06,1.7515412976895594e-06,1.989259633138599e-06,1.2046056757214567e-06,6.534897522565951e-06,7.728985303523054e-05,5.75173443632152e-07,5.705511691569509e-06,2.216567437192609e-06,2.326261833768986e-05,1.6637536887738785e-06,1.6157022613937576e-06
323,2.8472352168490746e-06,6.132048539766251e-06,2.0743653431731045e-06,2.0906022652418694e-06,2.5511458939820927e-06,1.7205068079036125e-06,1.9658913839831417e-06,1.1527084811765458e-06,6.434155915643574e-06,7.526496201933301e-05,5.905290749341103e-07,6.097244531067167e-06,2.2593795401011893e-06,2.4929378215704335e-05,1.6218709953808013e-06,1.5786555872103744e-06
324,2.8625567787378547e-06,6.284460082974937e-06,1.9856939052732314e-06,2.1143933294036153e-06,2.575947703032016e-06,1.6896479210575016e-06,1.9446920459021003e-06,1.1045376248118032e-06,6.348103569170101e-06,7.320526988710976e-05,6.148712723436177e-07,6.50491619505083e-06,2.302470638495272e-06,2.6571067183566937e-05,1.582671953934176e-06,1.545774106989699e-06
325,2.880691149227656e-06,6.4210067463563405e-06,1.9020009898941537e-06,2.1384420952685087e-06,2.5964061567502973e-06,1.6587380239175917e-06,1.926138579585755e-06,1.0609168963553347e-06,6.273615175154727e-06,7.109208320059728e-05,6.461234720049284e-07,6.926436573025324e-06,2.3461368493910243e-06,2.8165212279364496e-05,1.545935453314594e-06,1.5163438555258352e-06
326,2.9011427719439148e-06,6.538002170476498e-06,1.8230564575965347e-06,2.1615060836822153e-06,2.612701034830215e-06,1.6279750387574855e-06,1.9106466445230164e-06,1.0225585655605108e-06,6.206926692755118e-06,6.89006330776734e-05,6.823297295237917e-07,7.359483634924964e-06,2.390907886206178e-06,2.968622840104344e-05,1.5111951250935432e-06,1.48937737791191e-06
327,2.9228757848391422e-06,6.632876668291449e-06,1.7484262752151364e-06,2.1824214398462554e-06,2.6248893079887406e-06,1.5979924019961561e-06,1.8987265660622312e-06,9.899801681168087e-07,6.144192646594276e-06,6.660374417066427e-05,7.217846219249531e-07,7.801621613927011e-06,2.4373470491768082e-06,3.110465229673029e-05,1.4779171451044852e-06,1.4637662176544975e-06
328,2.9444760382003123e-06,6.704357497374115e-06,1.6776720962200884e-06,2.200174350656321e-06,2.6328536017626947e-06,1.569736755760038e-06,1.8909483641638508e-06,9.635187207724126e-07,6.082133818708269e-06,6.417921332703476e-05,7.631032766610039e-07,8.250036965104714e-06,2.4860851388757604e-06,3.2388185289045665e-05,1.4457464167255246e-06,1.4385686666083936e-06
329,2.9642414840516487e-06,6.751691096710479e-06,1.6106863824540838e-06,2.213985735790105e-06,2.6365884670529087e-06,1.5442680621767584e-06,1.8877812918040866e-06,9.433658201717436e-07,6.018535828845363e-06,6.16170606956621e-05,8.051223623167266e-07,8.700944228563381e-06,2.5379337824615303e-06,3.3505808266011994e-05,1.4146139872154953e-06,1.4131886668264533e-06
