,EMG1,EMG2,EMG3,EMG4,EMG5,EMG6,EMG7,EMG8,EMG9,EMG10,EMG11,EMG12,EMG13,EMG14,EMG15,EMG16
0,1.6922989913913987e-07,1.3988222147972057e-07,2.1199982098109428e-07,1.4790834852902207e-07,9.910842465205606e-07,5.938489701482872e-07,7.4414650792398e-07,3.9351804704485776e-07,1.687732607639084e-07,-3.012512135473692e-06,-8.581764474420493e-08,8.405863173993372e-09,2.687693598304864e-07,7.607239213812777e-06,2.4792715629949773e-08,3.7233207970535665e-07
1,3.267800757178753e-07,2.678710899489204e-07,2.8511575710188315e-07,3.682689095358412e-07,1.2457052007198774e-06,7.342824809740797e-07,8.515914194457169e-07,4.574605072594687e-07,3.0076899847752777e-07,2.041754035440133e-06,6.094718861669432e-08,8.452675039728331e-08,6.421985246949823e-07,1.3070479002292216e-05,1.9351661275784754e-07,4.4744708338175e-07
2,4.81728460157226e-07,3.9498725997243403e-07,3.6015874888263006e-07,5.8289936482897e-07,1.494764592522125e-06,8.763629839737625e-07,9.618587319730106e-07,5.249943236425435e-07,4.3487902926990325e-07,6.828202179261477e-06,1.9970600413119822e-07,1.6027079271809064e-07,1.002981929187449e-06,1.8390490432222443e-05,3.6092993147956724e-07,5.237943812634883e-07
3,6.327886154835266e-07,5.191630946354478e-07,4.3577849279204286e-07,7.873448832172286e-07,1.73505746404629e-06,1.018266599511249e-06,1.0732306661800574e-06,5.957559188124067e-07,5.701113531662473e-07,1.1285120835849588e-05,3.2944828418330163e-07,2.3508329386363306e-07,1.3470019607448821e-06,2.347784191206002e-05,5.248574688198643e-07,5.998927070247384e-07
4,7.787794247414933e-07,6.385731409490253e-07,5.107296268756813e-07,9.776223616286779e-07,1.964057153594738e-06,1.1583692223606429e-06,1.1841931668694933e-06,6.694345211635344e-07,7.056439974410297e-07,1.5362315427348672e-05,4.4937150020611837e-07,3.084790868109254e-07,1.6703386285948542e-06,2.8249409626159107e-05,6.835145715671909e-07,6.745236797556635e-07
5,9.185742438819437e-07,7.518584300566603e-07,5.84053373832704e-07,1.1506595054718708e-06,2.180125138960777e-06,1.2953874722483748e-06,1.293526597966888e-06,7.458100543891608e-07,8.40727156974976e-07,1.9021981141085565e-05,5.588443674922913e-07,3.80017688652376e-07,1.9694990722612313e-06,3.263387335048605e-05,8.356325341874573e-07,7.468682306600212e-07
6,1.0510766958037892e-06,8.581781390696174e-07,6.552354274684735e-07,1.3045953347966912e-06,2.3824537932302206e-06,1.4283578212299296e-06,1.4002694013834607e-06,8.24729151945858e-07,9.74674883832957e-07,2.223763688264667e-05,6.573472408488092e-07,4.492873924157916e-07,2.241731686773094e-06,3.657674718323031e-05,9.804031999200845e-07,8.164749233139713e-07
7,1.1752808562941665e-06,9.570539957064725e-07,7.241909780929928e-07,1.4388164770193245e-06,2.5707374126623548e-06,1.5564705863684198e-06,1.5035931634633543e-06,9.060401808381149e-07,1.1069529868387935e-06,2.499203075064005e-05,7.444305573843987e-07,5.159313084287705e-07,2.4850546122046472e-06,4.004225111639827e-05,1.1173326105823542e-06,8.83109277310298e-07
8,1.290362002536543e-06,1.048277053276529e-06,7.910848656593887e-07,1.5537805250630746e-06,2.7448124543603206e-06,1.6788768556761594e-06,1.6026626424441052e-06,9.895780963433346e-07,1.2372018063494447e-06,2.727527581271013e-05,8.197736002312387e-07,5.796806387470635e-07,2.6978870228195677e-06,4.300961778377522e-05,1.2461780097008024e-06,9.466307170709291e-07
9,1.3956740206264717e-06,1.1319418126032526e-06,8.561525179735759e-07,1.6507179797219222e-06,2.904536890745068e-06,1.7945464349463766e-06,1.696522464332303e-06,1.0752049275156898e-06,1.3651618190225111e-06,2.9085132718163598e-05,8.833894904647531e-07,6.403371992878265e-07,2.878667075333159e-06,4.546494023894353e-05,1.3669764860498674e-06,1.0069257428324668e-06
10,1.4907215534281132e-06,1.2083938698313711e-06,9.196174904175833e-07,1.7313027477886952e-06,3.0498902652029304e-06,1.9022353259781703e-06,1.784037393758739e-06,1.1628026851663202e-06,1.4906034575703186e-06,3.0430085290495e-05,9.35826534836411e-07,6.977243662857886e-07,3.025957642144193e-06,4.7395536672713434e-05,1.4800179149115718e-06,1.063840555442983e-06
11,1.575274285561757e-06,1.2780467116139759e-06,9.81695393538997e-07,1.7973838658505487e-06,3.181008161480548e-06,2.000599702424042e-06,1.8639800576354876e-06,1.2521802850985104e-06,1.6132877940202397e-06,3.133274817878595e-05,9.781910044586571e-07,7.51667694886489e-07,3.139093321099122e-06,4.879239549870639e-05,1.5857140495867225e-06,1.1171209626079004e-06
12,1.64947958416206e-06,1.3412500921735494e-06,1.0426327690680101e-06,1.8508084904853215e-06,3.297991581913745e-06,2.088408634471683e-06,1.935354254031702e-06,1.342983689664e-06,1.7329366244092275e-06,3.182993377492465e-05,1.0120034637556177e-06,8.020200468774737e-07,3.2188462644789557e-06,4.965722512866584e-05,1.6844962292807051e-06,1.1663691214247128e-06
13,1.7137443800100463e-06,1.3982737569762412e-06,1.1026850832822503e-06,1.8932855566044718e-06,3.400674206059689e-06,2.1647711824309486e-06,1.9978137206386298e-06,1.4346610309793237e-06,1.8491879248351906e-06,3.196833243435528e-05,1.0389939684895226e-06,8.486953672498969e-07,3.26754901772379e-06,5.000766897904313e-05,1.7768342488961198e-06,1.2110140054697162e-06
14,1.7685590602532237e-06,1.4493140549828053e-06,1.1620344395763544e-06,1.9262602817207788e-06,3.4885538041155913e-06,2.2293144346922835e-06,2.051866944680776e-06,1.5264620628179957e-06,1.9615360984319204e-06,3.1798404123043185e-05,1.06090896293929e-06,8.916686566284153e-07,3.288584559095265e-06,4.987811895569814e-05,1.8632761222705548e-06,1.250402061681496e-06
15,1.8145276257039654e-06,1.49453127239111e-06,1.2207524192447967e-06,1.9508401672733055e-06,3.5608011893551167e-06,2.2822202445584942e-06,2.098720893599661e-06,1.6174677583492843e-06,2.0693017204268713e-06,3.136970183137512e-05,1.0793772011649522e-06,9.310031951454066e-07,3.2856235621025055e-06,4.931592550100879e-05,1.944382827294652e-06,1.2840808264766066e-06
16,1.8524621342809694e-06,1.534123331042285e-06,1.2788298254152603e-06,1.9677976841537552e-06,3.6162429728726974e-06,2.3240492113514408e-06,2.139887141119961e-06,1.7066273722068066e-06,2.171643145204227e-06,3.0728265868775185e-05,1.095845495926589e-06,9.669393581148423e-07,3.2621309588643564e-06,4.83740202520505e-05,2.020587742009644e-06,1.312085757540214e-06
17,1.8832781638480722e-06,1.568307456883509e-06,1.336223911079288e-06,1.9776381618698577e-06,3.6534868469551073e-06,2.3555157271797295e-06,2.1767812331194453e-06,1.792772214981835e-06,2.267601081726507e-06,2.9914925585008918e-05,1.111556192095893e-06,9.998960284419978e-07,3.2213109035463666e-06,4.710320412140531e-05,2.092085999746265e-06,1.3349772641415128e-06
18,1.907748645499573e-06,1.5972561936863897e-06,1.3928685899633817e-06,1.9807424602465724e-06,3.671295742703579e-06,2.377499719179633e-06,2.2104741291097995e-06,1.8746519010760211e-06,2.3561088950654222e-06,2.89643008523465e-05,1.1275550680508259e-06,1.030331037880766e-06,3.1662090034051753e-06,4.554852614235595e-05,2.158786216184945e-06,1.3536612155215822e-06
19,1.9263629966746528e-06,1.6211466602777178e-06,1.4486042136757304e-06,1.977561009380947e-06,3.669010336678183e-06,2.3912043668663885e-06,2.2415911870917135e-06,1.951046515037145e-06,2.4359231880836785e-06,2.790492858751835e-05,1.144709305743671e-06,1.0586037304983318e-06,3.0997494701361697e-06,4.3751074682393064e-05,2.2203008139896526e-06,1.3692062996670406e-06
20,1.9394045079605133e-06,1.6402412813868676e-06,1.5030815236297735e-06,1.9687663128287755e-06,3.6468136586965514e-06,2.398102160975857e-06,2.2702917879351884e-06,2.0209019070584523e-06,2.505679129888904e-06,2.6760082141026333e-05,1.1636892174676864e-06,1.0849264006731344e-06,3.024726973141155e-06,4.175174159961025e-05,2.2760349390710204e-06,1.3827225685151638e-06
21,1.947129685060695e-06,1.6548770576136943e-06,1.5557529955985087e-06,1.9553011874421045e-06,3.6058000164817156e-06,2.399713882012299e-06,2.2963685510956475e-06,2.0833899600771167e-06,2.564243325334643e-06,2.5549458087297426e-05,1.1849241717142542e-06,1.1093961492858967e-06,2.9437623350327526e-06,3.959320973170873e-05,2.325451048749281e-06,1.395254117933013e-06
22,1.9498350979081643e-06,1.6653874231590865e-06,1.6059947893447335e-06,1.9383189407494618e-06,3.5478757632858594e-06,2.397499718983436e-06,2.319519469499532e-06,2.1378915953904902e-06,2.61112650614777e-06,2.4292366655806757e-05,1.208584896734817e-06,1.1320933807349616e-06,2.85920842054011e-06,3.7319393690105824e-05,2.368348150506461e-06,1.407703947685988e-06
23,1.947746359348387e-06,1.6720059068426803e-06,1.6533082135335303e-06,1.9190198490460664e-06,3.47555611400286e-06,2.3928037560337677e-06,2.3396692905390255e-06,2.183992877730992e-06,2.6466025031349002e-06,2.301084158410028e-05,1.2346019922673133e-06,1.15320240233615e-06,2.773094521852883e-06,3.497340878069606e-05,2.4049118585540985e-06,1.4208245907878792e-06
24,1.940922655880102e-06,1.674869860095188e-06,1.6974932529898428e-06,1.898432988408158e-06,3.3917392588315187e-06,2.3867333886372758e-06,2.3571358830042107e-06,2.2215106308608147e-06,2.671468531260656e-06,2.1730453644607143e-05,1.2627158220958263e-06,1.173050472571098e-06,2.687182829311636e-06,3.2595375849715895e-05,2.4355939990655967e-06,1.4352697044292156e-06
25,1.9293954760939235e-06,1.67420815167907e-06,1.7386993443511641e-06,1.8772629545507157e-06,3.2994766729763986e-06,2.3800612200000337e-06,2.3725724034456383e-06,2.250431624898411e-06,2.6866353126055998e-06,2.0479045404862838e-05,1.2925758604678023e-06,1.1920175201841623e-06,2.60302500294626e-06,3.0220742310260232e-05,2.4610130650720343e-06,1.4516420652430843e-06
26,1.913476207771674e-06,1.6705169741390808e-06,1.7773130760171604e-06,1.8559012820584193e-06,3.2017038210409472e-06,2.3731723309057795e-06,2.3867536244808175e-06,2.2707430682371994e-06,2.6928426285503325e-06,1.9284901720830224e-05,1.3238718303032973e-06,1.210412796482836e-06,2.5219200609848264e-06,2.787921772917844e-05,2.4818416970359613e-06,1.4704509439331084e-06
27,1.8939247378589444e-06,1.6644910760353574e-06,1.8137587092811473e-06,1.8345975318938038e-06,3.100973759955923e-06,2.36605876318725e-06,2.400302780461491e-06,2.2823350586929645e-06,2.6907630421296864e-06,1.8175057201737082e-05,1.3564023128413807e-06,1.2284182070011438e-06,2.4448813839507335e-06,2.5594675568755193e-05,2.498602909767056e-06,1.4920137961111192e-06
28,1.8717888557123953e-06,1.6567947053360725e-06,1.8484055070146182e-06,1.8136720521608356e-06,2.9993589978679287e-06,2.3584906715679713e-06,2.41347763544876e-06,2.2850839495297552e-06,2.681458291805474e-06,1.717381306810132e-05,1.3900058169110466e-06,1.2461023909204589e-06,2.3726961680600528e-06,2.338618923549502e-05,2.5115113959274e-06,1.5163974814159197e-06
29,1.8480786988537503e-06,1.6478961569742488e-06,1.8816438733244307e-06,1.7935934424877303e-06,2.8986034815336044e-06,2.3503866790443863e-06,2.4261717892167814e-06,2.2790369379491955e-06,2.6667753456840205e-06,1.6301774218808356e-05,1.424423918743844e-06,1.2634497154999217e-06,2.306000449606486e-06,2.126921703000206e-05,2.520512362926869e-06,1.5434293858116353e-06
30,1.8236033616095715e-06,1.6380517970337487e-06,1.9139507233178867e-06,1.774870211040214e-06,2.8003643599111198e-06,2.342113452543792e-06,2.438172650842596e-06,2.264592730560119e-06,2.649290151599843e-06,1.557560168190163e-05,1.4592201300554543e-06,1.2803338555220107e-06,2.245287972358837e-06,1.925589758789371e-05,2.525476994179583e-06,1.5727486811212952e-06
31,1.7991005411068668e-06,1.6274288272281686e-06,1.9458041388065846e-06,1.7579445105653066e-06,2.7062973620609493e-06,2.3344153094358895e-06,2.449470007000051e-06,2.2425747688810734e-06,2.6318725977049844e-06,1.500818944455512e-05,1.493770458910613e-06,1.2964793890950935e-06,2.1908480165461172e-06,1.735467533777261e-05,2.5264324222721476e-06,1.603836522893711e-06
32,1.7754631688694882e-06,1.6163003059101232e-06,1.977549010878052e-06,1.7431978624323616e-06,2.6179109455947935e-06,2.328049913667724e-06,2.4603602194362825e-06,2.2141531767703514e-06,2.6172477459678025e-06,1.4608944743558796e-05,1.527273828205455e-06,1.3115536680528577e-06,2.142665716822298e-06,1.5570083442043207e-05,2.523713393295769e-06,1.6360578650659557e-06
33,1.753760874673742e-06,1.6051591585306763e-06,2.0093834506896306e-06,1.7309420970881469e-06,2.5363503753891698e-06,2.3234536908080036e-06,2.4713210081070484e-06,2.180731079950012e-06,2.607759155167275e-06,1.4383990107517333e-05,1.5587638505771125e-06,1.3253731971358816e-06,2.100343562145918e-06,1.3903172411494528e-05,2.5179402009491777e-06,1.6687880193348155e-06
34,1.7350214969449976e-06,1.5946459231791678e-06,2.0414398175597464e-06,1.7214059576421673e-06,2.4622937430659995e-06,2.320606151744351e-06,2.482796094129881e-06,2.1439093388610426e-06,2.6053551522015566e-06,1.433622759432949e-05,1.5871820765989624e-06,1.3380107984222732e-06,2.0631388178852522e-06,1.2352524990762656e-05,2.509844944462369e-06,1.7015292242144548e-06
35,1.7200043099155546e-06,1.585388273530705e-06,2.073788846465505e-06,1.7148303473314526e-06,2.395999293991899e-06,2.3191336175926866e-06,2.4949929872492406e-06,2.105486378847202e-06,2.6117844288037474e-06,1.4465355582592413e-05,1.6115826146140195e-06,1.3496806933371042e-06,2.030196852136154e-06,1.0915384465589105e-05,2.500053194406289e-06,1.7338942394530786e-06
36,1.7091213698300512e-06,1.5779420832575487e-06,2.1063423578726306e-06,1.71154188403082e-06,2.3375011428514144e-06,2.3186415263035205e-06,2.507777356386837e-06,2.0673729325195132e-06,2.6288123002592453e-06,1.4767888365607305e-05,1.6313681916083165e-06,1.3605296229890308e-06,2.0009170749655914e-06,9.588479517309544e-06,2.48890825405078e-06,1.7655124601708128e-06
37,1.702462697196564e-06,1.5728505337608743e-06,2.1388382040129078e-06,1.711856002525841e-06,2.286874327409542e-06,2.319055640869677e-06,2.5207418917475657e-06,2.031396454899169e-06,2.65820666583143e-06,1.523714062339627e-05,1.646352646133414e-06,1.3705434753826839e-06,1.9751962281420733e-06,8.36852992784973e-06,2.476461742401094e-06,1.7959542985140574e-06
38,1.6998423924848807e-06,1.5706598989121919e-06,2.1709976425649665e-06,1.7159244361179204e-06,2.2443308885295757e-06,2.3206642103953434e-06,2.5333877215478728e-06,1.999144768006066e-06,2.7015716744917467e-06,1.5863133540578058e-05,1.6566293466250634e-06,1.379653198258953e-06,1.953341830741717e-06,7.252534976097807e-06,2.4626846678798425e-06,1.8246790844074589e-06
39,1.700898559162199e-06,1.571825244595279e-06,2.202652839127448e-06,1.7236961128158598e-06,2.2100367462824246e-06,2.323863949170899e-06,2.545260136117428e-06,1.97195726838217e-06,2.7602408794191585e-06,1.6632383807041737e-05,1.662420748159166e-06,1.387947282107458e-06,1.9357844263107546e-06,6.237778117243172e-06,2.4477347476768516e-06,1.8510339207916206e-06
40,1.7052685473037724e-06,1.5766272580764179e-06,2.2336471562379854e-06,1.7349834613072887e-06,2.183855853772369e-06,2.328934937702152e-06,2.5559944279236907e-06,1.950946743689823e-06,2.835180238473521e-06,1.7527604597211952e-05,1.6640294711802435e-06,1.395773769600019e-06,1.9228664978526697e-06,5.321554802713625e-06,2.4321131131526802e-06,1.874373694105311e-06
41,1.7126808605569686e-06,1.5851771585157374e-06,2.2636359304004983e-06,1.7495324253929868e-06,2.165227407475303e-06,2.336009364961205e-06,2.565348650261115e-06,1.936936381483442e-06,2.926838166578983e-06,1.852745341989915e-05,1.6618616617012718e-06,1.4036123139158826e-06,1.914777414461789e-06,4.500857662545967e-06,2.4166786516508074e-06,1.8942615411677116e-06
42,1.7228636380962647e-06,1.5974462465792606e-06,2.2919916824903956e-06,1.7670565976981082e-06,2.153177167510566e-06,2.345095037543717e-06,2.573269070648902e-06,1.930374712882036e-06,3.0350575963714103e-06,1.960656907319681e-05,1.6564260963302327e-06,1.4118731018610049e-06,1.9115984802430464e-06,3.772183186202025e-06,2.4025046168199437e-06,1.9106091047566685e-06
43,1.7354288582729987e-06,1.6132863317716016e-06,2.3178478439749058e-06,1.7872567904797923e-06,2.146459076356158e-06,2.3560767174776443e-06,2.5799657187157537e-06,1.9313452143477248e-06,3.1591184707871797e-06,2.0736419902687497e-05,1.6482397679833298e-06,1.4208038040960885e-06,1.9133973608031655e-06,3.131448824282858e-06,2.39061697897194e-06,1.9236913624126818e-06
44,1.749865771838026e-06,1.63243567819291e-06,2.3402837156786544e-06,1.809819543078466e-06,2.1438539631592556e-06,2.3687557306598867e-06,2.585962765891315e-06,1.9397143616638482e-06,3.2978576486542e-06,2.1887702086091168e-05,1.6376906238743972e-06,1.4304877993059123e-06,1.9201905521855014e-06,2.574029451720242e-06,2.381782553258545e-06,1.9340771928195036e-06
45,1.7655940376269056e-06,1.6544726629638163e-06,2.3586013185738056e-06,1.8343580068131928e-06,2.1444818040157044e-06,2.3828836335843806e-06,2.592096165558971e-06,1.955339840453999e-06,3.449755623825939e-06,2.3034258991815766e-05,1.6249884023515502e-06,1.4408659305458106e-06,1.9317587103562957e-06,2.09486614878496e-06,2.3764573551398007e-06,1.942511338697657e-06
46,1.7820485804979496e-06,1.6787498752192533e-06,2.372541379160115e-06,1.8603581810587422e-06,2.1478623870485026e-06,2.3980973746936975e-06,2.599437941469226e-06,1.978188184332491e-06,3.6129863971312457e-06,2.415673897230498e-05,1.6102488123628248e-06,1.451774665772493e-06,1.947548011483699e-06,1.6885113895245505e-06,2.3747896068464306e-06,1.9497696880069267e-06
47,1.7987494279102558e-06,1.7044171363794693e-06,2.3823248506903464e-06,1.8872796014003693e-06,2.1536904191998903e-06,2.4138702649812945e-06,2.6091355775017145e-06,2.0082888912878183e-06,3.7855558231479057e-06,2.5243480188881288e-05,1.5936281841321221e-06,1.4630494919731967e-06,1.966756372522079e-06,1.3491305852904072e-06,2.3765503319286884e-06,1.9565469582214603e-06
48,1.8152352536068765e-06,1.7306107308667192e-06,2.3884911316916026e-06,1.914790234446694e-06,2.161604788389584e-06,2.429627242941722e-06,2.6221831017406855e-06,2.0455934551364736e-06,3.965451109877721e-06,2.6287895362660063e-05,1.575375873800825e-06,1.474655998191922e-06,1.98848149139845e-06,1.0705792863402847e-06,2.3810341571991665e-06,1.9634064396289786e-06
49,1.8309356920621369e-06,1.7567483484900375e-06,2.3915954715436493e-06,1.942885665346823e-06,2.1711121763486027e-06,2.4448611739333386e-06,2.639204458066612e-06,2.089865586597814e-06,4.150595509451087e-06,2.728413930996898e-05,1.5557461266179324e-06,1.4866686877527168e-06,2.0117792222469492e-06,8.465458435064715e-07,2.3870317711308386e-06,1.9707575640281482e-06
50,1.8451777191089406e-06,1.7827088612460166e-06,2.3919266767181638e-06,1.971739342469734e-06,2.1815553993148643e-06,2.459032995163257e-06,2.6603286213328104e-06,2.140685172125993e-06,4.3386950943918525e-06,2.822345035345507e-05,1.5348806214698757e-06,1.4991020374944932e-06,2.0356083580288555e-06,6.707093883581725e-07,2.3929270327781804e-06,1.9788214746393496e-06
51,1.8572935197263478e-06,1.8087179045415305e-06,2.3893730215188727e-06,2.0014714518692156e-06,2.192096129267847e-06,2.4713562672853087e-06,2.6851315575947865e-06,2.1975525060208927e-06,4.527148987185759e-06,2.9092554546847833e-05,1.512816164329195e-06,1.5118464034408548e-06,2.0588417703654843e-06,5.369876308439783e-07,2.3969423294131717e-06,1.9875806966222424e-06
52,1.86669223882873e-06,1.8350213555922752e-06,2.383468615176672e-06,2.0321135906376726e-06,2.2017999889282158e-06,2.4806895600703707e-06,2.712614156141867e-06,2.2599958450736504e-06,4.712911640514788e-06,2.9874029704332105e-05,1.48962642090341e-06,1.5247725986525272e-06,2.080490737015794e-06,4.3986899660162934e-07,2.397484155684131e-06,1.9967878933055304e-06
53,1.8729428921152082e-06,1.861598986392585e-06,2.373658056243267e-06,2.063773132999161e-06,2.2098190591075243e-06,2.4856727146807575e-06,2.7413111183645136e-06,2.327604433789934e-06,4.892237289930524e-06,3.05474017807674e-05,1.4655797505144802e-06,1.5377786045264553e-06,2.0999360628567185e-06,3.745598053218261e-07,2.393420250522689e-06,2.0060598190121547e-06
54,1.8759679224587624e-06,1.8880517223404975e-06,2.359702242706429e-06,2.096785759707417e-06,2.2156094690623695e-06,2.4851357060637903e-06,2.7695786526957408e-06,2.4000308026547133e-06,5.060502155886052e-06,3.109140610839646e-05,1.4411876940469789e-06,1.5506941763885688e-06,2.1168927393022544e-06,3.367995586676032e-07,2.3841407496431234e-06,2.0149067447505176e-06
55,1.8762353704964135e-06,1.9136147655658014e-06,2.3419120996518655e-06,2.131680321275037e-06,2.2191331754729834e-06,2.4785487039217724e-06,2.7958422049729454e-06,2.4770609157148545e-06,5.2122526770441035e-06,3.1489477800971236e-05,1.4171068274712767e-06,1.563255603554052e-06,2.1312134868554245e-06,3.2257784626987856e-07,2.3694077979206303e-06,2.022634857359455e-06
56,1.8747296866898272e-06,1.937281859197903e-06,2.321009413906864e-06,2.168963768373034e-06,2.2209425939930547e-06,2.466126693642301e-06,2.818613787965777e-06,2.5587357772285115e-06,5.341661279109226e-06,3.1736378981096114e-05,1.3939671865189585e-06,1.5752858568039411e-06,2.1427688061537947e-06,3.279806275450181e-07,2.3491039071675545e-06,2.0282902888177265e-06
57,1.872673929172202e-06,1.958077507707506e-06,2.297770753507027e-06,2.2089074517536206e-06,2.222022845326701e-06,2.4484881573234858e-06,2.8364500271077692e-06,2.6453885444554637e-06,5.44363577300462e-06,3.184019474882153e-05,1.3722196456334658e-06,1.5869177955763187e-06,2.1514085019854857e-06,3.491357324322667e-07,2.32310430998824e-06,2.030729592515086e-06
58,1.8711976220914127e-06,1.975348139191577e-06,2.2727390095985734e-06,2.2514595471759087e-06,2.2234420544072514e-06,2.4261715185153916e-06,2.8479720233169237e-06,2.7375121858614944e-06,5.515159102498652e-06,3.181827110816985e-05,1.3520526922804669e-06,1.5986095664269385e-06,2.1569581986196754e-06,3.8223182469567086e-07,2.2914285424351282e-06,2.028687588909373e-06
59,1.871121343356407e-06,1.9888615564651626e-06,2.24616276841974e-06,2.296234471620656e-06,2.226086919693228e-06,2.399364065424903e-06,2.851838761277649e-06,2.835509340708873e-06,5.5558243569622515e-06,3.1690888111817164e-05,1.3334035092338416e-06,1.6109167417954018e-06,2.1593804685751044e-06,4.23748375791632e-07,2.2544617610762667e-06,2.020807496795513e-06
60,1.8729015154782788e-06,1.998714274518096e-06,2.2181094931486247e-06,2.3425271511944118e-06,2.2306331902927572e-06,2.367936496727971e-06,2.8467733829435212e-06,2.9394433303945658e-06,5.567120763076723e-06,3.1476395036891045e-05,1.3160609793688136e-06,1.6242537814715515e-06,2.159079184468145e-06,4.7082639966726026e-07,2.212983765114234e-06,2.0058113485625544e-06
61,1.876727456937003e-06,2.005168834037455e-06,2.1885490186303175e-06,2.3893898386577818e-06,2.237572276551275e-06,2.33166984101078e-06,2.8317845590767473e-06,3.048906120880493e-06,5.551106971236245e-06,3.118961689206162e-05,1.2998132319157333e-06,1.6388459254214532e-06,2.156975833746884e-06,5.213955508908517e-07,2.1680645252122694e-06,1.9828890283044026e-06
62,1.8826586394211634e-06,2.0084728850827692e-06,2.1573136347385727e-06,2.435775905165641e-06,2.2471535950029796e-06,2.290533232702089e-06,2.8064480887006664e-06,3.1630338862627915e-06,5.509539826620403e-06,3.0842758045323046e-05,1.2845445156868596e-06,1.6547981792715053e-06,2.1542136648811693e-06,5.739847732462144e-07,2.120934715303939e-06,1.9521021939788166e-06
63,1.8906417367748348e-06,2.008771172877752e-06,2.1241092739058477e-06,2.480613732154534e-06,2.25935314973071e-06,2.244901443710944e-06,2.7710707427736765e-06,3.2805573116167232e-06,5.443979853059711e-06,3.0445908916319044e-05,1.270230248733535e-06,1.6720988717778232e-06,2.1517982260429806e-06,6.275113735617413e-07,2.0727869286923125e-06,1.9145081409939863e-06
64,1.9004806272593248e-06,2.0062034213927188e-06,2.088717227845541e-06,2.5227269775182503e-06,2.2739134930341812e-06,2.1956284392285538e-06,2.726658561785863e-06,3.3998212525591244e-06,5.356469656183663e-06,3.0006437910788534e-05,1.256904512044239e-06,1.6905273765470865e-06,2.1504268480183156e-06,6.811744255535364e-07,2.0245711990630653e-06,1.871891332282736e-06
65,1.911936291742112e-06,2.0010239215108894e-06,2.0512190287416815e-06,2.560822856537585e-06,2.2903538308901034e-06,2.1439202069637814e-06,2.6746722983430336e-06,3.518860340049822e-06,5.250091308155502e-06,2.952943381267703e-05,1.2446456162021959e-06,1.70957134857946e-06,2.150490036412357e-06,7.34427527052213e-07,1.9769983473930956e-06,1.8262814299147895e-06
66,1.924891509440963e-06,1.9935703375811478e-06,2.012059048548157e-06,2.5937311417316514e-06,2.3080187245055376e-06,2.0910436566602985e-06,2.616659363715683e-06,3.635480874804455e-06,5.129047356327046e-06,2.901957475886312e-05,1.2335288806377102e-06,1.7284307073403268e-06,2.152139933514748e-06,7.869979328397483e-07,1.9307307004963236e-06,1.7795523803674113e-06
67,1.9394119755085848e-06,1.984136191917848e-06,1.9719833454731255e-06,2.6206388375606546e-06,2.326286902863309e-06,2.0380545133792163e-06,2.5539823752701524e-06,3.747201050021272e-06,4.998263192130326e-06,2.8482170739844964e-05,1.223575341489134e-06,1.7461095514203119e-06,2.155334618559369e-06,8.389353872122806e-07,1.8864630035695985e-06,1.7332387536986527e-06
68,1.955667616128854e-06,1.972853790982648e-06,1.9319266278459168e-06,2.6410258963067607e-06,2.344780647818373e-06,1.9856994815353295e-06,2.4877950777216542e-06,3.8511596306600055e-06,4.862734229075879e-06,2.7922052143746062e-05,1.2147463826973204e-06,1.7615639640609285e-06,2.1598079185311483e-06,8.907445930140745e-07,1.8447952596113943e-06,1.6885119418007333e-06
69,1.973777070468477e-06,1.9596785444147308e-06,1.892842580988652e-06,2.654387308550558e-06,2.3633474725012505e-06,1.9344375346516255e-06,2.419138966195141e-06,3.9441412239431926e-06,4.7269695856517545e-06,2.734122866584804e-05,1.2069475173814172e-06,1.7738798224233932e-06,2.1650503080689167e-06,9.435595190431029e-07,1.8060882696075503e-06,1.6462134515368569e-06
70,1.9936523605148377e-06,1.9445366630420546e-06,1.8555438625055956e-06,2.6600438833681823e-06,2.3818195083675473e-06,1.8844817511350716e-06,2.3489582088551826e-06,4.022679084321809e-06,4.59476607968873e-06,2.6736990967989467e-05,1.2000336123018407e-06,1.7824672842453283e-06,2.1704596285462815e-06,9.991969508804038e-07,1.7704163760653295e-06,1.6068873086573538e-06
71,2.0148933598967603e-06,1.927531357623874e-06,1.8206857213544161e-06,2.6572659554056837e-06,2.399739285562364e-06,1.8359061850785712e-06,2.278023704350104e-06,4.083312285197886e-06,4.469188463136944e-06,2.6101664649380136e-05,1.1938008335475266e-06,1.7871884382801026e-06,2.1756251669444866e-06,1.060031692875038e-06,1.7376152783570877e-06,1.5708010500508648e-06
72,2.0367725693529252e-06,1.9090231352227676e-06,1.7888847563055783e-06,2.645627195997368e-06,2.4162711965737286e-06,1.788814395691401e-06,2.2068754471705166e-06,4.123127141065244e-06,4.352502264595088e-06,2.5424547209627263e-05,1.1879370886344325e-06,1.788268647296685e-06,2.1804873074691783e-06,1.128769863137997e-06,1.707430715947867e-06,1.5379696148340723e-06
73,2.058295656378243e-06,1.8895289865891076e-06,1.760813198483048e-06,2.625262013972971e-06,2.430391665206971e-06,1.7434052031052125e-06,2.135871512212397e-06,4.140400177500148e-06,4.246072080765211e-06,2.4695401677998476e-05,1.1820239718792152e-06,1.786025263053125e-06,2.1852082413711376e-06,1.2082231865266838e-06,1.679701789436028e-06,1.5082233193241343e-06
74,2.078276627973427e-06,1.8695176979483675e-06,1.7371586869106927e-06,2.596850008825343e-06,2.4412030068266115e-06,1.6998908928684373e-06,2.0653740375104283e-06,4.134963464355066e-06,4.150349272048842e-06,2.390779904963849e-05,1.175664702245277e-06,1.7807011019616435e-06,2.189909185189846e-06,1.3011803924063305e-06,1.654438778339683e-06,1.4813301673262076e-06
75,2.0954994317999267e-06,1.8492449472109725e-06,1.7184881444560336e-06,2.5614339481104955e-06,2.4480716038481797e-06,1.6584482940152054e-06,1.99598779477462e-06,4.108102911288552e-06,4.0649042814580665e-06,2.3061043834296295e-05,1.168625249018511e-06,1.772563379647366e-06,2.194570257906708e-06,1.4103800211702798e-06,1.6317368415158713e-06,1.4570937956118507e-06
76,2.1090286534095164e-06,1.8287641266630176e-06,1.7051398634903358e-06,2.5201996353451482e-06,2.4504856921960448e-06,1.6193191832059725e-06,1.9286572377673463e-06,4.062125959514124e-06,3.988471560505973e-06,2.2160447500418853e-05,1.1608422153098238e-06,1.7620527135471368e-06,2.1991781947117287e-06,1.5385033641728634e-06,1.61164250975894e-06,1.4353833476065068e-06
77,2.1184748037503584e-06,1.8080820584355941e-06,1.6972172325779055e-06,2.4742371725530127e-06,2.4478736129158805e-06,1.5829346533079644e-06,1.8645117249102126e-06,3.999844841179861e-06,3.919067910960998e-06,2.1216060318204243e-05,1.1523092050815773e-06,1.7497098584289215e-06,2.2039346500332256e-06,1.688162687250149e-06,1.594130129579401e-06,1.416141635971369e-06
78,2.1240108860425026e-06,1.7872467530566827e-06,1.6946358496111245e-06,2.4243482576686646e-06,2.439630986112649e-06,1.5498852802408849e-06,1.8045886987860908e-06,3.9240868570641334e-06,3.854150356192489e-06,2.0240314998212087e-05,1.142981941112772e-06,1.7359434000599052e-06,2.209291921035255e-06,1.8618650366666475e-06,1.5791741659582975e-06,1.3993792613406586e-06
79,2.1261500536703034e-06,1.7662546515472988e-06,1.6971419834951316e-06,2.371044737866669e-06,2.4252358325703603e-06,1.5207758984486252e-06,1.7496451404252599e-06,3.8372965423311925e-06,3.7907857707274603e-06,1.9245430168161213e-05,1.1327715070577796e-06,1.7209134703580856e-06,2.2157740304634147e-06,2.061941193268055e-06,1.566806558135714e-06,1.3851121250889854e-06
80,2.12541412956381e-06,1.7449113839509524e-06,1.704290798421138e-06,2.314758204448475e-06,2.404229035420353e-06,1.4961378185874276e-06,1.7001256651904165e-06,3.741375047644207e-06,3.72593902179658e-06,1.8241519368250796e-05,1.1215639158522958e-06,1.704610971366203e-06,2.2237641223465515e-06,2.29059301995161e-06,1.5571083840055333e-06,1.3732763993561527e-06
81,2.1220720704398025e-06,1.7227706278064818e-06,1.715411376957362e-06,2.256081986208564e-06,2.3762278440700056e-06,1.476406568697339e-06,1.6562379597145734e-06,3.6377951421327585e-06,3.656899916507259e-06,1.7236329960588077e-05,1.1092526121557403e-06,1.6869460828005168e-06,2.2334361396871843e-06,2.5501268445478735e-06,1.5501154691694492e-06,1.3637076721337546e-06
82,2.116070556781749e-06,1.6991460349073435e-06,1.7296011327977242e-06,2.1958577709993815e-06,2.341188470168584e-06,1.4618569682410886e-06,1.618045987712022e-06,3.5278296657652577e-06,3.5815832891942755e-06,1.6236526659073477e-05,1.095791377152521e-06,1.6677215641002813e-06,2.2448323630293894e-06,2.8431140326460037e-06,1.5456672502605163e-06,1.3561537234541174e-06
83,2.1071720300741652e-06,1.673239591806182e-06,1.745852309236851e-06,2.1350793511177844e-06,2.299671817821289e-06,1.4525081997254675e-06,1.5854892998857364e-06,3.4127327378149164e-06,3.498437981230039e-06,1.5248757424736898e-05,1.0811874152432955e-06,1.6466388394886302e-06,2.2580443898651203e-06,3.1723187967139574e-06,1.5432968118207975e-06,1.350229565324118e-06
84,2.0952415473252534e-06,1.6444351379915143e-06,1.7633311780471881e-06,2.0747155845731025e-06,2.252793746865118e-06,1.448075681200801e-06,1.558330783140242e-06,3.2938219255515137e-06,3.4062757931663484e-06,1.4279302768745618e-05,1.0654549920787889e-06,1.6235000233030694e-06,2.2735367480109104e-06,3.5405622650964633e-06,1.5422446803819842e-06,1.3453631166617018e-06
85,2.080488155192398e-06,1.6126228027010972e-06,1.7815956685907614e-06,2.015570892188912e-06,2.201930938785773e-06,1.4479679348585305e-06,1.5361246578901768e-06,3.1724742853032813e-06,3.304592230191964e-06,1.3333619641511201e-05,1.0486143070859018e-06,1.5984601722885244e-06,2.2924485017204633e-06,3.950617234317134e-06,1.5416395391189913e-06,1.340856655728629e-06
86,2.0634694190634643e-06,1.578331530985926e-06,1.8005463413368697e-06,1.958254650678656e-06,2.148498916805338e-06,1.451315348407249e-06,1.5182743671252878e-06,3.050082284905489e-06,3.194179902709352e-06,1.2416923350023703e-05,1.0306876741560357e-06,1.5720560822714178e-06,2.3165043863865644e-06,4.405060086216422e-06,1.540796339804315e-06,1.3360734736167533e-06
87,2.0448970474718004e-06,1.5425847808738103e-06,1.8201810030282362e-06,1.9032407552008774e-06,2.0939847183159285e-06,1.4570778710254788e-06,1.5041665083429628e-06,2.9280128791399857e-06,3.0772624658204364e-06,1.1534550361790453e-05,1.0116839032845285e-06,1.5449860003593432e-06,2.34759150073949e-06,4.906187137886762e-06,1.5394344373433655e-06,1.330616455698744e-06
88,2.0253884838492043e-06,1.5065888061129831e-06,1.8403474376078203e-06,1.8509203224678135e-06,2.040063424604307e-06,1.4642295198996855e-06,1.4932615758070899e-06,2.8075867848680215e-06,2.956934453116652e-06,1.0691326718338737e-05,9.916417294652267e-07,1.5178495540942708e-06,2.387408214913671e-06,5.456290663673136e-06,1.5376365909578645e-06,1.324365795233026e-06
89,2.0052568679483817e-06,1.4714575821308527e-06,1.8605877121476293e-06,1.8015865435312409e-06,1.988529009592436e-06,1.4719270690709956e-06,1.4850599932264621e-06,2.690096418133213e-06,2.83639364487139e-06,9.890992570537475e-06,9.706739615289174e-07,1.491022872656155e-06,2.4372925113741984e-06,6.058266928340804e-06,1.5356321916494542e-06,1.3173801567542048e-06
90,1.9844316542625098e-06,1.4381014929523066e-06,1.8800651906033409e-06,1.755386327801554e-06,1.9410651224063063e-06,1.479621443806435e-06,1.4790784493631351e-06,2.5768829288926674e-06,2.718447763125728e-06,9.13613170776151e-06,9.48909519537797e-07,1.464694896706416e-06,2.498149042929084e-06,6.716085688817225e-06,1.5336833304017582e-06,1.309756821612516e-06
91,1.9626137256227503e-06,1.4072427663820734e-06,1.8975528182385192e-06,1.7122875334192403e-06,1.8990692157951458e-06,1.487113577834607e-06,1.474972301610067e-06,2.469422802512683e-06,2.605377078094944e-06,8.428204383863557e-06,9.264026778070887e-07,1.4389978058981527e-06,2.5705213234700234e-06,7.4348100223645804e-06,1.5321654541857354e-06,1.3015627878177002e-06
92,1.939660185869477e-06,1.3794545281800658e-06,1.9115316968021805e-06,1.6720546214422406e-06,1.8635967051079993e-06,1.4945078505045302e-06,1.4726635543288428e-06,2.3692974777937173e-06,2.4989662181564446e-06,7.767684256040855e-06,9.03164977449562e-07,1.4141302026942587e-06,2.6547422424076057e-06,8.220213560472154e-06,1.5316285489534907e-06,1.292920356445688e-06
93,1.9159895992900398e-06,1.3551652281292748e-06,1.920475665003196e-06,1.6342401653287024e-06,1.835379692441359e-06,1.5021230725766484e-06,1.472266179031211e-06,2.277998948298204e-06,2.400523407296663e-06,7.1543852367547105e-06,8.792881961623987e-07,1.3903861725789748e-06,2.7509312868287836e-06,9.078099357925377e-06,1.5326691568953093e-06,1.2841666307485186e-06
94,1.8927163626493932e-06,1.3346537555746582e-06,1.923251928409204e-06,1.5982864673802775e-06,1.814896063167766e-06,1.5104975742922828e-06,1.4738555988646274e-06,2.1967059906120524e-06,2.3108558704636696e-06,6.587780527811561e-06,8.549800312097311e-07,1.3680652968208785e-06,2.858844006986523e-06,1.001350787854858e-05,1.5357239772169933e-06,1.27589285578928e-06
95,1.8714184283502944e-06,1.3180774314442428e-06,1.91942582134972e-06,1.5637692041353775e-06,1.8024173982915963e-06,1.5203867793379453e-06,1.4772795127834636e-06,2.1261727042094697e-06,2.230279980585287e-06,6.067218057337687e-06,8.305091968272382e-07,1.3473397263054883e-06,2.9778152985754237e-06,1.1030090060245607e-05,1.540975236422115e-06,1.26882040662431e-06
96,1.8537484970175035e-06,1.305494296983142e-06,1.9093287001073716e-06,1.530616935757851e-06,1.797968988848087e-06,1.5325983583127846e-06,1.4821125906470825e-06,2.066730890171247e-06,2.1586860375195855e-06,5.592121412529155e-06,8.061862702405768e-07,1.3282035745989113e-06,3.106834047213977e-06,1.2129715583657122e-05,1.548368963985984e-06,1.2636358394744523e-06
97,1.8411845697449395e-06,1.2968637303967496e-06,1.8939231615418426e-06,1.49913177141264e-06,1.8012677042309107e-06,1.5478203642202154e-06,1.487797778013575e-06,2.018386215186451e-06,2.095584893731302e-06,5.162186033470597e-06,7.823682205260838e-07,1.3105061992650655e-06,3.2445740106030245e-06,1.3312218302916868e-05,1.5576240118478492e-06,1.2608833159469706e-06
98,1.8349810784849018e-06,1.2920719155399714e-06,1.8745561611973262e-06,1.4698332418461574e-06,1.8117416351335859e-06,1.5666402104575879e-06,1.4939443030106503e-06,1.980982555062099e-06,2.0401438579719507e-06,4.777503443362233e-06,7.594377460759299e-07,1.2939668845543845e-06,3.389409366156808e-06,1.4575347711732898e-05,1.5682361196800064e-06,1.2609388589124523e-06
99,1.8361581581411597e-06,1.2909424804618235e-06,1.852651686466294e-06,1.4432646246907725e-06,1.8286040341021848e-06,1.589679273409534e-06,1.5005235043642178e-06,1.954307988515284e-06,1.991325810670905e-06,4.438605787422565e-06,7.378013433372844e-07,1.278184167153105e-06,3.539567729477871e-06,1.5914998450883126e-05,1.5795726685729577e-06,1.2640375651812723e-06
100,1.845443953962413e-06,1.293184417152068e-06,1.8294282179176177e-06,1.4198508804618412e-06,1.8508935327711136e-06,1.6176648535150804e-06,1.5077348254658895e-06,1.938063220047843e-06,1.948147006755791e-06,4.1464070359974575e-06,7.179051854247547e-07,1.2627063802001383e-06,3.6932424764412135e-06,1.7325283307219807e-05,1.5910134349852468e-06,1.270298264831019e-06
101,1.8632623430425658e-06,1.2983328998961017e-06,1.8057426968284867e-06,1.3998308815145696e-06,1.877508008752119e-06,1.65136727067152e-06,1.515734875172695e-06,1.9318068710319974e-06,1.909902492583651e-06,3.901979592707073e-06,7.002051143880283e-07,1.2471183850444133e-06,3.848444148844507e-06,1.8798073092101225e-05,1.6019916400498026e-06,1.2797280171410084e-06
102,1.8898462404010046e-06,1.3057375903756085e-06,1.7820690980608839e-06,1.3832929829857684e-06,1.9072430618970163e-06,1.6914730008839156e-06,1.5245665867405587e-06,1.935016632276652e-06,1.876201764057021e-06,3.706245639123956e-06,6.850946271765965e-07,1.2311290318340523e-06,4.002871703275744e-06,2.032287678508819e-05,1.6119431727331024e-06,1.2922140025532174e-06
103,1.9253721465925307e-06,1.314652037570261e-06,1.7585798721877777e-06,1.3702945715731403e-06,1.9387383033060706e-06,1.7385074327736797e-06,1.5342774594584936e-06,1.947210931433995e-06,1.846803555343939e-06,3.559773100872349e-06,6.728488062890371e-07,1.2147116857451282e-06,4.154110436128389e-06,2.1888145259557527e-05,1.6203464209771548e-06,1.3074916580431953e-06
104,1.9699461985467094e-06,1.3244481138168181e-06,1.7353060974752631e-06,1.360929598262112e-06,1.970374807208076e-06,1.7927995949717065e-06,1.544991065442895e-06,1.9679526865044354e-06,1.821421472950902e-06,3.4627056758934646e-06,6.63600887746132e-07,1.1982156367098242e-06,4.299904346759445e-06,2.348329948224159e-05,1.6268910179067322e-06,1.3250854200342941e-06
105,2.0234660070218007e-06,1.3347955316355618e-06,1.7123177679528048e-06,1.3552624066570921e-06,2.0003216355102916e-06,1.854439327009042e-06,1.5568994783787028e-06,1.996709447384759e-06,1.7996560376474086e-06,3.414698043954491e-06,6.573358942798756e-07,1.1822912025915148e-06,4.438175135135155e-06,2.5099859539017725e-05,1.6315664116201425e-06,1.3442639584807021e-06
106,2.0855157895027752e-06,1.3456138977467525e-06,1.689881374894451e-06,1.3532551829211056e-06,2.0268189698656223e-06,1.9232871296977634e-06,1.5702678828175289e-06,2.0327439300990626e-06,1.7809999129910367e-06,3.4148409316132127e-06,6.53895420973445e-07,1.167658633228004e-06,4.56683188369333e-06,2.6731063337252627e-05,1.6345487527835296e-06,1.3640898927400728e-06
107,2.155368513846784e-06,1.356866559261813e-06,1.668579434719249e-06,1.3548306320171307e-06,2.048554460812712e-06,1.9990552492855075e-06,1.585384567436332e-06,2.075113633027666e-06,1.7648547376382803e-06,3.4617193933373573e-06,6.529938541199914e-07,1.1548984055462109e-06,4.683523086578545e-06,2.83704579543311e-05,1.6359907401341967e-06,1.3836076395657643e-06
108,2.2320337339067177e-06,1.368446757348299e-06,1.6493338815219947e-06,1.3600093591280986e-06,2.0648801288747634e-06,2.08134298662373e-06,1.602453635603936e-06,2.1226538965783063e-06,1.7505506582827934e-06,3.553656141899305e-06,6.542646773480343e-07,1.1443741263625519e-06,4.785538221408988e-06,3.001021665556074e-05,1.6358482785334737e-06,1.4021024976962231e-06
109,2.3142336623149736e-06,1.3802605750904762e-06,1.633286912682059e-06,1.368974321261847e-06,2.0757673925280645e-06,2.1696151373593136e-06,1.6215396766301419e-06,2.1738695231227695e-06,1.7373091079262953e-06,3.6889267212169347e-06,6.573607131425256e-07,1.1363025296196438e-06,4.870074534221008e-06,3.163971388948942e-05,1.6337956002601544e-06,1.4192977309995877e-06
110,2.400320415364522e-06,1.3923731513388031e-06,1.6215966866536501e-06,1.3820006883861723e-06,2.081584985113333e-06,2.263241341252788e-06,1.642521848342188e-06,2.226839713873408e-06,1.7242528054988551e-06,3.865706105942958e-06,6.620729077400429e-07,1.130877093012526e-06,4.9346800789461116e-06,3.3244434994883927e-05,1.6292405265348128e-06,1.435409199863303e-06
111,2.488254742779804e-06,1.4050433808202156e-06,1.6152464416785336e-06,1.3993081481707866e-06,2.0828131403384795e-06,2.3615392035137684e-06,1.665047550210555e-06,2.2792872313913325e-06,1.7106029716431964e-06,4.081865574036997e-06,6.683750929946116e-07,1.128314691890147e-06,4.977496094147735e-06,3.480488581419391e-05,1.6214868614730943e-06,1.4510606171486716e-06
112,2.575636261035837e-06,1.4186115283786355e-06,1.6149248477721586e-06,1.420966253771464e-06,2.079851467722286e-06,2.4636665143652187e-06,1.688622582769189e-06,2.328846210641688e-06,1.6958807651202746e-06,4.334887142513676e-06,6.763531393305853e-07,1.1288452273773159e-06,4.997313089603203e-06,3.629556268550437e-05,1.6099878976946158e-06,1.4670920294033729e-06
113,2.659717395140893e-06,1.4333751416145366e-06,1.6210073738888548e-06,1.4469171578283389e-06,2.0730796369257976e-06,2.568442124884822e-06,1.7128261320835165e-06,2.373406607134135e-06,1.6798733687474748e-06,4.621839504842292e-06,6.860937366317407e-07,1.1327041701474732e-06,4.993642817750557e-06,3.768500150461776e-05,1.594442607051885e-06,1.4843262190810486e-06
114,2.7375397453598832e-06,1.449587480359979e-06,1.6336063032831407e-06,1.477041200120353e-06,2.063069542035616e-06,2.6743060049761522e-06,1.737421529926272e-06,2.411422579262561e-06,1.6624652552066161e-06,4.9392759237239585e-06,6.976273210188917e-07,1.1400896416740374e-06,4.966784645139138e-06,3.893779589142239e-05,1.5746987256861904e-06,1.5033908775811496e-06
115,2.8063442770173054e-06,1.4675060627880777e-06,1.6525849759450076e-06,1.5111604100142812e-06,2.050649898828501e-06,2.7794884865732657e-06,1.762241155097206e-06,2.4421951602665264e-06,1.6436140209573593e-06,5.283128954362487e-06,7.109327638953292e-07,1.151085243561175e-06,4.917748048866438e-06,4.001832109680994e-05,1.5507085378205746e-06,1.5246384949207283e-06
116,2.8640305931786087e-06,1.4873452330790843e-06,1.6775016162984834e-06,1.5489681349097804e-06,2.0367644817340713e-06,2.8823288254789435e-06,1.787052576326994e-06,2.4660757509407117e-06,1.6235239770222194e-06,5.648618523078522e-06,7.259449904400919e-07,1.1656142378864149e-06,4.847991606653489e-06,4.089514336883081e-05,1.5225792472916913e-06,1.5481412670643945e-06
117,2.909311684932743e-06,1.5091772483822725e-06,1.7075576915067365e-06,1.5899922528927614e-06,2.022348717892892e-06,2.9816447171519394e-06,1.8116037653031526e-06,2.484370362217199e-06,1.602771041532238e-06,6.030120072965219e-06,7.425403593727323e-07,1.1834626964631523e-06,4.759023203052153e-06,4.154480002693399e-05,1.4905919978195716e-06,1.5737649058112587e-06
118,2.9415554953879893e-06,1.5329332120678289e-06,1.7416253538053457e-06,1.6336931134120536e-06,2.0083165327551453e-06,3.076994528957705e-06,1.8356924582530712e-06,2.498868319828943e-06,1.582174996466175e-06,6.421104575615528e-06,7.605548823571294e-07,1.2043439053650648e-06,4.651995246968137e-06,4.1953710153033095e-05,1.4551900800344409e-06,1.601296142115217e-06
119,2.9605739200217907e-06,1.5584746686403893e-06,1.7783988590328121e-06,1.6796151003797133e-06,1.995526466304238e-06,3.168626672061079e-06,1.8590750956135772e-06,2.5112801680900964e-06,1.5625417645577392e-06,6.814265021836964e-06,7.7983647079742e-07,1.2279336050838967e-06,4.527613013655272e-06,4.211750088552916e-05,1.416937356528297e-06,1.6304875256168196e-06
120,2.966535561606396e-06,1.585567314322187e-06,1.8166272109564395e-06,1.7274042069948438e-06,1.984702648896133e-06,3.2570753422642775e-06,1.881342050363876e-06,2.522901456295723e-06,1.5444994156958002e-06,7.2016417421457615e-06,8.002521207842001e-07,1.2538896341769508e-06,4.3864977507574464e-06,4.203742592216956e-05,1.376405040668318e-06,1.6609494172721011e-06
121,2.959923829478374e-06,1.6137780782949227e-06,1.8552287854284665e-06,1.7766534915079034e-06,1.9764604070231584e-06,3.3426658078718704e-06,1.9019489475717673e-06,2.5345250352842066e-06,1.5284721257282316e-06,7.5745143899144115e-06,8.216581896500401e-07,1.2819353691852565e-06,4.229626421702027e-06,4.17150356141739e-05,1.3340774935647104e-06,1.6920205665518148e-06
122,2.9413794536484463e-06,1.6425090776311422e-06,1.8931756613523312e-06,1.8267298896250143e-06,1.971445391134187e-06,3.425203845640716e-06,1.9203562978144226e-06,2.5465057968532145e-06,1.5147840263856754e-06,7.923403223503078e-06,8.438798140265435e-07,1.311963793638625e-06,4.058512123081598e-06,4.1149367477488924e-05,1.2903732570932658e-06,1.7227771325464405e-06
123,2.911528394348322e-06,1.6712115449461836e-06,1.929355657498129e-06,1.8767430680473037e-06,1.970374266709455e-06,3.503861891857846e-06,1.936101887758167e-06,2.5589881579043336e-06,1.5038701558264225e-06,8.238705523315545e-06,8.66677690956203e-07,1.3440250393194412e-06,3.875284784007394e-06,4.0340185857605615e-05,1.2456941996064032e-06,1.7522027028823519e-06
124,2.8710302569384708e-06,1.6995349548610792e-06,1.96261470688438e-06,1.9256747936729897e-06,1.9738954711831565e-06,3.5772313425114976e-06,1.948735640127837e-06,2.572263796525546e-06,1.4964184372501998e-06,8.511796403065166e-06,8.897204461212466e-07,1.3781880233506173e-06,3.6828580525609313e-06,3.929470805156187e-05,1.2004244260646278e-06,1.7794212351306202e-06
125,2.820762100825513e-06,1.727246864961359e-06,1.9918777117951086e-06,1.9725643507140933e-06,1.982469555672157e-06,3.6435986144938706e-06,1.9577383715336717e-06,2.5870198413061955e-06,1.49328187261352e-06,8.736101059052732e-06,9.1266127627632e-07,1.414441705829325e-06,3.484980211771209e-06,3.803206929034266e-05,1.1549237837933028e-06,1.8038637066051903e-06
126,2.7618831660841916e-06,1.754114114752204e-06,2.0162129551689182e-06,2.0166648218324723e-06,1.9964216495764154e-06,3.70136833614914e-06,1.9626325347955555e-06,2.6042646122095396e-06,1.4952820967755653e-06,8.907979792336499e-06,9.353232461947477e-07,1.4527357423604897e-06,3.2859046766354375e-06,3.6582761217314046e-05,1.1095246521447444e-06,1.8253018320867485e-06
127,2.695758163053762e-06,1.7799082208922085e-06,2.034821502245963e-06,2.0575617531873832e-06,2.01607744385003e-06,3.749429444128073e-06,1.9632744640723476e-06,2.625037833083492e-06,1.5031150907919552e-06,9.027317228843829e-06,9.578005615161886e-07,1.4930363928034027e-06,3.089815560847681e-06,3.498441690007304e-05,1.0645177744570533e-06,1.8437685310635617e-06
128,2.623831737046907e-06,1.8043745785950325e-06,2.046948276463956e-06,2.095249606311178e-06,2.0418403347568803e-06,3.7873544646234386e-06,1.9600412812654754e-06,2.6502072476906056e-06,1.517364543307244e-06,9.097366696058012e-06,9.803404754742503e-07,1.5352898656811461e-06,2.9003885032958027e-06,3.327695785158241e-05,1.0201819259899477e-06,1.859409964358147e-06
129,2.547472289029631e-06,1.8270760188856622e-06,2.051848644073051e-06,2.1301253893963778e-06,2.0741447017416888e-06,3.815464363956043e-06,1.9537446026959255e-06,2.680483488533211e-06,1.5385325960456e-06,9.123588600872288e-06,1.0031401590036582e-06,1.5794013938135927e-06,2.72064524917023e-06,3.149903328531659e-05,9.768664175681263e-07,1.8723280967263876e-06
130,2.4678253763704063e-06,1.8472533888078646e-06,2.048973525287905e-06,2.162842654016527e-06,2.1133097581345556e-06,3.834819962009787e-06,1.9454044587361457e-06,2.7164822464371786e-06,1.5670505406519955e-06,9.1124230076311e-06,1.0262281112046135e-06,1.6253181273597795e-06,2.5529799127211515e-06,2.9685797174835076e-05,9.350269992270218e-07,1.8825135127520093e-06
131,2.3857916108271446e-06,1.863797491481727e-06,2.0382318193272856e-06,2.194054985578391e-06,2.1594420280562714e-06,3.847142129998919e-06,1.9360566704080667e-06,2.7586275811801996e-06,1.6033149160518523e-06,9.071325607287945e-06,1.0494481416234689e-06,1.6730926737007998e-06,2.3992128240216885e-06,2.7867408504485758e-05,8.951570903888851e-07,1.8899088061284982e-06
132,2.3021952888874098e-06,1.8753553852780395e-06,2.0200867708141016e-06,2.224256340664678e-06,2.212492178825118e-06,3.854650908394386e-06,1.926626385100662e-06,2.8069396262070743e-06,1.6477817688962539e-06,9.009750754474089e-06,1.0725412190358424e-06,1.7227987080514558e-06,2.2606461331539135e-06,2.6068190598488783e-05,8.57676488171354e-07,1.894516962748635e-06
133,2.218053767797375e-06,1.8805944745854115e-06,1.9954702302629025e-06,2.2538522192173496e-06,2.272329280816992e-06,3.859853340532944e-06,1.9178746254677287e-06,2.8608925907545166e-06,1.7009910788319356e-06,8.939724922547416e-06,1.0953033701127846e-06,1.7743582135566866e-06,2.1381777649720765e-06,2.4306730502140238e-05,8.228704544011186e-07,1.8964699003653946e-06
134,2.1347465778240372e-06,1.8785572254928864e-06,1.9655943455384165e-06,2.2832727121602217e-06,2.3387140646898346e-06,3.865311251064686e-06,1.910478092176194e-06,2.919451867777731e-06,1.7634597493196583e-06,8.875650131336965e-06,1.1176863007144125e-06,1.8274308574708945e-06,2.032472467902428e-06,2.259669999261907e-05,7.909072195017773e-07,1.8960367442977046e-06
135,2.0539305790637778e-06,1.8689349063782883e-06,1.9317088568381404e-06,2.312916303823647e-06,2.4113487495745003e-06,3.873410176753297e-06,1.9051669625835881e-06,2.9812987086675913e-06,1.8355951567171934e-06,8.833754698522941e-06,1.1397506841209522e-06,1.8814033912373287e-06,1.9440931665847858e-06,2.0947800421479518e-05,7.618721687896604e-07,1.893550496621855e-06
136,1.9772639425888797e-06,1.852112219729477e-06,1.8948771218056566e-06,2.343010382067931e-06,2.4900960082975885e-06,3.886145363420501e-06,1.902702597995757e-06,3.045164047805871e-06,1.9176782006680417e-06,8.83132116912491e-06,1.161575279934133e-06,1.9353851742345023e-06,1.87356416190138e-06,1.9366621182942914e-05,7.357539121607369e-07,1.8892783412035521e-06
137,1.9061905665736577e-06,1.828969611863787e-06,1.8558462678867508e-06,2.3736076511920532e-06,2.5750663842758017e-06,3.904938066950387e-06,1.9036941185293663e-06,3.110135768772933e-06,2.009821133894765e-06,8.885687537632313e-06,1.183239928216844e-06,1.988190503693585e-06,1.8213994908079484e-06,1.7857586246309207e-05,7.124063750482663e-07,1.8833501350898307e-06
138,1.8418962106711833e-06,1.8005678435494032e-06,1.815063207891225e-06,2.4047541817019552e-06,2.666380543586221e-06,3.930570154916291e-06,1.908494900315196e-06,3.1758247871955426e-06,2.111902633382417e-06,9.013280750258445e-06,1.2048250394881122e-06,2.0383827428734347e-06,1.78810079296052e-06,1.6423907016779773e-05,6.915453018068739e-07,1.8758050555247692e-06
139,1.7853007386765055e-06,1.7678790410324487e-06,1.7728435489738045e-06,2.4366304623295986e-06,2.763893678334734e-06,3.96335014411406e-06,1.917268378879211e-06,3.2423349504514696e-06,2.223510211421465e-06,9.229086759612689e-06,1.2263377407424751e-06,2.084356603012585e-06,1.7741673111377866e-06,1.5068079499179225e-05,6.727808562916265e-07,1.8667036476183612e-06
140,1.7370294710428418e-06,1.7316528732834743e-06,1.7295824521114638e-06,2.469525828737614e-06,2.8671882276522433e-06,4.003446622011091e-06,1.930059562494778e-06,3.310053653653687e-06,2.34388985815955e-06,9.54672833367591e-06,1.2476326740927123e-06,2.1244408842039456e-06,1.7800968610163304e-06,1.3791729728070358e-05,6.55654618229697e-07,1.8562302791989921e-06
141,1.697435592914421e-06,1.6924465234429146e-06,1.6858621152399578e-06,2.5037680322717656e-06,2.9757232391806885e-06,4.051149603224708e-06,1.946757388250286e-06,3.3793311068916474e-06,2.4719657302439847e-06,9.978843345361498e-06,1.2684363397435365e-06,2.157132421157111e-06,1.8062722012276285e-06,1.2595327511255819e-05,6.396979581892478e-07,1.8446951536265151e-06
142,1.6666437056407841e-06,1.6508336681101463e-06,1.642442642266293e-06,2.5397682453398823e-06,3.0888535541339448e-06,4.106832347674561e-06,1.9670185521813984e-06,3.450157902339561e-06,2.6064697647356028e-06,1.0537308519555988e-05,1.2884508830874452e-06,2.1814128862540357e-06,1.852792750178999e-06,1.1478396155043844e-05,6.245089271672357e-07,1.8323754260090934e-06
143,1.6445429400197244e-06,1.6076750518054994e-06,1.6002014428483917e-06,2.5781213396751453e-06,3.205642057379888e-06,4.170627583457529e-06,1.990239375144643e-06,3.5219865440919312e-06,2.74609822956301e-06,1.1233143400271184e-05,1.307442807437344e-06,2.196908659169751e-06,1.919398973182677e-06,1.0440127500581177e-05,6.097791495615303e-07,1.8193097187785334e-06
144,1.6307547446549287e-06,1.5641924802146985e-06,1.5600317060255945e-06,2.6195660507278187e-06,3.3246290132845616e-06,4.242167782178468e-06,2.01564261790658e-06,3.593710698152998e-06,2.889570704417823e-06,1.2076157398736012e-05,1.3252566800083818e-06,2.20384232412089e-06,2.005477484646059e-06,9.479850334268944e-06,5.953123099979599e-07,1.8052541761556e-06
145,1.6246310290201582e-06,1.5217537739402044e-06,1.522714052983672e-06,2.664738435852307e-06,3.4438041817663566e-06,4.320634029949404e-06,2.0424795541867243e-06,3.6636411441277403e-06,3.0356804225425245e-06,1.307463757029345e-05,1.3417502251977593e-06,2.2029268207876386e-06,2.110053351629386e-06,8.597068639918035e-06,5.810971219924641e-07,1.7898460786755925e-06
146,1.6253219738170896e-06,1.4815940717304733e-06,1.488844348353569e-06,2.7138819490672333e-06,3.5608992509597037e-06,4.4048660119168645e-06,2.0701374393547843e-06,3.7294542400130495e-06,3.1835771966531757e-06,1.423551970002799e-05,1.3567072537818614e-06,2.1952827945761396e-06,2.2317415675525114e-06,7.791221677630605e-06,5.673291085991158e-07,1.7728393254702888e-06
147,1.6319235835293133e-06,1.4447035204536914e-06,1.4588334502495428e-06,2.766689544229659e-06,3.6737854740444666e-06,4.493296834688736e-06,2.0980289770050962e-06,3.7883072130182536e-06,3.3331295722404693e-06,1.5564839104466044e-05,1.3697946039473712e-06,2.182333020625346e-06,2.3686889872266366e-06,7.061525465901343e-06,5.543351433096581e-07,1.754266502223646e-06
148,1.6436056534854347e-06,1.4118433324920292e-06,1.4328923753622644e-06,2.8222722826877807e-06,3.780581066461942e-06,4.583921883793233e-06,2.125468786303374e-06,3.837205626433218e-06,3.484885355615928e-06,1.706763406870048e-05,1.380601755375969e-06,2.1656041685692967e-06,2.5185699796015225e-06,6.4070856610102275e-06,5.424978697152869e-07,1.7344591971926354e-06
149,1.6595928597928508e-06,1.383553849957322e-06,1.4109911309133039e-06,2.87920773911738e-06,3.879446307905375e-06,4.674461690030463e-06,2.151689991360215e-06,3.8734549477048386e-06,3.6395543037328167e-06,1.8747364328463904e-05,1.3887651563540837e-06,2.146465746598037e-06,2.678718290034686e-06,5.827039379660056e-06,5.322156371238558e-07,1.7139496454452666e-06
150,1.6790250128475012e-06,1.3601524595796722e-06,1.3928633451321839e-06,2.935671681165939e-06,3.968490575207352e-06,4.762526650465762e-06,2.1759315403675567e-06,3.894993492321545e-06,3.7974438200487925e-06,2.0605977624018018e-05,1.3941006372683447e-06,2.125929075183049e-06,2.8463906039049974e-06,5.320364781393728e-06,5.238874925038687e-07,1.6933435710037957e-06
151,1.7008477023663366e-06,1.3417922251475378e-06,1.3780546213890022e-06,2.9896056444336617e-06,4.045943303320191e-06,4.845682580504556e-06,2.197583196565053e-06,3.900566539329409e-06,3.95826832776306e-06,2.2644704178506852e-05,1.3966389254918093e-06,2.10458042223083e-06,3.0189916499196333e-06,4.885404233291797e-06,5.1792447413803e-07,1.673233322277942e-06
152,1.7238546467296436e-06,1.3285514687746442e-06,1.3659412859378396e-06,3.0388668888776896e-06,4.1102696704367765e-06,4.9215771657734144e-06,2.2163968362385275e-06,3.889790777460009e-06,4.1214400490027105e-06,2.4864020527704168e-05,1.3965518416302787e-06,2.082650027342353e-06,3.194119128220734e-06,4.519488260180445e-06,5.147675031331729e-07,1.654133399034348e-06
153,1.7468729951752707e-06,1.3204437521723615e-06,1.3557264487011353e-06,3.081385115953206e-06,4.1601116380247734e-06,4.9882240138423935e-06,2.2325907429415954e-06,3.863127752562152e-06,4.286598438974593e-06,2.726217112415054e-05,1.3940303600953506e-06,2.06015339573457e-06,3.3695066699420692e-06,4.218888092116146e-06,5.149087636358018e-07,1.6364012144936818e-06
154,1.7689746223506888e-06,1.317331098672655e-06,1.3465089751644093e-06,3.1153390038733945e-06,4.194333557711625e-06,5.044308997472841e-06,2.2466827686077442e-06,3.821801870647912e-06,4.453952323987636e-06,2.983382916184794e-05,1.3891710664427217e-06,2.0369592965361552e-06,3.543022642054078e-06,3.978959956012928e-06,5.189035073358804e-07,1.6202114924954378e-06
155,1.7895820731775414e-06,1.3188520292207276e-06,1.3374500673977215e-06,3.139296474601861e-06,4.2123466425303255e-06,5.089259748197854e-06,2.259160353774762e-06,3.7677020345102e-06,4.624202542814384e-06,3.257012800838595e-05,1.3819465295021196e-06,2.0127385730776143e-06,3.7127492039767606e-06,3.7942629407364694e-06,5.27327838075388e-07,1.6056526069987371e-06
156,1.8083872916607252e-06,1.3244501840920158e-06,1.3279444703376119e-06,3.1522723418909374e-06,4.2144929159038975e-06,5.1229018205360905e-06,2.270218769197442e-06,3.703162196261046e-06,4.798158824970613e-06,3.545934980086494e-05,1.372302049435877e-06,1.9869544142395954e-06,3.876999515340932e-06,3.6586750112476185e-06,5.40708893286359e-07,1.5928322442098584e-06
157,1.82512820853798e-06,1.3334425723540842e-06,1.3176773034107073e-06,3.153710992624638e-06,4.20211487709834e-06,5.144871431955672e-06,2.279662972500482e-06,3.6305518631435814e-06,4.976372374336658e-06,3.848713257475618e-05,1.360278121929022e-06,1.9590160613659296e-06,4.034225851258724e-06,3.5656376104992176e-06,5.594941795987212e-07,1.5818514008365896e-06
158,1.8394030612395114e-06,1.3450331339902904e-06,1.3065189820047291e-06,3.143424052431861e-06,4.177196506035253e-06,5.154316701538174e-06,2.286997304913875e-06,3.5519654340303926e-06,5.159066596440483e-06,4.163564644249223e-05,1.3460253197981047e-06,1.928487120357199e-06,4.183037200908488e-06,3.5085110034702216e-06,5.840551877624865e-07,1.572686727275354e-06
159,1.8506400558647756e-06,1.3583417431730926e-06,1.2943309649776936e-06,3.1214940153145276e-06,4.141798227427301e-06,5.150180543477911e-06,2.2917053834648425e-06,3.469248460793217e-06,5.346240319605426e-06,4.4882335265398446e-05,1.3297134224061654e-06,1.8951759551342812e-06,4.322371097428105e-06,3.4809605768947225e-06,6.146941099273734e-07,1.5651003103560172e-06
160,1.8581265880193716e-06,1.3725471393915268e-06,1.2808165257584092e-06,3.0881026241323484e-06,4.097592393193363e-06,5.131721121182942e-06,2.2935656551651947e-06,3.384073842462286e-06,5.5375584443915e-06,4.819994133353785e-05,1.3114445599004596e-06,1.8590919038648292e-06,4.451570641429203e-06,3.477255202305463e-06,6.516468884208016e-07,1.5586392640633758e-06
161,1.8609804232655807e-06,1.3870378257298929e-06,1.2655310524166004e-06,3.043304756511943e-06,4.045758082755438e-06,5.098838495987159e-06,2.2928038885538613e-06,3.297797627549135e-06,5.7320559361214365e-06,5.15578798916576e-05,1.2912600268967132e-06,1.8203805200208415e-06,4.570320380157619e-06,3.492279252993658e-06,6.950861593187382e-07,1.5527828015887368e-06
162,1.858178308507063e-06,1.401434552744352e-06,1.2480899989744077e-06,2.9869410646073595e-06,3.987330806548855e-06,5.052176417317545e-06,2.2900410626912587e-06,3.2112955293816153e-06,5.928019170278128e-06,5.4922901425614695e-05,1.2691927003218885e-06,1.779312675507258e-06,4.678512678067444e-06,3.5212400174042393e-06,7.4514169023721e-07,1.547226799073433e-06
163,1.8488030493801248e-06,1.4154928170095869e-06,1.2284634026239871e-06,2.91880518936271e-06,3.923766968762074e-06,4.993119229598436e-06,2.286098329897189e-06,3.124965572269955e-06,6.123159459689159e-06,5.825847611908585e-05,1.2452581187603832e-06,1.736293776026368e-06,4.775958383501928e-06,3.559362202705499e-06,8.019382452977695e-07,1.5421013234053697e-06
164,1.8323934733826653e-06,1.4289577714450961e-06,1.2071323325834977e-06,2.8389481730033557e-06,3.85732184339747e-06,4.923623980402207e-06,2.281754125777593e-06,3.038829664596868e-06,6.314928203455524e-06,6.15242389427492e-05,1.2194382133492604e-06,1.6918514766923846e-06,4.8619768627276745e-06,3.6018877694092975e-06,8.656109473032079e-07,1.5379602262143521e-06
165,1.8091061195904987e-06,1.4414825611052852e-06,1.1849808866159359e-06,2.7479909960876075e-06,3.7909635230406437e-06,4.845785458983752e-06,2.2776224828454312e-06,2.9527633792067325e-06,6.500801570669377e-06,6.467572136874344e-05,1.1917441821169646e-06,1.6466097225825295e-06,4.9351801156357835e-06,3.6444806094480905e-06,9.362770342037049e-07,1.5356602181379123e-06
166,1.7795638807333947e-06,1.4526436313580782e-06,1.1630563878575196e-06,2.647334984524889e-06,3.7278492289310798e-06,4.761355619216189e-06,2.2742776642039175e-06,2.866839923293937e-06,6.678418316416198e-06,6.7663064842942e-05,1.1622498537435185e-06,1.6012533067122338e-06,4.993754080324253e-06,3.683869668491942e-06,1.0140318076928463e-06,1.5362800245775507e-06
167,1.7446196497935574e-06,1.4619518134645397e-06,1.1424014520578719e-06,2.539124356324598e-06,3.670764231921791e-06,4.671592126733278e-06,2.2724647948806104e-06,2.7814762424320406e-06,6.84544586638984e-06,7.042934678892611e-05,1.1310077524713554e-06,1.5564961467873153e-06,5.0360900212792075e-06,3.718259019239473e-06,1.0990654103091243e-06,1.5410233991485524e-06
168,1.705292033372568e-06,1.4688650483536361e-06,1.1239725361413368e-06,2.4259544536090014e-06,3.6218556516995037e-06,4.577424402345314e-06,2.273098690525211e-06,2.6972174972726294e-06,6.999182587355786e-06,7.291278853433593e-05,1.0979555459246903e-06,1.513061712799157e-06,5.061129207573117e-06,3.7470740970173685e-06,1.191834575586558e-06,1.5510326885983363e-06
169,1.6627548978991616e-06,1.4728742249518164e-06,1.108582876826353e-06,2.310485461907275e-06,3.5825817548356746e-06,4.479655156889617e-06,2.2770434936979434e-06,2.614425443864977e-06,7.1363474544730494e-06,7.505466272856749e-05,1.0629175811305665e-06,1.4716500443245386e-06,5.068139697612007e-06,3.770327817053925e-06,1.29309453015335e-06,1.5672148747699332e-06
170,1.618217598001059e-06,1.4735544430024733e-06,1.0968843041061388e-06,2.1951158208048386e-06,3.553705991469221e-06,4.379155973273883e-06,2.2849072586865983e-06,2.533214246923002e-06,7.253306075765673e-06,7.68080227605537e-05,1.0256903006092354e-06,1.4329342077703102e-06,5.0564939538153626e-06,3.788321508126915e-06,1.4038000589641355e-06,1.5901933219304952e-06
171,1.5728210504595864e-06,1.470490700724775e-06,1.0894097027987867e-06,2.081809052523902e-06,3.5353090295891714e-06,4.2771717382890535e-06,2.29695396923132e-06,2.4537178404996667e-06,7.346181564230856e-06,7.81422636930439e-05,9.861649891047838e-07,1.397642855773624e-06,5.025756601827198e-06,3.8017849599070257e-06,1.5251019776496113e-06,1.6203596954443859e-06
172,1.5276355334460779e-06,1.4632507384174632e-06,1.0866400264006091e-06,1.9721224031395074e-06,3.52681720041904e-06,4.175566128595505e-06,2.313076466831745e-06,2.3764459730671913e-06,7.410566448893479e-06,7.904291528379027e-05,9.444397198756564e-07,1.3666258599554674e-06,4.975612617183701e-06,3.811966114234996e-06,1.6584861790893372e-06,1.657970371796094e-06
173,1.4836869615078383e-06,1.451556646958912e-06,1.089022035039597e-06,1.8673621864740811e-06,3.5269794774681295e-06,4.076671307748742e-06,2.33278334179931e-06,2.3023580716977656e-06,7.441466268329579e-06,7.950658725839108e-05,9.008815505143941e-07,1.3408236418076483e-06,4.9056026670777065e-06,3.820450491642127e-06,1.8058441353787015e-06,1.7032713233912148e-06
174,1.4420256874024288e-06,1.435481425460518e-06,1.0969110279202688e-06,1.7686769326196023e-06,3.5338275729866604e-06,3.982797325499709e-06,2.3552246298442464e-06,2.232577723536691e-06,7.4340296320205145e-06,7.953317295692089e-05,8.56150215203969e-07,1.3212373426663037e-06,4.815283581912687e-06,3.828955986683524e-06,1.9693286900072134e-06,1.7566243515462812e-06
175,1.4038199015501044e-06,1.4154467067638044e-06,1.1104957226565852e-06,1.677014433201196e-06,3.5448740478100804e-06,3.895809888618747e-06,2.3793168948418795e-06,2.1680782744059704e-06,7.384795840153799e-06,7.912440651045259e-05,8.1120457484184e-07,1.3089182658707219e-06,4.704975520307799e-06,3.8393654696098206e-06,2.151074075091482e-06,1.8185951256711352e-06
176,1.3703074488826373e-06,1.3920628444387524e-06,1.1297775368615841e-06,1.5930636816287967e-06,3.557660300367321e-06,3.816966787391735e-06,2.4039396746953214e-06,2.1095759385226954e-06,7.292560732123448e-06,7.829260230879999e-05,7.672561140198596e-07,1.30490210787369e-06,4.576532928235893e-06,3.853935978283716e-06,2.3529636313773075e-06,1.8899838634806411e-06
177,1.3426080521701974e-06,1.3659653804892497e-06,1.15461814470719e-06,1.5172714475494232e-06,3.5703292116652297e-06,3.7468876998435936e-06,2.428061733848233e-06,2.0575403688471377e-06,7.158096721129765e-06,7.706800075959551e-05,7.256480627361711e-07,1.3101426279197284e-06,4.433488117400411e-06,3.875342418342422e-06,2.5765611197862945e-06,1.9717898812713207e-06
178,1.3215856989673408e-06,1.3377044560073666e-06,1.1847829078173997e-06,1.449890019015522e-06,3.5818186544477444e-06,3.6855252877095566e-06,2.4506987494379276e-06,2.0122860835328902e-06,6.983139428657533e-06,7.549563282086322e-05,6.877365028527377e-07,1.3255144753208454e-06,4.280438620188703e-06,3.906350975097039e-06,2.8231461484724625e-06,2.065092572628684e-06
179,1.3078249384868426e-06,1.307699189674656e-06,1.2199094923470756e-06,1.3910093511330312e-06,3.591649309130248e-06,3.6321393037698317e-06,2.4707684026982186e-06,1.974129434065495e-06,6.7699844465103036e-06,7.362791154737421e-05,6.548665271055178e-07,1.3518325365296565e-06,4.122216916057473e-06,3.949357173296259e-06,3.093685433962443e-06,2.17087338306945e-06
180,1.3016736474508288e-06,1.2762833816264335e-06,1.2594384911049647e-06,1.3405822373489032e-06,3.5995323746869415e-06,3.5852905872954142e-06,2.487008826676604e-06,1.9434164121890198e-06,6.522117247108641e-06,7.152129237555243e-05,6.284457024035525e-07,1.389830200581733e-06,3.963430797934152e-06,4.006129693738179e-06,3.388680250814897e-06,2.2898729704828955e-06
181,1.3033080472721576e-06,1.2438016268377398e-06,1.3025905481003008e-06,1.2984740141386228e-06,3.6049919155281113e-06,3.542819341630655e-06,2.498041328591048e-06,1.920396320568607e-06,6.244891768700616e-06,6.923627510944315e-05,6.100476841677772e-07,1.4401047753464607e-06,3.8083178884215837e-06,4.077840254792375e-06,3.7080398840261773e-06,2.422523517059617e-06
182,1.3127501059815855e-06,1.2106620724339587e-06,1.348423426813544e-06,1.2645494576037325e-06,3.607236019726788e-06,3.5019034211725913e-06,2.5024767316657147e-06,1.9051229292908724e-06,5.945417528461855e-06,6.683510200093924e-05,6.01475705292969e-07,1.5030600767202536e-06,3.660569928197528e-06,4.165315113793868e-06,4.051173315102347e-06,2.5688931100225157e-06
183,1.3298146829983826e-06,1.1773018052124998e-06,1.3959453716984005e-06,1.2387419588468435e-06,3.6054343836198876e-06,3.4594179035140597e-06,2.498907429053861e-06,1.8974361131200227e-06,5.631716581929294e-06,6.437599122463288e-05,6.047541306234269e-07,1.5788839450587194e-06,3.5231307265900928e-06,4.269332039448199e-06,4.41724339997427e-06,2.7286261646931364e-06
184,1.3540580207213886e-06,1.1440963641663197e-06,1.444190559208771e-06,1.2210265451531708e-06,3.5991728334306237e-06,3.412575645338561e-06,2.485826048969233e-06,1.8970065318740373e-06,5.311685457370856e-06,6.191012810055089e-05,6.220965636061365e-07,1.6675946386297901e-06,3.3981157021142716e-06,4.390661783621775e-06,4.80524814703382e-06,2.9009087237807526e-06
185,1.3847854301690476e-06,1.1112923857628578e-06,1.4921847229193428e-06,1.2113054347177679e-06,3.588709428857986e-06,3.3595088579017276e-06,2.461750431474661e-06,1.9034212643368603e-06,4.992452047067776e-06,5.9485744545406946e-05,6.55920636067205e-07,1.769132463607418e-06,3.2868521651100324e-06,4.529766719946791e-06,5.213745771042471e-06,3.084425992887462e-06
186,1.421092403502777e-06,1.0790205070820024e-06,1.5389307350311287e-06,1.2092980334756772e-06,3.574905930927123e-06,3.299537360096727e-06,2.425667943969016e-06,1.916208731937148e-06,4.680252149435954e-06,5.715396223422912e-05,7.089017730109987e-07,1.8834227090754903e-06,3.1899876671840486e-06,4.686415730400562e-06,5.640460494600365e-06,3.277341475115664e-06
187,1.4618750441262958e-06,1.0473720093313107e-06,1.583549102178345e-06,1.214497543555976e-06,3.5588927311852985e-06,3.233098422096177e-06,2.377483701727932e-06,1.934748851680541e-06,4.380433565511126e-06,5.496887364004404e-05,7.840330093560457e-07,2.0103777464010597e-06,3.1075820098180373e-06,4.859454900213129e-06,6.082022671026524e-06,3.477406457973043e-06
188,1.5058088731957848e-06,1.0164503404216953e-06,1.6254401732350102e-06,1.2261693164644545e-06,3.5416195530717765e-06,3.1613541965763816e-06,2.318104946935842e-06,1.958150522810273e-06,4.09738299224073e-06,5.2981874928815067e-05,8.846790353615322e-07,2.1498873796913754e-06,3.0391282297844525e-06,5.046723853866782e-06,6.5338372491054835e-06,3.6821273491902142e-06
189,1.551375690708855e-06,9.863217700665331e-07,1.6643142494066044e-06,1.2433497911245946e-06,3.523558485462101e-06,3.0856656465823754e-06,2.249140357204009e-06,1.9852119910962514e-06,3.834511142495769e-06,5.1236004864598465e-05,1.0145957890641785e-06,2.3018854617810017e-06,2.9836282060902587e-06,5.245060707539784e-06,6.990002293768076e-06,3.888748448359026e-06
190,1.5969819667927355e-06,9.569221110302572e-07,1.7001449140488225e-06,1.2648906578592413e-06,3.5046670266482315e-06,3.0073073615496036e-06,2.1724716663630327e-06,2.0145240018124186e-06,3.594329511335596e-06,4.97637583571981e-05,1.1778868446036403e-06,2.466561011296786e-06,2.9398675967778547e-06,5.45050293447824e-06,7.4432272625200005e-06,4.094012722840657e-06
191,1.6411176649331827e-06,9.280248371874245e-07,1.733125726848802e-06,1.289627060536439e-06,3.4844744913331154e-06,2.9274938192130526e-06,2.089964495851857e-06,2.0446566981961795e-06,3.3785439598549652e-06,4.85868208827022e-05,1.3789071707867011e-06,2.6446570320215437e-06,2.906786942311948e-06,5.658726289070108e-06,7.88481175771233e-06,4.2939478034273785e-06
192,1.6825052538514353e-06,8.992947545691559e-07,1.7636036672719139e-06,1.3166087710996811e-06,3.462269892291936e-06,2.8474452047768733e-06,2.0033909375130574e-06,2.0742609835206832e-06,3.188221399116724e-06,4.7715704705265374e-05,1.622165234922944e-06,2.8376387617272198e-06,2.8836799377341887e-06,5.8654465604217615e-06,8.304761760652455e-06,4.483840271376991e-06
193,1.720251337910517e-06,8.704262374345316e-07,1.7919427314096379e-06,1.345190439814323e-06,3.437400992192284e-06,2.7683592899319087e-06,1.9144344141872463e-06,2.101991610243947e-06,3.024061101318589e-06,4.714935855105204e-05,1.9122566151359934e-06,3.047544410640916e-06,2.8700758299747733e-06,6.066596432511969e-06,8.691992131145177e-06,4.658383590792175e-06
194,1.7539846900184507e-06,8.413450455070642e-07,1.8183494694428595e-06,1.374877984206271e-06,3.4094894529417126e-06,2.691347331978233e-06,1.8246751679574374e-06,2.126351353661499e-06,2.8865879788948978e-06,4.687516731741109e-05,2.2538260963527076e-06,3.2765709351922805e-06,2.8654527950096146e-06,6.258459109581945e-06,9.034775655195096e-06,4.812071602742543e-06
195,1.7838744815947663e-06,8.123331875491797e-07,1.8427712914364762e-06,1.4050879879893508e-06,3.378443858631875e-06,2.617349445314103e-06,1.7356046018429558e-06,2.1456483469214004e-06,2.776222939436032e-06,4.686937460211828e-05,2.651541938815827e-06,3.52665388902344e-06,2.8690315830926034e-06,6.437839670069329e-06,9.321779282495961e-06,4.939907469503436e-06
196,1.8104487775221527e-06,7.839464690867895e-07,1.864935172367437e-06,1.435049515106131e-06,3.344360941862807e-06,2.5470399933318964e-06,1.6486547798068605e-06,2.158170456298672e-06,2.6934001285902854e-06,4.7097754525309873e-05,3.1100019595719568e-06,3.799232719268125e-06,2.8796691623324082e-06,6.602078718626438e-06,9.543549593210848e-06,5.038195303940659e-06
197,1.8342849811756975e-06,7.568377693939967e-07,1.8844456466320512e-06,1.463862198514635e-06,3.3074467499157662e-06,2.480829886679724e-06,1.5651371886475913e-06,2.1625334916508416e-06,2.638645221103305e-06,4.751606813314947e-05,3.6335051899727975e-06,4.095141503859747e-06,2.895768355775158e-06,6.748797597126535e-06,9.693741900458806e-06,5.10495386947757e-06
198,1.855747222311654e-06,7.316517213979587e-07,1.9008201857003094e-06,1.4905521242954967e-06,3.2680175236752145e-06,2.419021683523683e-06,1.486133058288616e-06,2.1581045226303905e-06,2.6124257764133822e-06,4.807067310226757e-05,4.225779528598792e-06,4.414543156887804e-06,2.9152616275165424e-06,6.875477442551323e-06,9.769302784730012e-06,5.139596569741726e-06
199,1.8749105268005113e-06,7.089706063640871e-07,1.9134717169154367e-06,1.5140904818852004e-06,3.2265030610384586e-06,2.3619639128214923e-06,1.4124543898819566e-06,2.145318573183093e-06,2.6149001331433465e-06,4.8701313571498e-05,4.889782315554941e-06,4.75699099276269e-06,2.9356837585888186e-06,6.9792752882104915e-06,9.76939011662725e-06,5.142075046125362e-06
200,1.8916816477489775e-06,6.892857937087289e-07,1.92174053931102e-06,1.5334773271628764e-06,3.1833699230755326e-06,2.3100142844899053e-06,1.3446686077619925e-06,2.125631206282854e-06,2.645767910142192e-06,4.934758694117456e-05,5.627554215146182e-06,5.121640995677663e-06,2.9543070009843114e-06,7.0576367920259205e-06,9.694111303878068e-06,5.112354406859139e-06
201,1.9059826655002347e-06,6.730337920015928e-07,1.9250067968006235e-06,1.5478851158504102e-06,3.138998991216745e-06,2.2633351604562747e-06,1.2831248697936834e-06,2.1010710725152508e-06,2.7042268548527226e-06,4.995751792342059e-05,6.440062426333868e-06,5.5074641842782926e-06,2.9684482328990694e-06,7.109555952256687e-06,9.544563741142059e-06,5.05072904220611e-06
202,1.917830205379648e-06,6.606528225003997e-07,1.922826950377418e-06,1.5567829746225073e-06,3.0936254201678563e-06,2.22169112372984e-06,1.2279625778727654e-06,2.073712785893995e-06,2.7889819251592925e-06,5.0494379087841726e-05,7.327047647834124e-06,5.913346151849219e-06,2.9759183687247763e-06,7.136445661486316e-06,9.324011652028888e-06,4.958376006819103e-06
203,1.927279707140986e-06,6.52583183360141e-07,1.9150776494065494e-06,1.560042977645883e-06,3.0475063725710284e-06,2.184360211375389e-06,1.1791108262380158e-06,2.045369018005808e-06,2.89835102570831e-06,5.093835569067859e-05,8.286913512567403e-06,6.3380966834259715e-06,2.975321013852845e-06,7.141896780636906e-06,9.038731604769934e-06,4.837471559198438e-06
204,1.9343420476376994e-06,6.492374061105027e-07,1.9021281347891674e-06,1.5580088233833755e-06,3.001269198367078e-06,2.150178624937372e-06,1.1363014416715354e-06,2.0174830706160106e-06,3.0304755963424186e-06,5.128216511691958e-05,9.316624420319707e-06,6.780432985841279e-06,2.9660268231323515e-06,7.130661228173687e-06,8.69777346383997e-06,4.6909958792752066e-06
205,1.9389421477638796e-06,6.509928420205392e-07,1.884942393079143e-06,1.5514194087556563e-06,2.9560597611436792e-06,2.1177223410730978e-06,1.0991023789326438e-06,1.991124612616097e-06,3.1834466819961697e-06,5.152315044755725e-05,1.0411555751300935e-05,7.238971767455163e-06,2.9479501619559223e-06,7.107647257012299e-06,8.311915478967513e-06,4.522594243249284e-06
206,1.940911614073957e-06,6.581808148837233e-07,1.8649399997617904e-06,1.5411763016678178e-06,2.9133290158703213e-06,2.0856081362363636e-06,1.0669654255456474e-06,1.967099632569791e-06,3.3552074823794508e-06,5.16574070317355e-05,1.1565316980855237e-05,7.712186386730343e-06,2.921329285154213e-06,7.0773614742597155e-06,7.892328155757574e-06,4.336509329456938e-06
207,1.9400440429023276e-06,6.710552627512485e-07,1.8436605565020958e-06,1.5281480627132169e-06,2.8745033344118763e-06,2.05279824521552e-06,1.0392998522814384e-06,1.9461231296416476e-06,3.5433485816621993e-06,5.1680302806900465e-05,1.2769590198801975e-05,8.198195477642941e-06,2.886534773940016e-06,7.043762428692149e-06,7.449432152720272e-06,4.137352236346073e-06
208,1.936236900143452e-06,6.897645871207123e-07,1.8224837910084503e-06,1.5131394869388927e-06,2.8407301198080227e-06,2.018714111264306e-06,1.0155332097310897e-06,1.9288898490087073e-06,3.7449292995126633e-06,5.15912598438459e-05,1.401397519026125e-05,8.694319416612165e-06,2.843830953994877e-06,7.010306911670978e-06,6.992338079761925e-06,3.929645174806648e-06
209,1.929633084025941e-06,7.143273320979136e-07,1.80251736791076e-06,1.4968902687123645e-06,2.8126935302075784e-06,1.983081397821211e-06,9.95085063225717e-07,1.9159952929634613e-06,3.95639940766097e-06,5.139706076205831e-05,1.5285860778282328e-05,9.196561669653907e-06,2.7932225337889406e-06,6.979952445379608e-06,6.528899445762126e-06,3.7173696095600967e-06
210,1.920652080339487e-06,7.446131903406469e-07,1.784578180412146e-06,1.4799808220962176e-06,2.790507505849214e-06,1.9457150215064495e-06,9.773265084859226e-07,1.9078811664720697e-06,4.1737685978351254e-06,5.1111348585022595e-05,1.6570379298753903e-05,9.699213048052776e-06,2.7346101858642294e-06,6.954966720320202e-06,6.0659813282715605e-06,3.5037463617557062e-06
211,1.909884354448623e-06,7.80355007288214e-07,1.7692062188779745e-06,1.4627311554458788e-06,2.7737594844259953e-06,1.9065064157891981e-06,9.616752655823356e-07,1.9049116589398422e-06,4.392965225892977e-06,5.0751467793203e-05,1.7850374459341973e-05,1.0194610378610952e-05,2.668126858695461e-06,6.936710815137484e-06,5.609535089281656e-06,3.291247017431371e-06
212,1.8978983488272846e-06,8.212084252159082e-07,1.756698026495062e-06,1.445227035326503e-06,2.7616936626667092e-06,1.865522074403321e-06,9.477709393596631e-07,1.907423495109148e-06,4.609959652904059e-06,5.0334088038147386e-05,1.9106155961331187e-05,1.0673117873705884e-05,2.594288856065002e-06,6.925812254705023e-06,5.164510381380473e-06,3.0817290222175457e-06
213,1.885087114974918e-06,8.668356492356394e-07,1.7471814035361278e-06,1.4275045977792298e-06,2.7533838322121525e-06,1.8229356046452565e-06,9.35524459550762e-07,1.9156280180035454e-06,4.820488767922871e-06,4.9871284447204496e-05,2.031497631560096e-05,1.1123517295777364e-05,2.513924641614429e-06,6.922786338512804e-06,4.734838851042973e-06,2.8765798392659365e-06
214,1.871673781365123e-06,9.169537426131444e-07,1.7407193537959102e-06,1.4097682818021892e-06,2.7478166800505176e-06,1.778831637129481e-06,9.249944706667038e-07,1.9294725884156094e-06,5.019787770812255e-06,4.936920664830849e-05,2.145080769764094e-05,1.1533819590676928e-05,2.4282098041420316e-06,6.928640721906933e-06,4.323467828465151e-06,2.6768065665184433e-06
215,1.8578070757743156e-06,9.713053582297883e-07,1.737336558228192e-06,1.3924440479451744e-06,2.743973141047688e-06,1.7331880022589586e-06,9.162513027098748e-07,1.9485549923151785e-06,5.2026943574911105e-06,4.883020413165491e-05,2.248542539315273e-05,1.1892354907758593e-05,2.3388875207862687e-06,6.945109577702811e-06,3.9323663636249145e-06,2.483150528984888e-06
216,1.8435727074298519e-06,1.0295872371216344e-06,1.7369221216953784e-06,1.3760348854489898e-06,2.7409357765830853e-06,1.6861209870334015e-06,9.093515133473658e-07,1.972076229036989e-06,5.364113038156267e-06,4.8256678238957727e-05,2.3391077305607737e-05,1.2189032481329548e-05,2.248310661766889e-06,6.974546856637324e-06,3.5626497674822504e-06,2.296316438889117e-06
217,1.8289283365374033e-06,1.0914170181175196e-06,1.7391164322306116e-06,1.360954925766063e-06,2.7379258604622427e-06,1.638111733203595e-06,9.043646696798579e-07,1.9988595508012746e-06,5.49964842177054e-06,4.765361509675873e-05,2.4143803650164366e-05,1.2416554310893846e-05,2.159114433472357e-06,7.019660846043129e-06,3.21491136630325e-06,2.1171955004208085e-06
218,1.8137190567264404e-06,1.156359176354662e-06,1.7432709762395973e-06,1.3474813822491232e-06,2.7342913915699253e-06,1.5899601420336673e-06,9.013505434557344e-07,2.027472888438315e-06,5.6061262327395265e-06,4.7028125976486795e-05,2.472615132139396e-05,1.2571111140600074e-05,2.0738131733390328e-06,7.08324569456072e-06,2.8895687125820406e-06,1.946879575204882e-06
219,1.7978022232417706e-06,1.223985531556123e-06,1.7484636862207908e-06,1.3358188709238508e-06,2.7295855094091465e-06,1.5425852618463844e-06,9.003077110113921e-07,2.056424772986082e-06,5.681764271126149e-06,4.638643600103317e-05,2.5128411914074915e-05,1.2652020066947909e-05,1.994608738206422e-06,7.1678582535248035e-06,2.5870219044557e-06,1.786469536928856e-06
220,1.7811767814884802e-06,1.293975146874108e-06,1.753583455671534e-06,1.3261798268299557e-06,2.7236748165508844e-06,1.49691018077924e-06,9.011712809803617e-07,2.0844178837081255e-06,5.7259806346168845e-06,4.573012407169451e-05,2.534766986170093e-05,1.2660206942162182e-05,1.9233675310006164e-06,7.2753319735683094e-06,2.3076521337010454e-06,1.6368595409435463e-06
221,1.7640230837207164e-06,1.3662109961905725e-06,1.757515802869934e-06,1.3187651215328508e-06,2.716659925647739e-06,1.4538136001963574e-06,9.038500766296407e-07,2.1106472531599185e-06,5.738894239822964e-06,4.505458654856888e-05,2.53846409719592e-05,1.2596436907643352e-05,1.861662617861308e-06,7.4062822497350205e-06,2.0517534963801017e-06,1.4986376496487144e-06
222,1.74662441012188e-06,1.440755224617437e-06,1.7593521856396578e-06,1.3136943488981409e-06,2.7086886715142173e-06,1.414056644346516e-06,9.082411537987521e-07,2.1349906383441482e-06,5.720681212188792e-06,4.435150497920779e-05,2.5240521627546444e-05,1.2460746196199244e-05,1.8108443083659838e-06,7.5598624868931165e-06,1.8194186541645218e-06,1.3721006414175888e-06
223,1.7292880202859815e-06,1.5176926756442296e-06,1.7585067820973059e-06,1.3110467966279754e-06,2.6999610202024104e-06,1.378225453375318e-06,9.142020310694127e-07,2.157881789590901e-06,5.6713727330481205e-06,4.361323364279075e-05,2.491684979597323e-05,1.225344305421967e-05,1.7720544130438702e-06,7.733891092861031e-06,1.610432006389431e-06,1.257304150688221e-06
224,1.7123876074607285e-06,1.5970005684340521e-06,1.754703608401161e-06,1.3109959282498591e-06,2.6908954395739694e-06,1.3467103834462697e-06,9.214986460790736e-07,2.1799433088404588e-06,5.591468822119622e-06,4.283572204294834e-05,2.441816801068186e-05,1.1976557463356779e-05,1.7461724441822547e-06,7.925367365688327e-06,1.4242667794584942e-06,1.1541221710789921e-06
225,1.6963909412944776e-06,1.6785449095769282e-06,1.7478854283099223e-06,1.3138802231580754e-06,2.6821691659171514e-06,1.3197134105537442e-06,9.297525945716695e-07,2.2017247796570886e-06,5.482773630503571e-06,4.201857366928546e-05,2.375453341799218e-05,1.1634706364178833e-05,1.7337863445417534e-06,8.131291569193628e-06,1.2601942176452887e-06,1.0623224104146906e-06
226,1.6817207606714185e-06,1.7621082435776654e-06,1.7381373994023578e-06,1.320149484536674e-06,2.6745579958625866e-06,1.2972928945374633e-06,9.384192586722855e-07,2.223688748013011e-06,5.348633376022993e-06,4.116236890016848e-05,2.2942147985426225e-05,1.1235251271686961e-05,1.7351844924067357e-06,8.349521201868339e-06,1.1174017770860726e-06,9.816071376345041e-07
227,1.6685794460686014e-06,1.8473289072221539e-06,1.7256692803112033e-06,1.3302467339905415e-06,2.6687485092241957e-06,1.2794080124760296e-06,9.46852034800409e-07,2.246280826120792e-06,5.1934479770233925e-06,4.026486703122744e-05,2.2002420526515937e-05,1.0787954211492868e-05,1.7503124158143443e-06,8.57930165114182e-06,9.950303134986394e-07,9.11586711634378e-07
228,1.6568917593415205e-06,1.9335875085422286e-06,1.7108150995467598e-06,1.3444908183106226e-06,2.6652598911226834e-06,1.2659234275736723e-06,9.544522830381603e-07,2.2699673027684487e-06,5.021841871483533e-06,3.9319732806342294e-05,2.09602029154653e-05,1.0304282222930964e-05,1.7787214791205367e-06,8.821269965208848e-06,8.921458389643144e-07,8.517496207506837e-07
229,1.6463232235734884e-06,2.0199828662951004e-06,1.6940075369178077e-06,1.3629874037681745e-06,2.6644163596950507e-06,1.256598950884586e-06,9.607916677084913e-07,2.295280384101827e-06,4.837966466840352e-06,3.8319574359109214e-05,1.9841722563869908e-05,9.796474114758759e-06,1.8195476769474572e-06,9.077034775514745e-06,8.077211195361032e-07,8.015111276363771e-07
230,1.6363383460174877e-06,2.1054774317744528e-06,1.6757358885234203e-06,1.3855980118970579e-06,2.6662552507829857e-06,1.2511493996140717e-06,9.656939514047995e-07,2.3228907772880904e-06,4.645256388329185e-06,3.7259797331150814e-05,1.867259870572374e-05,9.276508234258503e-06,1.8715182961239778e-06,9.3485777190323e-06,7.4066348923264e-07,7.603272550179757e-07
231,1.626391419293856e-06,2.1891174871957446e-06,1.6564837329026805e-06,1.4119769698568179e-06,2.6703897280070946e-06,1.2493778405028978e-06,9.693881794826135e-07,2.3536215807794534e-06,4.4466001936545685e-06,3.6138756666162756e-05,1.7476205947464825e-05,8.755213109200896e-06,1.932970997657549e-06,9.63756622669626e-06,6.898562978623908e-07,7.277534398675945e-07
232,1.6162397583031502e-06,2.2701316245908068e-06,1.6366253493022733e-06,1.4416181386141256e-06,2.6759386141316617e-06,1.2512193082339487e-06,9.726140202160777e-07,2.3883107921472696e-06,4.244615915868293e-06,3.495464340227743e-05,1.627256806174417e-05,8.241765195806201e-06,2.001862152138865e-06,9.944660286583998e-06,6.541630247138343e-07,7.033796519057229e-07
233,1.606143894262164e-06,2.347811289652255e-06,1.6163402634719792e-06,1.4738820094605693e-06,2.6816426434539255e-06,1.256638425523408e-06,9.76464598743408e-07,2.4275710339125528e-06,4.04179885595814e-06,3.370442779407854e-05,1.507797253717759e-05,7.743572819160993e-06,2.075793003191651e-06,1.0269259525289664e-05,6.323868953600116e-07,6.867552503318444e-07
234,1.5967729745249126e-06,2.421296149688855e-06,1.5956180992980105e-06,1.5080658250986006e-06,2.6862035186617314e-06,1.265532787910091e-06,9.821009101653677e-07,2.4715952136096122e-06,3.8404675161474e-06,3.2387895174538974e-05,1.3905293964373251e-05,7.266316702589294e-06,2.1521244889723405e-06,1.0609991407112346e-05,6.232395082754125e-07,6.774320301493532e-07
235,1.5889272611902085e-06,2.489496515747032e-06,1.5743094349221237e-06,1.5434959711195778e-06,2.6886762439272238e-06,1.27772249514434e-06,9.905900954099579e-07,2.520067532335992e-06,3.642577181483021e-06,3.1012291350689573e-05,1.2764653009249395e-05,6.813997075247033e-06,2.2281562565050475e-06,1.0965535740011543e-05,6.253718913263028e-07,6.750618412900769e-07
236,1.5833319446254923e-06,2.5512412397340854e-06,1.5521698102883316e-06,1.57950151364356e-06,2.6886531271552888e-06,1.2929775531618739e-06,1.0028687733045379e-06,2.5721533090754457e-06,3.4496773749613194e-06,2.959179853037237e-05,1.1664009387370024e-05,6.3890445893329195e-06,2.301250240478638e-06,1.1335270648481873e-05,6.374413197125027e-07,6.793984695969996e-07
237,1.5805807784062968e-06,2.6055143895628223e-06,1.5289273249954758e-06,1.615270147958567e-06,2.686141324265936e-06,1.3110523056501231e-06,1.0197506775773873e-06,2.6265876853998687e-06,3.2631387737174484e-06,2.8142806929088353e-05,1.0609544862377723e-05,5.992580134456987e-06,2.368880068740191e-06,1.1719557700959525e-05,6.581591457556336e-07,6.901941512446183e-07
238,1.5811280820795548e-06,2.6515651904812607e-06,1.504381450140267e-06,1.649788653318698e-06,2.681241673525466e-06,1.3317103902743028e-06,1.0419764635790423e-06,2.681902294113161e-06,3.0843243872042276e-06,2.6680169948202648e-05,9.605895638873583e-06,5.6248188968154325e-06,2.4287467054428763e-06,1.211959096912475e-05,6.863191453349736e-07,7.071042846652644e-07
239,1.5852761366332672e-06,2.688768902768304e-06,1.4784722340425818e-06,1.6820144592134296e-06,2.6738285931557067e-06,1.3547037088665368e-06,1.0702709548230164e-06,2.7367335421507286e-06,2.9144523853696017e-06,2.521637985530726e-05,8.656342343885714e-06,5.285529719850387e-06,2.4789728464348988e-06,1.2536865316613793e-05,7.208076203596274e-07,7.296557449787213e-07
240,1.593174795103052e-06,2.7163601416069864e-06,1.4512743184809404e-06,1.7111926755515737e-06,2.663446378742102e-06,1.3796957337026415e-06,1.1053260536168337e-06,2.7900394649809107e-06,2.754404612164113e-06,2.3761783272821015e-05,7.762987789367357e-06,4.9743496139018184e-06,2.5181388166736528e-06,1.2972477600654651e-05,7.606168327517816e-07,7.572605590293517e-07
241,1.6048695286663075e-06,2.7333401167029857e-06,1.422946324543041e-06,1.7370802146812634e-06,2.649516935963592e-06,1.406179798614226e-06,1.1477046477121663e-06,2.8410954461657207e-06,2.604790435342703e-06,2.2324678299456406e-05,6.9269203509032565e-06,4.69079989317035e-06,2.5451493360495656e-06,1.3426386160715343e-05,8.049105072534155e-07,7.892945952950273e-07
242,1.6203952751758706e-06,2.7386959939507677e-06,1.3937179964641094e-06,1.7599138110077752e-06,2.631702935836453e-06,1.4334467576848935e-06,1.1977480435379287e-06,2.889335925378971e-06,2.4661355334566207e-06,2.0911350929511277e-05,6.148425775306351e-06,4.434135662850491e-06,2.5593151208742176e-06,1.3896627819421949e-05,8.530695063960985e-07,8.252380433419602e-07
243,1.6398139290996991e-06,2.7317679361769892e-06,1.3639701048260307e-06,1.780166955334577e-06,2.610174738239081e-06,1.4606153447265167e-06,1.255556601664164e-06,2.9341595883971836e-06,2.3389105558065363e-06,1.952628760834329e-05,5.427260126104764e-06,4.203248798877396e-06,2.560715367960247e-06,1.4378664971007285e-05,9.046415785345105e-07,8.647744986945027e-07
244,1.6631459367582164e-06,2.7125102399554488e-06,1.3343510228626375e-06,1.7982812242995397e-06,2.5856361925214545e-06,1.4867407581102379e-06,1.3210556544303353e-06,2.974734368637775e-06,2.223482340365828e-06,1.817354674562793e-05,4.762859064202607e-06,3.9966003484855125e-06,2.5503157612159962e-06,1.486536368530299e-05,9.592966187800757e-07,9.078141173745672e-07
245,1.6903134309908644e-06,2.6815075372284336e-06,1.305776832418128e-06,1.8145287865743753e-06,2.55909726200795e-06,1.5109623832486557e-06,1.39409217126438e-06,3.0099288260131175e-06,2.1202304692723646e-06,1.685906390662191e-05,4.154405366967413e-06,3.812092706535362e-06,2.5295511840894846e-06,1.5348050745765767e-05,1.0168433274990637e-06,9.545115426284958e-07
246,1.7212082926432738e-06,2.6398051309442053e-06,1.279257853979388e-06,1.8289941879969709e-06,2.5315641013811315e-06,1.5325394234207006e-06,1.474463508376348e-06,3.0385394089897186e-06,2.0297227695761227e-06,1.559152900875699e-05,3.6008325639387374e-06,3.647009262097005e-06,2.499808290025124e-06,1.5818332656066975e-05,1.0772064456834334e-06,1.0052628021657132e-06
247,1.7557865041755535e-06,2.58874682722547e-06,1.2557018295649249e-06,1.8415836362999124e-06,2.503866855097264e-06,1.5507354843969808e-06,1.5618512997570652e-06,3.0596948256912457e-06,1.9526831341229786e-06,1.438090113323166e-05,3.1008278589969113e-06,3.4981631197485204e-06,2.462283126088172e-06,1.6269249336172334e-05,1.1403451107347973e-06,1.0606102728834427e-06
248,1.7940184003541478e-06,2.529906676729758e-06,1.2358304401529214e-06,1.8520948734895742e-06,2.476592091156023e-06,1.5647831329859462e-06,1.6557355479169883e-06,3.0731064231099965e-06,1.8897841600369802e-06,1.323623457819867e-05,2.652787842900282e-06,3.3621783464423555e-06,2.4181188932936435e-06,1.6694645148480702e-05,1.206188553026034e-06,1.1210903529642766e-06
249,1.8357666022144864e-06,2.4650048675003048e-06,1.220195116369916e-06,1.8604074741395968e-06,2.4499847341361404e-06,1.5741147061475456e-06,1.7553399076554667e-06,3.078998737802173e-06,1.8414845367203912e-06,1.216440309253318e-05,2.254719532855557e-06,3.2357909936791653e-06,2.368513921403991e-06,1.708811002048471e-05,1.274587761985777e-06,1.1871273293388549e-06
250,1.8807991572181161e-06,2.3957191031576427e-06,1.2092671766019208e-06,1.8666882316276114e-06,2.42392255136152e-06,1.5786885887157154e-06,1.8595964958976235e-06,3.0778241134969586e-06,1.8079745319923147e-06,1.1170004694668575e-05,1.9041900696439178e-06,3.116159519027974e-06,2.314683986516234e-06,1.7443695655981898e-05,1.3452685041481253e-06,1.2590107149623229e-06
251,1.9289341045176035e-06,2.323491604142118e-06,1.2035564219430371e-06,1.8714564408086363e-06,2.3981250414113553e-06,1.5790864515494776e-06,1.9671258010733065e-06,3.0700153380494424e-06,1.7892015728155535e-06,1.0255897598865565e-05,1.5984147592830516e-06,3.0011154841181414e-06,2.2577063658327394e-06,1.7757959269542258e-05,1.4178261985181412e-06,1.3369076025256067e-06
252,1.980112283396383e-06,2.2494952586170586e-06,1.2036345078913717e-06,1.8754779294613693e-06,2.3724944273567867e-06,1.5762881820012855e-06,2.0762549250068824e-06,3.0559941466206327e-06,1.784997693788434e-06,9.423631212436636e-06,1.3344574380697107e-06,2.8892232611346213e-06,2.1983748119059553e-06,1.8031158955279614e-05,1.4917657723993836e-06,1.4208725670601452e-06
253,2.034293939725523e-06,2.174733651792259e-06,1.2100243457836562e-06,1.8795876009863145e-06,2.347284227833425e-06,1.5713502488257492e-06,2.18508289814082e-06,3.0363983407272004e-06,1.7952230387576908e-06,8.673628869726384e-06,1.109406052079615e-06,2.7796589792185364e-06,2.1372454329993084e-06,1.8266637503042053e-05,1.5665653136649357e-06,1.5108519904379437e-06
254,2.0913260748666394e-06,2.1000762389328933e-06,1.2230677935561287e-06,1.8845590608954433e-06,2.322964182818093e-06,1.565216841438079e-06,2.2915862593478447e-06,3.0122500880679737e-06,1.8197549598237954e-06,8.005499337934235e-06,9.204049806071663e-07,2.67202040003205e-06,2.074887546534844e-06,1.8468924581565176e-05,1.6417323322736885e-06,1.6066859112858336e-06
255,2.1509721670988697e-06,2.0261669826612105e-06,1.2428624592425937e-06,1.8910287637511378e-06,2.300089520311777e-06,1.558639036406333e-06,2.39380110153696e-06,2.9848690753822666e-06,1.8583183223945476e-06,7.4185505043762466e-06,7.645986030454861e-07,2.56610164466908e-06,2.0121152330650177e-06,1.864160136121184e-05,1.7167824172790218e-06,1.7081255848173477e-06
256,2.2130475262614685e-06,1.9533674916524412e-06,1.2692507788326027e-06,1.8994152219186566e-06,2.279431010558131e-06,1.5521248750706869e-06,2.4900966972432097e-06,2.9556209364763297e-06,1.9103117119686842e-06,6.912129051868712e-06,6.391275237489606e-07,2.4616937321145326e-06,1.949976215763994e-06,1.878611957371318e-05,1.7911567106718818e-06,1.814826768518674e-06
257,2.277452451308665e-06,1.881869173381005e-06,1.301840944402993e-06,1.90985140154107e-06,2.262067857096704e-06,1.5459349542319748e-06,2.579408939808203e-06,2.925710237176821e-06,1.974730544633901e-06,6.485546551342136e-06,5.411795597418452e-07,2.3586027889456895e-06,1.8895516408627613e-06,1.8902504234869465e-05,1.8641716592556586e-06,1.926254757071059e-06
258,2.344062892977293e-06,1.8119203724609627e-06,1.340083014136098e-06,1.9221739690762668e-06,2.2491607666833178e-06,1.5401470239911678e-06,2.661215081826634e-06,2.896098010670998e-06,2.0501541310732082e-06,6.137796426171528e-06,4.679944441410351e-07,2.256886476205723e-06,1.8318375262204553e-06,1.8991639431800483e-05,1.9350240148027867e-06,2.0415979218937583e-06
259,2.4126393059973683e-06,1.7440093823651937e-06,1.3833922542252907e-06,1.935932162456649e-06,2.241613544037421e-06,1.534819465093286e-06,2.735223203405165e-06,2.8674806296985383e-06,2.134748189417002e-06,5.867416343901847e-06,4.168491645238269e-07,2.157017057349894e-06,1.7778216276656027e-06,1.9057632512758865e-05,2.0028561465364915e-06,2.1598490462918874e-06
260,2.482890104057611e-06,1.6789006698533759e-06,1.4312396015699004e-06,1.950408292065731e-06,2.239919335531817e-06,1.530170180288309e-06,2.8011149179068178e-06,2.84023953247902e-06,2.2263100832488757e-06,5.672611119754191e-06,3.851371896954137e-07,2.059838448330539e-06,1.7285601611160148e-06,1.9108975428284525e-05,2.066858231418001e-06,2.280008350533427e-06
261,2.5546191717173758e-06,1.6175375930421762e-06,1.483129974508096e-06,1.964669276390455e-06,2.2442597225028916e-06,1.5265738227922994e-06,2.8586023480568377e-06,2.8143592062935326e-06,2.3224052939160416e-06,5.551521401265183e-06,3.704973261887913e-07,1.966443100472988e-06,1.68507971105243e-06,1.915816246600968e-05,2.126321041445918e-06,2.401178641869001e-06
262,2.6277383814089916e-06,1.5608833429044972e-06,1.5385041158300999e-06,1.9776070312205167e-06,2.254714881230465e-06,1.5243958219880416e-06,2.90754071855086e-06,2.7894787435391413e-06,2.4206069532817624e-06,5.502547637527909e-06,3.7083944447633284e-07,1.878040007446559e-06,1.6482100124602343e-06,1.9219980896807745e-05,2.180629697718457e-06,2.522428075507948e-06
263,2.7020772630112098e-06,1.5097811651648065e-06,1.5966630098509035e-06,1.988027012942106e-06,2.2713402246502587e-06,1.5238679861535146e-06,2.9477868323727738e-06,2.765173801680752e-06,2.5188164874517753e-06,5.524669891772333e-06,3.8425535580603477e-07,1.7958113889666285e-06,1.6185056016755259e-06,1.9309054407158396e-05,2.2292155676388378e-06,2.6425605273031404e-06
264,2.7771738059702767e-06,1.4649009022440014e-06,1.656727384099882e-06,1.99483761444986e-06,2.2940242563089556e-06,1.525061822638556e-06,2.9789566252707506e-06,2.7412039560397645e-06,2.6156209059422152e-06,5.617575137113518e-06,4.089219634550217e-07,1.720806762494377e-06,1.5962442120939202e-06,1.9437599172323787e-05,2.2714698978145824e-06,2.7599803778045882e-06
265,2.8522223844110137e-06,1.42675910140501e-06,1.7176272881514276e-06,1.9971362951601773e-06,2.322319421459516e-06,1.5278805329496871e-06,3.0004218825324547e-06,2.7174230752436067e-06,2.710591521611303e-06,5.781383019701353e-06,4.430403255931271e-07,1.6539043444740691e-06,1.5814574692905888e-06,1.9614242149962055e-05,2.306759102056414e-06,2.872681258068391e-06
266,2.9262073534295693e-06,1.3957237549670673e-06,1.7781701411131022e-06,1.9940950569802504e-06,2.355484565901194e-06,1.5320416519205595e-06,3.01162342693653e-06,2.6934856659572164e-06,2.804322386673852e-06,6.016039192483509e-06,4.848058799534134e-07,1.5957889902953544e-06,1.5739807880488205e-06,1.9843873027565706e-05,2.3346173538637498e-06,2.97836946541129e-06
267,2.9980700848345604e-06,1.371982983472009e-06,1.837176708498999e-06,1.984900373940723e-06,2.3927303760526385e-06,1.5371313119966326e-06,3.012454876072754e-06,2.6687377250730497e-06,2.898052909484759e-06,6.320792833704731e-06,5.324390564198018e-07,1.5469179401303836e-06,1.5734701264758734e-06,2.012779877797984e-05,2.354901495573755e-06,3.0747632573946777e-06
268,3.066696623891846e-06,1.3555653723015536e-06,1.8936285475858479e-06,1.9689017781079863e-06,2.4333986888155244e-06,1.542761356631369e-06,3.0034093805789356e-06,2.6424345904102594e-06,2.993065654437697e-06,6.6941344558305354e-06,5.842787353811007e-07,1.5075198921149057e-06,1.5793788168641541e-06,2.046376343971436e-05,2.367762644615535e-06,3.1599646787665617e-06
269,3.1308815778941495e-06,1.3464456656676554e-06,1.9467821385778064e-06,1.9458054581791718e-06,2.4768999926661058e-06,1.5486602615703846e-06,2.985414522502902e-06,2.6140665912254528e-06,3.090268904401483e-06,7.133981991043169e-06,6.388408711103139e-07,1.477650066385734e-06,1.5909549238948344e-06,2.084591254558865e-05,2.373581983133091e-06,3.2326911224437095e-06
270,3.189550275757676e-06,1.3446458335443666e-06,1.996194986076698e-06,1.915747560258427e-06,2.522589958535273e-06,1.5546068350116099e-06,2.9595466969197967e-06,2.5835415574257253e-06,3.1901712471581774e-06,7.6376024124244e-06,6.947733749244607e-07,1.4572410919470827e-06,1.607306846426415e-06,2.1264724739043933e-05,2.37295019822163e-06,3.292287004488561e-06
271,3.24199706578028e-06,1.3502627102224623e-06,2.041648492271105e-06,1.8792157285924653e-06,2.5698445253022353e-06,1.5603578628374659e-06,2.9268060191142914e-06,2.5512049115436706e-06,3.2931421110387524e-06,8.201291398536252e-06,7.508026177815627e-07,1.4460816719607333e-06,1.6275049216678343e-06,2.1706820642286237e-05,2.3666166425242917e-06,3.338659429389579e-06
272,3.287765099707764e-06,1.3634517424718766e-06,2.0830160553990187e-06,1.8368548666530255e-06,2.618223743519592e-06,1.5656344858095186e-06,2.8879916273902797e-06,2.5177867517326396e-06,3.399648003768796e-06,8.820068241378602e-06,8.057923318292691e-07,1.4437464680743528e-06,1.6505998055373392e-06,2.215505238050663e-05,2.355439599557479e-06,3.372275594957097e-06
273,3.326357410555816e-06,1.3843875303290495e-06,2.120112977109484e-06,1.7893159093117591e-06,2.667411292627736e-06,1.5700655075975042e-06,2.8437538293833924e-06,2.4842518547593e-06,3.5102041355352144e-06,9.487384942303713e-06,8.588920802036052e-07,1.4495502943633947e-06,1.6756086188593488e-06,2.2589697920910873e-05,2.3403385992360747e-06,3.394085263401309e-06
274,3.3572555349421762e-06,1.4131923098540413e-06,2.152558013577737e-06,1.7373086125949091e-06,2.7170009509761337e-06,1.5731089518283743e-06,2.794831696181608e-06,2.45150616032494e-06,3.6251640487746003e-06,1.0195033096949184e-05,9.096103801677918e-07,1.4625489076434725e-06,1.7016844909889711e-06,2.2990902455520945e-05,2.3221330298300423e-06,3.405194344080808e-06
275,3.380246611864966e-06,1.4498633062206482e-06,2.179774523755742e-06,1.681762275846965e-06,2.7665245522603993e-06,1.5741483727128945e-06,2.7422546509610775e-06,2.4201111174393563e-06,3.7447246738060894e-06,1.0933372461334797e-05,9.577016871542064e-07,1.4815893851944623e-06,1.7283949707988086e-06,2.3341401626585537e-05,2.3013411424433204e-06,3.406492955780881e-06
276,3.395542345997211e-06,1.4942122246138716e-06,2.2012385192325244e-06,1.6238785937353385e-06,2.815767967710058e-06,1.5728150568611758e-06,2.6873328797001875e-06,2.390221787839155e-06,3.869205457388393e-06,1.1691451035714638e-05,1.0030144312627665e-06,1.5054220373259756e-06,1.7558021753446428e-06,2.3628301856763087e-05,2.2781737003389487e-06,3.3985403153761796e-06
277,3.4035070569953182e-06,1.5458063668529655e-06,2.2168200315618438e-06,1.5650381174837578e-06,2.8649672105229987e-06,1.5692196698074988e-06,2.6314432663810017e-06,2.3617567907027974e-06,3.999183144892795e-06,1.2456732748531038e-05,1.0454548983561495e-06,1.532835383359036e-06,1.7842814891111907e-06,2.3843176903046796e-05,2.2527536784840426e-06,3.3816391338953336e-06
278,3.404450616831127e-06,1.603949242787438e-06,2.2269545483435967e-06,1.5066594146000708e-06,2.9146536050446543e-06,1.5638102161775599e-06,2.5757236837508945e-06,2.3346290391946004e-06,4.1352374768392206e-06,1.3214699044388853e-05,1.0849651145229904e-06,1.562755852788207e-06,1.8142821052723608e-06,2.3980317014105732e-05,2.2253250992061854e-06,3.355888564550479e-06
279,3.3987710101365316e-06,1.6677086798338465e-06,2.232588565976271e-06,1.45007704243e-06,2.965334661829207e-06,1.557051248707841e-06,2.5208843027898496e-06,2.3088666687148673e-06,4.2776563290625085e-06,1.3948569707960164e-05,1.1214334563255995e-06,1.5942854279631515e-06,1.846242411686568e-06,2.4033886653424782e-05,2.196279430173521e-06,3.3211941904039335e-06
280,3.387179545063474e-06,1.7359335903693054e-06,2.2350220822873255e-06,1.3964424558780283e-06,3.0172494096192053e-06,1.5492390444199603e-06,2.467243681230365e-06,2.2845514089825595e-06,4.426391700901501e-06,1.4639453732319528e-05,1.1546256076890994e-06,1.6266713628548184e-06,1.8806911501219665e-06,2.3996177462226106e-05,2.166134490142346e-06,3.277303011478745e-06
281,3.3707483639903564e-06,1.8072732801499207e-06,2.2357308369998695e-06,1.3466459837532573e-06,3.0703495934802942e-06,1.5404859060003604e-06,2.4148830974615003e-06,2.261652132644851e-06,4.5810384381471454e-06,1.5267507480211572e-05,1.1841878273591265e-06,1.6592666178982107e-06,1.9183219502949654e-06,2.38591994285473e-05,2.1356169710652454e-06,3.2238994957640565e-06
282,3.3508185843120845e-06,1.8802947052545507e-06,2.236161953163295e-06,1.3012756608596863e-06,3.1244967611572367e-06,1.530803251862556e-06,2.3637942924252484e-06,2.239969299826371e-06,4.7406874376781475e-06,1.5814173588736e-05,1.209712789560257e-06,1.6915679859257008e-06,1.9599067055820774e-06,2.3619152507568123e-05,2.105693605897216e-06,3.1607786526597272e-06
283,3.3288764871295392e-06,1.9536863755018186e-06,2.2375401301948594e-06,1.2606256042967937e-06,3.1795662745035703e-06,1.5202001224095981e-06,2.313939763247575e-06,2.2192739410908565e-06,4.9038923986134165e-06,1.626466742424521e-05,1.2308141819128457e-06,1.7232884268270068e-06,2.006167960461912e-06,2.3280513253836303e-05,2.077370762218342e-06,3.0880815872831626e-06
284,3.306414232873756e-06,2.02640144518688e-06,2.2407869369899467e-06,1.2247665904078091e-06,3.2352521005210647e-06,1.508697657402659e-06,2.2652012646249166e-06,2.1994341442305694e-06,5.068882288248395e-06,1.6609314528131587e-05,1.2471102849941352e-06,1.7543216037777427e-06,2.057670239413348e-06,2.285676826989993e-05,2.0514178506291825e-06,3.006513861939417e-06
285,3.284737543496664e-06,2.0976453388608514e-06,2.2465590962335605e-06,1.1936908586332884e-06,3.290816430031087e-06,1.4963228799362156e-06,2.217415110155292e-06,2.1803952360899684e-06,5.23380702712064e-06,1.6842612323312113e-05,1.258151662085859e-06,1.7845700545587648e-06,2.114698455747732e-06,2.2367584357637753e-05,2.028253812530412e-06,2.9174270689224106e-06
286,3.264736102102169e-06,2.166764337737128e-06,2.255304112732725e-06,1.167493739963726e-06,3.345068285140315e-06,1.4831860944669252e-06,2.1706016126684318e-06,2.1621530511952956e-06,5.396730772584159e-06,1.6960888331934776e-05,1.2634497099399337e-06,1.813767676922021e-06,2.1771762224961246e-06,2.183446710310136e-05,2.0079784475982305e-06,2.8227189465877075e-06
287,3.2467194566344057e-06,2.2331640645057652e-06,2.2672886926885285e-06,1.1464879720101133e-06,3.396527518528267e-06,1.469525923540458e-06,2.1250813488796063e-06,2.144819393508435e-06,5.555310983238023e-06,1.6961492742118418e-05,1.2626043498105042e-06,1.8414014875372512e-06,2.2446891483531847e-06,2.1277081209463484e-05,1.9904321998350704e-06,2.7246255476473794e-06
288,3.2303923686847807e-06,2.2963157804017846e-06,2.282630735432085e-06,1.1311633885562281e-06,3.4435566083827955e-06,1.4556092692751186e-06,2.0813461113253673e-06,2.12865803048032e-06,5.706414718321947e-06,1.684460570338736e-05,1.2553621294026143e-06,1.8666855952762594e-06,2.3165812178121393e-06,2.071118685072531e-05,1.975255041817447e-06,2.625475261115517e-06
289,3.2149128896816476e-06,2.355756934977537e-06,2.301344555628734e-06,1.1220267010065785e-06,3.484335259881893e-06,1.4416085499314712e-06,2.0399335386398767e-06,2.113955285204389e-06,5.846057248665289e-06,1.661497653502608e-05,1.2415804336670877e-06,1.888530052673533e-06,2.3919881753905806e-06,2.014804805044016e-05,1.9619051817571567e-06,2.527436273848925e-06
290,3.198989282358265e-06,2.410970745084691e-06,2.3233735338732445e-06,1.1194473602279369e-06,3.51685325833218e-06,1.427606895317408e-06,2.001354369011442e-06,2.100815427946401e-06,5.969833073216373e-06,1.6281402877509706e-05,1.221251051215354e-06,1.9055834184987963e-06,2.469770023515521e-06,1.9594655160828464e-05,1.949609380974555e-06,2.4323635772388575e-06
291,3.1811125209208138e-06,2.461220156655461e-06,2.348577775607618e-06,1.1235817771660663e-06,3.539175295196609e-06,1.413705721422081e-06,1.965998518316203e-06,2.0891288969283873e-06,6.073655026741478e-06,1.585506553966155e-05,1.1945780485660011e-06,1.916436497981986e-06,2.5484936013952648e-06,1.905417300571033e-05,1.9373781498087984e-06,2.341827198486211e-06
292,3.159879964645555e-06,2.505540919783873e-06,2.376648858137913e-06,1.1343503749434595e-06,3.5498528585455087e-06,1.4000754281715699e-06,1.934113395472483e-06,2.0787929107604253e-06,6.154440365322019e-06,1.534859673323488e-05,1.161953085265194e-06,1.9199294910940503e-06,2.6265788341534435e-06,1.8526520352036015e-05,1.9242310662372556e-06,2.2572092354678687e-06
293,3.134128775447546e-06,2.54293079718183e-06,2.4069731012966315e-06,1.1514340363776792e-06,3.548203755050363e-06,1.3868736334402866e-06,1.9058666694586105e-06,2.0699444557713276e-06,6.210338596583346e-06,1.4775966703406174e-05,1.1238396279509173e-06,1.915410475916551e-06,2.7025846374127797e-06,1.800921009664491e-05,1.9095048094489796e-06,2.1797387272717943e-06
294,3.102841343430651e-06,2.5724929485819012e-06,2.438564099389389e-06,1.1742864025858316e-06,3.5344139645115387e-06,1.3741538064092624e-06,1.8813748059885549e-06,2.062922438789177e-06,6.240297582305703e-06,1.415196387662131e-05,1.0806850735575284e-06,1.9028294226414085e-06,2.7754801595274903e-06,1.749833680772824e-05,1.892962683228556e-06,2.110480375408127e-06
295,3.0651210193228616e-06,2.5933557359263695e-06,2.4701931332741118e-06,1.202169430223431e-06,3.5094680203466796e-06,1.3619377602297115e-06,1.8606517753488208e-06,2.0579932466072823e-06,6.243467514528539e-06,1.3490888301104641e-05,1.0328731355455512e-06,1.8826825775230024e-06,2.844662049289894e-06,1.6989504404243294e-05,1.8746380173184464e-06,2.050303083686202e-06
296,3.0203755838722533e-06,2.6046281930748444e-06,2.500671715056814e-06,1.2342353582980774e-06,3.4748245306966075e-06,1.3504411707366746e-06,1.8435536874002744e-06,2.055145812365232e-06,6.219218096498066e-06,1.2805713858188053e-05,9.80711802973481e-07,1.8559269433640356e-06,2.909684428393457e-06,1.647868629882638e-05,1.8545899455801132e-06,1.9998209750918496e-06
297,2.968550266390289e-06,2.605674136785755e-06,2.529065641508164e-06,1.2696240340233828e-06,3.4319190441858684e-06,1.340191998110143e-06,1.8298276349281907e-06,2.054147464245099e-06,6.167625399707968e-06,1.2108517683152639e-05,9.244769281103171e-07,1.8239390482497784e-06,2.969968022925687e-06,1.5963000098120933e-05,1.8327442320670632e-06,1.9593504222089323e-06
298,2.9101883273756e-06,2.596458110707756e-06,2.5546495044628955e-06,1.3074822545651575e-06,3.381830567585864e-06,1.331874450782783e-06,1.8192414186024695e-06,2.054704130490577e-06,6.089652152507831e-06,1.1411124482765731e-05,8.644673080630609e-07,1.7884525571916796e-06,3.024664070092552e-06,1.5441085412080776e-05,1.8089025850686523e-06,1.9288987982336235e-06
299,2.846217476561296e-06,2.5775956456813036e-06,2.5766579900653817e-06,1.3469378023953036e-06,3.325293210180531e-06,1.3260761416182735e-06,1.8116474641355979e-06,2.056482662912345e-06,5.986912505704522e-06,1.0724851171006356e-05,8.010452612770152e-07,1.751366552677738e-06,3.0726201882723897e-06,1.4912827601198756e-05,1.7829162582414465e-06,1.908137285105458e-06
300,2.7776728878200974e-06,2.550132225409422e-06,2.5941661680280717e-06,1.3871720527136959e-06,3.2628895689125924e-06,1.3231584259049733e-06,1.8069037040982996e-06,2.0590655406000524e-06,5.8615276468582225e-06,1.0059635647872716e-05,7.346746372337214e-07,1.7144733908842184e-06,3.1124721151298743e-06,1.4378589640604247e-05,1.754872949301318e-06,1.896365478043984e-06
301,2.7056699803905637e-06,2.515302891104559e-06,2.6063230740156942e-06,1.4275800166526432e-06,3.1952724583087435e-06,1.3232695801070697e-06,1.8047261599617392e-06,2.062012247955619e-06,5.716243958511823e-06,9.423397141201787e-06,6.659320702880332e-07,1.6792803648875735e-06,3.14294936027962e-06,1.3838241211319998e-05,1.7251348624395276e-06,1.8925163846764507e-06
302,2.6315737266535187e-06,2.4744585411532804e-06,2.6127360761361e-06,1.4678471812931519e-06,3.1233799409117027e-06,1.3264160855384249e-06,1.8046297027577616e-06,2.0649423050358667e-06,5.554508564715853e-06,8.821952511891985e-06,5.95499347396371e-07,1.646966807400939e-06,3.1632308649791745e-06,1.3290583528853574e-05,1.6942281800430542e-06,1.8951982824615624e-06
303,2.5570945908478466e-06,2.4291487221261047e-06,2.6136737538293783e-06,1.5078561912610757e-06,3.0485574407802945e-06,1.332493872274402e-06,1.8060146047616423e-06,2.0675632684941248e-06,5.380283549693137e-06,8.259252963811373e-06,5.241620725053782e-07,1.6183790906279928e-06,3.173072170919179e-06,1.2734379999384122e-05,1.6626821220489942e-06,1.9027419753600565e-06
304,2.4841857109040682e-06,2.3811772899601257e-06,2.6099545714305795e-06,1.5475089035802913e-06,2.972527832071818e-06,1.3412579662990835e-06,1.8082515646934898e-06,2.069751180066622e-06,5.1976412512752245e-06,7.737680929427734e-06,4.527758945474779e-07,1.5940275547250167e-06,3.1727490511605812e-06,1.2171014604608634e-05,1.6309225105864897e-06,1.9132725346495587e-06
305,2.4147715359580433e-06,2.332468303120016e-06,2.6025883322229114e-06,1.5866370034910037e-06,2.8972778311887112e-06,1.3522871925237502e-06,1.810640398314385e-06,2.0716862773830665e-06,5.010257487982531e-06,7.258291870199719e-06,3.8220424576255524e-07,1.5741191338351173e-06,3.1630057240612393e-06,1.1606357811962395e-05,1.5993072325455441e-06,1.9248410484592253e-06
306,2.350462787498101e-06,2.2847853567405994e-06,2.5924062015372183e-06,1.6251070761527249e-06,2.8249375578225812e-06,1.3649594446528865e-06,1.8123809542797298e-06,2.073909240950898e-06,4.821052855707634e-06,6.820928794010278e-06,3.133150245919429e-07,1.558643031817392e-06,3.1449371183187384e-06,1.1049865004848027e-05,1.568293088970583e-06,1.9355472009648663e-06
307,2.292429920685622e-06,2.239496739723755e-06,2.5799344679175233e-06,1.663000521292623e-06,2.757631104036302e-06,1.3784353630477264e-06,1.812701947467697e-06,2.0772443283018115e-06,4.632206565955994e-06,6.424339744853331e-06,2.4706309448515595e-07,1.5474857496489417e-06,3.1197972388449265e-06,1.0512084706943014e-05,1.538544906465121e-06,1.943538087076138e-06
308,2.2414219387220655e-06,2.1974934830567994e-06,2.5655343145520575e-06,1.7006302688349197e-06,2.6972642376188175e-06,1.3916758010800513e-06,1.8109719756157696e-06,2.0826384887727177e-06,4.445450899209885e-06,6.0666584179101345e-06,1.8459101984521318e-07,1.5404961787289157e-06,3.0889697285116666e-06,1.0002916459113271e-05,1.5108100554959028e-06,1.946916838279426e-06
309,2.1978001827026083e-06,2.1592119563233576e-06,2.5496046166410387e-06,1.738347547945215e-06,2.645322523769048e-06,1.403544511067322e-06,1.8066117714424257e-06,2.090966828783484e-06,4.262428946338624e-06,5.746302080080646e-06,1.2726049019312517e-07,1.5374632401243202e-06,3.054057272964534e-06,9.531081691005005e-06,1.485691481984407e-06,1.9437647226684992e-06
310,2.161582283460906e-06,2.1247297592805295e-06,2.5326648185844557e-06,1.7763161782600887e-06,2.6027756961326905e-06,1.4130668876071125e-06,1.7990065599249911e-06,2.1028536531061274e-06,4.084883937501068e-06,5.462726851725123e-06,7.659055381256076e-08,1.5380778616624816e-06,3.0168211000304046e-06,9.103904591611567e-06,1.4635859206764014e-06,1.9323950299413636e-06
311,2.1325311753720715e-06,2.0939513898877027e-06,2.515268257231758e-06,1.8143919938215203e-06,2.5700960502267965e-06,1.419742642091813e-06,1.7876314454302342e-06,2.1186017922847607e-06,3.914504324463364e-06,5.2165210913156344e-06,3.418098909990746e-08,1.5419571335509001e-06,2.9790309427979326e-06,8.727083431916784e-06,1.4447801476727913e-06,1.911690274390101e-06
312,2.1101873301648395e-06,2.0667917579290985e-06,2.4978027231915246e-06,1.852098414413456e-06,2.547375669523543e-06,1.4236107905162077e-06,1.772234838421469e-06,2.138290061497768e-06,3.752666767886036e-06,5.0089641000596985e-06,1.686482250890269e-09,1.5487718478574114e-06,2.9423921130885595e-06,8.40460127146975e-06,1.4294871970574812e-06,1.8813091999840392e-06
313,2.093841000432954e-06,2.043230760526317e-06,2.4803439442234972e-06,1.888682474217934e-06,2.5344836623785067e-06,1.424984707678422e-06,1.752875973541368e-06,2.161941416956871e-06,3.600515269706695e-06,4.841469598928048e-06,-1.9177585169720433e-08,1.5584484991593998e-06,2.9084743400812163e-06,8.138680156061029e-06,1.4177517732395401e-06,1.841689667641905e-06
314,2.0826549760179505e-06,2.023255743820292e-06,2.4626854763258718e-06,1.923241605039324e-06,2.531108431000564e-06,1.4241603732846427e-06,1.7298362565275926e-06,2.1895779909708507e-06,3.4593023757778633e-06,4.715113264963809e-06,-2.6631988936238926e-08,1.5713360745223007e-06,2.8786479480822813e-06,7.92974765830878e-06,1.4093582953315393e-06,1.7938881716046886e-06
315,2.075984685796686e-06,2.006778097961477e-06,2.4444575736036103e-06,1.954828002395058e-06,2.53662841909956e-06,1.4213302478687915e-06,1.7034828570894046e-06,2.2211180054231567e-06,3.33049368292736e-06,4.630282834033452e-06,-1.8843815770783594e-08,1.5882809914523856e-06,2.8541578574142466e-06,7.776493646968575e-06,1.403857277600419e-06,1.739323583321698e-06
316,2.0735944084207886e-06,1.9935528630080723e-06,2.4252131195826603e-06,1.982484704810426e-06,2.5499471467838774e-06,1.4165891678076143e-06,1.6741671849399819e-06,2.256281898139115e-06,3.2154856155497388e-06,4.586480401356745e-06,6.060721137796231e-09,1.6106180349319644e-06,2.836194574146861e-06,7.675918620174576e-06,1.4006656257974471e-06,1.6794876804390173e-06
317,2.075517274980089e-06,1.983143123700072e-06,2.404501926277649e-06,2.005324710052848e-06,2.5694474758043373e-06,1.4099113742228495e-06,1.6422870097666257e-06,2.2946389480754607e-06,3.1152707830515344e-06,4.582244108417473e-06,4.9990828349213644e-08,1.6400672289295288e-06,2.8257445268038477e-06,7.623314191441559e-06,1.3991268991443255e-06,1.6157504568285752e-06
318,2.0817134478410924e-06,1.9750190106914227e-06,2.381980662146362e-06,2.0227353905461922e-06,2.593136059545849e-06,1.4011950534904263e-06,1.6084780764093528e-06,2.33567940263603e-06,3.030278678484506e-06,4.6151702986433934e-06,1.1489255294342291e-07,1.6785530670778313e-06,2.8233741995640965e-06,7.612282202641353e-06,1.398541439085241e-06,1.549380816076508e-06
319,2.091835966664255e-06,1.9687120922492116e-06,2.3575292504385038e-06,2.0345779230138427e-06,2.618961353666007e-06,1.3904326611703437e-06,1.5736863836366396e-06,2.3788239869955957e-06,2.9603373998223577e-06,4.6820696410878855e-06,2.0277725779335157e-07,1.7280057216744776e-06,2.8292198681319364e-06,7.634920818651838e-06,1.3982168836124683e-06,1.4816974284905544e-06
320,2.105231329867014e-06,1.9638303111568448e-06,2.3313298372768482e-06,2.0411504291220745e-06,2.645187940723038e-06,1.377849999126781e-06,1.5390198524744829e-06,2.4234933494879165e-06,2.9046807584058548e-06,4.77918801308075e-06,3.157998509149545e-07,1.7901879064514277e-06,2.843111809062827e-06,7.682121012497644e-06,1.3974551172752187e-06,1.4141290553865462e-06
321,2.1211679333949572e-06,1.9600309874702237e-06,2.3038946656285274e-06,2.0429057742205745e-06,2.670646019545127e-06,1.3638479821789734e-06,1.5055359802091512e-06,2.469220452504198e-06,2.8619684708842266e-06,4.902332824189305e-06,4.563520659372953e-07,1.866592631438817e-06,2.864603386353693e-06,7.743720241908332e-06,1.3954685954201016e-06,1.3480960609339438e-06
322,2.139169126588512e-06,1.9570989866326733e-06,2.2759996181928537e-06,2.040251661565445e-06,2.694712602247087e-06,1.348804421268967e-06,1.4741089902214328e-06,2.5156057753578625e-06,2.83033856946285e-06,5.046818638796415e-06,6.270886799627073e-07,1.958455398044428e-06,2.8929427371730304e-06,7.808707230149492e-06,1.3914036496697142e-06,1.2848324699295976e-06
323,2.159166323254731e-06,1.954940153078335e-06,2.248476567099936e-06,2.033667001490415e-06,2.7170499924425477e-06,1.3329486604418813e-06,1.4454152484263231e-06,2.562144222426029e-06,2.8075198263330097e-06,5.207331581908925e-06,8.308486373247074e-07,2.0668290493135763e-06,2.9271309630440666e-06,7.86605278661479e-06,1.3845529589749456e-06,1.2252919330171687e-06
324,2.1813229000301402e-06,1.9534463759668377e-06,2.2219515504011958e-06,2.023917072518351e-06,2.7373395717071667e-06,1.3164240529718382e-06,1.4199927309481499e-06,2.6081763200969623e-06,2.790990483472418e-06,5.378026481085629e-06,1.0705341534177283e-06,2.1926422463451826e-06,2.9660302498094603e-06,7.906149888348315e-06,1.3745815435195529e-06,1.1701575032075427e-06
325,2.2057883521077716e-06,1.9524622854985494e-06,2.196688473696904e-06,2.0120496081616875e-06,2.7552427634705417e-06,1.2994253514100905e-06,1.3982487517958257e-06,2.653045151688526e-06,2.7781907851946328e-06,5.553148911633737e-06,1.3490283921409018e-06,2.336779116215582e-06,3.0085069514073856e-06,7.92220440393092e-06,1.3615283713803738e-06,1.1198924969260888e-06
326,2.232644118531642e-06,1.951852866593848e-06,2.1726035369763235e-06,1.999166779017189e-06,2.7705252799919115e-06,1.2822333843523754e-06,1.3803915345847335e-06,2.6962622596754054e-06,2.7667174248219737e-06,5.7279237587609175e-06,1.6691675863742429e-06,2.5001645466947497e-06,3.0536494559171184e-06,7.910849446511546e-06,1.3456583481806365e-06,1.074803593978075e-06
327,2.26191531029793e-06,1.951534975257909e-06,2.1493868807820528e-06,1.9861870363203035e-06,2.7830677745205143e-06,1.2651483165376083e-06,1.3664372653291658e-06,2.737499937572606e-06,2.75444611323946e-06,5.899038511739317e-06,2.0338216874326855e-06,2.6837217281414264e-06,3.1009000590017425e-06,7.871639300967512e-06,1.3274227400766953e-06,1.0351390278242273e-06
328,2.2935335885989743e-06,1.95148797608402e-06,2.1265869527800007e-06,1.973731608243755e-06,2.792699304733869e-06,1.2484391628453786e-06,1.3563605475707786e-06,2.7764756772933815e-06,2.739783597036706e-06,6.064937621944944e-06,2.4461037502641036e-06,2.8882993640123457e-06,3.1498788533067716e-06,7.805707306437238e-06,1.3075162157895504e-06,1.0011722110947226e-06
