,EMG1,EMG2,EMG3,EMG4,EMG5,EMG6,EMG7,EMG8,EMG9,EMG10,EMG11,EMG12,EMG13,EMG14,EMG15,EMG16
0,5.582212818794676e-07,2.5220332959526707e-07,6.880967933745437e-07,7.885798268682964e-08,5.37549439121721e-07,-1.4782293058523695e-07,2.9212362296547913e-07,1.1716957348387012e-06,2.028346385732105e-06,1.2743052467205636e-05,5.020385029067459e-07,4.1313963715280465e-07,-3.239050426268184e-07,-1.2270586458225273e-06,-5.955349669268199e-08,1.5654669197275722e-07
1,7.082459095853318e-07,3.2793246893661103e-07,8.228785032942427e-07,1.5605690105152432e-07,6.437436979493439e-07,-5.8709741614460085e-09,3.5951514950632433e-07,1.2962737208361358e-06,2.518895194555344e-06,1.433347337548713e-05,5.255799770362244e-07,6.862881540324254e-07,-6.181678473870534e-08,1.8472820873251923e-07,6.562531480765519e-08,2.7816828507033236e-07
2,8.547978489461441e-07,4.0775702152895464e-07,9.590879063161587e-07,2.324946502612963e-07,7.482982819898576e-07,1.3024085134836104e-07,4.285361424924816e-07,1.4209112780755095e-06,3.0289386147450807e-06,1.6025937819823325e-05,5.509352214229083e-07,9.53954062672689e-07,1.9578354081557039e-07,1.5843142304434088e-06,1.9537296175434648e-07,4.002343010050987e-07
3,9.956607171824856e-07,4.906114950697166e-07,1.09576065467576e-06,3.062530672008228e-07,8.502508601879632e-07,2.5831421696744475e-07,4.982367845109706e-07,1.5446071022260984e-06,3.558259721575258e-06,1.7821784482742365e-05,5.774761326162619e-07,1.2114674000439264e-06,4.4664824457243606e-07,2.95491963573512e-06,3.284931689084892e-07,5.221297437323545e-07
4,1.1292894872838568e-06,5.759941249967894e-07,1.2320740057838268e-06,3.7582198511039797e-07,9.485511255654282e-07,3.768998056596384e-07,5.675964195129257e-07,1.6661131045184343e-06,4.106107850331885e-06,1.972027415345788e-05,6.046495998763538e-07,1.4546999015720354e-06,6.889411328159243e-07,4.2818553702399375e-06,4.6420441943709397e-07,6.432991177527748e-07
5,1.2548189863233435e-06,6.638790616761815e-07,1.3672462338630619e-06,4.403911242025304e-07,1.0420850175784101e-06,4.853421626203028e-07,6.355639295190153e-07,1.7839520238402587e-06,4.671064683343602e-06,2.171797017493309e-05,6.320616129373739e-07,1.680413386378254e-06,9.211568842164366e-07,5.5532558554288124e-06,6.02329887916354e-07,7.633292443992832e-07
6,1.3718561877412755e-06,7.544850997783047e-07,1.5004867847738878e-06,4.998983918969797e-07,1.1297042421036172e-06,5.836368187266795e-07,7.012173242403299e-07,1.8965986250098304e-06,5.250846387152484e-06,2.3808288523404664e-05,6.594620641684826e-07,1.8865303844342854e-06,1.1421020567426909e-06,6.761380767394663e-06,7.433222656230207e-07,8.820707933643231e-07
7,1.4802624619550383e-06,8.481093905265113e-07,1.6309581996301536e-06,5.547574714095665e-07,1.2102712000002645e-06,6.721922423844326e-07,7.639769480042504e-07,2.0028084786868545e-06,5.84215239075085e-06,2.5981267603457515e-05,6.866942370711463e-07,2.072197257606734e-06,1.3510445707353751e-06,7.90435600487998e-06,8.882107086047538e-07,9.99681433012577e-07
8,1.5800622537198134e-06,9.450911083904866e-07,1.7577578574940138e-06,6.055284968479697e-07,1.2828201859821513e-06,7.515857562404217e-07,8.237078007937069e-07,2.1018230965847495e-06,6.440697600395542e-06,2.8223519351842518e-05,7.136900853671256e-07,2.2375276947327746e-06,1.547849845400652e-06,8.987379681870005e-06,1.038575822113804e-06,1.116525073656356e-06
9,1.6714563665409505e-06,1.0457783572295035e-06,1.8799854313247969e-06,6.527557096281828e-07,1.346774249995825e-06,8.224253835686204e-07,8.806168101042533e-07,2.1932320895634474e-06,7.0414191248749465e-06,3.0518306770700126e-05,7.404463310207838e-07,2.383151954087157e-06,1.7329474302639787e-06,1.0022400556344591e-05,1.196480771624317e-06,1.233071507860259e-06
10,1.7548275852252345e-06,1.150430901808443e-06,1.996778577383306e-06,6.969307984652712e-07,1.4019902732069025e-06,8.853968447974325e-07,9.350325107817842e-07,2.2767083741703725e-06,7.638719552068406e-06,3.284557652565717e-05,7.669431395265721e-07,2.5099015416472923e-06,1.9072324554915921e-06,1.102613809786891e-05,1.364280106514548e-06,1.34990316316503e-06
11,1.8306540014322606e-06,1.2591499480502558e-06,2.107206342258454e-06,7.384825306308903e-07,1.4486509363037296e-06,9.414175507029903e-07,9.872220205223975e-07,2.351882146316027e-06,8.226545087168636e-06,3.5181792116399356e-05,7.930884589298334e-07,2.61876889216637e-06,2.0720084842874483e-06,1.2017239107254047e-05,1.5443638879373364e-06,1.4676999179152805e-06
12,1.8994275104498605e-06,1.3719039281491814e-06,2.210168500769844e-06,7.778000077035765e-07,1.487237851601269e-06,9.91676582149238e-07,1.037309982587239e-06,2.418263334828681e-06,8.798145427689865e-06,3.750074543135483e-05,8.187558414849975e-07,2.711005542437777e-06,2.228906166037946e-06,1.3013722220479445e-05,1.7389444186027952e-06,1.5871384616676802e-06
13,1.9617394777953217e-06,1.4885967898467275e-06,2.304486034319344e-06,8.152834747697755e-07,1.5185440851954127e-06,1.0374907924199177e-06,1.0852817267994676e-06,2.4751735112878525e-06,9.34572896073014e-06,3.9777185116548035e-05,8.438694576026319e-07,2.788174562255398e-06,2.3797577771611524e-06,1.4031478768914742e-05,1.949958416021999e-06,1.7088125838242093e-06
14,2.0184226950655657e-06,1.6090740423801571e-06,2.389122833205433e-06,8.513439415712295e-07,1.5435501831733164e-06,1.080156614364797e-06,1.1310188993438042e-06,2.5218408330506233e-06,9.860585577620058e-06,4.1991311964817773e-05,8.684315966516502e-07,2.85202611805168e-06,2.526527080998052e-06,1.5083779669221811e-05,2.179113792117419e-06,1.833189877510612e-06
15,2.0704868786475545e-06,1.733055973275882e-06,2.4633528577102727e-06,8.863612889920982e-07,1.5632944677870544e-06,1.1208978803846619e-06,1.1743189818453677e-06,2.557638482112599e-06,1.0333904942412774e-05,4.4128821503571754e-05,8.924598096943834e-07,2.90418833741167e-06,2.6713180347834434e-06,1.6181180137218696e-05,2.428001092639145e-06,1.960571191885035e-06
16,2.1188718504965793e-06,1.8600823809076937e-06,2.5267732477540043e-06,9.206655875127995e-07,1.578874773267596e-06,1.1608180741234695e-06,1.2148886281624692e-06,2.582371010944187e-06,1.0757830857394457e-05,4.617551644966954e-05,9.159073619263308e-07,2.945844580169349e-06,2.816361818521436e-06,1.7331358505091764e-05,2.6981002630766695e-06,2.0911044023015576e-06
17,2.164263528680678e-06,1.9894937725411025e-06,2.5791890518902062e-06,9.545079843752338e-07,1.591436387071724e-06,1.2008322404125337e-06,1.2523087498149028e-06,2.5965733918520313e-06,1.112611626052878e-05,4.811148123345654e-05,9.386417588681044e-07,2.9775632751262633e-06,2.963904899857162e-06,1.8538923903538616e-05,2.990639600531013e-06,2.2248227138657485e-06
18,2.207046445200731e-06,2.120458297217559e-06,2.620492548238098e-06,9.880088228287982e-07,1.6020975952698579e-06,1.2416734101670612e-06,1.2860038013336672e-06,2.6016804794281023e-06,1.143411050514126e-05,4.990856125052338e-05,9.604791716116525e-07,2.999277341518402e-06,3.1160044775816795e-06,1.980546694531879e-05,3.3064194227174197e-06,2.3616341273358136e-06
19,2.2473306202647107e-06,2.2520881548049172e-06,2.6506350762930038e-06,1.0211696537524496e-06,1.6119165607283729e-06,1.283971965493172e-06,1.3152985871908454e-06,2.599911205614233e-06,1.167818250898297e-05,5.1531103211441704e-05,9.812188775092074e-07,3.0104019518306937e-06,3.2742826833371476e-06,2.112997553197668e-05,3.6456683493796283e-06,2.501367044883464e-06
20,2.285095613953709e-06,2.3835764993354156e-06,2.669631893639646e-06,1.053980006578574e-06,1.6218461144632583e-06,1.3283321849799389e-06,1.339604446240912e-06,2.5939128915302516e-06,1.185485131150399e-05,5.2939245566504315e-05,1.0006363637616943e-06,3.0101889307144938e-06,3.439719650498429e-06,2.2509421028897595e-05,4.0079353740890714e-06,2.643930385375864e-06
21,2.3204368543855104e-06,2.5142484801593647e-06,2.6774774434300753e-06,1.0865115077070174e-06,1.6326212928139317e-06,1.3754445664589117e-06,1.3586922308606683e-06,2.586343304630218e-06,1.1960382378063355e-05,5.409420188947029e-05,1.0184742635312146e-06,2.998265232649711e-06,3.612554721549535e-06,2.3939025688333438e-05,4.392064676349125e-06,2.789387020853745e-06
22,2.3536717598211283e-06,2.643548987612518e-06,2.6740401879531445e-06,1.1188860581956483e-06,1.6446659819104656e-06,1.4262276893676127e-06,1.3729172317715093e-06,2.579538640218631e-06,1.1991844511172908e-05,5.496455108728971e-05,1.0344888727004013e-06,2.9750340498598084e-06,3.7922973534463183e-06,2.5411672906115853e-05,4.796285818173476e-06,2.937824484060792e-06
23,2.3851675584678048e-06,2.771026886917975e-06,2.6591764434134034e-06,1.151166523810492e-06,1.6580563585052968e-06,1.4818129519986696e-06,1.3832319553781629e-06,2.575357218898731e-06,1.1949195248179785e-05,5.5530637018757105e-05,1.048507104797919e-06,2.9417366463497406e-06,3.977762334539211e-06,2.691649450591335e-05,5.218343941815691e-06,3.0892228444692777e-06
24,2.415112873263811e-06,2.8963199718417253e-06,2.633076350183759e-06,1.1832903574405535e-06,1.6725219318695584e-06,1.5433214665343129e-06,1.3909707498552873e-06,2.5752033643292204e-06,1.1836457752974306e-05,5.5782700229442655e-05,1.0604338756137408e-06,2.900303799099506e-06,4.167055920557768e-06,2.843757564283399e-05,5.655560273364954e-06,3.2434969397724665e-06
25,2.4434487213054708e-06,3.019101118592343e-06,2.5965391788557088e-06,1.2150781454884863e-06,1.6875237893889609e-06,1.6116310987039857e-06,1.397566479210406e-06,2.5801236307100656e-06,1.1660920054577086e-05,5.571359617343815e-05,1.0702640387135456e-06,2.8531789438743138e-06,4.35757737471181e-06,2.9953866108733977e-05,6.1048123979464614e-06,3.4005593644421424e-06
26,2.4698607435594533e-06,3.1389413255375373e-06,2.5509740129584127e-06,1.2462717511857672e-06,1.70245260051669e-06,1.6872768099007655e-06,1.4043435234828652e-06,2.590861121436325e-06,1.1431194853948997e-05,5.5314393400047557e-05,1.0781297530713445e-06,2.8031352147613686e-06,4.546178255445281e-06,3.1440836142253014e-05,6.5625711935995075e-06,3.5602208336362995e-06
27,2.493740842887411e-06,3.2551334068180655e-06,2.4982047486913067e-06,1.2765491139963544e-06,1.716858116251354e-06,1.7704620137643322e-06,1.4124023170317373e-06,2.6078434348082635e-06,1.1155506285264247e-05,5.457860010068065e-05,1.0842812410505958e-06,2.7530174600735046e-06,4.729528138248525e-06,3.2873945824432326e-05,7.025067043764097e-06,3.722017976995726e-06
28,2.5142341690848157e-06,3.366569942460917e-06,2.440222517430845e-06,1.3055761320648741e-06,1.7305500330635754e-06,1.8611031898730234e-06,1.4225610611835754e-06,2.6311492736701843e-06,1.0840728783403793e-05,5.3511536248849975e-05,1.0889579011748498e-06,2.7054432086347695e-06,4.904458604624958e-06,3.423311562602389e-05,7.4883476018133415e-06,3.885057110263241e-06
29,2.5304320775461505e-06,3.471670222851941e-06,2.3789477920924366e-06,1.3331647310010324e-06,1.743531262755097e-06,1.9588514534747014e-06,1.4353367280381149e-06,2.660526999861104e-06,1.0492016369735397e-05,5.213752977934644e-05,1.092283229026557e-06,2.662662586462643e-06,5.067937156480818e-06,3.550621273596183e-05,7.94794843764477e-06,4.047858220630586e-06
30,2.541627374325724e-06,3.5683403776776006e-06,2.3160567202652482e-06,1.3593708809358887e-06,1.755844395365136e-06,2.0630960289573943e-06,1.4509564502398977e-06,2.6955048940392295e-06,1.0113042798368842e-05,5.050018675429837e-05,1.0942716085477398e-06,2.626650221446829e-06,5.216819823111666e-06,3.668971444814839e-05,8.398285087652966e-06,4.208234163381159e-06
31,2.5474948153408568e-06,3.6540582458871674e-06,2.252965649316504e-06,1.3843929951642074e-06,1.76744278720562e-06,2.1729764625231586e-06,1.4693827587767853e-06,2.7354974292582894e-06,9.706967193737423e-06,4.8655909517947367e-05,1.0948519807134986e-06,2.5992074395186845e-06,5.347937601709165e-06,3.778637779949947e-05,8.832146000130923e-06,4.363203771198284e-06
32,2.5480438360284008e-06,3.7261254757476463e-06,2.1909536575773963e-06,1.4084510808858905e-06,1.7782077486131512e-06,2.2874567919578255e-06,1.4903301840687072e-06,2.779775028111666e-06,9.27769752567549e-06,4.666490255009536e-05,1.0938491907055953e-06,2.5819423804524712e-06,5.4585518372205126e-06,3.880132470065275e-05,9.240539709032675e-06,4.508945748365956e-06
33,2.5433832963467855e-06,3.7820088107342793e-06,2.131234088498883e-06,1.4318010032698464e-06,1.7880995008578612e-06,2.405481218453937e-06,1.5133168980678707e-06,2.8274142577369608e-06,8.830662871572687e-06,4.4583982490293024e-05,1.0909979834785107e-06,2.5762419790552697e-06,5.546761018182073e-06,3.973822467326519e-05,9.612960662999495e-06,4.640906991384689e-06
34,2.5335558959403654e-06,3.819694289989247e-06,2.074867845125005e-06,1.4547572713985243e-06,1.7972527254574078e-06,2.5260532647435545e-06,1.5378348434009197e-06,2.8774451403834243e-06,8.372561127685689e-06,4.2462777146487274e-05,1.0860135572308474e-06,2.58324843180205e-06,5.611827727194656e-06,4.059624366441675e-05,9.938135504133176e-06,4.754178584915846e-06
35,2.5185021509125786e-06,3.8380018583703805e-06,2.022638517074774e-06,1.477612736078754e-06,1.8059380636969208e-06,2.6481772523375002e-06,1.5635641629634104e-06,2.929102415272513e-06,7.910307475107733e-06,4.0342482413714195e-05,1.0786674821134123e-06,2.603755871702447e-06,5.654553608763055e-06,4.136779268721118e-05,1.0205291486759607e-05,4.844153836205195e-06
36,2.4980135109959762e-06,3.836775844262978e-06,1.97504189898685e-06,1.5005274005816227e-06,1.8145217809772977e-06,2.770867947755486e-06,1.5904134140487326e-06,2.9819410506400713e-06,7.450203467137485e-06,3.825571090850575e-05,1.0688760656755678e-06,2.6380775622150197e-06,5.677426080446791e-06,4.203809753285308e-05,1.0405726857076554e-05,4.907290381698082e-06
37,2.471758157687299e-06,3.816846343088107e-06,1.9323808581100623e-06,1.5234931828527897e-06,1.8234978223452885e-06,2.8932479445671342e-06,1.6183310437934237e-06,3.035798528211907e-06,6.997906450273279e-06,3.622688078202044e-05,1.0568241813984912e-06,2.6859878730152256e-06,5.684226235149583e-06,4.25876783138118e-05,1.0534067837653095e-05,4.941625863081857e-06
38,2.4395423800211793e-06,3.7797434921769446e-06,1.8948592955237225e-06,1.5464176972227062e-06,1.8334810864106936e-06,3.0145055049261447e-06,1.6471047059466331e-06,3.0907452495651425e-06,6.558565680261968e-06,3.427294896014343e-05,1.0430185773425968e-06,2.7467814427463782e-06,5.6791995822650656e-06,4.29965185981382e-05,1.0588432858203317e-05,4.9467359322282795e-06
39,2.4016436063041225e-06,3.72733321049651e-06,1.8626071379853353e-06,1.5692721559151023e-06,1.8450772751247897e-06,3.1337224193866903e-06,1.6763476208601955e-06,3.1470856122255244e-06,6.136622633379153e-06,3.240406631614648e-05,1.0281474596048197e-06,2.8193811871710364e-06,5.666223283903791e-06,4.324751508256614e-05,1.0569255181947896e-05,4.92312450773436e-06
40,2.3588672211785062e-06,3.6615946428325475e-06,1.8356312632085942e-06,1.5921579772221796e-06,1.858741107912469e-06,3.249814526792213e-06,1.705632018992164e-06,3.205294624282891e-06,5.735607710610586e-06,3.06244197524354e-05,1.0128560100597901e-06,2.902368710360071e-06,5.6484418733425255e-06,4.332832574605315e-05,1.0477791249232337e-05,4.87153029510235e-06
41,2.3122674541930098e-06,3.584509955517122e-06,1.8137384191237977e-06,1.6152144710974815e-06,1.874740341608645e-06,3.3616682473290215e-06,1.7346529986249867e-06,3.2658039717317037e-06,5.358095320826347e-06,2.893336484237594e-05,9.976486780915477e-07,2.993985919986297e-06,5.6284655680609745e-06,4.323246530245166e-05,1.031590548188102e-05,4.792779934148869e-06
42,2.2628950523159422e-06,3.497879349027923e-06,1.796498166991787e-06,1.6385022213953462e-06,1.893201143250403e-06,3.468333275403902e-06,1.7633990862613844e-06,3.3288828874159985e-06,5.005627065176028e-06,2.7325879532857336e-05,9.829187490973797e-07,3.0922840837588305e-06,5.608764060461516e-06,4.296066387920809e-05,1.0087244460923096e-05,4.6882019157321835e-06
43,2.2117914379170935e-06,3.4031525505468075e-06,1.7832660505656114e-06,1.6620110233283108e-06,1.9141772932537418e-06,3.569121086357721e-06,1.7922670356110455e-06,3.394880845509652e-06,4.678649837298755e-06,2.5792010592781985e-05,9.68985908246834e-07,3.1953887553875365e-06,5.591878397730239e-06,4.2522262563629554e-05,9.798313082602842e-06,4.560035782068599e-06
44,2.160002813850296e-06,3.301492509404908e-06,1.7732131248193506e-06,1.6856963240532208e-06,1.9376596803086698e-06,3.663568042653232e-06,1.8219767896619576e-06,3.4646252120427597e-06,4.376598011102626e-06,2.4316331508301755e-05,9.561235805881937e-07,3.301672169783925e-06,5.580345807235271e-06,4.193494072215323e-05,9.458394420197368e-06,4.41146189931634e-06
45,2.1085539160451246e-06,3.193967463750334e-06,1.765325919861506e-06,1.7093951534860878e-06,1.9634834521267365e-06,3.7512727832264962e-06,1.8532982490583095e-06,3.5395898412742306e-06,4.098099907863554e-06,2.2878856207963504e-05,9.445764571278439e-07,3.4097601396851453e-06,5.576416761516085e-06,4.122119888109136e-05,9.078483088755536e-06,4.246317718274408e-06
46,2.058534525923636e-06,3.0816702551608175e-06,1.7584897953152721e-06,1.7327053900075467e-06,1.991235290600442e-06,3.831640966466398e-06,1.8867913715974657e-06,3.6217268783485374e-06,3.841393537861145e-06,2.1458732788302304e-05,9.345250890268477e-07,3.5184677843477412e-06,5.58173012118732e-06,4.0403049488444896e-05,8.669893621797465e-06,4.068726022350063e-06
47,2.0111393288256352e-06,2.965750959091355e-06,1.7518021045588587e-06,1.7550107640187506e-06,2.02027875764662e-06,3.903714376021134e-06,1.9226870415857433e-06,3.7130613854070333e-06,3.6048665544124835e-06,2.0040430872944177e-05,9.260272761494259e-07,3.6267461835317206e-06,5.597138840661121e-06,3.9499419749325646e-05,8.243121614051507e-06,3.882809560450369e-06
48,1.967504098334072e-06,2.847401066713295e-06,1.7449847133172536e-06,1.7756446493252974e-06,2.04992212401086e-06,3.9663130609929504e-06,1.9608731949560542e-06,3.815230400291343e-06,3.3872694855437857e-06,1.861919823777899e-05,9.190193592048762e-07,3.7336453606716056e-06,5.6227784166543595e-06,3.8528447550108906e-05,7.807222617584155e-06,3.6925147012472494e-06
49,1.9285138499268704e-06,2.7278216537965697e-06,1.738546837205035e-06,1.794011683979036e-06,2.079579602687042e-06,4.018431148301859e-06,2.0009280856201707e-06,3.929162137084707e-06,3.187633448174207e-06,1.720196582339207e-05,9.133755110425769e-07,3.83823134955269e-06,5.658217397988707e-06,3.7511768618803357e-05,7.369670301360545e-06,3.5014400478157814e-06
50,1.8947423248423148e-06,2.6082118144755367e-06,1.7335483285708068e-06,1.8095779676149478e-06,2.1087295275865037e-06,4.059583815791036e-06,2.042220739609531e-06,4.054958691676994e-06,3.0052559147989556e-06,1.5803261371442702e-05,9.089308404296627e-07,3.939389454216792e-06,5.702415292708096e-06,3.647726368478025e-05,6.936542769049454e-06,3.3126399646267006e-06
51,1.8664974488416364e-06,2.489746605323665e-06,1.7311660509368044e-06,1.8218433727504685e-06,2.1367962351565605e-06,4.089918057769825e-06,2.0841116429297573e-06,4.191958036489716e-06,2.8395960286948502e-06,1.4439479618876704e-05,9.054382993184356e-07,4.035632135521877e-06,5.753523542873566e-06,3.5459208832916394e-05,6.512819981195366e-06,3.128529328712785e-06
52,1.8438772782683733e-06,2.3735126211454273e-06,1.7323619085464834e-06,1.8304315809777268e-06,2.1631514824050108e-06,4.110069814075976e-06,2.126104218023899e-06,4.338976409816856e-06,2.690005377112509e-06,1.3125075538554311e-05,9.025714577675041e-07,4.125158001026435e-06,5.8088514598543485e-06,3.4496043846368996e-05,6.102542086897726e-06,2.9509503634988717e-06
53,1.8267795224644223e-06,2.260474369547975e-06,1.7377526076344398e-06,1.8352675825549207e-06,2.1871186161537276e-06,4.120820688670818e-06,2.167752454671489e-06,4.494650315114308e-06,2.555558709477356e-06,1.1871466213708576e-05,9.000557225929033e-07,4.206186621664273e-06,5.865120181052021e-06,3.362649654129068e-05,5.70875053201049e-06,2.781277772452137e-06
54,1.814962240324824e-06,2.1515204780718187e-06,1.7475942829647775e-06,1.8366906990384584e-06,2.2079689023386615e-06,4.122732762426121e-06,2.2084702795230166e-06,4.657718206686457e-06,2.4350293273815898e-06,1.0687385035820414e-05,8.978275234112347e-07,4.277351167758873e-06,5.918898163823365e-06,3.2885557028449395e-05,5.333367113205843e-06,2.620488623683362e-06
55,1.8082275641730261e-06,2.0474912808730542e-06,1.7618086930631051e-06,1.835393087256973e-06,2.2250241189187643e-06,4.11601670128169e-06,2.2474860449567473e-06,4.827175131875986e-06,2.327062090897919e-06,9.579503364612005e-06,8.960668438069838e-07,4.337934485219437e-06,5.967109968230775e-06,3.230208915956784e-05,4.977190393512497e-06,2.4692734521974083e-06
56,1.8065318622835457e-06,1.9490925771086487e-06,1.7800172373916033e-06,1.8321954245749845e-06,2.2377659199029538e-06,4.10071631653176e-06,2.283888191658674e-06,5.002327576174931e-06,2.230566581623589e-06,8.552756035924121e-06,8.950872677356894e-07,4.387855698160187e-06,6.007325673205944e-06,3.1898618869460464e-05,4.640039266493391e-06,2.3281804464390676e-06
57,1.809880002712165e-06,1.8567469283662159e-06,1.8015631213225933e-06,1.827784736146207e-06,2.2460186148373117e-06,4.076998033167946e-06,2.3166876984623502e-06,5.182777634855481e-06,2.144953823034641e-06,7.610305019295444e-06,8.951834022714488e-07,4.427470123850662e-06,6.0375022335340206e-06,3.169218791034749e-05,4.320996491355276e-06,2.1976611591179506e-06
58,1.8181923500955563e-06,1.7705058978980052e-06,1.825589224376417e-06,1.822558124004474e-06,2.250244342795812e-06,4.0452024015001005e-06,2.3449879425772683e-06,5.368354795463941e-06,2.069943164777522e-06,6.753477941038259e-06,8.965223973201061e-07,4.457287146964252e-06,6.055508981878474e-06,3.1695276767937176e-05,4.0187464529686556e-06,2.077978758641328e-06
59,1.8312931254654733e-06,1.6900938548785812e-06,1.8512102565757932e-06,1.8165949687199696e-06,2.2515363609631782e-06,4.005554786012589e-06,2.3682765205864e-06,5.559011527563816e-06,2.0052167862383106e-06,5.9818999879875095e-06,8.991098696091432e-07,4.477627453758402e-06,6.059142289948072e-06,3.191656437007875e-05,3.7319699782777833e-06,1.9690835045542423e-06
60,1.848903476439457e-06,1.6150433217458772e-06,1.8776456629249533e-06,1.8096963805887775e-06,2.2512357350688374e-06,3.95788213128362e-06,2.3867065834883643e-06,5.754693628062897e-06,1.950299099637377e-06,5.293689207827431e-06,9.02820039490062e-07,4.488344377331766e-06,6.046634746455147e-06,3.2361016164469256e-05,3.459643170938295e-06,1.8705824994017391e-06
61,1.8705490221030952e-06,1.5448020653551018e-06,1.9042209889633408e-06,1.801467793827947e-06,2.2506040225753883e-06,3.901699435029051e-06,2.4012071693730905e-06,5.955202453987235e-06,1.904653859537602e-06,4.685614123482325e-06,9.074472535541374e-07,4.488878947157595e-06,6.0171112262358566e-06,3.302898075738286e-05,3.201106218886242e-06,1.7818160320998556e-06
62,1.8954505878191106e-06,1.478781518801209e-06,1.930368873515365e-06,1.7914279092563897e-06,2.2506871920802725e-06,3.836556090619352e-06,2.4133139202993714e-06,6.160078926181188e-06,1.867735314251851e-06,4.1533038747691355e-06,9.127211622042118e-07,4.478671672105469e-06,5.970775282957622e-06,3.391560637857846e-05,2.9559702986065673e-06,1.7019253487154623e-06
63,1.922490888035764e-06,1.4164744250895026e-06,1.9557655662491596e-06,1.7791154802460352e-06,2.252248303726986e-06,3.7623190678375676e-06,2.4247725848842098e-06,6.368550056245081e-06,1.8388641141187838e-06,3.6915275407573505e-06,9.182834611080034e-07,4.457628624389428e-06,5.908935196069286e-06,3.5012231442060635e-05,2.7240546664538555e-06,1.6298900075363096e-06
64,1.9503371674626486e-06,1.3576630171551766e-06,1.980506036428175e-06,1.7641844380207268e-06,2.2557445286197456e-06,3.679269066120232e-06,2.4371805587190324e-06,6.5795806821529535e-06,1.8170518601563451e-06,3.2943892456068767e-06,9.237097241909459e-07,4.426387666217852e-06,5.833869745517413e-06,3.6309264151531324e-05,2.5054448110825906e-06,1.5647014403096885e-06
65,1.9777242449533652e-06,1.3025253513922736e-06,2.0050983296274158e-06,1.7464665361505678e-06,2.2614031982344253e-06,3.588069059727623e-06,2.4518532022218176e-06,6.792020242044131e-06,1.8009492200283754e-06,2.9553730949062004e-06,9.286078108329178e-07,4.386329847801326e-06,5.748386636509343e-06,3.779861026964429e-05,2.3005656378079964e-06,1.5056989158448214e-06
66,2.0037495425828378e-06,1.2515395120551124e-06,2.0302135349393284e-06,1.7259802051536742e-06,2.2694009136555494e-06,3.4897157432001372e-06,2.469790610932645e-06,7.004741229132429e-06,1.788997420895859e-06,2.6674210585981662e-06,9.326786363443108e-07,4.339386967905429e-06,5.655121500014996e-06,3.947438438661332e-05,2.110095862248908e-06,1.4527662512759724e-06
67,2.0280385703902906e-06,1.2052882985444688e-06,2.056353875354374e-06,1.702900888414415e-06,2.279963361586109e-06,3.3855434676592557e-06,2.4916026478027932e-06,7.216631475296373e-06,1.7797377026042649e-06,2.423241103403669e-06,9.356510846736439e-07,4.287726658650139e-06,5.556049476551051e-06,4.133170810295524e-05,1.9347603286799364e-06,1.4061704415791099e-06
68,2.0507618789518684e-06,1.1642930317587215e-06,2.083625905982998e-06,1.6775202480554855e-06,2.2932579282433924e-06,3.2772205314502346e-06,2.517460301767843e-06,7.426353874349884e-06,1.7720443986223937e-06,2.2157699711890214e-06,9.371953368972338e-07,4.233378247120526e-06,5.452546752404525e-06,4.3363901614911106e-05,1.7752097378720075e-06,1.3662414062861508e-06
69,2.072495010353308e-06,1.1289649180820279e-06,2.111673848203596e-06,1.6502199049323625e-06,2.3092816145112234e-06,3.1666061310625638e-06,2.547142696716782e-06,7.631884056433555e-06,1.765076697411913e-06,2.0385223567253514e-06,9.369759528313695e-07,4.177924748230717e-06,5.345704298462479e-06,4.555922827234549e-05,1.6320037393607294e-06,1.3331810014609547e-06
70,2.0939280958104504e-06,1.0996773164170417e-06,2.139765362264851e-06,1.6214923235658443e-06,2.327896736987496e-06,3.0554749036473465e-06,2.580093560719724e-06,7.83001785962025e-06,1.7581456999894048e-06,1.8856781453082065e-06,9.34813800368319e-07,4.122425854450187e-06,5.2365191661527345e-06,4.7899570109141783e-05,1.505543491511327e-06,1.3070165520921058e-06
71,2.1155705869983926e-06,1.076854210973561e-06,2.166989358375927e-06,1.591997512838981e-06,2.3488323060683923e-06,2.9452767326590673e-06,2.6154185293125727e-06,8.016251411137066e-06,1.750782965806997e-06,1.7520509283379261e-06,9.307599278030124e-07,4.067513765604541e-06,5.126010812146104e-06,5.036235812782236e-05,1.3959728289574276e-06,1.287609270727712e-06
72,2.1376435879238333e-06,1.061008169385977e-06,2.1924319089777476e-06,1.5625575154968249e-06,2.3715743672126156e-06,2.837026349172243e-06,2.65194369575282e-06,8.185321932402117e-06,1.7428755739425326e-06,1.6331572441965601e-06,9.25013572881929e-07,4.0134635000712955e-06,5.015449051206448e-06,5.292417457300035e-05,1.3032021556557563e-06,1.2747111885384614e-06
73,2.160147766188507e-06,1.0527366679376388e-06,2.2152356258964543e-06,1.534028252072034e-06,2.395326826571295e-06,2.731300255550222e-06,2.6884434141320026e-06,8.33221197341164e-06,1.7346349080644648e-06,1.5253430643062149e-06,9.178211025340003e-07,3.96022801983679e-06,4.9066456939147196e-06,5.556357375417779e-05,1.227033318032035e-06,1.2680313383542209e-06
74,2.182923816296529e-06,1.052675830467687e-06,2.2346236291023205e-06,1.5071672367083924e-06,2.4190820004697486e-06,2.6283457805256144e-06,2.723909591006906e-06,8.45311714799926e-06,1.7264723811930748e-06,1.425735082885192e-06,9.094449522811034e-07,3.907505364791779e-06,4.802030707775264e-06,5.826173239413642e-05,1.1672092771113034e-06,1.2672320934657019e-06
75,2.205697510638579e-06,1.0614559379266846e-06,2.2499847069787003e-06,1.4826267223661492e-06,2.4416582681253686e-06,2.5282452007290894e-06,2.7576709099366657e-06,8.54602811601462e-06,1.718911093679035e-06,1.3319523577385718e-06,9.001656490695656e-07,3.8547831462214885e-06,4.704348898990703e-06,6.1000604983355776e-05,1.1233625089720303e-06,1.271893192049796e-06
76,2.228258956892804e-06,1.0797172106644495e-06,2.2609693916936375e-06,1.460992734070642e-06,2.461709033134888e-06,2.430979501041866e-06,2.7893183006612676e-06,8.610885808517165e-06,1.7124959430602068e-06,1.24179949895639e-06,8.902756251409906e-07,3.8013461447938884e-06,4.616156150859882e-06,6.375941610627285e-05,1.0949870417903133e-06,1.2815356244867005e-06
77,2.2506998953551195e-06,1.1081301493747026e-06,2.2675010341994323e-06,1.44276525046562e-06,2.4779146921804396e-06,2.336399247544143e-06,2.8185095163900553e-06,8.64942864090075e-06,1.7076526300810497e-06,1.1531979732595118e-06,8.800431768996763e-07,3.746350462692981e-06,4.539401981557348e-06,6.651106775709079e-05,1.0814552081953083e-06,1.2956732294451646e-06
78,2.273442291771414e-06,1.147365764038502e-06,2.269710153738926e-06,1.4283442279806843e-06,2.4893896727772303e-06,2.2442749152781428e-06,2.844733310230893e-06,8.664813982744305e-06,1.704545702049273e-06,1.064385230068625e-06,8.696670367536103e-07,3.6890181449991147e-06,4.475203529441683e-06,6.921960592550959e-05,1.0820115871173231e-06,1.3138012361739844e-06
79,2.2970307482726522e-06,1.198046694210168e-06,2.2678851578020866e-06,1.418057038077934e-06,2.4959504253787613e-06,2.1544657506206405e-06,2.8671130790218007e-06,8.661029518001708e-06,1.7030050730766064e-06,9.74219090952355e-07,8.592570363014284e-07,3.628899462878171e-06,4.423785233382146e-06,7.183874117898342e-05,1.0957409772725272e-06,1.3353175130850496e-06
80,2.3220072803536597e-06,1.2606870247598434e-06,2.2624880121647433e-06,1.4121569480003122e-06,2.497946433370071e-06,2.0670382011461545e-06,2.8844062940869484e-06,8.642174155849843e-06,1.7025233261031285e-06,8.823741796539057e-07,8.488213179895566e-07,3.566095356466313e-06,4.384497979049058e-06,7.431052321518835e-05,1.121541260877076e-06,1.3594573975593304e-06
81,2.3490053213863156e-06,1.3356350967833952e-06,2.254169185301005e-06,1.410797469466657e-06,2.4958246176077243e-06,1.9821910236865397e-06,2.8953103862374287e-06,8.611820263571089e-06,1.7023072560595473e-06,7.892853795699958e-07,8.382795753358584e-07,3.501319085289498e-06,4.355865368746806e-06,7.65646107603518e-05,1.1581150783387e-06,1.3853460814362773e-06
82,2.3787479643478312e-06,1.4230699341043843e-06,2.2436707682904362e-06,1.4140106731626104e-06,2.489832249540702e-06,1.9001154266056701e-06,2.8989318555281995e-06,8.572652618464812e-06,1.7014476901076627e-06,6.958891927056856e-07,8.27574288650716e-07,3.4357239329241006e-06,4.3358190019507765e-06,7.852199135424354e-05,1.2039895712581507e-06,1.4121297776472485e-06
83,2.4117886374220224e-06,1.523064749093653e-06,2.2316287969963087e-06,1.4216565037384994e-06,2.480017557961831e-06,1.8210317413241812e-06,2.895141304913334e-06,8.526386605440159e-06,1.699153407832302e-06,6.033452895548772e-07,8.168068507544202e-07,3.370534685118536e-06,4.322208311074062e-06,8.010599263556513e-05,1.2575761024049467e-06,1.4389906635186298e-06
84,2.448239068699391e-06,1.6357142261495236e-06,2.2184494027107323e-06,1.433373857696647e-06,2.466398813476734e-06,1.745378301607222e-06,2.8846392923781016e-06,8.473854316190238e-06,1.6948334348263173e-06,5.128646462970478e-07,8.062330008058625e-07,3.3066823890052715e-06,4.313291994901867e-06,8.125627618357899e-05,1.3172843380373684e-06,1.4650271374337942e-06
85,2.4876495933423783e-06,1.761293317550726e-06,2.2043148143317154e-06,1.4486086331579501e-06,2.4491654600226927e-06,1.6739057009216556e-06,2.868730752195256e-06,8.415220080634098e-06,1.688128546650826e-06,4.256799658304869e-07,7.961640647063945e-07,3.2446359876427667e-06,4.3078852659742786e-06,8.193759617141101e-05,1.3816693244303073e-06,1.489175588107663e-06
86,2.528992772081459e-06,1.900371637310123e-06,2.1891578602533583e-06,1.466697342722563e-06,2.428803919034966e-06,1.6075492103630494e-06,2.8489639428896015e-06,8.350329690978002e-06,1.6790733383222494e-06,3.4310208838443305e-07,7.869192136692533e-07,3.1843879200345634e-06,4.305111820811395e-06,8.21387326530384e-05,1.4495635714693036e-06,1.510261279508567e-06
87,2.5707365484385935e-06,2.053867704266505e-06,2.1725590758156585e-06,1.486945693386943e-06,2.4060493806103397e-06,1.547197456927682e-06,2.8268141373193807e-06,8.279116774720956e-06,1.6681154387318863e-06,2.665439029145434e-07,7.787923174789435e-07,3.125487305842459e-06,4.3039577794376205e-06,8.186261507160404e-05,1.5201529492625177e-06,1.5272152517756722e-06
88,2.6110578887636366e-06,2.223072971911991e-06,2.1536762435736587e-06,1.5087152477525411e-06,2.3817448349528233e-06,1.4935331476673697e-06,2.803464887945511e-06,8.20194037680036e-06,1.6558569288891457e-06,1.9752866179903316e-07,7.719968595859355e-07,3.0671276795246746e-06,4.303047961904108e-06,8.111446203857658e-05,1.5929387682851914e-06,1.5393968426567972e-06
89,2.648156531469695e-06,2.4095856996315127e-06,2.131269353399179e-06,1.5315067419564502e-06,2.356814403779934e-06,1.4469669449978885e-06,2.7796907202292296e-06,8.119723456791822e-06,1.6428579673731122e-06,1.3782686760076037e-07,7.666715385728559e-07,3.008293306513909e-06,4.300969683410986e-06,7.989923008498172e-05,1.6675796602603627e-06,1.54674036928428e-06
90,2.6805117313345178e-06,2.615074103123875e-06,2.1038650867394408e-06,1.5549550460755915e-06,2.3323390992650232e-06,1.4076180988539135e-06,2.7559121290043004e-06,8.033718672443463e-06,1.6296948365752865e-06,8.972075848164585e-08,7.629503571025481e-07,2.9479571446727576e-06,4.29684210568365e-06,7.82318704818526e-05,1.7437023079526966e-06,1.5495948116020127e-06
91,2.7069762092690995e-06,2.840956660749547e-06,2.0700759582221697e-06,1.578749129095772e-06,2.309519806283851e-06,1.3753801491298886e-06,2.7324290385277426e-06,7.944879600763849e-06,1.6171142126301153e-06,5.622315259258352e-08,7.6099600572882e-07,2.8853235946083797e-06,4.29045656206895e-06,7.614868057329035e-05,1.8207577701981186e-06,1.5484846754547467e-06
92,2.726768475021233e-06,3.0881684109294106e-06,2.0289772498407945e-06,1.6025853361647952e-06,2.2895577939886037e-06,1.350070716020105e-06,2.7096400074924703e-06,7.85327346009623e-06,1.606091281525137e-06,4.115123214214964e-08,7.60946984351509e-07,2.8199996293563645e-06,4.281909078786547e-06,7.370806588155364e-05,1.8979754437086615e-06,1.544000064154559e-06
93,2.7394862927631873e-06,3.3570592915246876e-06,1.9803708971129712e-06,1.6261502161354385e-06,2.273674028478426e-06,1.3315258416186474e-06,2.688027390469806e-06,7.758045096700404e-06,1.597739456073845e-06,4.915596742266025e-08,7.62840715403422e-07,2.751967722191866e-06,4.271267610229999e-06,7.09817474069555e-05,1.9744476716183064e-06,1.536782617271138e-06
94,2.7451569410551113e-06,3.647373982173208e-06,1.924816910101937e-06,1.6490499127664844e-06,2.263204234688004e-06,1.319549932584714e-06,2.6679553587470837e-06,7.657837913442222e-06,1.5931634599411228e-06,8.579546109037867e-08,7.665793313938577e-07,2.6814399540400724e-06,4.25843419716883e-06,6.804351234046317e-05,2.0492254855531513e-06,1.5275112113817939e-06
95,2.7442348129428815e-06,3.958259447818335e-06,1.8634670968581933e-06,1.6707306554928096e-06,2.2595388311275666e-06,1.3138180400702106e-06,2.6495531841544463e-06,7.5512006715034055e-06,1.593391945566528e-06,1.5751908937308794e-07,7.719213605514731e-07,2.6087839656292816e-06,4.242972849547486e-06,6.496032206070531e-05,2.121272862147799e-06,1.516852745608292e-06
96,2.7374909683253e-06,4.2882663252153876e-06,1.7978335894048576e-06,1.6905089743566e-06,2.2639032082377412e-06,1.3138479219742074e-06,2.6327872688484805e-06,7.4367733154989934e-06,1.5993936066427063e-06,2.7148768028422985e-07,7.784713087169774e-07,2.534562855954125e-06,4.2240150290392675e-06,6.178755370631583e-05,2.1894141648483034e-06,1.5053899261065372e-06
97,2.7258065068848795e-06,4.635332482086307e-06,1.7295848526727053e-06,1.7077068104218664e-06,2.2771558827659755e-06,1.3190204308117746e-06,2.617548673965292e-06,7.313370707977418e-06,1.612085848645503e-06,4.354206423545547e-07,7.856803532183916e-07,2.4595778588678937e-06,4.200371042613499e-06,5.8568566695998374e-05,2.2525019603271423e-06,1.4936150759943186e-06
98,2.7099346140814885e-06,4.99673429488781e-06,1.6603868985862945e-06,1.7218068763460243e-06,2.2997089265193156e-06,1.3286012221691318e-06,2.603620400510838e-06,7.180111187182898e-06,1.63231944664437e-06,6.575194851354796e-07,7.928663392303114e-07,2.384794125659766e-06,4.170602082857581e-06,5.533721706270821e-05,2.3097046355904744e-06,1.4820368726955586e-06
99,2.690422802503375e-06,5.368979309165929e-06,1.5917858530041826e-06,1.7325758160453267e-06,2.3315644063306407e-06,1.3417791810746763e-06,2.5905690298552924e-06,7.036568680392099e-06,1.6608831214193522e-06,9.462988807022858e-07,7.992591177527252e-07,2.3111298702142853e-06,4.133038059593944e-06,5.212091892172298e-05,2.3606379418738036e-06,1.4712406147525896e-06
100,2.6678243010306525e-06,5.74769896629304e-06,1.5251594157032572e-06,1.740076502460047e-06,2.3724766660943264e-06,1.3576892160014791e-06,2.5776777635997796e-06,6.882814157988849e-06,1.698569806915245e-06,1.3104038798813475e-06,8.040922806719336e-07,2.2392535967600157e-06,4.0861162875293296e-06,4.894269944825101e-05,2.4052423917233064e-06,1.4617830098709589e-06
101,2.6429977263965558e-06,6.127779467425745e-06,1.46176545642177e-06,1.7444986131821198e-06,2.422202432623257e-06,1.375371191715992e-06,2.5640154309959517e-06,6.719312438589933e-06,1.746302518637145e-06,1.758606140676334e-06,8.06716107967897e-07,2.1695436309387596e-06,4.029069723428898e-06,4.582175175101329e-05,2.4435293533909985e-06,1.4540686213096864e-06
102,2.6172362544136317e-06,6.503889809127362e-06,1.402805207683638e-06,1.7459131653683427e-06,2.4806542549309804e-06,1.3937357283770075e-06,2.548648224388358e-06,6.546801912148757e-06,1.8052700737818382e-06,2.299852914525855e-06,8.066462327035791e-07,2.1022021503931905e-06,3.9624242595818925e-06,4.277265404950472e-05,2.475420339214681e-06,1.4483639022036908e-06
103,2.5922103670427755e-06,6.8711596250733615e-06,1.3493834276272502e-06,1.7441684409395207e-06,2.547827812381545e-06,1.4116699108144021e-06,2.530910958565089e-06,6.366263785104679e-06,1.8769660606132418e-06,2.9431726518734274e-06,8.035373875523213e-07,2.0373796272669273e-06,3.887812279562278e-06,3.9805247616680784e-05,2.5008299662356885e-06,1.444896376098477e-06
104,2.5697778447179723e-06,7.225594358038417e-06,1.302412256148458e-06,1.7390141976799387e-06,2.6236416827985204e-06,1.428312833183742e-06,2.5105953090796583e-06,6.178942337293769e-06,1.9630505618092676e-06,3.6974946109957824e-06,7.972001868033534e-07,1.975176317471757e-06,3.807241079483722e-06,3.6926935714453226e-05,2.5198851025746362e-06,1.443919476603801e-06
105,2.5517021059325502e-06,7.564092779666743e-06,1.2625654425244292e-06,1.7303259481889625e-06,2.7079332332030483e-06,1.4433448216029742e-06,2.487897098601646e-06,5.986332291592158e-06,2.0651891466760093e-06,4.571476329886771e-06,7.877047658660319e-07,1.915596999396242e-06,3.7224725535211732e-06,3.4145032857063396e-05,2.5329706691892906e-06,1.445710130234045e-06
106,2.539422729346143e-06,7.884235212657985e-06,1.230266825655431e-06,1.7182308297772368e-06,2.8005922055666243e-06,1.4570642740702383e-06,2.4631649678205272e-06,5.790086445625719e-06,2.1850119812306797e-06,5.573324172727389e-06,7.75455241753572e-07,1.8585844478024006e-06,3.634857316883839e-06,3.1466749841412506e-05,2.540495344708519e-06,1.4505261981079318e-06
107,2.5339619843399283e-06,8.184035628629497e-06,1.2056804689497484e-06,1.7030997654886158e-06,2.9015583540302084e-06,1.4701868843486404e-06,2.436765967345834e-06,5.59183322903396e-06,2.3240690511279494e-06,6.71058467751672e-06,7.6113869047237e-07,1.8040605139567534e-06,3.545321387786247e-06,2.8898983758519945e-05,2.5426605124071346e-06,1.4585587696551573e-06
108,2.535882469628232e-06,8.46167657882952e-06,1.1887519776308737e-06,1.685529792162087e-06,3.0105910198561654e-06,1.4835433494558228e-06,2.40920708898802e-06,5.393000140680572e-06,2.483716658315416e-06,7.989869118600467e-06,7.455675370492966e-07,1.7519036857891482e-06,3.4542476856973563e-06,2.6449138378220907e-05,2.5394952364192564e-06,1.4699301580680252e-06
109,2.5452529774096594e-06,8.71518362312484e-06,1.179314851013968e-06,1.666341003212958e-06,3.1270362511488086e-06,1.4978988774612776e-06,2.3812589372931433e-06,5.194807141490094e-06,2.6650025969104126e-06,9.416548215456828e-06,7.295168717186961e-07,1.7019278296390667e-06,3.361397395281746e-06,2.412463938897639e-05,2.5310664750193135e-06,1.4847887132211751e-06
110,2.561652033261231e-06,8.942130453733672e-06,1.1771640300203041e-06,1.6464818379925004e-06,3.2498218954791747e-06,1.5139071282170304e-06,2.3538747300300917e-06,4.998439885286332e-06,2.8685823636002715e-06,1.0994632009596555e-05,7.136441907270461e-07,1.6539098072068137e-06,3.266057812252868e-06,2.193112764789753e-05,2.517621416997511e-06,1.5034588125936178e-06
111,2.5842431630728585e-06,9.139463853683845e-06,1.1820268441693482e-06,1.6268545288786144e-06,3.3776905036616164e-06,1.5320718416022202e-06,2.327964502851928e-06,4.805234615458357e-06,3.0947548541910046e-06,1.2726886825293281e-05,6.984799619739987e-07,1.6076338661439085e-06,3.1674117653123444e-06,1.9872052126929762e-05,2.4995830265937504e-06,1.5264860084026197e-06
112,2.6119614297105856e-06,9.303321905958031e-06,1.1934930524946794e-06,1.608184723785369e-06,3.5094465439225296e-06,1.5526922792623994e-06,2.304155807698443e-06,4.616768091417647e-06,3.343680300870023e-06,1.4614860303924214e-05,6.844430560258355e-07,1.5629350689107254e-06,3.0650208986837954e-06,1.7949979536197302e-05,2.4775171132689733e-06,1.5545140140889526e-06
113,2.6437586312600132e-06,9.428908453938173e-06,1.2109702089321683e-06,1.5909563339404494e-06,3.6439738516615466e-06,1.5758484357295118e-06,2.2826467820912268e-06,4.434894761591058e-06,3.6156010128861456e-06,1.665862848768711e-05,6.718521432784676e-07,1.5197799860513608e-06,2.9592546607889685e-06,1.616749807638183e-05,2.4521400798378198e-06,1.5881371783359564e-06
114,2.6788052150089007e-06,9.5110585409064e-06,1.2336634533553092e-06,1.5753774235136286e-06,3.7800314369357515e-06,1.601449880953385e-06,2.263213107179429e-06,4.26173680167138e-06,3.910797874950927e-06,1.8856561853877412e-05,6.609213898176685e-07,1.4783837635162058e-06,2.851395962450578e-06,1.4526771802410417e-05,2.4242558679675453e-06,1.6278182151690373e-06
115,2.716616559644269e-06,9.545764676566285e-06,1.2605887276339037e-06,1.5614176083559975e-06,3.915998626122649e-06,1.629312197885479e-06,2.2453453076909502e-06,4.099512375254162e-06,4.229315651942028e-06,2.120534362396127e-05,6.517726060462749e-07,1.439245822110094e-06,2.743320012309885e-06,1.3028567953400731e-05,2.3945635277651167e-06,1.6738293242032193e-06
116,2.7570795820280496e-06,9.531725643275142e-06,1.2906677038222492e-06,1.5489547352587484e-06,4.049658236119828e-06,1.6591716887816667e-06,2.2284255552627625e-06,3.9501822074971e-06,4.570753207004783e-06,2.3700022116399542e-05,6.444819393055691e-07,1.403008233799748e-06,2.637062725289752e-06,1.1671556123481723e-05,2.363483461049631e-06,1.726221556489282e-06
117,2.800327275216149e-06,9.470834243396963e-06,1.3229507431205671e-06,1.5379283930958893e-06,4.178058433858373e-06,1.6906380068753433e-06,2.211847076900053e-06,3.8151022972858815e-06,4.934222503566678e-06,2.6333878338780902e-05,6.391167831185902e-07,1.3702436205743638e-06,2.534583052470303e-06,1.045198530844668e-05,2.3311432080786627e-06,1.7848137250874748e-06
118,2.8464676899225063e-06,9.367590007017933e-06,1.3568912638451577e-06,1.5283315621809618e-06,4.297609718773006e-06,1.7232274609321978e-06,2.195048939124617e-06,3.6948520519770277e-06,5.318379966946261e-06,2.9098215797622476e-05,6.357410525070807e-07,1.3413232021120604e-06,2.437627042031389e-06,9.36368199977311e-06,2.297496433235916e-06,1.84913862553033e-06
119,2.895282754795713e-06,9.228097491246642e-06,1.3924606715888295e-06,1.5200706589985296e-06,4.404557957564332e-06,1.7564811893377572e-06,2.1775546745795677e-06,3.589262425777615e-06,5.7215208806716104e-06,3.198217916318667e-05,6.344191102398827e-07,1.3163672045316303e-06,2.3475940763661565e-06,8.398426790689425e-06,2.2624703413036175e-06,1.9183752038513304e-06
120,2.9460552191265856e-06,9.059027073512778e-06,1.4299980173291443e-06,1.512897810501472e-06,4.495676509351972e-06,1.7899898089288774e-06,2.159110409782979e-06,3.4976312678456127e-06,6.141622207353782e-06,3.4972432752737945e-05,6.352108891479077e-07,1.2952571113658071e-06,2.2655426924657606e-06,7.546613631384472e-06,2.2260209508356233e-06,1.9913717211814564e-06
121,2.9975550718521063e-06,8.866607511586387e-06,1.4699365637154865e-06,1.5064486199227869e-06,4.5688103493212164e-06,1.8233728984276019e-06,2.1398216858017705e-06,3.4190234287020112e-06,6.5761419495578365e-06,3.8052487204414895e-05,6.381321334398948e-07,1.277721920196794e-06,2.1923805436495093e-06,6.797896436324492e-06,2.188048453910108e-06,2.066822895282254e-06
122,3.0481016058282943e-06,8.65600349572751e-06,1.5126334460115954e-06,1.5002499675336154e-06,4.623010824782736e-06,1.8563609038345113e-06,2.120088861483945e-06,3.3523990857129525e-06,7.021834788390518e-06,4.120185018030645e-05,6.431146229608115e-07,1.2634502414722262e-06,2.1290277493107193e-06,6.141667558134102e-06,2.1483192221756906e-06,2.14353384646097e-06
123,3.095770789471857e-06,8.43132315571195e-06,1.5583586535909137e-06,1.4937202184727291e-06,4.65828849452282e-06,1.8888130451985585e-06,2.1004088686561183e-06,3.2964653708074008e-06,7.4749847986519025e-06,4.439547299163635e-05,6.500100624080909e-07,1.2521588502015266e-06,2.0763583341568696e-06,5.567429499952711e-06,2.1065248279086927e-06,2.2205831692971707e-06
124,3.138785526131592e-06,8.195754547500372e-06,1.6073120258987195e-06,1.486260893012889e-06,4.675303282596092e-06,1.9205432285315447e-06,2.0812725553817687e-06,3.2494879794542927e-06,7.931855079544311e-06,4.760361873552792e-05,6.586423105829092e-07,1.243614328626116e-06,2.035000613711142e-06,5.065145079407233e-06,2.0624110568488657e-06,2.297291965783799e-06
125,3.175730884255757e-06,7.951412538488114e-06,1.6596035863819463e-06,1.4773554714180842e-06,4.675300051876404e-06,1.951179707401214e-06,2.0631260730006643e-06,3.209263107655089e-06,8.388855074226606e-06,5.0791774806832675e-05,6.688799938768879e-07,1.2376541270510055e-06,2.0051961640310026e-06,4.625551060748407e-06,2.015914592856176e-06,2.3731116891780558e-06
126,3.2053865390661933e-06,7.699144860291241e-06,1.7152600416055637e-06,1.4665835488171427e-06,4.660182472172129e-06,1.980307170828086e-06,2.0462553863135415e-06,3.173241269184309e-06,8.84222070106946e-06,5.391991507336079e-05,6.806837541478951e-07,1.2342277126643344e-06,1.9867580694505894e-06,4.24036758866897e-06,1.9672710789129983e-06,2.4475378471276725e-06
127,3.2265930948211894e-06,7.438569708502571e-06,1.774231337103657e-06,1.4536095000033668e-06,4.632315465146168e-06,2.007819397473729e-06,2.030654406315836e-06,3.1388162032908376e-06,9.287418602667142e-06,5.6941717147944994e-05,6.941126990769457e-07,1.2334174024450772e-06,1.979063797076045e-06,3.902462904431138e-06,1.916964580665231e-06,2.5200092420527645e-06
128,3.2384713431782885e-06,7.168549891487371e-06,1.836337129328448e-06,1.4381921950653077e-06,4.593959941535102e-06,2.0341023358484876e-06,2.0159950996381004e-06,3.103660433945502e-06,9.718682101960906e-06,5.9808161895055305e-05,7.092953269767652e-07,1.235377006078152e-06,1.981060150378659e-06,3.6060736845705384e-06,1.8654855609121457e-06,2.5897856865777113e-06
129,3.240718155124537e-06,6.8881855760027695e-06,1.9012413478126039e-06,1.4201869514912964e-06,4.546738634323568e-06,2.0598290266255307e-06,2.0017226331475392e-06,3.065812118705454e-06,1.0128857911795355e-05,6.24787298451625e-05,7.263781804402766e-07,1.2401982630815258e-06,1.991286945763325e-06,3.3469146786888434e-06,1.8131428839096292e-06,2.6559301979749023e-06
130,3.2336555455702353e-06,6.5977578401987174e-06,1.9685073554346727e-06,1.3995418388893173e-06,4.49144554713896e-06,2.0856235962396426e-06,1.987234290792616e-06,3.023529151532362e-06,1.0509761187267372e-05,6.493436249497151e-05,7.454835093930061e-07,1.247820989039862e-06,2.007947145052041e-06,3.1219217834283023e-06,1.7602043963690236e-06,2.7174265381190165e-06
131,3.218038531751362e-06,6.298942182765368e-06,2.037608195591268e-06,1.3763427021190642e-06,4.42812778547761e-06,2.1118933761148223e-06,1.9720723993695885e-06,2.9752673134961407e-06,1.0853178269737523e-05,6.71823858582969e-05,7.666785407618655e-07,1.2580508655886028e-06,2.0290208852137456e-06,2.928742055914183e-06,1.7072229482457263e-06,2.773292490297828e-06
132,3.194753536767531e-06,5.9942482360492e-06,2.107819751620292e-06,1.3509109597523335e-06,4.356294899195627e-06,2.138829223437648e-06,1.956085561921147e-06,2.919915207526065e-06,1.115158305108402e-05,6.924960736960105e-05,7.899619541171489e-07,1.2705994855060343e-06,2.0523300005512696e-06,2.7653045492903763e-06,1.6551050723439469e-06,2.8226177019603202e-06
133,3.1645293465749883e-06,5.686155557986664e-06,2.178125828053381e-06,1.3238553718175972e-06,4.275171941349009e-06,2.1665008936728018e-06,1.9395281974941005e-06,2.857019648815231e-06,1.1397685333315659e-05,7.116833410282338e-05,8.153218908774186e-07,1.2851122609572457e-06,2.075594755591581e-06,2.6295781978233086e-06,1.6048365239524865e-06,2.864582881304451e-06
134,3.127836020750583e-06,5.376680064953363e-06,2.2472883251500214e-06,1.2959775980903543e-06,4.1839502869577016e-06,2.19496746188582e-06,1.9230341604497587e-06,2.786754945913328e-06,1.1584089409613949e-05,7.296517782011405e-05,8.428719087706867e-07,1.3012418389119649e-06,2.0967160765799097e-06,2.5194685895910275e-06,1.5572026506770205e-06,2.898500421664164e-06
135,3.0850515147585718e-06,5.06773853663308e-06,2.314033249134481e-06,1.268070751364369e-06,4.082077193540551e-06,2.2242729610957906e-06,1.907442623941423e-06,2.7097029689826593e-06,1.1704646340772384e-05,7.465723450091764e-05,8.729938407156001e-07,1.3187408793222693e-06,2.1142291983983078e-06,2.4328208621280162e-06,1.5127241666310772e-06,2.923890659512156e-06
136,3.0366410586434566e-06,4.761757861170351e-06,2.3771373408039266e-06,1.2407693577863159e-06,3.9696222991213245e-06,2.2543240547416565e-06,1.8935650191633313e-06,2.626656249717596e-06,1.1756472015948497e-05,7.625118746438813e-05,9.064150335211376e-07,1.3375480614102277e-06,2.127465108938389e-06,2.367402369761516e-06,1.4717720505038373e-06,2.9405814345720213e-06
137,2.9830716732138965e-06,4.461748270089426e-06,2.4353691376837637e-06,1.2145244434025262e-06,3.847617230338187e-06,2.284772965969716e-06,1.8820199604163772e-06,2.538555044483752e-06,1.174027962417668e-05,7.774321212076498e-05,9.441661355585154e-07,1.3578863237743702e-06,2.1362344259231535e-06,2.3207888874855526e-06,1.4347203584569903e-06,2.9487227813048554e-06
138,2.9246031161450144e-06,4.17077004991302e-06,2.487531101870632e-06,1.1896284537447772e-06,3.7181052412716073e-06,2.3150063318233356e-06,1.8732135574270792e-06,2.4465326339615364e-06,1.1658615027926718e-05,7.912109888993406e-05,9.874431510543158e-07,1.3802801132885557e-06,2.1404340374688895e-06,2.2903039889949943e-06,1.4019751571314128e-06,2.9486641342559373e-06
139,2.8612652504788353e-06,3.891371934451878e-06,2.5327068166425178e-06,1.1662640736707857e-06,3.5837188757493786e-06,2.3442622108276262e-06,1.8674117525434567e-06,2.351987018952926e-06,1.1514310536819998e-05,8.036543847910102e-05,1.037505342602359e-06,1.4054439997914839e-06,2.139867780892773e-06,2.273184784987395e-06,1.3738789365781787e-06,2.9408158880285945e-06
140,2.7930512740584873e-06,3.6254381944888756e-06,2.5704641277399656e-06,1.1446205059629873e-06,3.447011848038994e-06,2.371751811138257e-06,1.8647482821380237e-06,2.2566066748804382e-06,1.1310917359353488e-05,8.144732143827173e-05,1.0956848695174764e-06,1.4342438478035083e-06,2.1341369482924523e-06,2.266942532032542e-06,1.3506215279308406e-06,2.9255325573312954e-06
141,2.720165514109372e-06,3.374334757804288e-06,2.6008413181360956e-06,1.1249931697046388e-06,3.3099636022495706e-06,2.396624972975025e-06,1.8651233135773714e-06,2.1623065970340835e-06,1.1053608133152652e-05,8.232709401527819e-05,1.163408369234315e-06,1.4678150966889009e-06,2.122562725134696e-06,2.269637523972913e-06,1.332200650299511e-06,2.902916029964925e-06
142,2.6432238157688214e-06,3.139093746735345e-06,2.6242174868098456e-06,1.1077628762777171e-06,3.1738268910053683e-06,2.4178798131849968e-06,1.8681048134603888e-06,2.071067832679089e-06,1.0748701352005231e-05,8.296113447399998e-05,1.2421162467502855e-06,1.5075756603029417e-06,2.1043358520752576e-06,2.2797904178222446e-06,1.3184285055129101e-06,2.872629210797197e-06
143,2.5633302633430363e-06,2.9205128816862715e-06,2.6412087130836055e-06,1.0933350541242693e-06,3.0393296574106045e-06,2.4344753360908867e-06,1.8729236236852396e-06,1.9847391343733015e-06,1.0402796590973514e-05,8.331713047036764e-05,1.3331489325061863e-06,1.5550001744013908e-06,2.0789009477011805e-06,2.296029981947535e-06,1.3089998089653734e-06,2.8339324728877292e-06
144,2.4819782485288776e-06,2.7191336628241985e-06,2.652625752162584e-06,1.0821258092833945e-06,2.907167889196784e-06,2.445655853431577e-06,1.8786171695166048e-06,1.9048898256443911e-06,1.0022966155319668e-05,8.338821967521866e-05,1.4377251460188829e-06,1.6113711288170747e-06,2.0463247576248025e-06,2.3168242402318006e-06,1.3035659246921495e-06,2.785942779681956e-06
145,2.400839382031173e-06,2.5351417988066505e-06,2.6594298128019878e-06,1.074572410381602e-06,2.778448612087626e-06,2.4512394936211936e-06,1.8843248572517293e-06,1.8327404420897654e-06,9.61710263781027e-06,8.319490923595194e-05,1.5569849615988214e-06,1.6776766258572787e-06,2.0073848518135873e-06,2.3404172517651482e-06,1.301723601563105e-06,2.727999745778592e-06
146,2.3215453749099135e-06,2.368273184499133e-06,2.6626477528763027e-06,1.071142155691563e-06,2.654699768681782e-06,2.4516290577299207e-06,1.8895392158182833e-06,1.769145082286914e-06,9.193284235399062e-06,8.277356435990137e-05,1.6920117672178783e-06,1.7545976946159545e-06,1.963322097962398e-06,2.3649031747846086e-06,1.3029528862802411e-06,2.6600559346675392e-06
147,2.245558783903738e-06,2.2177813760889448e-06,2.663296319620265e-06,1.072284351324969e-06,2.537521086305522e-06,2.44751780789371e-06,1.8940805038517561e-06,1.7146057164156605e-06,8.75902037322442e-06,8.216014574030174e-05,1.8438130350387e-06,1.8425439238490416e-06,1.915510625542775e-06,2.3884741300257795e-06,1.3066361539364407e-06,2.5829247760634796e-06
148,2.1742239610534824e-06,2.082482460656777e-06,2.662311041547937e-06,1.0783295240758654e-06,2.4282638954946606e-06,2.439575189301419e-06,1.8978401150530368e-06,1.669294085226936e-06,8.321233519759103e-06,8.137904653316786e-05,2.013256995182224e-06,1.9417984046374193e-06,1.8652932662855747e-06,2.4097835749904654e-06,1.3121639648370922e-06,2.4982041810381147e-06
149,2.108911634591281e-06,1.9609254811670863e-06,2.660422559311274e-06,1.0894786102127304e-06,2.3278953464515186e-06,2.4283493675116923e-06,1.9005636187695934e-06,1.6330758331304689e-06,7.886309032020053e-06,8.044065376465486e-05,2.200965627353383e-06,2.0527047259660787e-06,1.8139438813664584e-06,2.428086796779421e-06,1.3190093722199813e-06,2.4079288603152114e-06
150,2.051011298445949e-06,1.8517124478762555e-06,2.658044289112953e-06,1.1059131158053544e-06,2.2369674711372915e-06,2.414240369149056e-06,1.9018453330582314e-06,1.605551369703152e-06,7.4597155443452155e-06,7.934516023916972e-05,2.4072090943104306e-06,2.1756927387547846e-06,1.762685132234068e-06,2.442949911275e-06,1.3267487356823153e-06,2.3142178957744473e-06
151,2.001728830323949e-06,1.7537844119795489e-06,2.655255561268391e-06,1.1278620943636784e-06,2.1556377962871264e-06,2.3973986705107674e-06,1.9012409813281467e-06,1.5861111863196136e-06,7.045648878275831e-06,7.808888952689899e-05,2.6318818409949824e-06,2.311118683146486e-06,1.7127301700624783e-06,2.453814670525839e-06,1.3350894610246585e-06,2.219110674043421e-06
152,1.9618893896589427e-06,1.6664454722052956e-06,2.651823598407554e-06,1.1555426054804153e-06,2.0837134437488383e-06,2.3776476886241537e-06,1.8983460667140514e-06,1.5740720850108767e-06,6.647039393108181e-06,7.666956674693833e-05,2.87461385156382e-06,2.459109677001137e-06,1.6652746533113352e-06,2.4599036559866144e-06,1.3438656789701752e-06,2.12455157374765e-06
153,1.931860645048857e-06,1.5891523066587836e-06,2.647267809412084e-06,1.1890869589616898e-06,2.0207721985086606e-06,2.3544946763462084e-06,1.8928357114519926e-06,1.5689185165308427e-06,6.265890246461042e-06,7.508662761985618e-05,3.1349773195940065e-06,2.6194892648445733e-06,1.6214481404793774e-06,2.460579972824124e-06,1.3529536437620369e-06,2.0323721813405598e-06
154,1.9115585109282178e-06,1.5212883497213906e-06,2.641079950025042e-06,1.2285386167627992e-06,1.9664073599127983e-06,2.3272585904985027e-06,1.8844703839159475e-06,1.5704310356719672e-06,5.903694575226625e-06,7.333703538394621e-05,3.4126450450644033e-06,2.7916823253560885e-06,1.5822567693411625e-06,2.455802394408145e-06,1.3621847415963125e-06,1.94420221000123e-06
155,1.9005260758394485e-06,1.462097740342942e-06,2.6330287515184306e-06,1.2738416191064224e-06,1.9204157936566567e-06,2.295381703219617e-06,1.8730001972444186e-06,1.5785646751332858e-06,5.561574151123996e-06,7.141361260662498e-05,3.7073438910009916e-06,2.9745891932166972e-06,1.5485187036129296e-06,2.4462842656030622e-06,1.3713248153945973e-06,1.8613586399388213e-06
156,1.8981156037179382e-06,1.4107710603359106e-06,2.6233501058585555e-06,1.3247753464435648e-06,1.8827644310394171e-06,2.258803241201315e-06,1.8580421090023956e-06,1.5932980187452489e-06,5.240199128994766e-06,6.930948795384521e-05,4.01859040677854e-06,3.166538779546898e-06,1.5208494882201344e-06,2.4333096585042838e-06,1.3801602799822138e-06,1.7847778488873453e-06
157,1.9036920944159167e-06,1.366534702885551e-06,2.612777185837904e-06,1.3809069114830328e-06,1.8534459533107699e-06,2.218089678809335e-06,1.839136703267371e-06,1.6146519177811303e-06,4.939764431976498e-06,6.702385112521128e-05,4.345363082257898e-06,3.3653365678795323e-06,1.4997140191413731e-06,2.4184209922398144e-06,1.3886728781233602e-06,1.7149954392231563e-06
158,1.9166936651880096e-06,1.3287028085995792e-06,2.602445266058492e-06,1.4415951405987647e-06,1.832408177934988e-06,2.174216867295485e-06,1.816011685679553e-06,1.6427385341355083e-06,4.660134114926817e-06,6.456444359848345e-05,4.6858519052365854e-06,3.5683293980420585e-06,1.4854469068033194e-06,2.403171783777784e-06,1.3970893668442522e-06,1.6521593357077566e-06
159,1.936546283422032e-06,1.29679356111269e-06,2.593657870210433e-06,1.505995295305037e-06,1.819574607455316e-06,2.1282946153045855e-06,1.788823886636317e-06,1.6776671915829793e-06,4.401113219032331e-06,6.194590897961229e-05,5.0372950354188204e-06,3.7724926554394594e-06,1.4781910902409527e-06,2.3889689350289795e-06,1.4056968186299012e-06,1.596096185161907e-06
160,1.9625759648295452e-06,1.2706508212213542e-06,2.5875815539875827e-06,1.5730814489162337e-06,1.814853978998521e-06,2.081532292744149e-06,1.7581372352264117e-06,1.7194176539243973e-06,4.162634014214784e-06,5.918637235561421e-05,5.395859959603678e-06,3.9746054218664775e-06,1.4778176260055416e-06,2.3769452255121997e-06,1.4146270878624683e-06,1.5464207021179983e-06
161,1.9939534577102273e-06,1.2503833807957948e-06,2.5850417610735504e-06,1.6417351696920489e-06,1.8181562287156957e-06,2.0352983484096833e-06,1.7246641551564733e-06,1.767805417716882e-06,3.9448485580220365e-06,5.630811380854627e-05,5.756550632129004e-06,4.171422786920597e-06,1.4838942094348501e-06,2.367903725930448e-06,1.4237900169008632e-06,1.5026244799368796e-06
162,2.0296887863425295e-06,1.2361475176826444e-06,2.5864663642861897e-06,1.71083477916834e-06,1.8295161778307205e-06,1.9909988813582455e-06,1.6890895058060378e-06,1.8224537314534037e-06,3.7481567674772823e-06,5.334223525993293e-05,6.11312232728662e-06,4.359646573027978e-06,1.4957551422927484e-06,2.362402848934186e-06,1.4329025581084232e-06,1.46410723559932e-06
163,2.0687463900453473e-06,1.2279680091230297e-06,2.5919194106563256e-06,1.7792733660210735e-06,1.8492237093107048e-06,1.949877925575889e-06,1.6521642585596406e-06,1.8827585742934568e-06,3.5729961478239585e-06,5.032893842603097e-05,6.458001471919057e-06,4.535695534047745e-06,1.5126676466327583e-06,2.3608620557807397e-06,1.4414985454576686e-06,1.4301793917588545e-06
164,2.1101957685277117e-06,1.2256915541308279e-06,2.6013030444615445e-06,1.8459425748345263e-06,1.8777618626018567e-06,1.912944332677435e-06,1.614852290428672e-06,1.947922974338446e-06,3.4195310831452787e-06,4.73106559349205e-05,6.782320429772903e-06,4.695489441761097e-06,1.5339523395000896e-06,2.363520650081095e-06,1.4489479689626446e-06,1.4001036468109337e-06
165,2.1532625175817986e-06,1.2290283030590974e-06,2.6147448977672914e-06,1.909736240592591e-06,1.9155822032548094e-06,1.8810211284025165e-06,1.578276213135621e-06,2.016981411412254e-06,3.287465851718618e-06,4.432427663585544e-05,7.0762767255981294e-06,4.8343574678678715e-06,1.558962860866911e-06,2.3703507237571143e-06,1.4545630845336559e-06,1.3731551444307132e-06
166,2.197290127979747e-06,1.2376011767603495e-06,2.63285035364337e-06,1.969574648519922e-06,1.9629240969677458e-06,1.854867195887947e-06,1.5435156557715478e-06,2.0887424882094217e-06,3.1759219780434404e-06,4.139751280953989e-05,7.329950092450483e-06,4.94709109890831e-06,1.5870308637187804e-06,2.3811334144853e-06,1.4577154634774495e-06,1.3486137318850402e-06
167,2.241683925448597e-06,1.2509576092237427e-06,2.65652551973743e-06,2.024433365520031e-06,2.0197510802917166e-06,1.8352735848199018e-06,1.511450632936746e-06,2.1617851205740398e-06,3.0833456903406747e-06,3.85489006043877e-05,7.534473575768079e-06,5.028460936700904e-06,1.6174334022952384e-06,2.395598557087526e-06,1.457871666420561e-06,1.3257205644918584e-06
168,2.2858941088508914e-06,1.2685689628141618e-06,2.686538905749255e-06,2.0733852424084757e-06,2.0857117541870967e-06,1.8230023574159416e-06,1.4827229827886073e-06,2.234663289615493e-06,3.0075173777987955e-06,3.578892352652026e-05,7.683183443370736e-06,5.074416288103126e-06,1.6493187356303523e-06,2.4134003804824574e-06,1.4546261651936963e-06,1.3036745244629063e-06
169,2.329456759241232e-06,1.2898657449120683e-06,2.7231856930658e-06,2.115679598492127e-06,2.1601234892551008e-06,1.8186300425242024e-06,1.4577671495847231e-06,2.306252361548014e-06,2.945729817544174e-06,3.312195227861038e-05,7.772191416346943e-06,5.083248492362601e-06,1.6816841203478747e-06,2.4340436072730667e-06,1.4478273530997533e-06,1.2817008140624561e-06
170,2.372039391371139e-06,1.3142675390155292e-06,2.7661871243334123e-06,2.1508481344033225e-06,2.2420576464335127e-06,1.8225026481587882e-06,1.4368800118011845e-06,2.375983460016875e-06,2.8951208134411454e-06,3.055011503880577e-05,7.799892684614487e-06,5.055623987828697e-06,1.713575602412302e-06,2.456966309558949e-06,1.4377021052512077e-06,1.2592204807219608e-06
171,2.4134032377739194e-06,1.3411394780237068e-06,2.8147752939112077e-06,2.1787424945640026e-06,2.3304798452601048e-06,1.834885995268869e-06,1.420369740970963e-06,2.4437852880323908e-06,2.852973398016832e-06,2.8077696989964654e-05,7.765706317881737e-06,4.9935013255911944e-06,1.7444252298505523e-06,2.4816510722615763e-06,1.4248000130530717e-06,1.236034035861432e-06
172,2.4532424960693805e-06,1.3697633835601383e-06,2.8678694566292903e-06,2.199401260564919e-06,2.424328468701399e-06,1.8561745322514604e-06,1.4087242524474359e-06,2.5097838221934997e-06,2.8167489142082204e-06,2.5712814575318622e-05,7.669426329916908e-06,4.899225332910886e-06,1.7742047378845572e-06,2.5075855910430266e-06,1.4097880318126393e-06,1.2123464267312555e-06
173,2.4909683540442733e-06,1.3994246851852444e-06,2.9242097176297528e-06,2.212838093234999e-06,2.5225032701164287e-06,1.8869424088023333e-06,1.402617039999506e-06,2.573947294615522e-06,2.783903928895047e-06,2.3465407784962203e-05,7.511985901387941e-06,4.7756069848101315e-06,1.8032214069297964e-06,2.5341328381752112e-06,1.3933149538288732e-06,1.1885932609357148e-06
174,2.5255950993558797e-06,1.4294910552501804e-06,2.9823733407821526e-06,2.218971501241608e-06,2.6237812182433306e-06,1.9277837180624767e-06,1.4027710438532284e-06,2.6358474175111892e-06,2.751913399084009e-06,2.134389040976666e-05,7.296617741314711e-06,4.626325421609329e-06,1.8317989703395455e-06,2.560409780662693e-06,1.3760143571127694e-06,1.1651962374764246e-06
175,2.5558186122835294e-06,1.4593806526708118e-06,3.0407431784765328e-06,2.2177276900989553e-06,2.726686979319683e-06,1.97913025852047e-06,1.4098597470773873e-06,2.6946244283209256e-06,2.718719355813374e-06,1.9353386243494046e-05,7.029177031138822e-06,4.45587912806047e-06,1.8601563780787024e-06,2.5852175619973918e-06,1.3585350243114902e-06,1.1424063787595439e-06
176,2.5802213156910474e-06,1.48858574492937e-06,3.097551182104717e-06,2.209183158462742e-06,2.829477499456706e-06,2.041219125791823e-06,1.4244404731067213e-06,2.7491446279946266e-06,2.6831520818921113e-06,1.749618195891561e-05,6.717608401346151e-06,4.269108593573291e-06,1.8884637481494357e-06,2.607180082001434e-06,1.3415349703837699e-06,1.1203153004688316e-06
177,2.5975308605631116e-06,1.5168550015478319e-06,3.1510205726150205e-06,2.193695734156648e-06,2.9303660961365817e-06,2.114134907908754e-06,1.4468572828934962e-06,2.798234967371678e-06,2.6448076624210598e-06,1.577267078350245e-05,6.371132872337759e-06,4.070625061795122e-06,1.9169253177304567e-06,2.625212683431133e-06,1.3256247292258712e-06,1.0989798604771766e-06
178,2.606923024001577e-06,1.5443299077762694e-06,3.1995108899212157e-06,2.172006160051741e-06,3.027785421661332e-06,2.1977708615153984e-06,1.4771791274050186e-06,2.840830127573203e-06,2.6035790470217423e-06,1.4181498698574558e-05,5.999490479838751e-06,3.864494065713384e-06,1.945806760964551e-06,2.6390443742347788e-06,1.3112576338553932e-06,1.0785022275881236e-06
179,2.6082837557442537e-06,1.571451292215275e-06,3.241610282411895e-06,2.145221709666897e-06,3.1204368646336714e-06,2.2917080321418644e-06,1.5152174437000634e-06,2.876010600245157e-06,2.5594178967328183e-06,1.2719597326234675e-05,5.6122480924902785e-06,3.654288546445794e-06,1.9753834141126913e-06,2.6493650737906572e-06,1.2986314140363087e-06,1.0589855311242613e-06
180,2.6022655134617577e-06,1.5987180264510836e-06,3.2762442253705615e-06,2.114643515759541e-06,3.207214447240708e-06,2.395109059041787e-06,1.5605672529222388e-06,2.903141402018966e-06,2.512455305416027e-06,1.1382766953928906e-05,5.218188909247588e-06,3.443233749147341e-06,2.0058911419595775e-06,2.6575723834619193e-06,1.2876708007722373e-06,1.040461634011748e-06
181,2.590094845685012e-06,1.6264901235715637e-06,3.3028276635278426e-06,2.0815294710843655e-06,3.2872321388566014e-06,2.506674555299574e-06,1.6126270984088385e-06,2.9222332237663404e-06,2.4631060094610886e-06,1.016617823278439e-05,4.82494490369542e-06,3.2341717138914468e-06,2.037508037523133e-06,2.665454701899211e-06,1.2780813426711571e-06,1.0229382666540878e-06
182,2.5732640387502016e-06,1.6549727289256653e-06,3.321321040000311e-06,2.0469132864208385e-06,3.359926016732777e-06,2.6246969381977074e-06,1.6706325185785046e-06,2.934256793198927e-06,2.411903230224332e-06,9.06439598428541e-06,4.438936880934677e-06,3.02939153848355e-06,2.0703187482422774e-06,2.6749991823886357e-06,1.2694210400579893e-06,1.0065475293048376e-06
183,2.553236372529128e-06,1.6843447148198933e-06,3.3320409927829283e-06,2.0115390781681375e-06,3.424989001483206e-06,2.7472494047648146e-06,1.7337089489822364e-06,2.9410271045475216e-06,2.3592602732122205e-06,8.071321446370813e-06,4.065484347079855e-06,2.830520593088713e-06,2.10435396542593e-06,2.6882089747080388e-06,1.2611625643239681e-06,9.916043599829944e-07
184,2.53122282053514e-06,1.7148340418410444e-06,3.335278675480277e-06,1.9759225578791833e-06,3.482136719770528e-06,2.8724112257122105e-06,1.800884941527227e-06,2.9446648439248253e-06,2.30543289947332e-06,7.18029521832787e-06,3.7089551217034928e-06,2.638558594005708e-06,2.139741350464843e-06,2.7069278335511634e-06,1.2527718482230994e-06,9.78535071994787e-07
185,2.5080984616644745e-06,1.746673913210336e-06,3.3309882795305394e-06,1.9405006517979387e-06,3.5310432468975175e-06,2.998349503341595e-06,1.8710838011856507e-06,2.9470285454944877e-06,2.2506584077734e-06,6.3842770476945385e-06,3.372921570103681e-06,2.45403070452117e-06,2.1767502554881384e-06,2.7329334094823777e-06,1.2438178795294293e-06,9.678333570231044e-07
186,2.4844724218275058e-06,1.7800504374553816e-06,3.318774866470949e-06,1.9057480938017602e-06,3.5715176300955193e-06,3.123202448690628e-06,1.943172839066559e-06,2.949405769573777e-06,2.1953309424961514e-06,5.675978907566136e-06,3.0602865565773047e-06,2.2772874191499286e-06,2.2156478775767277e-06,2.7683279497604313e-06,1.2340359163042058e-06,9.600562032310274e-07
187,2.4607659758284035e-06,1.8150376652762574e-06,3.298147310171924e-06,1.8721380743811793e-06,3.6035258376774988e-06,3.2448552653889595e-06,2.0160862037585698e-06,2.9524159787114196e-06,2.140138562960658e-06,5.047858400668951e-06,2.773406119026726e-06,2.1089128805616637e-06,2.25665230683995e-06,2.8158460365160005e-06,1.2233121687986596e-06,9.557495234793745e-07
188,2.43718101853725e-06,1.8514669035166644e-06,3.268834081875237e-06,1.8399842680418024e-06,3.6269330020579595e-06,3.3607748469133337e-06,2.0889568531806856e-06,2.9559943191069743e-06,2.086079081296612e-06,4.4920245742041095e-06,2.514314479403603e-06,1.9499624325456405e-06,2.3001236733384956e-06,2.878797619887928e-06,1.2117087878559594e-06,9.55340506601542e-07
189,2.4136637238925886e-06,1.8888242213058004e-06,3.2309892388456106e-06,1.809327596735968e-06,3.641386142087535e-06,3.4680321895252242e-06,2.1611198372147764e-06,2.9594279246051988e-06,2.0343012479142955e-06,4.000295996298989e-06,2.2850446830093997e-06,1.8018688342086446e-06,2.346663446063348e-06,2.960727833005977e-06,1.1995343426049829e-06,9.591247592978318e-07
190,2.3899799576450156e-06,1.926242025404138e-06,3.1851866835354215e-06,1.7799617694212767e-06,3.6465809082110045e-06,3.5634634666931615e-06,2.2319034386205183e-06,2.9614536751155503e-06,1.9858557303820572e-06,3.5645143914494786e-06,2.0879226797221843e-06,1.6663026472265767e-06,2.3969181713011997e-06,3.0650315444045353e-06,1.187303093633417e-06,9.673658963092524e-07
191,2.3658531029134666e-06,1.962548858575879e-06,3.1322072880542732e-06,1.7515973039205244e-06,3.6426114447953653e-06,3.6438670510453264e-06,2.3003612449396696e-06,2.9604299974233766e-06,1.9415149488762268e-06,3.1768618944203508e-06,1.925708567815899e-06,1.545194829499611e-06,2.451419194521317e-06,3.1946990487342446e-06,1.1755889460376448e-06,9.803926822762336e-07
192,2.3410866852170677e-06,1.996433010896733e-06,3.072782258699259e-06,1.7241304254110213e-06,3.6300562814516133e-06,3.706306771808563e-06,2.365154044636155e-06,2.9546316989769077e-06,1.9017352227308723e-06,2.829950859945977e-06,1.801522397368529e-06,1.4407011254536746e-06,2.5107434474489445e-06,3.352238712832647e-06,1.1649082317743155e-06,9.985854264390525e-07
193,2.3156041195638865e-06,2.0267638013615184e-06,3.0075011138549126e-06,1.6978922925554286e-06,3.6097653941900494e-06,3.7485702758859734e-06,2.42457833358858e-06,2.942654099575767e-06,1.866712339962355e-06,2.516780172131265e-06,1.7186264702589204e-06,1.3549999854500883e-06,2.5757137529348106e-06,3.539767885397647e-06,1.1556635482818395e-06,1.0222698084614425e-06
194,2.2893725725218897e-06,2.0528672098573628e-06,2.936920478185224e-06,1.6737121556584232e-06,3.582490079500189e-06,3.7694703713137167e-06,2.4767129316344323e-06,2.9237329564797186e-06,1.8364256280541291e-06,2.230801867987202e-06,1.6801991211878356e-06,1.2901097321378918e-06,2.6472758459472988e-06,3.759158455309487e-06,1.148116703093926e-06,1.0516186137231094e-06
195,2.2623573476349585e-06,2.0745314156474245e-06,2.861738124842911e-06,1.6527593447446044e-06,3.5485637643505328e-06,3.768626281182205e-06,2.519738411055033e-06,2.8977806611349638e-06,1.8106150075481925e-06,1.966234164050002e-06,1.6891887842533008e-06,1.2478199283403866e-06,2.7262035994887277e-06,4.012021994546137e-06,1.142378916911048e-06,1.0866194834789545e-06
196,2.2346841284369174e-06,2.091804602195727e-06,2.782926513691697e-06,1.636279276448565e-06,3.507860746550178e-06,3.7460019208318867e-06,2.552305815096082e-06,2.865190530249912e-06,1.788759589302195e-06,1.7184604519087149e-06,1.748281689622207e-06,1.2296963480904546e-06,2.8128999520411997e-06,4.299504004280555e-06,1.1384593843800968e-06,1.1270781450159395e-06
197,2.2068937261416564e-06,2.1047944736271105e-06,2.7017774122316367e-06,1.6253832926810942e-06,3.4601006977770464e-06,3.7018760719262185e-06,2.5737500953258575e-06,2.826635410490436e-06,1.7701137843788514e-06,1.4841691021146083e-06,1.859964127109637e-06,1.237120109746396e-06,2.907281392682146e-06,4.622047517543074e-06,1.1364008473945164e-06,1.1726213499882472e-06
198,2.179977797104311e-06,2.1135591030796295e-06,2.6197869557263745e-06,1.620969918470255e-06,3.4053201210416552e-06,3.6372933646321762e-06,2.5841622462081107e-06,2.7830044464621434e-06,1.7537705211765078e-06,1.261105115993285e-06,2.0266001052586886e-06,1.2713117971864471e-06,3.0087708056654466e-06,4.979246465304897e-06,1.1363991534355524e-06,1.22272571200836e-06
199,2.1551069397741434e-06,2.1180274338387864e-06,2.5383977642493157e-06,1.6237055967351733e-06,3.3442400167126626e-06,3.5543778449786592e-06,2.5843982295255103e-06,2.7354708452428968e-06,1.738819428818523e-06,1.047630922006105e-06,2.250417214469859e-06,1.3333109542144712e-06,3.116442950446943e-06,5.369814892733253e-06,1.1387755921221769e-06,1.2767676042722277e-06
200,2.1332721592519e-06,2.117899897830339e-06,2.458794793054153e-06,1.6339789219584898e-06,3.278360562451256e-06,3.4561521656950715e-06,2.575951257438928e-06,2.6856145336386657e-06,1.724642988807262e-06,8.423682551419572e-07,2.5333768129456804e-06,1.4239623943116186e-06,3.229142305711945e-06,5.791580305268274e-06,1.1438246644765321e-06,1.3340541439142955e-06
201,2.115067928333909e-06,2.1126394562718348e-06,2.3819228717450655e-06,1.6518628107669758e-06,3.2097860731249564e-06,3.3460568776378986e-06,2.5606270754117556e-06,2.6355008741579755e-06,1.7111099604586674e-06,6.440597839805634e-07,2.877046215943106e-06,1.543965555448467e-06,3.3454313117219803e-06,6.24140168378517e-06,1.1516786484768516e-06,1.3938622607438633e-06
202,2.1006801390311294e-06,2.101674896208316e-06,2.3086034189206995e-06,1.6771310363677499e-06,3.1409047417089776e-06,3.227457931530234e-06,2.540168598451523e-06,2.587617936905965e-06,1.6984750542025765e-06,4.516458343075016e-07,3.2826313174296237e-06,1.6939389900886583e-06,3.4635040493546414e-06,6.715170307571426e-06,1.162266536710458e-06,1.455470231556705e-06
203,2.0900212952740323e-06,2.0847073808958748e-06,2.239509719886288e-06,1.709280685489759e-06,3.074075309515829e-06,3.103277948161607e-06,2.5160469738972855e-06,2.544639753745703e-06,1.6871642852637598e-06,2.6445717559613797e-07,3.751200287895493e-06,1.8744183725223042e-06,3.581225501142132e-06,7.2081961951517465e-06,1.1753280533418373e-06,1.5181086683392922e-06
204,2.0828992819457405e-06,2.0618997031260254e-06,2.175023975431998e-06,1.7475111059303557e-06,3.0114361714065725e-06,2.975838233670525e-06,2.4894468488664287e-06,2.509104536330994e-06,1.6776499236324083e-06,8.234394593687131e-08,4.283928681485506e-06,2.085801983355713e-06,3.69619768571256e-06,7.715896344246684e-06,1.1904560296633917e-06,1.5809078726380851e-06
205,2.0791568482136904e-06,2.0338561488777865e-06,2.1151863691188973e-06,1.7907135441443057e-06,2.95487659008563e-06,2.8469785978579713e-06,2.4612900082794275e-06,2.4831753288334115e-06,1.6703600487588096e-06,-9.435074520424698e-08,4.882152426477581e-06,2.3282968937232457e-06,3.805739363179163e-06,8.234147389380104e-06,1.2071809196143803e-06,1.6429642021046909e-06
206,2.0787834916145104e-06,2.0014390758788534e-06,2.0598352054696263e-06,1.8375888113172386e-06,2.9061332957029486e-06,2.7183727669366746e-06,2.4321916676950783e-06,2.468573512061143e-06,1.665557628861888e-06,-2.6481854811872367e-07,5.547195019959304e-06,2.6018426582055797e-06,3.907024893719773e-06,8.75884382945965e-06,1.2250587666817803e-06,1.70345715166819e-06
207,2.0819298042393834e-06,1.9655397049810146e-06,2.0088505221773774e-06,1.8868960692297957e-06,2.8669204615445067e-06,2.5917855687630675e-06,2.40238056570163e-06,2.4666213149424087e-06,1.6632761116553914e-06,-4.2770834410241506e-07,6.280113737260215e-06,2.9059779372479195e-06,3.997641016202999e-06,9.285082354168302e-06,1.2437235859232347e-06,1.7616837018619927e-06
208,2.088779146272245e-06,1.926940671566038e-06,1.9622985154847024e-06,1.93762530029257e-06,2.838950114753676e-06,2.4690632516372627e-06,2.3716460388004536e-06,2.4783018191150707e-06,1.663375905284951e-06,-5.810917914266877e-07,7.081485684838321e-06,3.2396967928296195e-06,4.0762297931387194e-06,9.806587047699252e-06,1.2629469598017633e-06,1.8170092491307138e-06
209,2.099448180784666e-06,1.8863102221058392e-06,1.9203778597070287e-06,1.988911404884646e-06,2.8237749423558545e-06,2.3519063948140825e-06,2.3393795816805896e-06,2.5043175980127317e-06,1.6656764675622836e-06,-7.225478743973729e-07,7.95118895237943e-06,3.6013594766965964e-06,4.142593294870563e-06,1.0315433370554732e-05,1.2827047888209903e-06,1.8688164582479807e-06
210,2.114008420165486e-06,1.8442178737801417e-06,1.8832684325937793e-06,2.039796422208801e-06,2.8226153447868437e-06,2.2416534945639572e-06,2.304764664238001e-06,2.5451392777840036e-06,1.6700963075930626e-06,-8.492546930280938e-07,8.888076071427053e-06,3.98870478684393e-06,4.19714297231693e-06,1.0802241124403414e-05,1.3031423408918958e-06,1.9164992343273263e-06
211,2.1324462281100763e-06,1.8011074985211562e-06,1.8510001106920108e-06,2.0891026551611997e-06,2.8363203961685745e-06,2.13921876962845e-06,2.2670594772360123e-06,2.601009004164329e-06,1.6767580951991397e-06,-9.580320885944269e-07,9.889582970462405e-06,4.399002046304594e-06,4.240184220192577e-06,1.1257245155832916e-05,1.3244212491935962e-06,1.9595038453450773e-06
212,2.15452351207846e-06,1.7573413311457748e-06,1.8233975971479685e-06,2.135517230211908e-06,2.865348138179366e-06,2.0451288343349087e-06,2.225855770285165e-06,2.671897520807268e-06,1.686002052100105e-06,-1.0453476409060315e-06,1.0951408594966476e-05,4.829272515783889e-06,4.271603735228633e-06,1.1671931941592626e-05,1.3466140811137475e-06,1.997415125561885e-06
213,2.1796916378531173e-06,1.7133651201383733e-06,1.8001337642042127e-06,2.177724872687886e-06,2.9096843053799633e-06,1.9595472903817936e-06,2.181232679376923e-06,2.757461604835446e-06,1.6982676867724945e-06,-1.1072946407362237e-06,1.2067295893004758e-05,5.276397898143626e-06,4.291118873896646e-06,1.2040330703492302e-05,1.3697447352303641e-06,2.0300565781426523e-06
214,2.2070623516801005e-06,1.6698229105816855e-06,1.7808172292945192e-06,2.214409838208366e-06,2.9688350254833167e-06,1.882301773311049e-06,2.1337266596679357e-06,2.8570157162291116e-06,1.7139153779360735e-06,-1.1395593741715914e-06,1.3228880774032773e-05,5.73699349319834e-06,4.29876871343589e-06,1.2359408112819885e-05,1.393851264858002e-06,2.057479960417566e-06
215,2.2354242962751454e-06,1.6274759032170423e-06,1.7649880719617497e-06,2.2442528262283817e-06,3.041935167971478e-06,1.813012283009496e-06,2.084082193606343e-06,2.969473057706017e-06,1.733101428504382e-06,-1.137318722555791e-06,1.4425612501462264e-05,6.2070836188889525e-06,4.295218982289482e-06,1.2628506538785785e-05,1.4189538708537887e-06,2.0797540552634813e-06
216,2.2633976096737833e-06,1.5870230947609576e-06,1.752102922064897e-06,2.2661417324594696e-06,3.127807824316379e-06,1.7513237320709597e-06,2.032920881583634e-06,3.0932570923958404e-06,1.7557324565021294e-06,-1.0949954015477356e-06,1.5644683972619032e-05,6.6817436411806045e-06,4.281693422985383e-06,1.284803317702411e-05,1.4449959667142486e-06,2.096699957957125e-06
217,2.2897039339749722e-06,1.5490204677232854e-06,1.7416487976355401e-06,2.2794635713161885e-06,3.2248959770969136e-06,1.6970933750601233e-06,1.9805818232639778e-06,3.22623592207604e-06,1.781460930148112e-06,-1.0060365921195207e-06,1.6870832920715288e-05,7.154844967056299e-06,4.259632221192041e-06,1.301830333447185e-05,1.471842793408795e-06,2.107797458299348e-06
218,2.313367212393344e-06,1.5139327887195843e-06,1.7332504492170326e-06,2.2842028140451764e-06,3.331158290400867e-06,1.6503790166022368e-06,1.9272815638573687e-06,3.365686629807201e-06,1.809741898261835e-06,-8.629477632733326e-07,1.808600744889188e-05,7.618888475443117e-06,4.2303480932103825e-06,1.3139804592538588e-05,1.4992955061451588e-06,2.112294566533708e-06
219,2.333701824437774e-06,1.4821790625691143e-06,1.7266047917483566e-06,2.28084314359369e-06,3.4439700446013563e-06,1.6112826316516346e-06,1.8734451038764982e-06,3.5083151084459176e-06,1.8400616066131492e-06,-6.574483608028117e-07,1.9268980671012152e-05,8.064944779576627e-06,4.194908590078036e-06,1.321478528987737e-05,1.5270749745445658e-06,2.1094393596159524e-06
220,2.3502345930599517e-06,1.4540835074785467e-06,1.721370138403722e-06,2.2702290221022868e-06,3.5600228141993316e-06,1.5798443350065835e-06,1.8198477543172455e-06,3.6503699910667605e-06,1.8722532472983358e-06,-3.805207577284653e-07,2.0395080526146187e-05,8.48289713521435e-06,4.154221082610833e-06,1.3248529132588401e-05,1.554789072607355e-06,2.098766498512613e-06
221,2.362831722343023e-06,1.4298214346912486e-06,1.7172098555527965e-06,2.253458104494873e-06,3.6753136799537967e-06,1.5560282970115299e-06,1.7674623032324008e-06,3.7877993681471582e-06,1.9065534001177023e-06,-2.248159057453526e-08,2.1436733728821505e-05,8.862161200451892e-06,4.109109748446451e-06,1.3249091909729686e-05,1.581903200795053e-06,2.080336220874289e-06
222,2.3719040133157923e-06,1.409460958028608e-06,1.7139635587864967e-06,2.2318029606845463e-06,3.7853812449599407e-06,1.5396981070411561e-06,1.7172805048161377e-06,3.916452811372684e-06,1.9434025377063663e-06,4.2677572433545434e-07,2.2365568291343888e-05,9.192842986762358e-06,4.060281079486415e-06,1.3225676576402475e-05,1.6077720348848389e-06,2.0547968783734243e-06
223,2.3783171240880406e-06,1.3930295589785487e-06,1.7117974270347586e-06,2.2066606573028277e-06,3.885844419236728e-06,1.5305656511699318e-06,1.6702582362020009e-06,4.032421475201333e-06,1.9833796600464045e-06,9.775017295966765e-07,2.3155655218624502e-05,9.467000043770957e-06,4.008244611443202e-06,1.3186599968902143e-05,1.631786229405249e-06,2.0232351155380493e-06
224,2.3830076545846796e-06,1.3805288849693681e-06,1.7112643114285625e-06,2.1794895542371867e-06,3.973030944082602e-06,1.5281849152470542e-06,1.6272640232086159e-06,4.13245843040661e-06,2.0272829981694765e-06,1.6399183520058827e-06,2.3786643955430818e-05,9.679486936287748e-06,3.9532400724630714e-06,1.3137839358432955e-05,1.6535509810148952e-06,1.9869275613442595e-06
225,2.386625155046299e-06,1.3719756072744898e-06,1.7132731998986292e-06,2.151671547862494e-06,4.044371127569039e-06,1.5319742373121881e-06,1.5889715789474739e-06,4.214265557913504e-06,2.0760847499625254e-06,2.4241322058503898e-06,2.4245765535718214e-05,9.828046004248305e-06,3.895140454555909e-06,1.3082690027525005e-05,1.672907996318744e-06,1.947133079114722e-06
226,2.3893707501455685e-06,1.367470532108226e-06,1.7189721541530692e-06,2.124348450131601e-06,4.098461912779206e-06,1.5411847622625482e-06,1.5557780899471643e-06,4.276533905735935e-06,2.1308539403675683e-06,3.340107496619736e-06,2.4527937939548756e-05,9.912567444379322e-06,3.8333997734136895e-06,1.3022335787310114e-05,1.689780851422616e-06,1.9049510572553648e-06
227,2.390978285939008e-06,1.367149763876166e-06,1.7295669931495667e-06,2.09835908807356e-06,4.134939768613873e-06,1.5548517742708355e-06,1.5277847844554565e-06,4.3188304642863586e-06,2.1928170064680688e-06,4.397784451618164e-06,2.4633411256444504e-05,9.93373168043175e-06,3.7672694646142443e-06,1.2956549389100938e-05,1.70408406273366e-06,1.8612159970251757e-06
228,2.3908154728581514e-06,1.3710250111737697e-06,1.746168792620976e-06,2.0742934672833498e-06,4.1542908311995e-06,1.571811534121969e-06,1.5048117471448665e-06,4.341481047650397e-06,2.2633371136855955e-06,5.6073011576645485e-06,2.456399650403899e-05,9.891874162213297e-06,3.696312046940662e-06,1.2883826955166252e-05,1.7158370953993345e-06,1.8164764794212096e-06
229,2.388182072235586e-06,1.3788838225935672e-06,1.7697460150594091e-06,2.052543866830626e-06,4.1576075647000496e-06,1.590775078514587e-06,1.4864931983095084e-06,4.345487212391595e-06,2.343660821488678e-06,6.979012017088792e-06,2.4321215917622262e-05,9.786979238186833e-06,3.6208524509445307e-06,1.2801216432036577e-05,1.7253163248670474e-06,1.7711184527129551e-06
230,2.38272742812531e-06,1.3902925367127222e-06,1.8011063469452468e-06,2.0332633813311557e-06,4.146259022826021e-06,1.610478545964844e-06,1.4724835571935066e-06,4.332403310194748e-06,2.434652650337775e-06,8.523109625013714e-06,2.3908126697416222e-05,9.619604774425433e-06,3.5419570962269586e-06,1.2704782860162983e-05,1.7330317940739156e-06,1.7255301443609727e-06
231,2.3746716890753665e-06,1.4046247983184594e-06,1.840821612174227e-06,2.0162823495763956e-06,4.12149462204256e-06,1.6299386991445266e-06,1.4626076311619004e-06,4.304071986208398e-06,2.5366928033012037e-06,1.0248976870653204e-05,2.3332254785439192e-05,9.391822861825802e-06,3.4609917412778852e-06,1.25909016929824e-05,1.7395625644641304e-06,1.6801287731856562e-06
232,2.3646290435877487e-06,1.421123477785352e-06,1.889141523440531e-06,2.0010632338537462e-06,4.084080436582002e-06,1.648656836120179e-06,1.4568260147442414e-06,4.2622176929890506e-06,2.649722293917549e-06,1.2164493865226748e-05,2.2606797611377933e-05,9.10773996947832e-06,3.379286135831366e-06,1.2457576355329515e-05,1.745422819004865e-06,1.6352322094462992e-06
233,2.353229630899307e-06,1.4390172609541234e-06,1.9459597368272337e-06,1.9867005094841183e-06,4.034144113534185e-06,1.666566770731428e-06,1.4551852539791136e-06,4.2081297942004655e-06,2.7733605752946402e-06,1.4275535099976564e-05,2.1750066949414508e-05,8.773629348859565e-06,3.298170362375407e-06,1.2305090981751762e-05,1.7510066311910503e-06,1.5909448815410632e-06
234,2.34087418901764e-06,1.4575958633664065e-06,2.0108285196910485e-06,1.971984565621675e-06,3.971392468866203e-06,1.683791097053384e-06,1.4578698322360345e-06,4.142672109440038e-06,2.906982206287593e-06,1.6585868229329494e-05,2.0784162193102146e-05,8.397653727418536e-06,3.2190737648846018e-06,1.2135841850118135e-05,1.7565953785718406e-06,1.5472490338591448e-06
235,2.3276816972950184e-06,1.4761966907635856e-06,2.0829985649165046e-06,1.955557283268994e-06,3.8956450199035245e-06,1.7004476703296796e-06,1.4651709076021115e-06,4.066534979299771e-06,3.049800891080904e-06,1.9097343300740253e-05,1.97333674071061e-05,7.989183151858625e-06,3.143446865006594e-06,1.195337241436469e-05,1.7624187626563907e-06,1.504294755970376e-06
236,2.3134869753670395e-06,1.4942047812706737e-06,2.1614733037177514e-06,1.936105131512907e-06,3.807370578549636e-06,1.7165734090050896e-06,1.4773147630838227e-06,3.980527836613759e-06,3.2010975774409354e-06,2.1809852609199866e-05,1.8622453667749864e-05,7.557952286833668e-06,3.0725882646278825e-06,1.1761004358606671e-05,1.7686989566777106e-06,1.4626077903452539e-06
237,2.297827589573625e-06,1.5111433857660938e-06,2.2450665040309624e-06,1.912548624969449e-06,3.707941533231024e-06,1.7320556566136449e-06,1.4943802550435478e-06,3.885852373363288e-06,3.3604375279668914e-06,2.4720668090342286e-05,1.7475076735903054e-05,7.113321620190363e-06,3.0074580467727647e-06,1.156118395926324e-05,1.7756261650446072e-06,1.4229848799963173e-06
238,2.279959752757492e-06,1.5268220444333112e-06,2.3324300400432207e-06,1.8842587621323038e-06,3.5995799550662503e-06,1.7465558526659126e-06,1.5163903490508845e-06,3.7843135992717635e-06,3.5276773055407076e-06,2.7823336062085862e-05,1.6312475404480528e-05,6.663729266836423e-06,2.948553110359802e-06,1.1356052783321284e-05,1.7833018599808875e-06,1.3862132515862792e-06
239,2.258957405472086e-06,1.5414690724478422e-06,2.4220299528919423e-06,1.8512498025211408e-06,3.485128174858662e-06,1.7594952207341333e-06,1.5433765925701105e-06,3.678386260839911e-06,3.7028757026183822e-06,3.1106548117323986e-05,1.5152650568632053e-05,6.21641174388142e-06,2.8959747046014802e-06,1.1148043683897407e-05,1.7917275654593795e-06,1.3528912887628908e-06
240,2.2339177841202203e-06,1.555750482119269e-06,2.512117815417877e-06,1.81417577942576e-06,3.367725333285004e-06,1.7700949535159725e-06,1.5752712302908552e-06,3.571118351124087e-06,3.886228224866601e-06,3.455316985337307e-05,1.4010149813180443e-05,5.7774606509862025e-06,2.8496900948889537e-06,1.0939495467879879e-05,1.8008711854071537e-06,1.3234210011852742e-06
241,2.204194421673947e-06,1.5706096280369408e-06,2.600765723156086e-06,1.774054505532089e-06,3.2504305487200137e-06,1.777467755327201e-06,1.6117381065734512e-06,3.465897885888765e-06,4.077896963585647e-06,3.813941719492351e-05,1.2896341061229284e-05,5.35206034055643e-06,2.80975706431619e-06,1.073184606929395e-05,1.8107146962631535e-06,1.2980728738695747e-06
242,2.1695110194476798e-06,1.587034803328211e-06,2.685972211448414e-06,1.7318917122709767e-06,3.1359242166961045e-06,1.7808136813214436e-06,1.6520959173041006e-06,3.3661098160370826e-06,4.277659567466346e-06,4.183414086817781e-05,1.181990035886836e-05,4.944674005428466e-06,2.776247280209039e-06,1.0525197724441276e-05,1.8211905055465876e-06,1.2770330179974338e-06
243,2.12992086722709e-06,1.605911567591359e-06,2.7658207072166385e-06,1.6884540216812493e-06,3.026431486899395e-06,1.7796705859251484e-06,1.6953241820053e-06,3.274793007665927e-06,4.484599690306525e-06,4.559815261220085e-05,1.0787383116109172e-05,4.5590843559181085e-06,2.748928511542036e-06,1.0318380124830828e-05,1.8321250494101432e-06,1.2604004311217335e-06
244,2.0857325123958054e-06,1.6279484274618105e-06,2.8386686568858807e-06,1.6442343860409296e-06,2.9238130978400176e-06,1.7740252193262792e-06,1.7400946656853338e-06,3.1944715620924816e-06,4.69703149331163e-06,4.9383576581587614e-05,9.803787367656545e-06,4.198318262480949e-06,2.727032420224391e-06,1.0109501742839124e-05,1.8433272431719418e-06,1.248141058230548e-06
245,2.037479832035748e-06,1.6536127544678324e-06,2.9032735140905733e-06,1.5994723253141753e-06,2.8296065119150404e-06,1.7641800596987056e-06,1.7848915035822924e-06,3.1271918872275565e-06,4.9125807489564665e-06,5.313313959281007e-05,8.872902200396686e-06,3.864600158684733e-06,2.709313296954195e-06,9.897054854772389e-06,1.854671803999666e-06,1.2400336038173246e-06
246,1.9858613407270095e-06,1.6830803084989822e-06,2.958746250334299e-06,1.5541679042421522e-06,2.7449356038657505e-06,1.7505779770676426e-06,1.8283000183487688e-06,3.074592427978902e-06,5.128377355800668e-06,5.677976382244161e-05,7.997375108362682e-06,3.5594134106602032e-06,2.6943751309997324e-06,9.681182426970829e-06,1.865997410957109e-06,1.2356482676123025e-06
247,1.931642114198276e-06,1.7161972554112062e-06,3.004362240785653e-06,1.5081627144967733e-06,2.6704553058476768e-06,1.7338297153498343e-06,1.869362251741732e-06,3.037875735978633e-06,5.34134802461477e-06,6.024905306425309e-05,7.178701779675501e-06,3.2835367285211936e-06,2.6810801604165146e-06,9.464215379803293e-06,1.876996413516069e-06,1.23439387746094e-06
248,1.8756950248106036e-06,1.752462339552214e-06,3.039349636939138e-06,1.4613261181045795e-06,2.606467007428603e-06,1.7148412965213136e-06,1.9077684069631338e-06,3.017778244244063e-06,5.548475074014176e-06,6.346771526407875e-05,6.417314935879908e-06,3.036996667798293e-06,2.6687726078246895e-06,9.249981384268354e-06,1.887352747204704e-06,1.2356385834439687e-06
249,1.8191746710848177e-06,1.7910912175163268e-06,3.0627119644364842e-06,1.4137503665982114e-06,2.5530866464210395e-06,1.6948053251474206e-06,1.943741734129935e-06,3.0146388966689192e-06,5.747041655006176e-06,6.637579494136302e-05,5.712740713765293e-06,2.8190575812299474e-06,2.6572126131538026e-06,9.042404793418072e-06,1.8969997768357024e-06,1.2388325050724867e-06
250,1.763525767177032e-06,1.8311851132317984e-06,3.073157404636573e-06,1.3658131268958336e-06,2.510272319308259e-06,1.6750318371308863e-06,1.9777270467461486e-06,3.0284787998590377e-06,5.934912147204231e-06,6.893550527729868e-05,5.063755696658871e-06,2.628289847659177e-06,2.6463727080253812e-06,8.844459654054963e-06,1.906174128067328e-06,1.243564432778333e-06
251,1.7102401319322336e-06,1.8718626054115193e-06,3.0692889308026407e-06,1.318077239945623e-06,2.477702054085752e-06,1.6567344400863706e-06,2.010160668412338e-06,3.0590041402424467e-06,6.11051679829239e-06,7.11305646792376e-05,4.468549908076152e-06,2.462683106433093e-06,2.636234837717402e-06,8.658119802250811e-06,1.915266951732873e-06,1.249586057236057e-06
252,1.6606078086629799e-06,1.9122097537794086e-06,3.0500500887208784e-06,1.2711528670818922e-06,2.4546688593285063e-06,1.64089292629039e-06,2.0414037579366906e-06,3.1055777398165455e-06,6.272400667302723e-06,7.295658738264961e-05,3.9249021774483185e-06,2.3198808108286727e-06,2.626618354752136e-06,8.485048099931345e-06,1.9247735437661667e-06,1.256849921402892e-06
253,1.6156083059231693e-06,1.9511416579026433e-06,3.015177576602455e-06,1.225647195101586e-06,2.4401210196929567e-06,1.628234925146144e-06,2.071702703440131e-06,3.1672032737616925e-06,6.419094163549809e-06,7.441197930129915e-05,3.4303743852571613e-06,2.19755508742935e-06,2.617209961302969e-06,8.327279448002964e-06,1.9354122722106336e-06,1.2655236662806558e-06
254,1.5758787936603978e-06,1.987372018474326e-06,2.9654296378181346e-06,1.1821608608365132e-06,2.432799994289733e-06,1.6192809842695318e-06,2.1011838457489635e-06,3.2424944848682577e-06,6.549839647653784e-06,7.549959786343491e-05,2.9825416049126665e-06,2.093705073438293e-06,2.607918448672928e-06,8.187439540813009e-06,1.9481344955926163e-06,1.2759170105392995e-06
255,1.5417137089574214e-06,2.0196247506116157e-06,2.902514672367668e-06,1.1412533819589893e-06,2.4313806829393237e-06,1.6144189332969845e-06,2.1299447246614673e-06,3.3296666179937983e-06,6.665198647571862e-06,7.6237165741673e-05,2.579180930778285e-06,2.00671471307009e-06,2.5992312604567133e-06,8.068508503463102e-06,1.963899157071193e-06,1.28833231648552e-06
256,1.5131442916645962e-06,2.0470453087718195e-06,2.828766187427097e-06,1.103420331352982e-06,2.434614991501733e-06,1.6139823292659672e-06,2.15810060754184e-06,3.4266589598349047e-06,6.766615206254009e-06,7.666480071364316e-05,2.2182648486448783e-06,1.93526409163096e-06,2.5921450724501948e-06,7.973337072813319e-06,1.983432114208737e-06,1.3029351930536662e-06
257,1.4901028717541338e-06,2.069438051431429e-06,2.746731544431938e-06,1.0691077031859703e-06,2.4414934212867783e-06,1.618253436895787e-06,2.1857015318162232e-06,3.531376003665666e-06,6.855856230800938e-06,7.684207575474985e-05,1.8977490271703488e-06,1.8782416468492047e-06,2.587716465346956e-06,7.904167465755246e-06,2.007134361922689e-06,1.3197361904517346e-06
258,1.4725374718301109e-06,2.087052298619474e-06,2.65885641314641e-06,1.038720369692821e-06,2.4513602228889906e-06,1.6273918882985212e-06,2.2126345480289784e-06,3.6419493826612308e-06,6.9352964161182865e-06,7.683640443510439e-05,1.6153396402530225e-06,1.8347092414403141e-06,2.5866367533619877e-06,7.862321772913551e-06,2.0351050586168925e-06,1.3386723378825047e-06
259,1.460397896915779e-06,2.100189229313842e-06,2.567306642241264e-06,1.0126365648428155e-06,2.463908797725056e-06,1.641384578725784e-06,2.23859518904261e-06,3.756944744249638e-06,7.008184002479721e-06,7.671046839118402e-05,1.368406548741927e-06,1.8038857584777291e-06,2.5890918432842656e-06,7.848041829315389e-06,2.0672423745747378e-06,1.3596943941080474e-06
260,1.4536028556741269e-06,2.1089770554307852e-06,2.473909462135712e-06,9.912286740199688e-07,2.4790416123568453e-06,1.6600317074656254e-06,2.263212907729015e-06,3.8753669074398215e-06,7.078012766370009e-06,7.651489941088769e-05,1.154076624098535e-06,1.7850655789440188e-06,2.5949169684429564e-06,7.860382465089897e-06,2.1033728959129136e-06,1.3827932130088398e-06
261,1.4520408388419018e-06,2.1132909549911837e-06,2.380200761675741e-06,9.748322378748393e-07,2.496628280858204e-06,1.6829572623537805e-06,2.2863614722521586e-06,3.9963586702837075e-06,7.147697292802979e-06,7.628583645665948e-05,9.69449745679948e-07,1.7774784074138347e-06,2.603946331324745e-06,7.897075184860784e-06,2.1433436064866355e-06,1.4079536972640284e-06
262,1.4555526225657066e-06,2.112726491868706e-06,2.287464488334189e-06,9.636838916927574e-07,2.5162771886328067e-06,1.709714225887861e-06,2.3083846560992088e-06,4.1188119280619735e-06,7.2194018226157835e-06,7.604496267467654e-05,8.118096212801601e-07,1.780231685215212e-06,2.616292566573656e-06,7.954330450620291e-06,2.187069792510101e-06,1.435057228464107e-06
263,1.463958501695798e-06,2.106656106445e-06,2.196665415855357e-06,9.579048796043843e-07,2.5372980255567312e-06,1.7399901959395916e-06,2.3300000283053154e-06,4.241219544804571e-06,7.294812570024186e-06,7.580151407536659e-05,6.787197245224004e-07,1.7923728109053163e-06,2.6322708138524862e-06,8.026676640002838e-06,2.2345243511720014e-06,1.4638226664748993e-06
264,1.4771788871980896e-06,2.0943693853412052e-06,2.10837300273172e-06,9.57527956545382e-07,2.55892818516244e-06,1.7737809655226519e-06,2.352074510335749e-06,4.361703533409111e-06,7.375238447346911e-06,7.555420657347488e-05,5.679931472636116e-07,1.812926740769938e-06,2.6520416434813245e-06,8.107107729103401e-06,2.2856391504412988e-06,1.4938542280771757e-06
265,1.495308877205197e-06,2.0752529113914506e-06,2.022845392744365e-06,9.625052542153728e-07,2.5806962466827618e-06,1.8113863117713469e-06,2.3755590731135607e-06,4.477991315621095e-06,7.461338357839027e-06,7.529137569583234e-05,4.775807919071276e-07,1.840862916220275e-06,2.6753087384937454e-06,8.187848075823885e-06,2.340194677418591e-06,1.5247116897527598e-06
266,1.518529687922386e-06,2.04891652970948e-06,1.9402692654888368e-06,9.726900040966015e-07,2.6026809441782784e-06,1.853196824828243e-06,2.401529973037337e-06,4.587537774632822e-06,7.552739124201948e-06,7.499260261132492e-05,4.054593301597034e-07,1.8750908454073409e-06,2.701243199855944e-06,8.261693427102879e-06,2.3977973430743563e-06,1.5558934962086339e-06
267,1.5469266808039433e-06,2.0151550304614563e-06,1.860931045664651e-06,9.878515432631081e-07,2.625453987742692e-06,1.8994133866704364e-06,2.431108703823938e-06,4.688023277184909e-06,7.647897598028209e-06,7.463423056195006e-05,3.4959083292941166e-07,1.9144981939801105e-06,2.7286028025552994e-06,8.323266629466157e-06,2.4578865850378934e-06,1.5867642667506304e-06
268,1.5803616508300065e-06,1.9738396840706756e-06,1.785142846936121e-06,1.0077176805184152e-06,2.6497308255022238e-06,1.94987536152603e-06,2.465240084723532e-06,4.777897104780595e-06,7.744216213654533e-06,7.419414138042997e-05,3.07942106847365e-07,1.958011398440665e-06,2.755969234676937e-06,8.369321501150356e-06,2.5197079626273783e-06,1.6165799608615598e-06
269,1.6184583461193736e-06,1.9250176014896503e-06,1.7130460672587214e-06,1.0319792319692771e-06,2.6760648573224875e-06,2.004029108405931e-06,2.5045021354902742e-06,4.856563548202874e-06,7.838079382841956e-06,7.365040098430005e-05,2.78549592932026e-07,2.004711708425221e-06,2.781917643096039e-06,8.397880995533833e-06,2.5822959140387213e-06,1.6447382830450644e-06
270,1.6606242135809866e-06,1.8692361525820365e-06,1.644571594500947e-06,1.0602751969327896e-06,2.7048364645668625e-06,2.0610067124809593e-06,2.5490280998906997e-06,4.924238450623427e-06,7.924670964569142e-06,7.297644242756861e-05,2.5962496245329867e-07,2.0539049290154375e-06,2.804932800428424e-06,8.406941620148682e-06,2.644433573824282e-06,1.6711586689769854e-06
271,1.7060314463867205e-06,1.8077351533685434e-06,1.579622454681151e-06,1.0921904778692127e-06,2.7363615605908437e-06,2.1197988258502545e-06,2.5984788525097475e-06,4.981680844649105e-06,7.997961998461161e-06,7.214101188489042e-05,2.496139416057182e-07,2.104987004332257e-06,2.823220765030825e-06,8.393639365152604e-06,2.7045603074367704e-06,1.6964647662066308e-06
272,1.7535810549390107e-06,1.7422727246755856e-06,1.5182338456767484e-06,1.1272157070605346e-06,2.7708607656608376e-06,2.1794342435161663e-06,2.652058779715005e-06,5.029905314807483e-06,8.051285391704084e-06,7.111528310022093e-05,2.4715738544679483e-07,2.15720453622696e-06,2.834752946116829e-06,8.354017114196394e-06,2.7607646975828866e-06,1.7217513726833222e-06
273,1.8018941765934723e-06,1.6747587145013052e-06,1.4605384439746256e-06,1.1646685546682604e-06,2.808359567055997e-06,2.2390757066408177e-06,2.708607210553023e-06,5.069877071782096e-06,8.078362671304554e-06,6.98792974675469e-05,2.510199603699776e-07,2.209531328274755e-06,2.8376227550784753e-06,8.28316181964102e-06,2.810937539264562e-06,1.7481350933908275e-06
274,1.8493652748357554e-06,1.6069924103819458e-06,1.4066943936589303e-06,1.2036702924747654e-06,2.8487031396860573e-06,2.298048261285332e-06,2.766687090287828e-06,5.102174038153272e-06,8.07432433951495e-06,6.842032045853992e-05,2.600461807777486e-07,2.260677849091745e-06,2.8305204069397737e-06,8.176100884307924e-06,2.852963752954079e-06,1.7764460638705595e-06
275,1.8943265898932712e-06,1.5405881709347595e-06,1.3569275799541929e-06,1.243242059858364e-06,2.891592912426139e-06,2.3558282585474147e-06,2.8246278273218995e-06,5.1266857505090115e-06,8.036237011082876e-06,6.672796568636209e-05,2.7316398936383216e-07,2.309162098243729e-06,2.813085269957737e-06,8.029765841633051e-06,2.884853450904557e-06,1.8071382096426158e-06
276,1.93529873124955e-06,1.4769993149254172e-06,1.3115958692916584e-06,1.2824892785881001e-06,2.9364703829917092e-06,2.4119445687749556e-06,2.880649758719297e-06,5.142572815500724e-06,7.962746237818137e-06,6.479613753039616e-05,2.8943403907854325e-07,2.3534302838320642e-06,2.7859568404999144e-06,7.84488194446808e-06,2.904832405137352e-06,1.8402901466653023e-06
277,1.971186746988481e-06,1.4175750903385856e-06,1.2711742746436538e-06,1.3207624224361624e-06,2.9823697494705144e-06,2.4658034372446636e-06,2.9331552386369266e-06,5.148678851206035e-06,7.853223764164039e-06,6.263095832528239e-05,3.0810061901769863e-07,2.3919563539842617e-06,2.750464200572773e-06,7.626177114929016e-06,2.9114539631192876e-06,1.8756178005283201e-06
278,2.0012700361621267e-06,1.3635885254089883e-06,1.236183199872785e-06,1.357683982450039e-06,3.027942349477988e-06,2.5166245291147485e-06,2.981072528323812e-06,5.144192322920137e-06,7.707601895330075e-06,6.0254942009427713e-05,3.285891272144027e-07,2.4233062179752815e-06,2.708143480713528e-06,7.380840452475692e-06,2.903765900428386e-06,1.9124758349141664e-06
279,2.024998485311574e-06,1.3161714854924122e-06,1.2071004858510386e-06,1.3930469002360206e-06,3.0716514418386216e-06,2.5636175390592636e-06,3.0240737721035423e-06,5.12906834555227e-06,7.527216108821402e-06,5.770216565519762e-05,3.504430178233309e-07,2.446319894228908e-06,2.6604712515716407e-06,7.116630014842561e-06,2.8814239615467577e-06,1.94985227727807e-06
280,2.0418719226341137e-06,1.2762175436165118e-06,1.1842910284232565e-06,1.4267011565951916e-06,3.1120636298717798e-06,2.6062661250364e-06,3.062565095408217e-06,5.1039883980649465e-06,7.315541648026226e-06,5.5008420602430515e-05,3.7326692526715194e-07,2.4604346225265587e-06,2.608933596134846e-06,6.840790889338562e-06,2.8445588284779993e-06,1.9864031833601626e-06
281,2.0516288979468643e-06,1.244359322708278e-06,1.16800644510618e-06,1.4584876216803563e-06,3.1481565517868977e-06,2.64450446337648e-06,3.0974533928939733e-06,5.070096934086646e-06,7.077959827146359e-06,5.2205336738864256e-05,3.967310207586329e-07,2.4659023100677805e-06,2.5551414543000882e-06,6.559751283466585e-06,2.7934808510890178e-06,2.020576555694146e-06
282,2.054563548220956e-06,1.2210059132393457e-06,1.1584416016227198e-06,1.4881890970243301e-06,3.1795006873602565e-06,2.678643532133608e-06,3.1298181032546967e-06,5.028855296163525e-06,6.8208522894311095e-06,4.932228316675189e-05,4.2059930124758297e-07,2.4636801423926345e-06,2.500789937489514e-06,6.278998722756522e-06,2.7285935819792844e-06,2.050823801650187e-06
283,2.051659623242646e-06,1.2063637835242922e-06,1.1557524692451397e-06,1.5155576998925418e-06,3.2062191644102163e-06,2.7090734981287094e-06,3.1606653730714842e-06,4.982075050030973e-06,6.550667367271547e-06,4.638996791214746e-05,4.44730051888147e-07,2.4550601563619743e-06,2.4475116588960427e-06,6.002870293745308e-06,2.6506159422134588e-06,2.0758393023019293e-06
284,2.0444511621682726e-06,1.2004555041467465e-06,1.1600291298428651e-06,1.5404604201610139e-06,3.22877725034238e-06,2.7360544109382706e-06,3.1907862590426107e-06,4.931922127541985e-06,6.273244292519834e-06,4.34395929479338e-05,4.690402728138491e-07,2.4413133546257873e-06,2.3966951598850492e-06,5.734393821107914e-06,2.5608109970487786e-06,2.0947676774745174e-06
285,2.034683130459904e-06,1.2031945395686212e-06,1.1712946997222657e-06,1.562959963686998e-06,3.247729592296167e-06,2.7597845054019436e-06,3.220599520681663e-06,4.880711449792796e-06,5.993429925346637e-06,4.0498912204448524e-05,4.934581352239602e-07,2.4235540237634496e-06,2.3493730938430083e-06,5.475337844263241e-06,2.460991586232575e-06,2.107352032497922e-06
286,2.0239550352133397e-06,1.2144795503318604e-06,1.1894983819023082e-06,1.5831874129350916e-06,3.2635024115695536e-06,2.780473383614951e-06,3.2499802272509023e-06,4.830550602066907e-06,5.714960734963958e-06,3.7589719188783724e-05,5.17894319888298e-07,2.4027925225739346e-06,2.3062551090041957e-06,5.226474126510342e-06,2.3533325178595365e-06,2.1139735548685124e-06
287,2.013570794088327e-06,1.2342134284672081e-06,1.2144590816348399e-06,1.601150444473945e-06,3.276201821386822e-06,2.7982559136674374e-06,3.278160927566101e-06,4.783058816050515e-06,5.440497866016565e-06,3.472889389259645e-05,5.422312179547649e-07,2.3800064725714324e-06,2.2677880950169388e-06,4.987967280330191e-06,2.240103388287573e-06,2.1155063370364266e-06
288,2.004620238023538e-06,1.26222309368976e-06,1.2458308272161513e-06,1.616680955562452e-06,3.285463781900396e-06,2.8131691185558497e-06,3.3036924486481928e-06,4.739318790796995e-06,5.171781992355961e-06,3.193129220302613e-05,5.663345485940459e-07,2.3561071678504385e-06,2.234148317640416e-06,4.759789267918965e-06,2.1234350586398387e-06,2.1130000769693807e-06
289,1.9980717387938017e-06,1.2981672952618875e-06,1.2831283585865858e-06,1.6295213303962131e-06,3.290472007879432e-06,2.8252307055490586e-06,3.324484448037779e-06,4.699993300234013e-06,4.909871768513359e-06,2.9211148434017467e-05,5.900906504335078e-07,2.3318024648161708e-06,2.205229647212462e-06,4.542089632792656e-06,2.0052156429687627e-06,2.1073523162139395e-06
290,1.9947117388835305e-06,1.3415246088901091e-06,1.325747374086566e-06,1.6393927386803284e-06,3.2902027538566633e-06,2.8343952342420657e-06,3.3380686978657533e-06,4.665414626351133e-06,4.655304897096662e-06,2.6581491539412128e-05,6.134201358750601e-07,2.307463968203862e-06,2.1806875968992073e-06,4.33548161329966e-06,1.8871024540557218e-06,2.0991575687910928e-06
291,1.995019767507724e-06,1.3916504346724416e-06,1.3729808130383054e-06,1.645964879775421e-06,3.2837461531878766e-06,2.8404177047394833e-06,3.3421271390042356e-06,4.635565713494528e-06,4.408335935457087e-06,2.4054158852543018e-05,6.36246011441684e-07,2.2830968627126843e-06,2.1600809520906306e-06,4.141161836812989e-06,1.770565038618039e-06,2.088730069277187e-06
292,1.999121539221922e-06,1.4478192240106082e-06,1.4241182576224922e-06,1.6488265741837202e-06,3.2705684604812405e-06,2.842907249464749e-06,3.33507421901314e-06,4.610034183402931e-06,4.169427656697506e-06,2.1640984115667436e-05,6.58466909396133e-07,2.258370550925645e-06,2.1430699263112218e-06,3.960786324395102e-06,1.6569593470127095e-06,2.0761155443839553e-06
293,2.006807812451766e-06,1.5092013918223501e-06,1.4785797875198736e-06,1.6475933205083922e-06,3.250735055058311e-06,2.8416588859701887e-06,3.3164238462106923e-06,4.588038463256644e-06,3.939531284458663e-06,1.9353909061033128e-05,6.799842542153778e-07,2.2326240682467946e-06,2.129486777156336e-06,3.796151272150832e-06,1.547625377686317e-06,2.06103211436767e-06
294,2.017534005446619e-06,1.5748511596929783e-06,1.5359057420731913e-06,1.6421279737548203e-06,3.2250795620057052e-06,2.837073821397759e-06,3.2868600664545336e-06,4.568552076582303e-06,3.7197688036909468e-06,1.7203439889624446e-05,7.007798017432179e-07,2.2049278145503585e-06,2.119255717656401e-06,3.6488545451449202e-06,1.4438958342837943e-06,2.0429018252905913e-06
295,2.030403392614209e-06,1.643790888319328e-06,1.5955884164791044e-06,1.632671801234294e-06,3.1951972807629147e-06,2.8304237097378245e-06,3.248075428992371e-06,4.5504936707192775e-06,3.5109096694503276e-06,1.5197088435491578e-05,7.209608462672239e-07,2.1743314394148275e-06,2.1123058758014697e-06,3.5201411337906256e-06,1.3469863828252228e-06,2.0210666654862944e-06
296,2.044219059936405e-06,1.715100216196964e-06,1.6569657737544243e-06,1.6197352236063946e-06,3.1632118093480056e-06,2.8237795773877457e-06,3.202424145910645e-06,4.532930876143862e-06,3.31310653055375e-06,1.3338772307257446e-05,7.406887889278141e-07,2.140152188722969e-06,2.1084618480206573e-06,3.4109758753385013e-06,1.2578952245140517e-06,1.995049516502504e-06
297,2.0576717751538466e-06,1.7878709712401983e-06,1.7193220846088827e-06,1.6038810889295162e-06,3.131414036078693e-06,2.8196020876273754e-06,3.1524380277181773e-06,4.515265164098659e-06,3.125901387125581e-06,1.1628947672706528e-05,7.600507989723296e-07,2.102046504451891e-06,2.107304741133262e-06,3.3221442553127894e-06,1.1774081977398495e-06,1.9646811311343575e-06
298,2.0696260623336085e-06,1.8610702011018287e-06,1.7820612854748565e-06,1.5856290771824888e-06,3.1019066947433246e-06,2.820245499093955e-06,3.100360783316274e-06,4.49734438387381e-06,2.948513559470806e-06,1.0065049900958502e-05,7.790049608022926e-07,2.0599479348850194e-06,2.108154390875982e-06,3.2541896701809242e-06,1.1061527347640082e-06,1.9300848802284814e-06
299,2.0793590432029153e-06,1.9335138606180423e-06,1.844757397888542e-06,1.5654610658948045e-06,3.0763467302833757e-06,2.8276629698088113e-06,3.04788406112373e-06,4.479338670097856e-06,2.7804321188790816e-06,8.642059440633477e-06,7.974327271173895e-07,2.0141207210196656e-06,2.110176267235797e-06,3.2072427982372196e-06,1.0446125460499136e-06,1.8916106809942344e-06
300,2.086656692106022e-06,2.004051993933671e-06,1.90709608900345e-06,1.543772446557493e-06,3.0558265666574166e-06,2.843337527851123e-06,2.996107070243969e-06,4.461331974883212e-06,2.6218838283187745e-06,7.35319851084299e-06,8.152221302940329e-07,1.9652701491304694e-06,2.112459321456021e-06,3.180931279744251e-06,9.93113356245299e-07,1.8497885262937243e-06
301,2.091768974652106e-06,2.0717653472943274e-06,1.968860724857607e-06,1.5207787907533111e-06,3.0408711303405416e-06,2.8682940849693223e-06,2.9456102921985147e-06,4.443001198793038e-06,2.473733073673824e-06,6.19067763684604e-06,8.322806390744233e-07,1.914475224018131e-06,2.114052665151458e-06,3.1744778483065005e-06,9.518206792800305e-07,1.8053804987259738e-06
302,2.0952182507035445e-06,2.1359273421571628e-06,2.029988084420425e-06,1.496521738004322e-06,3.03154180076277e-06,2.903114448012623e-06,2.8965606106816726e-06,4.42368069830465e-06,2.337011576044439e-06,5.1462348826013e-06,8.484690875093292e-07,1.8629307686427085e-06,2.1140871416446086e-06,3.186905273754214e-06,9.207420763289219e-07,1.7595217308382978e-06
303,2.0975289146261842e-06,2.1958524621365584e-06,2.090539716102738e-06,1.4710488517298864e-06,3.0276126559406643e-06,2.9479456285344237e-06,2.848803211645444e-06,4.402537635373138e-06,2.2125536530107265e-06,4.211356287124148e-06,8.635324444849674e-07,1.811700030806034e-06,2.1119860057001666e-06,3.217109609948057e-06,8.99710735761985e-07,1.7137525007720986e-06
304,2.0990391451162656e-06,2.250941248005749e-06,2.15053266075332e-06,1.4446721816611623e-06,3.0286415108928203e-06,3.0025167151922848e-06,2.801925542679762e-06,4.3785736335110805e-06,2.1008921284573448e-06,3.3774147819945537e-06,8.770821386165153e-07,1.7616088053639276e-06,2.1076399233913047e-06,3.2637445326141687e-06,8.883717160464762e-07,1.6698132565079374e-06
305,2.09981570040335e-06,2.3008897201992686e-06,2.2097927029083336e-06,1.4181047669957367e-06,3.0338661960174845e-06,3.0661664731984905e-06,2.7553574665781207e-06,4.350599992755684e-06,2.0022742725015957e-06,2.635957475961741e-06,8.886573907244007e-07,1.7132276319200816e-06,2.1014999667218307e-06,3.325231312216091e-06,8.862062976078253e-07,1.6293609968113875e-06
306,2.099592931320097e-06,2.345742048070899e-06,2.267926208232336e-06,1.3923553783019526e-06,3.042143484800254e-06,3.137870186910358e-06,2.708549443673712e-06,4.317403016485313e-06,1.9166805272580753e-06,1.979015446160563e-06,8.978549810516937e-07,1.6668918103866204e-06,2.0945892741367968e-06,3.4000354549789356e-06,8.925564440125723e-07,1.5938234659809766e-06
307,2.0978197951111747e-06,2.3856967005999083e-06,2.324325437249182e-06,1.3684674471674405e-06,3.0520913199770973e-06,3.21630656828413e-06,2.661115972968214e-06,4.278074243960779e-06,1.8438558713950898e-06,1.3991807995517568e-06,9.044308782531031e-07,1.6227710514103598e-06,2.0884068843969368e-06,3.4868202181142055e-06,9.066281389570434e-07,1.5643872971759e-06
308,2.093920216434818e-06,2.4209186099919735e-06,2.378168752150556e-06,1.347290909828391e-06,3.0623451292849567e-06,3.2999842312912627e-06,2.6128273992057606e-06,4.232303898459935e-06,1.7833404178270672e-06,8.894212269605396e-07,9.082885741073307e-07,1.5809260285418065e-06,2.0847449026024773e-06,3.5842444011058803e-06,9.275783036324686e-07,1.541987863697832e-06
309,2.0876093743220886e-06,2.4515413874248413e-06,2.4284512834995094e-06,1.3293846848100969e-06,3.0718136461412196e-06,3.3873392401427655e-06,2.563533871716731e-06,4.180458451343077e-06,1.7344590784059885e-06,4.42866374455137e-07,9.094408734896539e-07,1.5413444019287748e-06,2.0854577532182462e-06,3.6907085913066696e-06,9.547149149884422e-07,1.527272124597844e-06
310,2.0789706905500997e-06,2.4777101455669868e-06,2.474044120287642e-06,1.315028810725766e-06,3.079863289294304e-06,3.476712974547143e-06,2.5131652827777304e-06,4.123409164631845e-06,1.6962906476897362e-06,5.281687529749197e-08,9.080706851342414e-07,1.50406333678465e-06,2.0922337047735278e-06,3.8042515994618257e-06,9.876146579024687e-07,1.5205891392262234e-06
311,2.0682376555789477e-06,2.4994752148386677e-06,2.5138226246063166e-06,1.304292726695528e-06,3.086314191646634e-06,3.56626116689516e-06,2.4617754946462117e-06,4.06222881092519e-06,1.6676400884688781e-06,-2.870833548606024e-07,9.045894868455946e-07,1.4693167397188645e-06,2.106458154086324e-06,3.922538759249576e-06,1.0260163517270456e-06,1.52200754094081e-06
312,2.0555756251192684e-06,2.516659556992037e-06,2.5469515719383453e-06,1.2970923525206758e-06,3.0912038891871716e-06,3.6539435811623282e-06,2.4095226705415482e-06,3.997947640574172e-06,1.6470535836175153e-06,-5.827517524622386e-07,8.9955021739962e-07,1.4375138373935327e-06,2.12918265074878e-06,4.043078386489872e-06,1.069635797910984e-06,1.5313537359145636e-06
313,2.0410541178466007e-06,2.5289299964982472e-06,2.5732400664936686e-06,1.2931940614021487e-06,3.094485209676983e-06,3.737644199456473e-06,2.3566224705970587e-06,3.9314828157522385e-06,1.6328999193867073e-06,-8.395970745991482e-07,8.935043997312445e-07,1.4090521323509452e-06,2.161130328030086e-06,4.163807608321812e-06,1.1180856552405255e-06,1.5483078050502588e-06
314,2.024663843837287e-06,2.5360107973580633e-06,2.5932818481306735e-06,1.2922399174167702e-06,3.095900823658484e-06,3.815318658660572e-06,2.3033612638039944e-06,3.863682436400601e-06,1.6234746133073856e-06,-1.06220050708717e-06,8.869242768191066e-07,1.3841309618647474e-06,2.2027066257064127e-06,4.283765688291008e-06,1.1708647849639144e-06,1.5725361842309295e-06
315,2.0063625060691557e-06,2.537751931291504e-06,2.6082278410485316e-06,1.2938712278678758e-06,3.095115932055285e-06,3.885080376134126e-06,2.250088433060424e-06,3.7953386877938864e-06,1.617167140520774e-06,-1.2537715225458602e-06,8.801912225359897e-07,1.3626525052523191e-06,2.254057310315657e-06,4.403317489110775e-06,1.2273186457156853e-06,1.6037992850336182e-06
316,1.986216673678913e-06,2.5339761086627643e-06,2.619349340664541e-06,1.2978396389691047e-06,3.0919810547385817e-06,3.945240745803626e-06,2.1971115429846418e-06,3.7271110383794905e-06,1.6127349507317805e-06,-1.415775427015522e-06,8.736384194477115e-07,1.3441945576871273e-06,2.3151642748044497e-06,4.523727080962567e-06,1.2865845409324735e-06,1.6420331667024528e-06
317,1.964442288518554e-06,2.5243929756361026e-06,2.6276810495006304e-06,1.303959211568341e-06,3.086699837052757e-06,3.9943140739325305e-06,2.1446804671510026e-06,3.659458017060819e-06,1.6095240149168089e-06,-1.5480439712572818e-06,8.675922524663554e-07,1.328048040106593e-06,2.3858415705961197e-06,4.646664827872111e-06,1.3476028072917028e-06,1.6874085636676775e-06
318,1.94130222172708e-06,2.5087710850351676e-06,2.63394285940446e-06,1.3119683850347718e-06,3.0797275250507895e-06,4.0308961466329335e-06,2.0931780291354566e-06,3.5927195955038744e-06,1.607469605060234e-06,-1.6492421883967229e-06,8.623480102072305e-07,1.313343147750705e-06,2.465587296746359e-06,4.774366185043845e-06,1.4092630729091091e-06,1.7402867084099594e-06
319,1.917053350703208e-06,2.4871514490240198e-06,2.6386914514881055e-06,1.3214721347977683e-06,3.0714939903274635e-06,4.053391384340208e-06,2.043237591095266e-06,3.5273398289799173e-06,1.6068998600893765e-06,-1.7172867712055523e-06,8.581410432623836e-07,1.2992370087447611e-06,2.5534228166153815e-06,4.910209559331678e-06,1.4706225780293841e-06,1.8010169106440505e-06
320,1.8919533141709701e-06,2.4598878620044534e-06,2.642442483637156e-06,1.331990140502001e-06,3.0623349590755644e-06,4.059883803558887e-06,1.9955556724775366e-06,3.4640342882660455e-06,1.6082841477070808e-06,-1.749476502675103e-06,8.551883891609293e-07,1.285059831710757e-06,2.647816898213413e-06,5.0589031163853354e-06,1.5309901282616047e-06,1.869698906695557e-06
321,1.866302448267497e-06,2.4275956760857878e-06,2.6456547113948085e-06,1.3430142547907073e-06,3.052823790369798e-06,4.048462890200678e-06,1.9506017066087525e-06,3.40370462515637e-06,1.6121048688910485e-06,-1.7424028203028303e-06,8.537400226375484e-07,1.2703690596005693e-06,2.746697382271476e-06,5.225975310875097e-06,1.5897951389706593e-06,1.9460801143355775e-06
322,1.840518472505325e-06,2.3911158775274675e-06,2.6487475296621914e-06,1.354025089059875e-06,3.0441831945877573e-06,4.0178273543688225e-06,1.908493143347758e-06,3.3471344790189387e-06,1.618879920464271e-06,-1.6918369839193122e-06,8.540509597709686e-07,1.2549736442741303e-06,2.8475418659677614e-06,5.416915612678302e-06,1.6463957779202071e-06,2.029586273248911e-06
323,1.81510097757587e-06,2.3514287769329516e-06,2.652243509404682e-06,1.3644972720618741e-06,3.038353429603698e-06,3.967739866973548e-06,1.8690504712037045e-06,3.294775769325976e-06,1.6291985020087908e-06,-1.5927575164270538e-06,8.56307726846848e-07,1.238937064667984e-06,2.947599226212549e-06,5.63650762448455e-06,1.6999680408491735e-06,2.119399432785362e-06
324,1.790449378306126e-06,2.3094651688078047e-06,2.656855173288179e-06,1.3739015640399853e-06,3.037658257136245e-06,3.89913542578141e-06,1.8319587192242643e-06,3.2468197988285156e-06,1.6437725840523487e-06,-1.4394806092879423e-06,8.605966363024864e-07,1.2224828630238513e-06,3.0442561592667973e-06,5.888603570724838e-06,1.7495012874613545e-06,2.2145483634869414e-06
325,1.7667172645397962e-06,2.26596257605077e-06,2.6633476176051396e-06,1.3816632073666286e-06,3.044336096548711e-06,3.8139206405863776e-06,1.7969712609124138e-06,3.2033512129919164e-06,1.6635407882938308e-06,-1.225672924324845e-06,8.669074781922729e-07,1.2058672335715188e-06,3.135393855319229e-06,6.17613716676534e-06,1.7938802971822458e-06,2.313952621597786e-06
326,1.7438482260506354e-06,2.2215422301881793e-06,2.6722639969114304e-06,1.3871055604035884e-06,3.0602114549913633e-06,3.714555557495757e-06,1.7640338381748186e-06,3.1643568500028754e-06,1.689720779808281e-06,-9.441610730613704e-07,8.751239423645569e-07,1.1893569833077429e-06,3.219604349693571e-06,6.501104639643798e-06,1.8319872703365418e-06,2.4163869596384757e-06
327,1.7217689001496854e-06,2.176888006026826e-06,2.6837109260834927e-06,1.3895018485213108e-06,3.0865541197542785e-06,3.6035412897570946e-06,1.7332206219533525e-06,3.1296117034621863e-06,1.7238048464984792e-06,-5.866555782425752e-07,8.850154541466947e-07,1.1732497116344002e-06,3.2962543175513912e-06,6.864536880051253e-06,1.862844363670823e-06,2.5204964065933412e-06
328,1.7006069631410943e-06,2.1327462833791982e-06,2.6973139487632688e-06,1.3882807963238827e-06,3.1240121881303747e-06,3.483060029385055e-06,1.704525574565536e-06,3.098555725689729e-06,1.7674964341517244e-06,-1.435254983201417e-07,8.962520420328759e-07,1.1578128809128532e-06,3.3653559098458925e-06,7.266578611008624e-06,1.885882755487759e-06,2.624972738115834e-06
