,EMG1,EMG2,EMG3,EMG4,EMG5,EMG6,EMG7,EMG8,EMG9,EMG10,EMG11,EMG12,EMG13,EMG14,EMG15,EMG16
0,8.06634822044533e-07,4.42475222352728e-08,2.577637236407171e-07,1.3481300888973668e-07,2.870764907952112e-07,2.3169297290660796e-07,1.2363671804290223e-06,1.0557265187396083e-07,1.6877835244713203e-07,3.145892446812022e-06,2.2061213278854378e-07,-7.14144173870191e-08,9.79646770976295e-07,-1.3341217102492587e-07,2.6230708357270463e-07,-4.906051172112206e-08
1,1.0077506275430102e-06,1.7949315933991474e-07,4.4702024244843424e-07,2.7878744620811755e-07,4.119231352823646e-07,5.271358272504735e-07,1.4770162145644428e-06,2.45651609145717e-07,3.71255077994522e-07,4.26478201156969e-06,4.163808044914866e-07,1.1751189063245965e-07,1.2496054966117658e-06,4.7276356603094494e-07,4.0460722543072627e-07,2.286218440049234e-07
2,1.2067759678101065e-06,3.103423106076933e-07,6.283147382323404e-07,4.222932527241578e-07,5.386259447204083e-07,8.163963309827853e-07,1.7214842047810311e-06,3.812181444037363e-07,5.670812821531724e-07,5.391261707295102e-06,6.004922218612944e-07,2.9236256833395667e-07,1.5237857746089332e-06,1.0664031630741317e-06,5.407049378415882e-07,4.979904983876313e-07
3,1.3991165388807835e-06,4.358699252702372e-07,8.00114951449172e-07,5.63090844949819e-07,6.664456947180429e-07,1.0941023159097389e-06,1.9648258266739774e-06,5.115424605998083e-07,7.556892705268144e-07,6.525392922064542e-06,7.715871549014989e-07,4.516818345053776e-07,1.7976777132359435e-06,1.6385829882470162e-06,6.696744328111038e-07,7.56652676776161e-07
4,1.5806429486605983e-06,5.552440170282817e-07,9.613181353453847e-07,6.993783591227242e-07,7.946433557714713e-07,1.3558048945482e-06,2.2023632189136e-06,6.360994639438905e-07,9.364507689561326e-07,7.666123940813193e-06,9.283528818148013e-07,5.941818566766593e-07,2.0666386354241944e-06,2.181306429854361e-06,7.907088949992241e-07,1.0024375700790917e-06
5,1.7479577286940211e-06,6.678346783942625e-07,1.1112692518175088e-06,8.29982148923732e-07,9.224707557056e-07,1.5983579890745992e-06,2.4301342986380233e-06,7.544552772672177e-07,1.1086167448487361e-06,8.810912209799512e-06,1.06965239439977e-06,7.186484873737456e-07,2.326081613165635e-06,2.6881475696110854e-06,9.0316547336513e-07,1.2333513748812668e-06
6,1.898621960774726e-06,7.732570342454515e-07,1.2495905801999398e-06,9.543441361660897e-07,1.0492325315305323e-06,1.819984781056983e-06,2.6453450712321743e-06,8.66144401307919e-07,1.2712729881359963e-06,9.955427126254327e-06,1.1946318684426085e-06,8.238539649875225e-07,2.5719732411882187e-06,3.1548655293136227e-06,1.0066066268653396e-06,1.447542210219041e-06
7,2.0313218904013305e-06,8.712598288445454e-07,1.3760079641379068e-06,1.0723338490421058e-06,1.174351496471982e-06,2.020091011045897e-06,2.8466178686446124e-06,9.706308701744308e-07,1.4233444620209602e-06,1.109336013141204e-05,1.302691937374289e-06,9.084928634138369e-07,2.8014503453582847e-06,3.579729468792696e-06,1.1007286610061969e-06,1.6433072126534492e-06
8,2.1458738219304478e-06,9.615792252975031e-07,1.4902657607804833e-06,1.1840108180390398e-06,1.2973692294328638e-06,2.199026425390398e-06,3.0338644996584516e-06,1.0674259808008508e-06,1.5637124530063095e-06,1.2216501963064794e-05,1.3934338238914919e-06,9.711769547807005e-07,3.0130063127482492e-06,3.963397285337172e-06,1.185297402106494e-06,1.819252401920503e-06
9,2.242942954092502e-06,1.043961020984089e-06,1.5921593225561695e-06,1.2894296801054636e-06,1.4179047161856802e-06,2.3578596414284673e-06,3.2077595520747217e-06,1.1563228023575307e-06,1.6914712957640163e-06,1.3315314651860208e-05,1.4667650245453527e-06,1.0105830096943563e-06,3.2060352646795147e-06,4.308435602406747e-06,1.2602688999634997e-06,1.9745632441260882e-06
10,2.3235489955957994e-06,1.1183290106543297e-06,1.681733792966079e-06,1.3885634340072132e-06,1.5356191377643941e-06,2.4981301237452873e-06,3.3690796226384486e-06,1.2375530673117233e-06,1.806184335359147e-06,1.438018535467512e-05,1.5231394295137791e-06,1.0257854991298042e-06,3.3801417835887706e-06,4.618671779135674e-06,1.325965853506071e-06,2.1091224422734567e-06
11,2.3886121091475003e-06,1.184872124621125e-06,1.7594680213557094e-06,1.4813614588646439e-06,1.6501936064900424e-06,2.62161062538932e-06,3.518286221564866e-06,1.3117133516856354e-06,1.907926250371447e-06,1.5403125404969925e-05,1.5636726938249744e-06,1.0166278726502562e-06,3.5348101467535372e-06,4.898471077718405e-06,1.3830639639026696e-06,2.223364405753988e-06
12,2.438710152836738e-06,1.2439742473291504e-06,1.8261882625020385e-06,1.5678077462467091e-06,1.761333039790121e-06,2.730153235949255e-06,3.6554043802844726e-06,1.379526516039463e-06,1.997144629788669e-06,1.6379109000253597e-05,1.589955505893337e-06,9.83959174295085e-07,3.6697231693075787e-06,5.152099164263463e-06,1.4324260192309195e-06,2.3180805275445457e-06
13,2.47408853216654e-06,1.2961103201791027e-06,1.8827927625918088e-06,1.6478588514829234e-06,1.8688194195573888e-06,2.825624999438443e-06,3.779971760010967e-06,1.4416210188821178e-06,2.0745259359750657e-06,1.7306419507888405e-05,1.6037589951923864e-06,9.296944690660839e-07,3.785316518291135e-06,5.383401757891828e-06,1.4749854265843733e-06,2.3944373258376987e-06
14,2.4949320821407825e-06,1.3417719074996546e-06,1.9300292867875986e-06,1.7213154004249758e-06,1.9725482936507868e-06,2.9098682507190294e-06,3.891056186996349e-06,1.4984302751557869e-06,2.140849244470101e-06,1.8185951364265415e-05,1.6069039131459117e-06,8.566645761305944e-07,3.882842175354329e-06,5.59571532171799e-06,1.5116844393702407e-06,2.454158970390852e-06
15,2.5017753296505515e-06,1.3814103742132414e-06,1.968369955938299e-06,1.7877367240490835e-06,2.072445206619224e-06,2.9846010534826687e-06,3.987485750879478e-06,1.5502145342551433e-06,2.196772941699394e-06,1.9019660200950697e-05,1.601224651543303e-06,7.682391673516255e-07,3.963976116080191e-06,5.791804004611114e-06,1.5433737548368876e-06,2.4995494178255462e-06
16,2.495790115552525e-06,1.4154176991587774e-06,1.997960350088948e-06,1.8464880635174387e-06,2.1683178676477517e-06,3.0512302906664647e-06,4.068174605950977e-06,1.5971940843849835e-06,2.242754725137634e-06,1.9809144220344203e-05,1.5884789498458813e-06,6.679436822089466e-07,4.0305958246173075e-06,5.973916741943321e-06,1.5707492711075465e-06,2.5331980163008366e-06
17,2.478808001543542e-06,1.4441375098619556e-06,2.01873633468471e-06,1.8969588906911956e-06,2.259773993332124e-06,3.1106686632936588e-06,4.132375960968801e-06,1.6397206137612665e-06,2.2793033627551935e-06,2.05558434257616e-05,1.5702659587821807e-06,5.593795698032009e-07,4.084738640747355e-06,6.143983043873774e-06,1.5944083922513414e-06,2.557617036022112e-06
18,2.4531388939592693e-06,1.4678587858619374e-06,2.0307254312518745e-06,1.9388130788998304e-06,2.3462185993345402e-06,3.1632851701839926e-06,4.179875816137162e-06,1.6783157414429763e-06,2.307338156453855e-06,2.1262492005757872e-05,1.548001946690346e-06,4.464422702009399e-07,4.12833336342233e-06,6.303792361974329e-06,1.6148999248771741e-06,2.5750537599352986e-06
19,2.42128377537574e-06,1.4867890171700713e-06,2.0343461511088115e-06,1.9720322435697005e-06,2.426949006076561e-06,3.2089928993345508e-06,4.2111217800523306e-06,1.7135338971979067e-06,2.3282137738836056e-06,2.1933792759061537e-05,1.5228953313283421e-06,3.3351606430480544e-07,4.1628841674663774e-06,6.455269563269113e-06,1.6326549431862378e-06,2.5874012565652216e-06
20,2.3856135362266512e-06,1.501027488336736e-06,2.0304995445884257e-06,1.9967095109766653e-06,2.5013049340307875e-06,3.24735885024774e-06,4.227220425354828e-06,1.7458559102441403e-06,2.3434231644588577e-06,2.2575569367099986e-05,1.495928613852946e-06,2.2542087084528266e-07,4.189449498031296e-06,6.600886316436392e-06,1.6479118213386583e-06,2.5961524171671614e-06
21,2.348119730578521e-06,1.5105722110449718e-06,2.0204032683453677e-06,2.012840762056756e-06,2.5686712621411426e-06,3.2776798028925235e-06,4.2298119746519614e-06,1.7757327169813219e-06,2.354363531740587e-06,2.3193354084775148e-05,1.467915916470386e-06,1.2722249193584664e-07,4.208721673356656e-06,6.743747359301585e-06,1.6607593892858141e-06,2.6024792791726935e-06
22,2.3103237474045815e-06,1.5154605911478225e-06,2.0052835498915513e-06,2.0203546595370334e-06,2.628391318137377e-06,3.2990905305488965e-06,4.220893140108861e-06,1.8036159979228922e-06,2.362250659173988e-06,2.3791225485139637e-05,1.4396004649585289e-06,4.411755825956545e-08,4.220951831515446e-06,6.887038551212926e-06,1.6712370568185387e-06,2.6073742034869706e-06
23,2.2733510091319967e-06,1.5160314331034544e-06,1.98610994045812e-06,2.0193345596216815e-06,2.679843352321173e-06,3.3107757798943017e-06,4.202628543884489e-06,1.8298558196877147e-06,2.3680780625409712e-06,2.4370885435482714e-05,1.4116581329168997e-06,-1.8567065341257293e-08,4.2257868127342525e-06,7.033265620935746e-06,1.6793791817166707e-06,2.611696140641991e-06
24,2.238108141911923e-06,1.513035810774524e-06,1.963480120743209e-06,2.010222189645608e-06,2.722545840960244e-06,3.312276722456958e-06,4.17712880952312e-06,1.8545568183964127e-06,2.3726653199797578e-06,2.4930711613371806e-05,1.3845860713085057e-06,-5.5314544297379844e-08,4.222207730267477e-06,7.183926813388787e-06,1.6852219578738804e-06,2.6161055660342852e-06
25,2.2054134787094334e-06,1.507434642104645e-06,1.937611922216858e-06,1.993863893141157e-06,2.7560825949228398e-06,3.30381467091888e-06,4.14617439585473e-06,1.877493038541622e-06,2.376733765142801e-06,2.5464765929223056e-05,1.3586149477734348e-06,-6.035938019351114e-08,4.208771695193511e-06,7.339756286282598e-06,1.6888780982305423e-06,2.6209755316123674e-06
26,2.1759592419731336e-06,1.5001101299924239e-06,1.9083752585246124e-06,1.9713915396482235e-06,2.780110838693569e-06,3.2864989308738995e-06,4.1109390043855265e-06,1.8980953631770709e-06,2.380848688543816e-06,2.5962017821845816e-05,1.33375678132639e-06,-2.769076266457492e-08,4.184182540539057e-06,7.501265251145435e-06,1.6906468255929922e-06,2.626335870823511e-06
27,2.150191278230924e-06,1.4917554645275813e-06,1.8754314214509724e-06,1.944026570188972e-06,2.7946572859833947e-06,3.262259866728092e-06,4.071807970332487e-06,1.91552794201568e-06,2.385304746044614e-06,2.640631744655812e-05,1.3099714934791453e-06,4.890258565515124e-08,4.1478544396548794e-06,7.669306732186434e-06,1.6909852830725883e-06,2.6318841752287913e-06
28,2.128271653346307e-06,1.4829736235164683e-06,1.8385600875999035e-06,1.912905392586333e-06,2.800345452526895e-06,3.2334550623995563e-06,4.028378193096117e-06,1.928873533447026e-06,2.390159116465829e-06,2.6777883684580214e-05,1.2873356217656651e-06,1.7581886760343944e-07,4.100063091748308e-06,7.845439948055797e-06,1.6903117346896112e-06,2.637087821416811e-06
29,2.1101269973328635e-06,1.4744791859006895e-06,1.7980285770554654e-06,1.8789768094397219e-06,2.7982150779140833e-06,3.202330752481413e-06,3.979697489828883e-06,1.937336334080704e-06,2.3954358555190242e-06,2.705655763197252e-05,1.2660859052413032e-06,3.597013235695945e-07,4.041630920639838e-06,8.031924829093436e-06,1.688816293957458e-06,2.6413436664622287e-06
30,2.095479282182379e-06,1.4672011662422496e-06,1.754724158139215e-06,1.8429859027914137e-06,2.7893169866514235e-06,3.1706355876270244e-06,3.92469993862643e-06,1.940332745403397e-06,2.4013265126080526e-06,2.7225581762562682e-05,1.2465300824668506e-06,6.075462603193223e-07,3.9734324086311765e-06,8.231460749388064e-06,1.6864088816543389e-06,2.6441212008648503e-06
31,2.083837624276105e-06,1.4621674204262233e-06,1.7099512346458438e-06,1.8055222368207875e-06,2.77444581014018e-06,3.139503860667009e-06,3.8626702481962795e-06,1.9374909315300536e-06,2.408186890442884e-06,2.727358984357688e-05,1.2289543594757087e-06,9.267865311027683e-07,3.896100108258038e-06,8.447080120465586e-06,1.682758712779817e-06,2.64503948395402e-06
32,2.074536647353434e-06,1.4603382097389787e-06,1.6650761132032807e-06,1.767062260370957e-06,2.7540771412140554e-06,3.109506270359152e-06,3.7935344246185108e-06,1.9286686906773333e-06,2.416332385063828e-06,2.7193219322451973e-05,1.2136424702870677e-06,1.3253247687623651e-06,3.810165682322526e-06,8.682390220805194e-06,1.6773486401640219e-06,2.6438825260479803e-06
33,2.066873301405368e-06,1.46255360585406e-06,1.6212736327503764e-06,1.7279384030433404e-06,2.728357269403713e-06,3.080832327762508e-06,3.717869984106709e-06,1.913998648758586e-06,2.425839078783342e-06,2.697747652779902e-05,1.2009568277457566e-06,1.8115362022846062e-06,3.7164319829242212e-06,8.94166796845624e-06,1.669611098675179e-06,2.640567023977526e-06
34,2.0602128840811647e-06,1.4695334237831384e-06,1.5794474965937711e-06,1.6882670655083134e-06,2.6971830146159973e-06,3.0536973704797113e-06,3.63671828754481e-06,1.893851253576018e-06,2.436467420298045e-06,2.6617963341418673e-05,1.1913266557262676e-06,2.394206499711583e-06,3.6160964442716437e-06,9.229377789095764e-06,1.6591910657592736e-06,2.6350416371423463e-06
35,2.0539349009395462e-06,1.4819034752861338e-06,1.5402352544287144e-06,1.647958585731873e-06,2.6604847733470454e-06,3.0288138285011567e-06,3.5513406802957707e-06,1.8686678739735746e-06,2.4477100387681188e-06,2.610798267912321e-05,1.185117062588868e-06,3.082385814920082e-06,3.5105430725544488e-06,9.54979975455059e-06,1.6461309518768906e-06,2.6271714641703585e-06
36,2.0473898029316004e-06,1.5002732484805004e-06,1.5040565378033298e-06,1.606862593201e-06,2.618539685600136e-06,3.0074772832350545e-06,3.4629297972684645e-06,1.8388270394252294e-06,2.458973197755786e-06,2.544847904903623e-05,1.182515956369316e-06,3.885223894695517e-06,3.4011485932672956e-06,9.907209774643562e-06,1.6307929323453244e-06,2.6167407145369185e-06
37,2.040031660103153e-06,1.5252515413541878e-06,1.471183455524491e-06,1.5649587260824538e-06,2.5721024744933304e-06,2.9911698979558794e-06,3.3722921957521335e-06,1.8047101012266999e-06,2.4697678312559983e-06,2.465199990620436e-05,1.1835058573062828e-06,4.81182601670113e-06,3.2892664095016794e-06,1.0305718461601538e-05,1.6136273360033567e-06,2.6035243007272208e-06
38,2.0315242958569243e-06,1.5573374633460313e-06,1.4417544279144806e-06,1.5224856954744974e-06,2.522368467437822e-06,2.9811200158308025e-06,3.2797042039916657e-06,1.766871668186746e-06,2.479743665775253e-06,2.3741677870968063e-05,1.1878732213988732e-06,5.871075729920657e-06,3.1763086550842532e-06,1.0748582754378376e-05,1.5950033332711872e-06,2.5872458330546367e-06
39,2.0217046409108636e-06,1.596835693199794e-06,1.4157696803970712e-06,1.479990946489124e-06,2.4708155725503176e-06,2.9781416439570827e-06,3.185124341422356e-06,1.7261376245859755e-06,2.4886331745076447e-06,2.274606268742683e-05,1.1952239061249578e-06,7.0713539312781415e-06,3.063894282777909e-06,1.1237836800389895e-05,1.5752086756106589e-06,2.5675012839128987e-06
40,2.0106374593344792e-06,1.6439370787747167e-06,1.39315162106301e-06,1.438331540419397e-06,2.4189404037454237e-06,2.9826220056977783e-06,3.088650147264348e-06,1.6835795511160623e-06,2.4962145970670145e-06,2.1693368639208345e-05,1.204992966070337e-06,8.420187941825286e-06,2.953962298399315e-06,1.1774303317374865e-05,1.5545404237783582e-06,2.543894285162713e-06
41,1.9987761237239215e-06,1.69887969345314e-06,1.373770850641707e-06,1.398624269933406e-06,2.3679975359445206e-06,2.9944515429176997e-06,2.9908779812864908e-06,1.6403812680870968e-06,2.502256125866073e-06,2.060801039062263e-05,1.2164758090298013e-06,9.923964907134666e-06,2.8486301878166622e-06,1.2357652247010453e-05,1.5333085339893435e-06,2.5163209517288806e-06
42,1.986926854308832e-06,1.7619778992860411e-06,1.357365147000514e-06,1.3621148762029428e-06,2.318877839979831e-06,3.0129409094311297e-06,2.892903314982145e-06,1.5976938298138626e-06,2.506511630656478e-06,1.9509654467293736e-05,1.2289451345376332e-06,1.1587769609368279e-05,2.749821397297263e-06,1.298649637800746e-05,1.5117362748401853e-06,2.4850927226025494e-06
43,1.976014121705794e-06,1.8334663935746634e-06,1.3434802205653483e-06,1.3299924864363622e-06,2.272166581185961e-06,3.036858916769071e-06,2.79600395355173e-06,1.5566072399573683e-06,2.5088307295433987e-06,1.8413689522666996e-05,1.2418177295727285e-06,1.3415270029220497e-05,2.6589788624898663e-06,1.3658324267460846e-05,1.4899066160808277e-06,2.450792066032807e-06
44,1.96694557934423e-06,1.9133220196400345e-06,1.3315295245902435e-06,1.3032439676565319e-06,2.2283416524109484e-06,3.0645659796200355e-06,2.701297287616156e-06,1.5181872637414623e-06,2.5091382732478665e-06,1.7332303544513245e-05,1.2547278217100527e-06,1.5408549851444353e-05,2.577043584946358e-06,1.436905335129818e-05,1.467811220112206e-06,2.4140631087613898e-06
45,1.960643987793209e-06,2.00118971065967e-06,1.3209010869352458e-06,1.2826010977222735e-06,2.187952596230491e-06,3.0941542404291734e-06,2.609623962325449e-06,1.4834226589992023e-06,2.507177361504561e-06,1.6275683919611224e-05,1.267432637607877e-06,1.7567835756299568e-05,2.5045642886260304e-06,1.5112403532846937e-05,1.4454538589946965e-06,2.3755686461754347e-06
46,1.9580475491231003e-06,2.0963877286825153e-06,1.3109938333646856e-06,1.2685367748059065e-06,2.1516283318242184e-06,3.1236466816375734e-06,2.521614101044466e-06,1.4530921280725017e-06,2.5023519889989736e-06,1.5252874846200554e-05,1.2796502783077949e-06,1.9891172500862783e-05,2.441755698671553e-06,1.5879389153465384e-05,1.4229574564036332e-06,2.3361339789315298e-06
47,1.9599612542489736e-06,2.197954956454626e-06,1.3011631999325824e-06,1.2612622167803086e-06,2.120108808003319e-06,3.151300953584367e-06,2.437709469586787e-06,1.4276745230965968e-06,2.493948068449696e-06,1.4272051569099676e-05,1.2910051770352118e-06,2.237419146186831e-05,2.388518237657834e-06,1.6657946687902203e-05,1.40061220019808e-06,2.2968969875285415e-06
48,1.9668737434271802e-06,2.3047515385143316e-06,1.2907021789213498e-06,1.2607478805001273e-06,2.0944512029211736e-06,3.1758189180284116e-06,2.358072358887782e-06,1.4073465167849594e-06,2.481584920316872e-06,1.3340418167471527e-05,1.3011468335557418e-06,2.5010044595177516e-05,2.3444870064373932e-06,1.7432741287813564e-05,1.3788295651782412e-06,2.2592887103950863e-06
49,1.9789079466839287e-06,2.4156019356485428e-06,1.2789667278941187e-06,1.2667927859954533e-06,2.0760686775112506e-06,3.1962291922046267e-06,2.2824967087220495e-06,1.3920551599523008e-06,2.4655028777254783e-06,1.2464133910016742e-05,1.3099427548006918e-06,2.7789403834371384e-05,2.3090285602125037e-06,1.8185835442583314e-05,1.3580238035366792e-06,2.2248778165355197e-06
50,1.9958961375328533e-06,2.5294242181389632e-06,1.2655464964108255e-06,1.279092313331238e-06,2.0664553865604243e-06,3.2115982784935887e-06,2.2104359178743762e-06,1.381617826636116e-06,2.4464355712960104e-06,1.1648263885111236e-05,1.3175906246412107e-06,3.070036551280687e-05,2.281143482483818e-06,1.889898563745209e-05,1.338468992512078e-06,2.195258542724259e-06
51,2.0174441860414906e-06,2.645321693207218e-06,1.2503259952183724e-06,1.2972751413428501e-06,2.0669178327955765e-06,3.2209786202685583e-06,2.141227474592053e-06,1.3757575119996422e-06,2.4252002301552805e-06,1.0896521841892894e-05,1.3245761736888632e-06,3.372818429931258e-05,2.2594077434615205e-06,1.9556962041918873e-05,1.3202140551757533e-06,2.1720171166921864e-06
52,2.0429249456110916e-06,2.762685379629132e-06,1.233434292966458e-06,1.3209760890909607e-06,2.0784766332037414e-06,3.2236702033171526e-06,2.074486071608833e-06,1.3741018893749686e-06,2.4023514643394326e-06,1.021128482219171e-05,1.331511569245303e-06,3.685486563583015e-05,2.2420919976957467e-06,2.0150075751636045e-05,1.3031179730716602e-06,2.156662622127585e-06
53,2.0714512836771795e-06,2.881294927421078e-06,1.215155280015605e-06,1.3499336411941613e-06,2.101859598756244e-06,3.2195127951982974e-06,2.0103821051909505e-06,1.3762384442464347e-06,2.3780672321826947e-06,9.59436108211093e-06,1.3389514866604663e-06,4.0058718759764544e-05,2.2274935515200688e-06,2.06745738893853e-05,1.2869393240337988e-06,2.1505514736371156e-06
54,2.101919713021011e-06,3.001258048081827e-06,1.1958441880597339e-06,1.383977157387856e-06,2.1374964090642545e-06,3.2090350968627496e-06,1.9495207153832773e-06,1.3817593275775314e-06,2.3522016713720913e-06,9.04767968080424e-06,1.3473137748820143e-06,4.33139911265531e-05,2.2143677990404946e-06,2.1130877802659824e-05,1.271402166121382e-06,2.1549180087472804e-06
55,2.133180059154252e-06,3.1227578067591614e-06,1.1759008359417926e-06,1.4228889332042026e-06,2.1854793027411815e-06,3.193473652202506e-06,1.8925584635859006e-06,1.3902449859609098e-06,2.3244006348334577e-06,8.573015066186441e-06,1.35693996880008e-06,4.659060581363785e-05,2.2022292809230997e-06,2.1520576909563037e-05,1.256305883381901e-06,2.170942476375373e-06
56,2.164222959945927e-06,3.2459067299665657e-06,1.1558277305412505e-06,1.4662627090185915e-06,2.2455574809834015e-06,3.1746566743154317e-06,1.8399123300258896e-06,1.4012530265664953e-06,2.294272235767974e-06,8.171294867509302e-06,1.3681624536988085e-06,4.9853877396518326e-05,2.1913638807230614e-06,2.1843687531405777e-05,1.2416750006634505e-06,2.199729879644187e-06
57,2.1941767371520847e-06,3.3708662084093935e-06,1.1362928254912856e-06,1.5134241211732232e-06,2.31723143392851e-06,3.1547290941407196e-06,1.7917035407908946e-06,1.41432159992128e-06,2.2616671802830727e-06,7.842352861127313e-06,1.381259935182456e-06,5.306399224687666e-05,2.1825657792506575e-06,2.2097897021455066e-05,1.2277705393860248e-06,2.242213679677394e-06
58,2.222138616997795e-06,3.497920157391347e-06,1.1180809437547728e-06,1.5634324628345042e-06,2.3998481125324008e-06,3.1357845438041083e-06,1.7479154771432353e-06,1.4290322554646888e-06,2.2269195711017233e-06,7.585001591114559e-06,1.3963483219160915e-06,5.6174844497734595e-05,2.1767554184136192e-06,2.2280494993635216e-05,1.2149579572326855e-06,2.2990701663856013e-06
59,2.247109370272582e-06,3.6272605229518665e-06,1.101954144726317e-06,1.6151904265551344e-06,2.492549720472617e-06,3.1195782088617276e-06,1.7086189999261812e-06,1.4451531242343845e-06,2.1908101967204638e-06,7.396941929868419e-06,1.4133223415281995e-06,5.913243646186573e-05,2.174741377737657e-06,2.2391804273466893e-05,1.2036002169952272e-06,2.3706728665518136e-06
60,2.2681449138138328e-06,3.7587034054703786e-06,1.088542517188064e-06,1.6676113086566672e-06,2.5941230760964043e-06,3.107438170031895e-06,1.6740196358905736e-06,1.4626597218669377e-06,2.1543462692923224e-06,7.2745831174027805e-06,1.4318940778220406e-06,6.187576770225077e-05,2.177238669858345e-06,2.243760232074328e-05,1.1939969544769218e-06,2.457029636019151e-06
61,2.2845805415052523e-06,3.891610884841429e-06,1.0783266596756303e-06,1.7196994095987376e-06,2.7028968709991904e-06,3.100277183580381e-06,1.6443366010948624e-06,1.4815555698078223e-06,2.1185897741519563e-06,7.213142102721713e-06,1.451677729651864e-06,6.434402667857778e-05,2.1849220016168222e-06,2.2428369444036733e-05,1.1863422392929662e-06,2.5576793737357977e-06
62,2.296154122832709e-06,4.024961733765944e-06,1.07168806907458e-06,1.7704672357309692e-06,2.816705039323909e-06,3.0985830173984993e-06,1.6197176775884946e-06,1.5017155829069662e-06,2.0845330337567507e-06,7.207098469976337e-06,1.4722446816222408e-06,6.648861702430312e-05,2.198326429035026e-06,2.237600067620079e-05,1.180739312422213e-06,2.671615371236672e-06
63,2.302937745172547e-06,4.157381820733765e-06,1.0689504651053398e-06,1.8188139255335474e-06,2.9328903193146486e-06,3.102398823337843e-06,1.6002284519499558e-06,1.5228713212496283e-06,2.0529404049226072e-06,7.2507565792109614e-06,1.4931348551748986e-06,6.828305286902057e-05,2.217706057472373e-06,2.2291318405961425e-05,1.1772353420942115e-06,2.797293640996963e-06
64,2.305109647803854e-06,4.287106674139488e-06,1.0703475711409527e-06,1.8635385882644778e-06,3.048421102685751e-06,3.111269740670473e-06,1.5858682734207142e-06,1.544620601971754e-06,2.024237986164368e-06,7.338518529831552e-06,1.5138438126040123e-06,6.97253536107929e-05,2.2430010647646116e-06,2.2184015051789516e-05,1.1758134141546765e-06,2.9327711481433257e-06
65,2.3027303310638993e-06,4.41196948355383e-06,1.0759573166513799e-06,1.9034884045977617e-06,3.160198784890427e-06,3.124156354114534e-06,1.5765703885004874e-06,1.566368234770987e-06,1.998614191649158e-06,7.464706224323044e-06,1.5337640111950412e-06,7.08330508248622e-05,2.273904756810821e-06,2.2063319778823754e-05,1.1763615249664888e-06,3.075948155895427e-06
66,2.2956814395673266e-06,4.529497527022201e-06,1.0856768404569712e-06,1.9377280206872106e-06,3.2655115761487246e-06,3.139487349622202e-06,1.5721584442188805e-06,1.5872965465633502e-06,1.976281446051852e-06,7.6235538484864515e-06,1.5521039253357203e-06,7.163413281239362e-05,2.3100155329547306e-06,2.1937882132150787e-05,1.1786604545119083e-06,3.224771158721852e-06
67,2.2837665014493908e-06,4.6371317533149424e-06,1.0992389161991926e-06,1.9656304094749436e-06,3.362412131756383e-06,3.155422607791669e-06,1.5723258299033729e-06,1.6065422251059936e-06,1.957587961669472e-06,7.809806635672747e-06,1.5679219802131046e-06,7.215733817423213e-05,2.3511208018822168e-06,2.181486743466919e-05,1.1823797282011196e-06,3.3773512042054013e-06
68,2.266825729500977e-06,4.732470470666518e-06,1.116231088930658e-06,1.9868305341520104e-06,3.4496964495526457e-06,3.17006279046227e-06,1.5766821326851604e-06,1.6235602376566035e-06,1.9428422322120074e-06,8.019017283271291e-06,1.580305323717533e-06,7.242402021628674e-05,2.397423471553041e-06,2.169869725888624e-05,1.1870672047381635e-06,3.53206415241192e-06
69,2.244747556478942e-06,4.813359487457265e-06,1.136107914057863e-06,2.0011072649234225e-06,3.5264365975416635e-06,3.1813766691792497e-06,1.5848438874147233e-06,1.6384061968522889e-06,1.9321108726808486e-06,8.246886460523664e-06,1.588497809583762e-06,7.244301662148464e-05,2.4494338701499003e-06,2.1590618061470203e-05,1.1922191700458972e-06,3.687605517262615e-06
70,2.2174437913486234e-06,4.877709113017275e-06,1.1581986382789332e-06,2.0083299539246458e-06,3.5914879300595433e-06,3.187114750499141e-06,1.5965492297418141e-06,1.6517184673802305e-06,1.925257379353116e-06,8.488585865563876e-06,1.591878812434158e-06,7.220988712098745e-05,2.5077061772549705e-06,2.148997115957244e-05,1.197504882025629e-06,3.8429732625196624e-06
71,2.1849507123695945e-06,4.9231063238570005e-06,1.1816982979697402e-06,2.008441578588988e-06,3.6433634080524364e-06,3.185079372940742e-06,1.6117195516438078e-06,1.6644517040390514e-06,1.922139112613809e-06,8.738972280292713e-06,1.5899686808145445e-06,7.171073546763074e-05,2.5727443108811874e-06,2.1395891331065868e-05,1.202989859458463e-06,3.9974664813350576e-06
72,2.147658618044848e-06,4.946532510548433e-06,1.2057074658965692e-06,2.0013874231273567e-06,3.680363133082451e-06,3.1736106711016357e-06,1.630380431837004e-06,1.6775791543720338e-06,1.922682208968968e-06,8.993289333813832e-06,1.5825423913936186e-06,7.09286111524048e-05,2.645039756326515e-06,2.1307506915016444e-05,1.2091117468699133e-06,4.150667533834958e-06
73,2.1064319413524966e-06,4.944600595492034e-06,1.2294215921063293e-06,1.9871427428401197e-06,3.7007128316804966e-06,3.151930540255444e-06,1.6525024791056424e-06,1.6919640002803486e-06,1.926747062251079e-06,9.247641968329566e-06,1.5696448552583336e-06,6.984984963731438e-05,2.7250725867141032e-06,2.1222877525364996e-05,1.2164321252119068e-06,4.302218034611815e-06
74,2.0624216852440744e-06,4.914455966832113e-06,1.2523627034676443e-06,1.9659644730788555e-06,3.7028350913548004e-06,3.120249418237728e-06,1.6779396194218195e-06,1.708420386993122e-06,1.9339572424812936e-06,9.499244876132667e-06,1.551420483616529e-06,6.846893844672012e-05,2.8132459039314938e-06,2.1138682565001556e-05,1.2254397562062944e-06,4.451482993797321e-06
75,2.016710123717863e-06,4.854952798881625e-06,1.2744002226828737e-06,1.9385818727596258e-06,3.6858938649715124e-06,3.0797057789090945e-06,1.7064910233380943e-06,1.727792030622833e-06,1.943674791099121e-06,9.746795492181719e-06,1.5279829699946898e-06,6.679172903945735e-05,2.9098344828696017e-06,2.1051188182043467e-05,1.236524982162898e-06,4.59745928311531e-06
76,1.9700759549572398e-06,4.767382580471565e-06,1.2955252324543194e-06,1.9060491848350732e-06,3.6502620696142763e-06,3.032154040157337e-06,1.7379005363316972e-06,1.7509184870694494e-06,1.9551975275423984e-06,9.99090939513968e-06,1.4994810873281962e-06,6.483717525377403e-05,3.01498688033846e-06,2.095676267230255e-05,1.2499824194081532e-06,4.7389518321562535e-06
77,1.92295156742348e-06,4.655246202935611e-06,1.3156148636179664e-06,1.869448355457141e-06,3.5974327946940074e-06,2.9797876775201883e-06,1.7717369374816585e-06,1.7785132469294416e-06,1.968100803306252e-06,1.0234042546409538e-05,1.4662615770166833e-06,6.263739979194803e-05,3.12867605053559e-06,2.0850859511676298e-05,1.26595834207468e-06,4.87472866639792e-06
78,1.8754993506450385e-06,4.523228519385297e-06,1.3343640584781301e-06,1.8297226217000166e-06,3.5294124481325576e-06,2.9246892121208284e-06,1.8072905458355283e-06,1.811053058110475e-06,1.982472101389899e-06,1.047953116716466e-05,1.4289862382587407e-06,6.023553845582769e-05,3.2505154412113784e-06,2.0726327064509727e-05,1.284416354233318e-06,5.003559803383595e-06
79,1.827788701659014e-06,4.376111956859342e-06,1.351328421657233e-06,1.787625022084123e-06,3.448135838044192e-06,2.8684839208835696e-06,1.8435584373320855e-06,1.8487864693711412e-06,1.9988457918747966e-06,1.0730336033420601e-05,1.3886414790975193e-06,5.7681303824409674e-05,3.3795467868983937e-06,2.0572550964884155e-05,1.305190281244532e-06,5.124287584579053e-06
80,1.7800072273746066e-06,4.218261152543236e-06,1.3660071145980697e-06,1.7437406190526272e-06,3.3553515722607525e-06,2.812217882106315e-06,1.8793295701855714e-06,1.8918626903856626e-06,2.0179040599431028e-06,1.098850105449055e-05,1.3464515921571552e-06,5.502531663419551e-05,3.514136018348453e-06,2.037641155386338e-05,1.3280960647713717e-06,5.236049324428532e-06
81,1.7325515805106716e-06,4.053633191152246e-06,1.3780007539885612e-06,1.6986389743110109e-06,3.2528954813537864e-06,2.756484315780892e-06,1.913379986312769e-06,1.940441182244918e-06,2.040152434115818e-06,1.125538725238303e-05,1.3037465548508732e-06,5.231374525785918e-05,3.651993147533635e-06,2.0125034799811065e-05,1.3529806569319467e-06,5.338605323859914e-06
82,1.68597494941244e-06,3.885840137206107e-06,1.3871806994804528e-06,1.6530582750361548e-06,3.142948001722228e-06,2.7017119809053755e-06,1.944735253860274e-06,1.9946624770839506e-06,2.065719227973154e-06,1.1531864502133959e-05,1.2618217703791736e-06,4.958439857178454e-05,3.790317149762728e-06,1.980937111518968e-05,1.3796790965095063e-06,5.432581743239291e-06
83,1.64092846141033e-06,3.7180156674667825e-06,1.3936975344725928e-06,1.6079641161637882e-06,3.0280187165149547e-06,2.6483892362917773e-06,1.9728887931220673e-06,2.0544993964703416e-06,2.0942938020048478e-06,1.1818107299831888e-05,1.2218113826037717e-06,4.6865164015797945e-05,3.926034277562763e-06,1.942683885331818e-05,1.4079863624625742e-06,5.519449756159048e-06
84,1.5981770774548808e-06,3.5526247677928193e-06,1.3978163807369978e-06,1.5644683450664113e-06,2.910690582831013e-06,2.597046448295842e-06,1.9978382982012973e-06,2.119594035544223e-06,2.1251581683514936e-06,1.2113355691085955e-05,1.1846168365017528e-06,4.417511605024061e-05,4.056021211990124e-06,1.8981204177176905e-05,1.4376609337287593e-06,5.6012772929748e-06
85,1.5586389739848783e-06,3.3913896469253337e-06,1.399780505492497e-06,1.5236721625447884e-06,2.793323333736357e-06,2.5481252725831614e-06,2.0198983802746568e-06,2.1891582951527244e-06,2.1573291806727585e-06,1.2415954197582565e-05,1.1509253123827045e-06,4.152710577986334e-05,4.177331882032173e-06,1.8479590014352422e-05,1.4684160568201104e-06,5.680487287511153e-06
86,1.523354768274552e-06,3.235351460425413e-06,1.3998238960897105e-06,1.4865406975327784e-06,2.6779184685412522e-06,2.502019116057187e-06,2.0393984966865676e-06,2.2619383166080925e-06,2.189843318994211e-06,1.2723564390675506e-05,1.1212658411882828e-06,3.8930035876394833e-05,4.2875052598555945e-06,1.7928850710716832e-05,1.4999170100813479e-06,5.759763972052771e-06
87,1.493358041835611e-06,3.085023576289135e-06,1.3982012309154394e-06,1.4538777409946548e-06,2.566187576710683e-06,2.4592986542382504e-06,2.056417388010528e-06,2.336227402074547e-06,2.2220679504480896e-06,1.3033180264723593e-05,1.0960148547610056e-06,3.63901405717659e-05,4.384761505929554e-06,1.7333809506746752e-05,1.5317899037189317e-06,5.84200493347218e-06
88,1.4695371048046006e-06,2.9405699030072604e-06,1.395131606156228e-06,1.4263304641167798e-06,2.459673056023406e-06,2.42081087940962e-06,2.0706438620474794e-06,2.4100026186815966e-06,2.2538068300487378e-06,1.3340748720858076e-05,1.0753613746788357e-06,3.391173556643613e-05,4.4677720656420624e-06,1.6697757092557245e-05,1.5636352255641268e-06,5.930154056726505e-06
89,1.4525884143251588e-06,2.8019787577351928e-06,1.3907313446517589e-06,1.4043686024948816e-06,2.3597704624347118e-06,2.3874592070077617e-06,2.0814032955046337e-06,2.4812720195956477e-06,2.2851208168216402e-06,1.3640722010722451e-05,1.059295388478989e-06,3.14980469445167e-05,4.5350985493159955e-06,1.6023825356012768e-05,1.595044434223504e-06,6.026926783879052e-06
90,1.4430300913461572e-06,2.669257880953723e-06,1.38498025561987e-06,1.3882897638812782e-06,2.2676694323239304e-06,2.3598670282653194e-06,2.087882066412957e-06,2.54850533847534e-06,2.316138795114697e-06,1.3926202383938654e-05,1.047623350725247e-06,2.915217661315006e-05,4.584872989522044e-06,1.5315952950526644e-05,1.6255567341197183e-06,6.134606262188426e-06
91,1.4411919326890613e-06,2.5426432967031826e-06,1.3777396241673937e-06,1.3782605651790753e-06,2.1842926711722062e-06,2.3382144508499336e-06,2.08948201971787e-06,2.610863656018182e-06,2.347157876474139e-06,1.419022308942917e-05,1.0399879996481886e-06,2.687778511939804e-05,4.615099218157172e-06,1.457915131836972e-05,1.654531678273909e-06,6.254985396657048e-06
92,1.447213165246257e-06,2.4227235543275885e-06,1.368859569860546e-06,1.374334936591222e-06,2.1102489434299056e-06,2.322279188052376e-06,2.086043957762713e-06,2.668059709570772e-06,2.3788363350637115e-06,1.4428135904466474e-05,1.0359185370249948e-06,2.4679261831008706e-05,4.624307418532147e-06,1.3819567314165301e-05,1.6810834505023956e-06,6.3893210286116455e-06
93,1.4611314278394307e-06,2.310352598958024e-06,1.3582780328711585e-06,1.3764477764357184e-06,2.0458447491314896e-06,2.311552534640278e-06,2.0777541821261497e-06,2.7199700693949985e-06,2.4121038914978813e-06,1.463999595352108e-05,1.0349085991531668e-06,2.256165382760697e-05,4.612056682704333e-06,1.3044872614211023e-05,1.7042471195388045e-06,6.538181149453544e-06
94,1.4829977210747533e-06,2.2064249687206176e-06,1.3459845343176803e-06,1.3844343770523137e-06,1.991223429260653e-06,2.3053678331479725e-06,2.0649297068805864e-06,2.766361537561046e-06,2.447877309562572e-06,1.4830967526271291e-05,1.0364326436335975e-06,2.0530649020788994e-05,4.579028122759505e-06,1.2264719326352218e-05,1.7233260119263333e-06,6.701210663917854e-06
95,1.5128528791067895e-06,2.1117234926665325e-06,1.331923473434638e-06,1.3980759703646442e-06,1.9465454935405604e-06,2.3030527390421545e-06,2.047943105284062e-06,2.8068982421933064e-06,2.4868990140262787e-06,1.5009133526277534e-05,1.039915302286458e-06,1.8592493061507734e-05,4.526754064964536e-06,1.1490418116841832e-05,1.7381659039866818e-06,6.876886377571478e-06
96,1.5505739373058859e-06,2.0268400928292956e-06,1.3159902626166044e-06,1.4171280688055374e-06,1.912054444275837e-06,2.3040695173485006e-06,2.027182841657034e-06,2.8412133726917187e-06,2.529773729659961e-06,1.5183089604558208e-05,1.0447735178468185e-06,1.6753577663820387e-05,4.457229501662271e-06,1.0733632261693142e-05,1.7491693899398169e-06,7.062300032338834e-06
97,1.5957564457844837e-06,1.9520681566000737e-06,1.2980882683351772e-06,1.4413128591486808e-06,1.8880389626016003e-06,2.308051434011176e-06,2.0028879121398846e-06,2.86890288153744e-06,2.5770533655118667e-06,1.536124160539383e-05,1.0505213481312851e-06,1.5019777049461417e-05,4.372583658993022e-06,1.0005062867400296e-05,1.75707783601163e-06,7.253041468556051e-06
98,1.6477015636057535e-06,1.8873241159676507e-06,1.2781249898189047e-06,1.4702797706402792e-06,1.8747713025451548e-06,2.3146969288145606e-06,1.975001928788749e-06,2.8894996873135786e-06,2.629246454745888e-06,1.5551579191080324e-05,1.0568502995924839e-06,1.3395899268381255e-05,4.2747747808914265e-06,9.313993918879397e-06,1.7627090558382175e-06,7.443322157323328e-06
99,1.7054733986165446e-06,1.8321587192196628e-06,1.2559969999189443e-06,1.5035407393664931e-06,1.8724235121933876e-06,2.3235881310751686e-06,1.9432130127730366e-06,2.902445084079338e-06,2.6868752576120812e-06,1.576128033070918e-05,1.063657981379505e-06,1.1885466784476859e-05,4.165369129105814e-06,8.668328184545733e-06,1.7668684932997666e-06,7.626403019457714e-06
100,1.7679725350151948e-06,1.78580961437124e-06,1.2316246077884013e-06,1.5404010117364842e-06,1.8809950304981223e-06,2.3340978877405917e-06,1.9071250025747976e-06,2.9071019360421927e-06,2.750675085485025e-06,1.5997613121009993e-05,1.0710129817052305e-06,1.049071922703042e-05,4.045612584863889e-06,8.074536617989986e-06,1.770410845380832e-06,7.795222762780131e-06
101,1.8339442897904598e-06,1.7473145738229802e-06,1.2049568420151331e-06,1.5799131091792903e-06,1.9002899531882898e-06,2.3455453850155647e-06,1.8664608357431926e-06,2.9029181177088126e-06,2.821744685069297e-06,1.6270234925941085e-05,1.0790491350347608e-06,9.21264335678388e-06,3.9167364518066925e-06,7.5376953767556805e-06,1.7742001536703767e-06,7.943049930128432e-06
102,1.9019298519370108e-06,1.7157175272991827e-06,1.1759639902438632e-06,1.620858472243333e-06,1.929893958576554e-06,2.357538632987774e-06,1.8212799317449557e-06,2.889713164127264e-06,2.9014954911307763e-06,1.659281515095916e-05,1.0878325646112511e-06,8.050971248633047e-06,3.7802429729166326e-06,7.06175993089732e-06,1.7789128023067054e-06,8.064016948917553e-06
103,1.9703004578903577e-06,1.6902045320306328e-06,1.1446701053946334e-06,1.6617734226622075e-06,1.96916451300093e-06,2.3702178451692097e-06,1.7721634977105844e-06,2.8678925719609605e-06,2.9914309469349678e-06,1.6982297696597958e-05,1.097277573608673e-06,7.004219425749531e-06,3.63808710825751e-06,6.649715549266123e-06,1.7848815082514484e-06,8.153490906110343e-06
104,2.0374145903293827e-06,1.670032529049173e-06,1.1111600494185085e-06,1.701100093637645e-06,2.017385291866575e-06,2.384185022664767e-06,1.7202425930977636e-06,2.8384014521627103e-06,3.0928720755057592e-06,1.7456325426893244e-05,1.1071589477607773e-06,6.0698162628225704e-06,3.492687686728866e-06,6.30339754896415e-06,1.7921218707768418e-06,8.208323951805868e-06
105,2.1017328422216643e-06,1.6544183871168246e-06,1.0755940985810533e-06,1.7374839757234757e-06,2.0740781790560002e-06,2.4001780169265437e-06,1.6670190554079047e-06,2.802408421582995e-06,3.206773667451276e-06,1.803098279968611e-05,1.1171776250551771e-06,5.244223796928479e-06,3.3466232795909877e-06,6.023248416038246e-06,1.8005220478804833e-06,8.227038344373166e-06
106,2.1617746981844182e-06,1.642606520207961e-06,1.0382721329612922e-06,1.7700509898950046e-06,2.1391424728368574e-06,2.418729410230649e-06,1.6140887713874131e-06,2.7609423327418784e-06,3.3336355181680844e-06,1.872004004528553e-05,1.1269805904874197e-06,4.5229626781711575e-06,3.2021774970291964e-06,5.808292028325102e-06,1.8100511686863499e-06,8.209969192425443e-06
107,2.2160453806423253e-06,1.6340149595431797e-06,9.996265137471725e-07,1.7984634585620805e-06,2.2126742770102078e-06,2.4399927374999978e-06,1.5629223330828073e-06,2.714730580782649e-06,3.4733935791552804e-06,1.9534765874733715e-05,1.136137048593065e-06,3.9006838123006416e-06,3.061133584235259e-06,5.656354006359307e-06,1.820823755373106e-06,8.159299564553704e-06
108,2.263099723737045e-06,1.6282123537969752e-06,9.601545868362438e-07,1.8227220384284162e-06,2.2947512122087674e-06,2.463708258106586e-06,1.51480555156439e-06,2.6642599662553354e-06,3.6253104776604134e-06,2.0483526315254725e-05,1.1441840221675531e-06,3.371454011945453e-06,2.9248499032051008e-06,5.564458640245897e-06,1.8330230753743234e-06,8.078798450533813e-06
109,2.301651023796584e-06,1.6247682632839666e-06,9.20419395504829e-07,1.8428637981643787e-06,2.3853387743479888e-06,2.489191933151524e-06,1.470917704884194e-06,2.6099444463867017e-06,3.788040900176671e-06,2.1571558493451685e-05,1.1507775449880014e-06,2.929081219926683e-06,2.7943187680329445e-06,5.529281463529677e-06,1.8468201855002038e-06,7.9731481214773e-06
110,2.3305286558217717e-06,1.6232232081187948e-06,8.810560042279461e-07,1.858782924978713e-06,2.4842246730297193e-06,2.515378677515821e-06,1.4323913532065656e-06,2.5523038706989813e-06,3.959905337855889e-06,2.2800880059531806e-05,1.1558355971729674e-06,2.5672126856610113e-06,2.6701716944432395e-06,5.54750491394919e-06,1.8623195319168723e-06,7.847039643506363e-06
111,2.3486170455134127e-06,1.6232187907899473e-06,8.426949870457909e-07,1.8702638370744164e-06,2.591020164315311e-06,2.5410172602628147e-06,1.4002531743245705e-06,2.4920407250694362e-06,4.139099404453157e-06,2.4170089539411012e-05,1.1595236034982604e-06,2.2792639432425374e-06,2.552820333958966e-06,5.615975653125084e-06,1.8794567251135812e-06,7.704366941455197e-06
112,2.3550656811320304e-06,1.624627226566335e-06,8.058743312160769e-07,1.8771234123448072e-06,2.705263458887075e-06,2.564940145760021e-06,1.375315966643203e-06,2.4299519604064156e-06,4.32361672160721e-06,2.5674614796693703e-05,1.1620683921958435e-06,2.058404803924183e-06,2.4427304344327042e-06,5.731608527892437e-06,1.8978758871072447e-06,7.547778677062214e-06
113,2.349673588253049e-06,1.6275669326787281e-06,7.710074975461871e-07,1.8793634854731729e-06,2.8264522397593985e-06,2.586238284789682e-06,1.358135060279914e-06,2.3667738441161866e-06,4.51109203062434e-06,2.7307538172873265e-05,1.1635694260449904e-06,1.8976245231661658e-06,2.340668721690823e-06,5.891095932948269e-06,1.9168917341584876e-06,7.378675003254231e-06
114,2.333104998233982e-06,1.6322869302128662e-06,7.383957235893087e-07,1.8772671450200852e-06,2.953900597028565e-06,2.6042424126069115e-06,1.3490429744877347e-06,2.3031082269985947e-06,4.698888516314293e-06,2.9060148966743823e-05,1.1639811765935445e-06,1.7897286796482607e-06,2.247738521961983e-06,6.090582495868193e-06,1.9355818966501644e-06,7.1974737854669915e-06
115,2.306798486118061e-06,1.6389894440218076e-06,7.082557550974232e-07,1.8713421112247123e-06,3.086540026333176e-06,2.6183216383692245e-06,1.3481854113152777e-06,2.239468769289998e-06,4.884386439811067e-06,3.092179028901351e-05,1.1632763169173303e-06,1.7272481611737305e-06,2.16512840331949e-06,6.325416371547325e-06,1.953016686406278e-06,7.003904056183567e-06
116,2.2726427259208717e-06,1.6477567065668016e-06,6.80740745442018e-07,1.862165887826213e-06,3.222790079901454e-06,2.6276881337007663e-06,1.355530266961562e-06,2.176368793227455e-06,5.065187784876973e-06,3.287909443528843e-05,1.161645414855595e-06,1.702379091871501e-06,2.093794445815221e-06,6.5900497659089074e-06,1.9685992521685192e-06,6.79732128878506e-06
117,2.2325778796991333e-06,1.6586615294929342e-06,6.559538947862705e-07,1.8503430812813358e-06,3.3604995237450408e-06,2.631404387924994e-06,1.3709101935976378e-06,2.1143345660721486e-06,5.239115402150746e-06,3.491480370464893e-05,1.1595611353010828e-06,1.7070300248506764e-06,2.0343015042620005e-06,6.878074449976516e-06,1.982314223809712e-06,6.5771269942623875e-06
118,2.188339568605523e-06,1.6719119721193919e-06,6.33986165819756e-07,1.8365986193211024e-06,3.496987666922483e-06,2.628526981592085e-06,1.3941191261459974e-06,2.053788440188112e-06,5.404091908237866e-06,3.700759775418947e-05,1.157669594229508e-06,1.732956326405915e-06,1.9867842465750676e-06,7.182212981151649e-06,1.9946161198353414e-06,6.343193844059839e-06
119,2.141455040466963e-06,1.687856138535467e-06,6.149730308033176e-07,1.8218060638556555e-06,3.6292979463423077e-06,2.6182657647515697e-06,1.424992313200225e-06,1.9948858552943975e-06,5.557948394470119e-06,3.91344694425688e-05,1.156622677150516e-06,1.7719246070825748e-06,1.950978905209918e-06,7.494156938488967e-06,2.006050569410525e-06,6.096104472030576e-06
120,2.0933399385600084e-06,1.7068423996311823e-06,5.991025608871215e-07,1.8068480914961509e-06,3.7546678197866726e-06,2.6002316306260186e-06,1.4633879510833034e-06,1.9374785481061487e-06,5.6982454128108925e-06,4.1274001467222257e-05,1.1569541507372605e-06,1.8159723429321726e-06,1.9263208568804153e-06,7.80438704085839e-06,2.016964436040795e-06,5.83715832670307e-06
121,2.045288098111357e-06,1.7290342737331547e-06,5.865626573009067e-07,1.7924093889994855e-06,3.8710519778584576e-06,2.5747861211660285e-06,1.5090734515878923e-06,1.8813064015313306e-06,5.822406484705147e-06,4.340712340099268e-05,1.1590105961538e-06,1.857917395594096e-06,1.9120316524393896e-06,8.102281876802212e-06,2.027401329758935e-06,5.56827553661747e-06
122,1.9983747717890365e-06,1.7542795350226345e-06,5.774891312934078e-07,1.778838150769521e-06,3.977480730941032e-06,2.5432186081113224e-06,1.5616309156104353e-06,1.8263011158316908e-06,5.928322732455808e-06,4.5514875922856205e-05,1.1629183424829953e-06,1.8920457654802994e-06,1.907240796037238e-06,8.376823571221737e-06,2.0370593843144966e-06,5.291890045820802e-06
123,1.953405528083184e-06,1.782074100071077e-06,5.719368981592692e-07,1.7661159175702422e-06,4.074082615126619e-06,2.507490870992535e-06,1.6204592991702672e-06,1.772705741662306e-06,6.015108252496082e-06,4.757615011259137e-05,1.1685646523092634e-06,1.9146249659100205e-06,1.911252359537801e-06,8.61777430799201e-06,2.0453016872440882e-06,5.0107971292288145e-06
124,1.9109637168482324e-06,1.8116007400353235e-06,5.698685533648729e-07,1.753906947719914e-06,4.161735262886388e-06,2.4697080788724453e-06,1.6848018645182759e-06,1.7208868058782487e-06,6.083506481713231e-06,4.95679725035352e-05,1.1755921616551703e-06,1.923951587376144e-06,1.923788956077288e-06,8.81668170022323e-06,2.0513246822023745e-06,4.727946540228361e-06
125,1.8715943333059052e-06,1.8418616574351098e-06,5.711750443800117e-07,1.741678499440572e-06,4.2414785741751905e-06,2.4317237437952875e-06,1.753745678319258e-06,1.6710729461855014e-06,6.135723577625656e-06,5.1467195126470646e-05,1.1834341824097258e-06,1.919971220955392e-06,1.944953462372384e-06,8.967248918820896e-06,2.054469615497902e-06,4.446267359987554e-06
126,1.8360403556705744e-06,1.8719233722708808e-06,5.757106040555195e-07,1.728872522600729e-06,4.313965055864817e-06,2.395009961428088e-06,1.8262392769998105e-06,1.6232691638913442e-06,6.174809438884184e-06,5.3249893234016386e-05,1.1913733356724282e-06,1.903750746303514e-06,1.9749562989479004e-06,9.065183123432925e-06,2.054445620526719e-06,4.168610416336857e-06
127,1.8052600911574432e-06,1.901137706592732e-06,5.83308335535083e-07,1.7150043903327191e-06,4.379186816851311e-06,2.360624974559279e-06,1.9010994220824768e-06,1.577357193272999e-06,6.203866195255745e-06,5.488760518734547e-05,1.1986156873912052e-06,1.877035050393029e-06,2.0138392285029945e-06,9.107799955612998e-06,2.0513023319631546e-06,3.897798762592696e-06
128,1.7801820862342986e-06,1.9291775380183308e-06,5.937865254358753e-07,1.699613266718226e-06,4.436448879605207e-06,2.3291890639058085e-06,1.9769456260773085e-06,1.5332951513410342e-06,6.225501691123102e-06,5.634446128892395e-05,1.2044282391640217e-06,1.8419052498459218e-06,2.061320038722556e-06,9.093327588971402e-06,2.0452834754750313e-06,3.6366635489799724e-06
129,1.7614879620565394e-06,1.9558962979251508e-06,6.069507912279966e-07,1.682237565511631e-06,4.484393970049529e-06,2.3008829571390093e-06,2.052168367711702e-06,1.4912872458723815e-06,6.241735615051612e-06,5.7578535649475414e-05,1.2083046268147743e-06,1.8004703544116298e-06,2.1167781472472106e-06,9.019934292243061e-06,2.03674336138707e-06,3.387957407077539e-06
130,1.7495833369488688e-06,1.981166930429474e-06,6.225809650252229e-07,1.662551059403506e-06,4.5210333496442975e-06,2.2754355084192706e-06,2.1250367597891404e-06,1.4517640215537347e-06,6.253975365918325e-06,5.8546491989849344e-05,1.2100475567542633e-06,1.7546344981280416e-06,2.179342268443864e-06,8.88543111113894e-06,2.0261256852978522e-06,3.15419223962929e-06
131,1.7446281546300517e-06,2.004866739438728e-06,6.404156804950699e-07,1.6404758167456515e-06,4.543906108380102e-06,2.2521263142387993e-06,2.1938058632103397e-06,1.4151842583491354e-06,6.262762625841543e-06,5.92099924425964e-05,1.2097023524533893e-06,1.7060026412708485e-06,2.247960912654495e-06,8.688567044883957e-06,2.013934471822306e-06,2.937520144475506e-06
132,1.7464949086268625e-06,2.0269468054155746e-06,6.601469841830886e-07,1.6160846281586709e-06,4.550421127979847e-06,2.229937886065527e-06,2.256709531396688e-06,1.3818546261658048e-06,6.267579242368877e-06,5.954300388503566e-05,1.2073812641845855e-06,1.6558797949623917e-06,2.321426541701553e-06,8.431060930816082e-06,2.0006718569428368e-06,2.7396660510544964e-06
133,1.7546878009680724e-06,2.0473897779015223e-06,6.814447634541447e-07,1.5893951854340061e-06,4.53827509349656e-06,2.207886615133662e-06,2.3120503442958984e-06,1.3518915453049307e-06,6.266979598484539e-06,5.9537442422377585e-05,1.2031522006712073e-06,1.605320494297122e-06,2.3984678961331133e-06,8.118550312064878e-06,1.9867255692157464e-06,2.5618443632760526e-06
134,1.768320609822243e-06,2.0660978097536404e-06,7.040224295487341e-07,1.5602992752017253e-06,4.505822451515571e-06,2.185341588924643e-06,2.3585521683907578e-06,1.3252641766628212e-06,6.258899526446868e-06,5.920375276369873e-05,1.1971236746119176e-06,1.5552139345296411e-06,2.4778737965526634e-06,7.759812569441412e-06,1.972225188185442e-06,2.40468243816516e-06
135,1.7862384586821534e-06,2.0828468164656633e-06,7.276739354862018e-07,1.5287522803245025e-06,4.4523338747190086e-06,2.1621229892050958e-06,2.3957289489229997e-06,1.301818002470002e-06,6.240927447558113e-06,5.856487094687416e-05,1.1896168584740659e-06,1.5063392199996399e-06,2.558497589130283e-06,7.365122969449149e-06,1.956991685714432e-06,2.2682212691418434e-06
136,1.8073213366143788e-06,2.097329328630576e-06,7.522261267254033e-07,1.4950873397715208e-06,4.378057517243533e-06,2.1383763669582744e-06,2.4239295125784097e-06,1.2812978952753802e-06,6.210616180971184e-06,5.764670199557382e-05,1.1812069829512942e-06,1.4593761598292363e-06,2.6392126793101903e-06,6.944800024529042e-06,1.940690210885939e-06,2.1519744108806255e-06
137,1.8308071654341929e-06,2.1093043107891108e-06,7.77470185135457e-07,1.4601574348370625e-06,4.2839769142190706e-06,2.1143898358549676e-06,2.444014225600742e-06,1.2634169316550239e-06,6.166056560732691e-06,5.6473011683490404e-05,1.1725754711458951e-06,1.4149372390099654e-06,2.718983932694621e-06,6.50831519429521e-06,1.9230519374430447e-06,2.0549970706156616e-06
138,1.856334854331556e-06,2.118755344695038e-06,8.031260824806035e-07,1.4251604089858253e-06,4.171331430335786e-06,2.090510895647097e-06,2.4569313943244393e-06,1.247886594401132e-06,6.106538345719483e-06,5.5068218783311206e-05,1.1643315550016926e-06,1.3735862344569496e-06,2.797030050527429e-06,6.063987820058864e-06,1.9039078769612933e-06,1.9759557441740574e-06
139,1.8836683009439556e-06,2.1258748277186906e-06,8.288128925364922e-07,1.3913133117055319e-06,4.041301714677338e-06,2.0671839768045544e-06,2.463509455154426e-06,1.2343560094223668e-06,6.032652031752908e-06,5.346175273873123e-05,1.1569452206131968e-06,1.3357773269347012e-06,2.872909258630672e-06,5.619132577132938e-06,1.883080916868035e-06,1.913173455406895e-06
140,1.9124068238954684e-06,2.130894196455868e-06,8.540325229886958e-07,1.3596441028094223e-06,3.895241821927577e-06,2.0449940168816556e-06,2.464484970224467e-06,1.2223980556871235e-06,5.945699646822e-06,5.16881668438349e-05,1.1507675340099715e-06,1.301807719001352e-06,2.946392229698934e-06,5.180257724750835e-06,1.8603751565762758e-06,1.8646652377697436e-06
141,1.9419562158284e-06,2.1339314866728378e-06,8.782199584055242e-07,1.3309853822368115e-06,3.7352403282742748e-06,2.024582826470617e-06,2.4605843303891285e-06,1.211636597953132e-06,5.847221102189525e-06,4.9784293776772924e-05,1.1460816217153001e-06,1.2718828848778611e-06,3.017219305449375e-06,4.753026145436801e-06,1.8356563431952726e-06,1.8282679257734503e-06
142,1.9717198811585825e-06,2.134968278455225e-06,9.008524672599913e-07,1.3060383814923926e-06,3.5644274014370435e-06,2.00643950418829e-06,2.452639712862747e-06,1.2018795124483094e-06,5.739038382716416e-06,4.7786028826284885e-05,1.1431471422068925e-06,1.2462131830563655e-06,3.0849965407100866e-06,4.342112522925234e-06,1.8089025161989301e-06,1.8018797145947886e-06
143,2.0012225153617615e-06,2.13393916559611e-06,9.215478316797265e-07,1.2853579963794635e-06,3.3867540205393368e-06,1.9907203094911755e-06,2.4417693428228244e-06,1.1931025863810131e-06,5.623249845673552e-06,4.57254559519379e-05,1.1421902156891022e-06,1.2250088791439283e-06,3.149283098146145e-06,3.951206300831339e-06,1.780200000613259e-06,1.7836558197613773e-06
144,2.030017277199486e-06,2.1308147134260016e-06,9.401065587684954e-07,1.2692861065675352e-06,3.2064257952420943e-06,1.9772464043056896e-06,2.429434232172582e-06,1.185346559380699e-06,5.5018836816244075e-06,4.362908988636308e-05,1.1433364621709802e-06,1.2083945052907362e-06,3.2097757434952936e-06,3.58317396188106e-06,1.7496625856628286e-06,1.7720538452863127e-06
145,2.0575864867248954e-06,2.1255665605167226e-06,9.564965364571445e-07,1.25797591288169e-06,3.0273892415540407e-06,1.965644773309081e-06,2.417218621587954e-06,1.178702571855988e-06,5.376607808114527e-06,4.151832714324474e-05,1.1465477265108783e-06,1.1963671090886872e-06,3.2665322019091567e-06,3.2402083273523273e-06,1.7173534290529002e-06,1.7658108390453268e-06
146,2.0834206222451113e-06,2.11803807846327e-06,9.707822181875714e-07,1.2515378253590224e-06,2.8531044760133526e-06,1.955437577641829e-06,2.406521615741023e-06,1.1733976294712746e-06,5.248768886033936e-06,3.9411845343756596e-05,1.15160856944107e-06,1.1888354560924467e-06,3.3200530832661584e-06,2.9238842474648494e-06,1.6834155021075717e-06,1.7639875980370538e-06
147,2.1071528173605686e-06,2.1079011537361568e-06,9.830344883223281e-07,1.2501631679154294e-06,2.686487455541933e-06,1.9459782420143167e-06,2.398412809760993e-06,1.1698041006953986e-06,5.119592298896396e-06,3.732786699702957e-05,1.1581398445926258e-06,1.1856973804514742e-06,3.371039805055042e-06,2.635181385441261e-06,1.6483488029461663e-06,1.7660831512079007e-06
148,2.1286142920409274e-06,2.094829027423308e-06,9.933137186410077e-07,1.2540878916388126e-06,2.5298645047825218e-06,1.936381255568604e-06,2.3936214062571937e-06,1.1683095466915558e-06,4.990321563233423e-06,3.528420916243958e-05,1.1656049019570632e-06,1.186895431451073e-06,3.4199720240808616e-06,2.374515420905957e-06,1.6130684424558091e-06,1.772091131063897e-06
149,2.147821765135148e-06,2.0787280799459723e-06,1.0017370318154778e-06,1.2634467720403832e-06,2.3849539703069962e-06,1.92564290402156e-06,2.392532205931471e-06,1.1692287032217795e-06,4.862290618573848e-06,3.329615368520546e-05,1.1733224817678182e-06,1.1923923997631261e-06,3.466835036564389e-06,2.1417799203980347e-06,1.5786534579363257e-06,1.7824004621948286e-06
150,2.1648833862023696e-06,2.059782375631928e-06,1.0085120830616033e-06,1.2781864182167116e-06,2.2529111650804218e-06,1.9129687813941324e-06,2.3951774815417105e-06,1.1728730882982964e-06,4.7368796894184985e-06,3.137433273441027e-05,1.1804991065538553e-06,1.202113932946395e-06,3.511115273491431e-06,1.9364064295265395e-06,1.5460731248005919e-06,1.7975663882052778e-06
151,2.179829203643417e-06,2.038339781158899e-06,1.0138940894717446e-06,1.2980924956880697e-06,2.134421808508994e-06,1.8981554369575206e-06,2.4012305882791414e-06,1.1796189040880561e-06,4.615192702858884e-06,2.9524821200977567e-05,1.1862620630527156e-06,1.2159389180876192e-06,3.551929897274466e-06,1.7574376534180665e-06,1.516054958899421e-06,1.8180664689220048e-06
152,2.1925299265794723e-06,2.014837267589219e-06,1.0181540532738165e-06,1.3228322404577458e-06,2.029851479103375e-06,1.8817879514377269e-06,2.410061379549993e-06,1.1898268894928663e-06,4.497624748144896e-06,2.775114489366664e-05,1.189759187210654e-06,1.2337127088538396e-06,3.588235892599257e-06,1.6035888643817383e-06,1.4890380573921474e-06,1.8441544066856698e-06
153,2.202778445363751e-06,1.989812875212065e-06,1.0215891630593877e-06,1.3519510406204165e-06,1.939467456076976e-06,1.8650750874597048e-06,2.4209581767307447e-06,1.203705127150651e-06,4.383748071323964e-06,2.6055684907051284e-05,1.1903921035870852e-06,1.2552458820869895e-06,3.6191414017630157e-06,1.473279228488907e-06,1.465158078211576e-06,1.8758136642988763e-06
154,2.2103264846968817e-06,1.9639157776722637e-06,1.0245099349430311e-06,1.3848835020711139e-06,1.8636119928861302e-06,1.8494155020116814e-06,2.4334403818626392e-06,1.2212420981016246e-06,4.272560879771643e-06,2.443906857740373e-05,1.187981766437827e-06,1.280296478948019e-06,3.644106621614291e-06,1.3646779116829987e-06,1.4442398337722309e-06,1.9127278178226654e-06
155,2.214749210458611e-06,1.937854229639152e-06,1.0271984569038864e-06,1.4210155340418386e-06,1.8026710251611395e-06,1.8360098936274266e-06,2.4474529826037932e-06,1.2422152423651751e-06,4.162739704296972e-06,2.289911681715639e-05,1.1826556323159633e-06,1.308544179959559e-06,3.6628251227024412e-06,1.275793650812117e-06,1.4258051431367358e-06,1.9542706165157624e-06
156,2.2153024363715863e-06,1.9122854908582485e-06,1.029887063291791e-06,1.4597308532292895e-06,1.7569543519727195e-06,1.825726955035684e-06,2.4633168211378187e-06,1.2662220332918037e-06,4.052835570508593e-06,2.143129364615661e-05,1.174634117831458e-06,1.3396086324195424e-06,3.6749774245773307e-06,1.2045505080487043e-06,1.4091635383730266e-06,1.999592844175682e-06
157,2.2109456338829634e-06,1.887732957529365e-06,1.0327462575630955e-06,1.5003750480073668e-06,1.7266701719888623e-06,1.8191503319156716e-06,2.4814904110549728e-06,1.2926980189940634e-06,3.9417377738075676e-06,2.0029782556555175e-05,1.164146741972175e-06,1.3731511511867362e-06,3.680134308225971e-06,1.1488839696353652e-06,1.3936063091234002e-06,2.0477803431395187e-06
158,2.200573940277839e-06,1.8645905084101325e-06,1.0358930584174527e-06,1.5421530409003746e-06,1.7119133708159124e-06,1.816614756652982e-06,2.502355318860097e-06,1.3209597398620169e-06,3.829260760579779e-06,1.8687391979322735e-05,1.1513957229676236e-06,1.4090063164763455e-06,3.6777384895805506e-06,1.1069382454590132e-06,1.3785878002163685e-06,2.0979901321833113e-06
159,2.183411681581119e-06,1.8431334800765179e-06,1.0394383766956972e-06,1.5840310807786887e-06,1.7125899709753887e-06,1.818153797775445e-06,2.5261274458973816e-06,1.3502941563635245e-06,3.716205901341052e-06,1.7395414627326842e-05,1.1364722796227458e-06,1.4472320852539802e-06,3.6670171806514063e-06,1.0772350054004595e-06,1.3637708317964697e-06,2.1495341217195468e-06
160,2.159360685482828e-06,1.823527966245155e-06,1.043501616427577e-06,1.6247043380495215e-06,1.7283626804373712e-06,1.8234248873731398e-06,2.552795100589374e-06,1.3800047843500388e-06,3.6038225749867443e-06,1.6145373951139536e-05,1.1193272094421687e-06,1.4880101688288014e-06,3.6470201987916927e-06,1.0586301084128e-06,1.3489651651064628e-06,2.2019182357682384e-06
161,2.1290461334348513e-06,1.8058963615211478e-06,1.0482170652921876e-06,1.662683367319169e-06,1.7586454057992345e-06,1.8316937670012974e-06,2.582094793131928e-06,1.4093715673556589e-06,3.493306277360726e-06,1.4931586312264623e-05,1.099889602952628e-06,1.5314539997611887e-06,3.616912600069914e-06,1.0501197137094656e-06,1.3340415298287847e-06,2.2548358677926507e-06
162,2.0935449941894257e-06,1.7903289162439405e-06,1.053797792824615e-06,1.6965354841463128e-06,1.802608999520351e-06,1.841906662617532e-06,2.6136397302570683e-06,1.437594354277312e-06,3.3856969305141034e-06,1.3752445031871143e-05,1.0782720677640958e-06,1.5774855470600175e-06,3.5761902181396944e-06,1.0507036150037556e-06,1.3188502757971585e-06,2.3081203993287216e-06
163,2.054019548931119e-06,1.7768033303572362e-06,1.0605410995967772e-06,1.7251353333059885e-06,1.8591707419512048e-06,1.8527947251250762e-06,2.647132394045587e-06,1.4637726099755839e-06,3.281904258648996e-06,1.2610020912339319e-05,1.054888779210032e-06,1.625908540348469e-06,3.524637141808218e-06,1.0594313336850705e-06,1.3032327835393242e-06,2.3616670079163563e-06
164,2.0114784106627495e-06,1.765145412006511e-06,1.0687244924413397e-06,1.747691209194173e-06,1.9269615270126363e-06,1.862939810931672e-06,2.6824744916971586e-06,1.486979060914644e-06,3.18256833170175e-06,1.1508610369979882e-05,1.0303861146701483e-06,1.6766014650510042e-06,3.462296879739652e-06,1.075589164834364e-06,1.2871615952775041e-06,2.415303375289892e-06
165,1.966790017007953e-06,1.7550433876128255e-06,1.0785138174901299e-06,1.7636686916569185e-06,2.0043120190968643e-06,1.870929990933422e-06,2.7196614781699426e-06,1.5065138015166023e-06,3.0879084576811036e-06,1.0452989321620293e-05,1.005463902543672e-06,1.7295828632047254e-06,3.3895877334422677e-06,1.0988072646527798e-06,1.2708057613337602e-06,2.468608397525609e-06
166,1.9208746062085244e-06,1.7460800239162685e-06,1.089922654948502e-06,1.772915408113915e-06,2.0892707106792945e-06,1.875737367224749e-06,2.758537244945144e-06,1.5222539971534867e-06,2.997831421759022e-06,9.447143373051325e-06,9.807213568446792e-07,1.7848649978088259e-06,3.307348042010168e-06,1.1289141996155666e-06,1.2543963235530724e-06,2.5207858704664236e-06
167,1.874788551021737e-06,1.7378290746414853e-06,1.102783541617333e-06,1.7758620209373e-06,2.1796182913082533e-06,1.8770323940272139e-06,2.7986475286654814e-06,1.5347869324487696e-06,2.9122110788817808e-06,8.494070676188941e-06,9.565846430745217e-07,1.8423264914742486e-06,3.2166779321544557e-06,1.1656810156550815e-06,1.238061041684433e-06,2.5706928740242247e-06
168,1.8295722154283227e-06,1.7299895920958012e-06,1.1167395267457401e-06,1.773448251928196e-06,2.272907059556256e-06,1.875080203132779e-06,2.839275035517772e-06,1.545160959887466e-06,2.8310389831167713e-06,7.596448304897534e-06,9.332908114485346e-07,1.9018078436822915e-06,3.118766135699735e-06,1.2086810722917574e-06,1.2217793862765017e-06,2.616965563975481e-06
169,1.7860459767212552e-06,1.722452354395223e-06,1.1312631828661392e-06,1.7667814731053942e-06,2.366606576106855e-06,1.8703852538872159e-06,2.8794658726084572e-06,1.5544977810579845e-06,2.754346206330366e-06,6.757114342898963e-06,9.108877563646972e-07,1.963280881591278e-06,3.0149244688064524e-06,1.257275816925458e-06,1.20544159949434e-06,2.6581277328714125e-06
170,1.7447051978756437e-06,1.7152564485793116e-06,1.1456882537826974e-06,1.756828829000949e-06,2.4583376473304535e-06,1.8634804460335106e-06,2.9179440550305367e-06,1.563766745452379e-06,2.6820272946695796e-06,5.978750648739592e-06,8.892565383674118e-07,2.0268261931253387e-06,2.9066852903199907e-06,1.3106684238693886e-06,1.1889705975977087e-06,2.692655965366653e-06
171,1.7056813664833123e-06,1.7084775701726844e-06,1.1593157628553782e-06,1.7443171733385765e-06,2.5460508659711563e-06,1.854909600569388e-06,2.9531049801260893e-06,1.5737531834215634e-06,2.613761240852489e-06,5.263235008601727e-06,8.68212776472052e-07,2.0924787334966308e-06,2.7956681156961406e-06,1.3679869502901263e-06,1.1724173166538348e-06,2.7190774770768067e-06
172,1.6687314980083531e-06,1.7021253947943077e-06,1.1716410310115832e-06,1.7297608085923395e-06,2.628049762772884e-06,1.8452285933818943e-06,2.9832422600610174e-06,1.5850966375606008e-06,2.5491442431697212e-06,4.611330901469088e-06,8.476919185677452e-07,2.160171599025041e-06,2.6833254818642076e-06,1.4283028291415144e-06,1.1559285809734523e-06,2.7362156339319027e-06
173,1.633307982105928e-06,1.6961320574307602e-06,1.1825184502546356e-06,1.7135019761035641e-06,2.7028950788736862e-06,1.834985542757751e-06,3.006859084387048e-06,1.5982729702123228e-06,2.4878828433096812e-06,4.022760212855888e-06,8.278760255948556e-07,2.229746329242213e-06,2.570868307011286e-06,1.490592609662158e-06,1.1396962680471586e-06,2.7435575675967756e-06
174,1.5987841859700138e-06,1.6904501081750584e-06,1.1920711502096501e-06,1.6957749966165907e-06,2.7692488990818684e-06,1.8246940384270495e-06,3.0228644097521723e-06,1.6135183289091468e-06,2.4298269571043226e-06,3.4963383834813607e-06,8.091289195494353e-07,2.300880796821091e-06,2.4593323846288238e-06,1.5537482550796343e-06,1.1239922275724512e-06,2.7414995799879155e-06
175,1.5647559704845153e-06,1.6851330190917646e-06,1.2004718182785574e-06,1.6768159328684755e-06,2.8257639865050774e-06,1.8147606823772605e-06,3.0306162361753242e-06,1.6307860621770216e-06,2.3749248471541426e-06,3.0300717082671604e-06,7.918295942750971e-07,2.3729754990985215e-06,2.3496210773429217e-06,1.6166287336545433e-06,1.1091413608964685e-06,2.731282553196299e-06
176,1.5311708135627555e-06,1.6802663925766906e-06,1.2078168982289829e-06,1.6569539919770902e-06,2.871263685539949e-06,1.8054318905291182e-06,3.029802848518446e-06,1.649755567892437e-06,2.3231954528510357e-06,2.6212936572578135e-06,7.762833910065303e-07,2.4450950174874604e-06,2.2425534969798094e-06,1.6781125152359294e-06,1.0953816895080795e-06,2.714685602606076e-06
177,1.4982181682828185e-06,1.6758668730161346e-06,1.214125434719128e-06,1.6366455110707456e-06,2.905228338428076e-06,1.7968943180237464e-06,3.0202467403652267e-06,1.6698667613090954e-06,2.274653749122821e-06,2.266801005611172e-06,7.627363269131456e-07,2.515946793369865e-06,2.138984374857545e-06,1.7371601437949769e-06,1.0827813739559465e-06,2.693635862507715e-06
178,1.4662303572344883e-06,1.6719161461893175e-06,1.2193693470968847e-06,1.6164713918188992e-06,2.9281534640429377e-06,1.7894961257789836e-06,3.0019464228540104e-06,1.6904043168406333e-06,2.2293201405085914e-06,1.962928034442921e-06,7.51393376505003e-07,2.583858029504425e-06,2.0399283374444233e-06,1.7928695768261987e-06,1.0712797690165637e-06,2.6698685798632647e-06
179,1.4357436369711656e-06,1.668459525480506e-06,1.2234598450136338e-06,1.5970862450152624e-06,2.9414549803798586e-06,1.7839096189454325e-06,2.9754164862558935e-06,1.7106461995200498e-06,2.18739682763559e-06,1.7055923530678922e-06,7.423897315028615e-07,2.646755226460926e-06,1.9465423477951965e-06,1.8445019932411857e-06,1.0607545364615253e-06,2.644739406129827e-06
180,1.4075459970354174e-06,1.6656859453709097e-06,1.2262328534315003e-06,1.5791534086247364e-06,2.9470610280388223e-06,1.7811036489013194e-06,2.941854671231563e-06,1.7299552602121143e-06,2.149340821645768e-06,1.490344334566452e-06,7.357646022305825e-07,2.7021978167550446e-06,1.8599422120708947e-06,1.8914437325307924e-06,1.0510488699524738e-06,2.6191534467518795e-06
181,1.3825553751168502e-06,1.664003537570227e-06,1.2274886888367078e-06,1.5633636171281055e-06,2.946971320602843e-06,1.782143447549221e-06,2.9028594795462645e-06,1.7477180339179145e-06,2.1156584820934746e-06,1.3124699042219102e-06,7.314758205155784e-07,2.7475971176128497e-06,1.7810372314777666e-06,1.9330743285438166e-06,1.0419754980736059e-06,2.5934988651164054e-06
182,1.3616183424952418e-06,1.6640355395970965e-06,1.2270155526131112e-06,1.5504696818147132e-06,2.9429247073749647e-06,1.787993344804951e-06,2.8600094139246655e-06,1.763269327834709e-06,2.0866003819711094e-06,1.1672544290680625e-06,7.29428801061528e-07,2.78066897894525e-06,1.7105130993447942e-06,1.9686816365330554e-06,1.0333156750204962e-06,2.5675825729370756e-06
183,1.3453779972676213e-06,1.6664639702422417e-06,1.2245546537132166e-06,1.54118725164171e-06,2.9362021448828634e-06,1.7994664631801341e-06,2.814629685929038e-06,1.7758955515511608e-06,2.061994729804304e-06,1.0503954264090456e-06,7.29499684075258e-07,2.799927108077142e-06,1.648858601373932e-06,1.9976063953269286e-06,1.0248626173823549e-06,2.5406531471307053e-06
184,1.3342649151659668e-06,1.6718264918570968e-06,1.2197925309412664e-06,1.5360269771394766e-06,2.9276145815592696e-06,1.8172344396431613e-06,2.7677170240128915e-06,1.7848267993545061e-06,2.041314681103488e-06,9.583549438247062e-07,7.315474203658319e-07,2.804971816704823e-06,1.5963426484488173e-06,2.019478787432625e-06,1.0165527483817868e-06,2.511564280592993e-06
185,1.328571009327893e-06,1.6804150688351197e-06,1.212454126426818e-06,1.5352115268781259e-06,2.9177233471249722e-06,1.841756461361936e-06,2.7199337184394247e-06,1.7892616208172312e-06,2.0239705414324914e-06,8.884208993109005e-07,7.354042286076637e-07,2.7964713392749555e-06,1.5530354735023115e-06,2.0342489551200662e-06,1.008579198377673e-06,2.479069852172139e-06
186,1.328493224076443e-06,1.6922701758403903e-06,1.2024685194689886e-06,1.538705077960081e-06,2.9071541968793152e-06,1.8731825206375016e-06,2.6717173835308366e-06,1.7885144884767935e-06,2.0096693293117204e-06,8.38453305586675e-07,7.408462484358927e-07,2.775828943760211e-06,1.5189264496926516e-06,2.042026557496885e-06,1.0013532864594495e-06,2.4421656007675836e-06
187,1.3340861128193516e-06,1.7071886839415043e-06,1.190118456493483e-06,1.546301592296313e-06,2.8967357200092705e-06,1.911356202978733e-06,2.6234576218811903e-06,1.7821685890089262e-06,1.9985457701022325e-06,8.06594048330736e-07,7.475702703871927e-07,2.7446543177934754e-06,1.4939924379683304e-06,2.042942116484252e-06,9.95361128543184e-07,2.400316571064094e-06
188,1.3451911499701672e-06,1.7247279475869956e-06,1.1760730423826585e-06,1.557687599467901e-06,2.887343843484526e-06,1.955871535079164e-06,2.5755536708259654e-06,1.770149986654305e-06,1.9909633901215806e-06,7.911576834884275e-07,7.552268240208458e-07,2.704342311950698e-06,1.4781287292502944e-06,2.0370591547835946e-06,9.910523799627771e-07,2.3534726751359027e-06
189,1.3614244106340383e-06,1.7442295425428801e-06,1.1612533397911686e-06,1.572459062093921e-06,2.8796039046789627e-06,2.0060444111043983e-06,2.528292832532363e-06,1.7528027152235949e-06,1.9872438646455578e-06,7.905768587561227e-07,7.635042700263244e-07,2.6559248373328793e-06,1.4710551923540992e-06,2.024372013464217e-06,9.887917340786346e-07,2.3019581638474866e-06
190,1.3822274432175238e-06,1.7649071032927198e-06,1.1466139240412192e-06,1.5901718384497664e-06,2.873737492552134e-06,2.0608346548012355e-06,2.4817008487076677e-06,1.7309556351883868e-06,1.987550238372481e-06,8.033181212189623e-07,7.721704491610922e-07,2.600042940750139e-06,1.472275776296224e-06,2.005023117986539e-06,9.888360026012787e-07,2.246376694283102e-06
191,1.4069406808861004e-06,1.785975118070212e-06,1.1329922555860413e-06,1.6104147944197588e-06,2.869685377979541e-06,2.11893728021214e-06,2.4355505621195067e-06,1.70582712271687e-06,1.9918461720186736e-06,8.278638263157202e-07,7.810567615174686e-07,2.5369628402762944e-06,1.4810706085384175e-06,1.979604424252929e-06,9.913400381102402e-07,2.187575532205369e-06
192,1.4348864360253254e-06,1.806669380878155e-06,1.1210693301572422e-06,1.6327755011659035e-06,2.8673552939873357e-06,2.1791359523412785e-06,2.389531348041552e-06,1.6787324842160159e-06,1.9998480696152255e-06,8.627401886108521e-07,7.90061255984163e-07,2.4667625140538345e-06,1.4965458790239152e-06,1.949212563181493e-06,9.96382380904612e-07,2.1266240974500974e-06
193,1.4654845680964507e-06,1.826142810466789e-06,1.1113762302389448e-06,1.6566917854930669e-06,2.8667948702584785e-06,2.2406749573647443e-06,2.343391143743603e-06,1.6507880484316594e-06,2.011011591347207e-06,9.065029521122555e-07,7.991501056006425e-07,2.3897171031669164e-06,1.5177704097524558e-06,1.91518515562998e-06,1.0039687691044186e-06,2.0647221334948875e-06
194,1.4983689193972097e-06,1.843460508993632e-06,1.1042957950176183e-06,1.6813493895701233e-06,2.868198235253346e-06,2.3033110993945134e-06,2.296914001580218e-06,1.622777121508596e-06,2.0245480820789807e-06,9.577085379383337e-07,8.083083736983742e-07,2.3067041725516613e-06,1.5439513743128456e-06,1.8787874314825398e-06,1.0140235015267456e-06,2.0030257137318485e-06
195,1.5334073766293955e-06,1.857823183633169e-06,1.1000458112747225e-06,1.705739761200437e-06,2.871765622403397e-06,2.36709694650353e-06,2.2498614594578233e-06,1.5951587234077372e-06,2.039522123084036e-06,1.0149305244563165e-06,8.175089200440059e-07,2.2193249186334824e-06,1.5745644067916334e-06,1.8411047691312705e-06,1.0263926176686146e-06,1.9425174265236175e-06
196,1.5705862380143455e-06,1.868859182453388e-06,1.0986550936585652e-06,1.7288526588609098e-06,2.877637965287753e-06,2.432264519231424e-06,2.202115838694262e-06,1.5681806896360119e-06,2.055053960716498e-06,1.076789355017158e-06,8.267350284279144e-07,2.1296032684467352e-06,1.6093391688660895e-06,1.80310036406073e-06,1.0408329751354767e-06,1.8839916050129401e-06
197,1.6098227203325247e-06,1.8767353351115887e-06,1.099956431815745e-06,1.7498981987646471e-06,2.886044917685479e-06,2.4992702519095064e-06,2.15394279355614e-06,1.5420972392613487e-06,2.0703968504775677e-06,1.1419615542616446e-06,8.359792513765949e-07,2.0395478815662107e-06,1.64808008755657e-06,1.7656316902732055e-06,1.0569927914086443e-06,1.8280775910724898e-06
198,1.6508053287778638e-06,1.8819856844715275e-06,1.1036099451787073e-06,1.7684364726473467e-06,2.897364464394926e-06,2.568737948342875e-06,2.1060057285082603e-06,1.5173950762101171e-06,2.084809884909758e-06,1.209173718587301e-06,8.452171107818419e-07,1.9509102100226228e-06,1.6904760833966396e-06,1.7293611651273247e-06,1.0744097314533342e-06,1.7752540058159514e-06
199,1.692944664415449e-06,1.885182250719326e-06,1.1091770280323257e-06,1.784359468457275e-06,2.9118608697633027e-06,2.641263064370053e-06,2.059052993619679e-06,1.4948454829131827e-06,2.097520953251322e-06,1.2771323479981728e-06,8.544352525591363e-07,1.8651183651313422e-06,1.7360292977340045e-06,1.6947115617207502e-06,1.0925067610318865e-06,1.7259209203826329e-06
200,1.7354204776461955e-06,1.8866749117864415e-06,1.1162491011470304e-06,1.7977972055168624e-06,2.9293902175317565e-06,2.7172434893345256e-06,2.0136185971767056e-06,1.4753418429793965e-06,2.1079079963490377e-06,1.344444200029527e-06,8.637120272511224e-07,1.7832714999775251e-06,1.7840304410164085e-06,1.6619904350064185e-06,1.1105937929140071e-06,1.6806167138836258e-06
201,1.777229898217115e-06,1.8864832270023286e-06,1.1245732625853315e-06,1.809074569819147e-06,2.949388512583426e-06,2.796762737697889e-06,1.969964764548749e-06,1.4596963370766649e-06,2.1156666188038353e-06,1.4097619727182964e-06,8.732724638750442e-07,1.7061947465278414e-06,1.8335175336132333e-06,1.6315867732934878e-06,1.1279527666133518e-06,1.640314235285573e-06
202,1.8172768254234145e-06,1.8842873746477566e-06,1.134079636715214e-06,1.8187242471368124e-06,2.971063109326301e-06,2.8795105053772854e-06,1.9281399827945802e-06,1.4485191137813038e-06,2.1207684834511507e-06,1.4721047065408856e-06,8.834420745331431e-07,1.634503118994461e-06,1.8832654460716368e-06,1.604055316774136e-06,1.144062708169177e-06,1.6065472389640237e-06
203,1.8546021574934938e-06,1.8795547539322718e-06,1.1447848775313344e-06,1.8274341507629726e-06,2.9935718237512818e-06,2.964812600786874e-06,1.8880476339252116e-06,1.4421475813876625e-06,2.1232489814267775e-06,1.5309553428153175e-06,8.945164585617986e-07,1.5685971125612476e-06,1.9318386206966187e-06,1.5800875689131256e-06,1.1588498544221922e-06,1.5812204088126545e-06
204,1.8886459840928293e-06,1.8718322001501206e-06,1.1566777701798091e-06,1.835935376814689e-06,3.01615281801038e-06,3.0517829002175604e-06,1.8495742389064798e-06,1.4406119331420409e-06,2.1230205161223147e-06,1.5860642963747126e-06,9.066659737408168e-07,1.5086536256672594e-06,1.977815425275585e-06,1.5604846925526031e-06,1.1727218787101649e-06,1.566271245450812e-06
205,1.9193800015512655e-06,1.8610282591165466e-06,1.1696744440933503e-06,1.844962190642949e-06,3.038255709819661e-06,3.139505965309716e-06,1.8127020934164839e-06,1.4436596440725325e-06,2.1198724832181165e-06,1.6372583975609062e-06,9.19930661840781e-07,1.4546753912956818e-06,2.0202174208333964e-06,1.546125410378212e-06,1.186329923613866e-06,1.563438648125299e-06
206,1.9472608186059245e-06,1.8474865762123716e-06,1.1836296520686033e-06,1.855238424844597e-06,3.0595905552443165e-06,3.227144532728734e-06,1.7774761054115722e-06,1.450813415719871e-06,2.113572587933866e-06,1.6844139908227052e-06,9.342563677519984e-07,1.406559721771063e-06,2.058771973168489e-06,1.5379487059250225e-06,1.2002770381514852e-06,1.5741965645533447e-06
207,1.972997164693708e-06,1.8318289850052512e-06,1.1983628446050366e-06,1.867366783721887e-06,3.07997533776129e-06,3.3139223364177934e-06,1.7438806588457339e-06,1.461407710756967e-06,2.1039144596514877e-06,1.727503256049579e-06,9.495574919306066e-07,1.3641810295136786e-06,2.093722896631836e-06,1.5370095272958284e-06,1.2149759585400293e-06,1.5997979984933665e-06
208,1.997227885791132e-06,1.8146758298449472e-06,1.2136464145996586e-06,1.881693739628967e-06,3.0990413673911663e-06,3.399012637918804e-06,1.7117475550093513e-06,1.474570771367295e-06,2.090768367929223e-06,1.766575771315608e-06,9.65782934115349e-07,1.3274560179735037e-06,2.1254738954173497e-06,1.5444912300754858e-06,1.230658772756808e-06,1.6413544656307011e-06
209,2.020293222818241e-06,1.7964089138862583e-06,1.2291918870301037e-06,1.8982864007599564e-06,3.1159960323447038e-06,3.481386302975942e-06,1.6807655870650634e-06,1.4891835518551977e-06,2.074175905473079e-06,1.801702609693098e-06,9.828952266333066e-07,1.296330086141173e-06,2.15437494655115e-06,1.5616399119947498e-06,1.2474396739393046e-06,1.699843499909811e-06
210,2.0421818744292282e-06,1.7771077049193714e-06,1.24470597033498e-06,1.9170347559699806e-06,3.129622750435149e-06,3.559746915769401e-06,1.6506500152334048e-06,1.5039228210759776e-06,2.0543382992706737e-06,1.8329277337885053e-06,1.000781526374344e-06,1.2707640775522481e-06,2.1806701205085206e-06,1.5897543399147052e-06,1.2653531955755412e-06,1.776054917084975e-06
211,2.062579798448604e-06,1.756686656987864e-06,1.2599305006213773e-06,1.9377674000467315e-06,3.138563855799205e-06,3.6327727833558362e-06,1.621391642596813e-06,1.5174764483132122e-06,2.0315047045333306e-06,1.860158942683704e-06,1.019204998765658e-06,1.250765977271497e-06,2.204569017138807e-06,1.6301978755660502e-06,1.284350530405922e-06,1.870547880019848e-06
212,2.0809317510357447e-06,1.7351599876773281e-06,1.2746123590211164e-06,1.9602499991060245e-06,3.1417564542230597e-06,3.6996289650591645e-06,1.5933470729004965e-06,1.5288705088865397e-06,2.005974554903134e-06,1.8830464139242353e-06,1.0378109571020305e-06,1.2363587210676455e-06,2.226340219533326e-06,1.6843337377503812e-06,1.3042619500978717e-06,1.983600143778334e-06
213,2.096531245252454e-06,1.7128305287029945e-06,1.2885318980654751e-06,1.9841060955613706e-06,3.1387880485211457e-06,3.7603400460538857e-06,1.56706908387381e-06,1.5377387490726644e-06,1.9782201098569783e-06,1.9010123026458745e-06,1.0561486727738693e-06,1.2275176401310234e-06,2.2463620779818405e-06,1.7534574167079899e-06,1.324732833024149e-06,2.115204867576906e-06
214,2.1086414611129497e-06,1.6902209009131133e-06,1.30161642297785e-06,2.008779487038258e-06,3.1299822487932464e-06,3.815740230270981e-06,1.5430546725376461e-06,1.5443904257426123e-06,1.9489494931823666e-06,1.9134806010717134e-06,1.073717797985723e-06,1.2241873524315962e-06,2.265176185762169e-06,1.8387744254005584e-06,1.3451585119737446e-06,2.2652135133722995e-06
215,2.116591406282325e-06,1.6678315543247694e-06,1.313966304430153e-06,2.0335314996894498e-06,3.116220233969807e-06,3.867130658376317e-06,1.521643071167849e-06,1.5496310146868582e-06,1.919056209375726e-06,1.9201632040389027e-06,1.0900684509825259e-06,1.2262849643537393e-06,2.283481244714927e-06,1.9413726513746085e-06,1.3646697408409787e-06,2.433529481285536e-06
216,2.1198691762283557e-06,1.6459503235441965e-06,1.32572256999804e-06,2.0575206553379258e-06,3.0986832953553178e-06,3.915940039489852e-06,1.5030969172185934e-06,1.5544653671218543e-06,1.889481535143626e-06,1.92120316992578e-06,1.1048929005108044e-06,1.2336116532014333e-06,2.301982820053926e-06,2.0622106273505633e-06,1.3822480987978121e-06,2.6202047688672464e-06
217,2.118230145409113e-06,1.6245778193442348e-06,1.336927176408813e-06,2.0800501158800204e-06,3.0786534773443396e-06,3.96355521214878e-06,1.487721121750864e-06,1.559887495776538e-06,1.8610275480390165e-06,1.9171254862805345e-06,1.1179939294258482e-06,1.245777488389491e-06,2.3212474319445164e-06,2.2021141390540604e-06,1.3969703913997862e-06,2.82549357641562e-06
218,2.1116931352828724e-06,1.6034040936665619e-06,1.3475175613623796e-06,2.1007990738192115e-06,3.0573367359923485e-06,4.011236426405852e-06,1.4759125081310087e-06,1.5667761234546812e-06,1.8342134951616894e-06,1.908721550202733e-06,1.1291479342517612e-06,1.2622131924812777e-06,2.3416989033970678e-06,2.3616856956615315e-06,1.4082366434793662e-06,3.0499803045873976e-06
219,2.1003693208851574e-06,1.5818321907040768e-06,1.3574149746600149e-06,2.119789523610945e-06,3.0356497334138994e-06,4.059946897909522e-06,1.4681392783053788e-06,1.5758068465720086e-06,1.809215768325723e-06,1.8969895806521736e-06,1.1380002147330709e-06,1.2822037729941887e-06,2.363624354440401e-06,2.5411470888479357e-06,1.4158801249386575e-06,3.294708578743093e-06
220,2.084338699545131e-06,1.5590915366723568e-06,1.3665669553321115e-06,2.137111334520938e-06,3.014059582390958e-06,4.110181391532252e-06,1.4648587545226878e-06,1.5874063868123138e-06,1.7858833466523984e-06,1.8830860875193515e-06,1.1440905686980035e-06,1.3048680825903915e-06,2.3871426051989857e-06,2.740218799119087e-06,1.4201821657977523e-06,3.561143099113156e-06
221,2.063700978488705e-06,1.5344438264760522e-06,1.3748876926266007e-06,2.1526362488152024e-06,2.992625177475257e-06,4.162049679312184e-06,1.4664076171967076e-06,1.6018234616969075e-06,1.7638892249287062e-06,1.8681952986945478e-06,1.146982037402212e-06,1.3291307882466556e-06,2.4122817979983216e-06,2.9580590684024637e-06,1.4217821072680773e-06,3.850937921472776e-06
222,2.038671344053441e-06,1.5074248820711919e-06,1.3822075273691223e-06,2.16594620464273e-06,2.9712456034439422e-06,4.215599628545807e-06,1.472934104031276e-06,1.6192884696491668e-06,1.742987787036917e-06,1.8534149894501673e-06,1.1463750603566541e-06,1.3537815016166565e-06,2.439123395515211e-06,3.1932363074646576e-06,1.4214622847778817e-06,4.165623632484908e-06
223,2.009691277742984e-06,1.4780136450992857e-06,1.3883484828402512e-06,2.1764778198738334e-06,2.9499714373903494e-06,4.2710729242667215e-06,1.48437112715137e-06,1.6401248201483373e-06,1.723155267018528e-06,1.8398112832155704e-06,1.1421507104111955e-06,1.3776021552181292e-06,2.467859761945967e-06,3.443738169060988e-06,1.4199234914204923e-06,4.506414921619144e-06
224,1.977504298029342e-06,1.4466314673452997e-06,1.3932609461225306e-06,2.1836680094481226e-06,2.9291840696427912e-06,4.328867547975168e-06,1.500425075275755e-06,1.664708531570443e-06,1.7045298721478558e-06,1.828531941500632e-06,1.134383748169315e-06,1.3994768351524192e-06,2.4987973533982784e-06,3.7071157521161685e-06,1.4176879848804095e-06,4.8743881209093385e-06
225,1.943042540464134e-06,1.4139701182650224e-06,1.3970944188610564e-06,2.186963453168229e-06,2.909506588718971e-06,4.389248595574347e-06,1.520623149732431e-06,1.6933188514271878e-06,1.6873102100856457e-06,1.8207707119301707e-06,1.123323330964196e-06,1.4184881953443965e-06,2.532339992797e-06,3.980793353177503e-06,1.4151287102417516e-06,5.271022684774271e-06
226,1.9072902942191085e-06,1.3807554716232533e-06,1.4001802596401935e-06,2.1857655170687957e-06,2.8915680778253583e-06,4.452014690816414e-06,1.5444135319707142e-06,1.7260038733946164e-06,1.6717131653549509e-06,1.8176341615211534e-06,1.1092895720644583e-06,1.434037411191458e-06,2.568842363221992e-06,4.2622690341686146e-06,1.4125419823508299e-06,5.698695183265404e-06
227,1.8713499211065069e-06,1.3476135148976748e-06,1.4029444463132442e-06,2.1793819243105095e-06,2.875913116837054e-06,4.5163181766453105e-06,1.5712110035005042e-06,1.7625371521277685e-06,1.6580245851213686e-06,1.8200678608595415e-06,1.092521563614207e-06,1.4459085070331984e-06,2.6083832352090835e-06,4.548961136979259e-06,1.4101615323641793e-06,6.160689881092401e-06
228,1.8365308761911164e-06,1.3151083718257317e-06,1.4057716742070846e-06,2.166984245234271e-06,2.863052886867208e-06,4.5807843102170804e-06,1.6003859382147686e-06,1.8024807337998562e-06,1.646725064555418e-06,1.8288103018551456e-06,1.073089757976796e-06,1.4542435178387701e-06,2.6506994274832167e-06,4.8379106036169385e-06,1.4080772819029418e-06,6.66068705403894e-06
229,1.8042390608435407e-06,1.283809976266135e-06,1.4089199535342345e-06,2.1476925125163476e-06,2.8534609841861726e-06,4.6440330251069275e-06,1.6313652787920516e-06,1.8453599396600614e-06,1.6385025899457526e-06,1.8443095479973723e-06,1.0509283882364857e-06,1.4595351248729402e-06,2.695268593899673e-06,5.125850557574488e-06,1.406180597750096e-06,7.202085487888226e-06
230,1.7757416025408802e-06,1.254234597583656e-06,1.4125533601008694e-06,2.120874143739521e-06,2.8476457200747306e-06,4.705469493243694e-06,1.6638692996588978e-06,1.89084327287524e-06,1.6340491613361756e-06,1.8666853745923392e-06,1.0259594849985025e-06,1.4625851204817798e-06,2.741336355468351e-06,5.409886993640572e-06,1.404258676015154e-06,7.7874820655195e-06
231,1.7519916532403257e-06,1.2267134130530161e-06,1.416808164209835e-06,2.086445576457567e-06,2.8464493365324252e-06,4.765833739179106e-06,1.6980389913875167e-06,1.9387318389664284e-06,1.6338184098660904e-06,1.8957888495846596e-06,9.982511119030028e-07,1.4642913881312452e-06,2.7879404055142396e-06,5.6882547247760185e-06,1.4021800327344045e-06,8.418288034397867e-06
232,1.7335840792380586e-06,1.2013349738606091e-06,1.4218201633875117e-06,2.044957474635829e-06,2.8513057207212775e-06,4.827046246888131e-06,1.734306385959519e-06,1.9887923468336527e-06,1.637942491610709e-06,1.9312550476360202e-06,9.681318901611761e-07,1.465392415900361e-06,2.8340316924439927e-06,5.9602825810812505e-06,1.4000076470273975e-06,9.094362544417774e-06
233,1.7207971566400248e-06,1.1780119847284886e-06,1.4277381787100354e-06,1.9974883626161668e-06,2.8642058140648613e-06,4.891462597446746e-06,1.7731379383064055e-06,2.0406793078891803e-06,1.6463301442769324e-06,1.972460399448794e-06,9.362009303710596e-07,1.4663843813859106e-06,2.878531235019937e-06,6.225478870283912e-06,1.397954891472617e-06,9.813728110534585e-06
234,1.7136477976278634e-06,1.1566512078514125e-06,1.4347102248784486e-06,1.945456636677646e-06,2.8874464327407095e-06,4.961064018766224e-06,1.8148280125972308e-06,2.0939703686509735e-06,1.6588411775286247e-06,2.018469838558317e-06,9.032626388393308e-07,1.4676288033838547e-06,2.9202527705538797e-06,6.482557030496498e-06,1.3962517850626559e-06,1.0572526830518826e-05
235,1.71190389626576e-06,1.137336203552372e-06,1.4428087399125973e-06,1.8904345124547402e-06,2.923303750278718e-06,5.036987034996431e-06,1.8594357400402309e-06,2.148148282437855e-06,1.6753831428803395e-06,2.0681051481789588e-06,8.702444127752943e-07,1.4695300308811766e-06,2.9578679024594285e-06,6.729158996587755e-06,1.395029484232957e-06,1.136527722115061e-05
236,1.7150655490295297e-06,1.1203612065499543e-06,1.4519613406667729e-06,1.833996652346166e-06,2.9737212695515777e-06,5.119447964970749e-06,1.9068369140946777e-06,2.2026192563223365e-06,1.6958443881673648e-06,2.120101465257572e-06,8.381015007954823e-07,1.4726345129854118e-06,2.9899336606384944e-06,6.962258139250017e-06,1.3942675876060946e-06,1.218533330810721e-05
237,1.722375206364877e-06,1.1060753550861087e-06,1.4619399827340882e-06,1.7775831861203618e-06,3.0401171875471017e-06,5.207883196572502e-06,1.956776884772061e-06,2.2569100333920177e-06,1.719944031744363e-06,2.1731867504312925e-06,8.077211426360422e-07,1.4775796392679923e-06,3.0148662835964733e-06,7.178660290811419e-06,1.3938235574292148e-06,1.3025390910930092e-05
238,1.7329059280283306e-06,1.0946953153013414e-06,1.4723362366475696e-06,1.7223899923195605e-06,3.123334269509736e-06,5.301123213756707e-06,2.0089655688527667e-06,2.3108016506740894e-06,1.7471605287664978e-06,2.2260070079490217e-06,7.798620336014297e-07,1.484957720921417e-06,3.0310527345600797e-06,7.375075178673145e-06,1.3935074563394362e-06,1.3877951330350953e-05
239,1.745747903416349e-06,1.0862217326601884e-06,1.4825385192193945e-06,1.669342136187263e-06,3.223640783713914e-06,5.397566016193197e-06,2.0632668525023895e-06,2.3641545502714413e-06,1.7768440750991858e-06,2.2770412986981526e-06,7.551255445529888e-07,1.4952015389507678e-06,3.037296057300995e-06,7.5477162122314735e-06,1.3930934782966092e-06,1.4735731333887501e-05
240,1.7601586802412616e-06,1.0804502529937867e-06,1.4919010824395764e-06,1.619140710797052e-06,3.3407592885440607e-06,5.495402572339049e-06,2.1197554533942313e-06,2.416583089739567e-06,1.8084303053976257e-06,2.3247015037425984e-06,7.339372130803499e-07,1.5085498649751358e-06,3.0332206187879965e-06,7.69199952685469e-06,1.3922796458610746e-06,1.5592019012233966e-05
241,1.7755165248495876e-06,1.0770407627183543e-06,1.500136910745838e-06,1.5723265010240446e-06,3.473933455714652e-06,5.592904881470052e-06,2.178506993247806e-06,2.4672684080926894e-06,1.8415017372540664e-06,2.367588651792545e-06,7.165428406758641e-07,1.5251129295279734e-06,3.0191643501944867e-06,7.8031005821946e-06,1.3907091608930163e-06,1.644091841325034e-05
242,1.7912107672281145e-06,1.075612422027764e-06,1.5076267230445485e-06,1.529363410811653e-06,3.622017440359634e-06,5.6887365368429475e-06,2.2393536155133876e-06,2.515035282254486e-06,1.8756450021311932e-06,2.4047209947037338e-06,7.030288533458225e-07,1.5449582177975901e-06,2.995746624344863e-06,7.87743188666322e-06,1.388030290691388e-06,1.727742305957841e-05
243,1.806636053511875e-06,1.0758216038516447e-06,1.5153435287310922e-06,1.49073308494703e-06,3.7837154892784685e-06,5.7822645292171895e-06,2.301864076225635e-06,2.558644599486561e-06,1.9103955165493405e-06,2.435628218420068e-06,6.93355637328977e-07,1.5680819666672552e-06,2.9637098366583663e-06,7.914086984844084e-06,1.3839244509017542e-06,1.809735149652182e-05
244,1.82122200300875e-06,1.077444101125332e-06,1.5245036467088705e-06,1.4569422604481994e-06,3.958010559540857e-06,5.873867256764176e-06,2.3655621269792246e-06,2.597147575640251e-06,1.945423031285193e-06,2.4602875635072506e-06,6.873855532406182e-07,1.5942946675482107e-06,2.924176803895752e-06,7.915081498045848e-06,1.3781422965599518e-06,1.889720993667425e-05
245,1.8344368840274203e-06,1.0804471593848853e-06,1.5363088574507484e-06,1.4284043424776188e-06,4.144441970612956e-06,5.965170608746323e-06,2.4301729913707866e-06,2.6301428735695725e-06,1.9806930078599744e-06,2.4789082057387395e-06,6.848990256611929e-07,1.6231468554203664e-06,2.8788628391905503e-06,7.884169895729288e-06,1.3705348516202811e-06,1.96740103261892e-05
246,1.8457947696797727e-06,1.084945263366923e-06,1.551899022296974e-06,1.405323252077163e-06,4.342909794398822e-06,6.059069843463917e-06,2.495644621894168e-06,2.6578477597526556e-06,2.0163585652499825e-06,2.4916643365834816e-06,6.855956313557486e-07,1.6539307046715272e-06,2.829912168577676e-06,7.825227536210065e-06,1.361012508201456e-06,2.042510849632352e-05
247,1.8549613805506554e-06,1.0910751907331335e-06,1.5723318220736535e-06,1.3877183427771296e-06,4.553151280154585e-06,6.15944762878985e-06,2.561936240301779e-06,2.6809619250286637e-06,2.0525328717378014e-06,2.4984971100753438e-06,6.890896647879656e-07,1.6857366071014129e-06,2.7795218034023083e-06,7.741374784669625e-06,1.3495320417451305e-06,2.1148065746120728e-05
248,1.8619826441718198e-06,1.0989205204135497e-06,1.5984859374224502e-06,1.3755539391710783e-06,4.774347069692267e-06,6.270662846100544e-06,2.6288673264381818e-06,2.7003987203645495e-06,2.0891910752133546e-06,2.499007674487265e-06,6.949141403795539e-07,1.717535726210408e-06,2.729623472073724e-06,7.634986901622834e-06,1.3362135333191219e-06,2.184016496439292e-05
249,1.8673953938623782e-06,1.1084722614674137e-06,1.630972639415165e-06,1.3688016983958697e-06,5.00505883071814e-06,6.396957110484351e-06,2.6962005490031623e-06,2.7170552790667156e-06,2.1261788709598424e-06,2.492526716808315e-06,7.025336206940572e-07,1.7482809090864206e-06,2.6816939057181322e-06,7.507853274622349e-06,1.3214323493681462e-06,2.2497207469909926e-05
250,1.8720384515767103e-06,1.1196124231666242e-06,1.6701098976951188e-06,1.3673498417568916e-06,5.243228707081264e-06,6.541894773876058e-06,2.7637465471000247e-06,2.7317207564449137e-06,2.1631923856551534e-06,2.47853199576266e-06,7.11396171693352e-07,1.777021409450663e-06,2.6366758342747596e-06,7.361243685814489e-06,1.3057153496115253e-06,2.3112235941591234e-05
251,1.8767279463059937e-06,1.1321856416693534e-06,1.7159132654550658e-06,1.3708675275070916e-06,5.486039131071028e-06,6.7080045470243374e-06,2.831283925216317e-06,2.745032356319798e-06,2.1997600805833005e-06,2.4572636202778348e-06,7.210498387388458e-07,1.8029731572362047e-06,2.595046919178612e-06,7.196428382150828e-06,1.2895398484472182e-06,2.3675442139308123e-05
252,1.8820715775442795e-06,1.1461036037142959e-06,1.7680747456055348e-06,1.3787846683891326e-06,5.729871318319498e-06,6.896735795598064e-06,2.8984617485666236e-06,2.757372747861329e-06,2.2352736264266347e-06,2.4300560166635973e-06,7.312465380411529e-07,1.8255138012160407e-06,2.5570419458081307e-06,7.015766248588768e-06,1.2732533699810567e-06,2.4175457768279596e-05
253,1.8884981539779522e-06,1.1613522257873964e-06,1.825953016146104e-06,1.390422764493693e-06,5.9705905699687415e-06,7.108563676784476e-06,2.9649052868910267e-06,2.7687948861042045e-06,2.26903577191859e-06,2.3991755771716073e-06,7.41926439533051e-07,1.8441294237695654e-06,2.52286783063223e-06,6.823647375846323e-06,1.2571609758915543e-06,2.4601163359987003e-05
254,1.8963428189555447e-06,1.1779184794991142e-06,1.8885938950368214e-06,1.4051368568292882e-06,6.204015978340399e-06,7.343038898629254e-06,3.0303419767969134e-06,2.7790788138718403e-06,2.300471809684885e-06,2.367377282248976e-06,7.531026545879483e-07,1.8583289875621693e-06,2.492773851084733e-06,6.62656720311568e-06,1.2416183492620892e-06,2.4943317140996063e-05
255,1.9058429844909709e-06,1.1957723794172553e-06,1.9547807817914434e-06,1.4223215420597481e-06,6.426378598090827e-06,7.598812271892979e-06,3.0944724103021877e-06,2.787794552881177e-06,2.3295602086343474e-06,2.3374396718948266e-06,7.64754125687042e-07,1.8675792239957936e-06,2.4671686048554634e-06,6.432236733029908e-06,1.2269913742429025e-06,2.5195675596952583e-05
256,1.917060494180075e-06,1.2149209222384613e-06,2.023104122736268e-06,1.4413734058965425e-06,6.634674916466169e-06,7.87366062849395e-06,3.1567430110399525e-06,2.7942777691494236e-06,2.357053185862643e-06,2.3118450744511055e-06,7.767709131582559e-07,1.8713214104586354e-06,2.4468801227975966e-06,6.248394614794315e-06,1.2135497074658956e-06,2.53554149242131e-05
257,1.929804657845851e-06,1.2354013470449853e-06,2.09203967617374e-06,1.4617435184708665e-06,6.826731264941613e-06,8.16437118419412e-06,3.216355836379573e-06,2.7977250845862098e-06,2.3841851067242622e-06,2.2926556645111782e-06,7.889516433521521e-07,1.8690104173694976e-06,2.4331707668365144e-06,6.0822530657236055e-06,1.2014448439927264e-06,2.5422941235247015e-05
258,1.9436387927183615e-06,1.257162257480136e-06,2.160051659706164e-06,1.482987096290869e-06,7.000853778549769e-06,8.466492766135542e-06,3.2725577236095413e-06,2.7975473771317214e-06,2.4121839758092332e-06,2.2815057202386855e-06,8.010514888720834e-07,1.8601568675127841e-06,2.4273494413990573e-06,5.940747074588806e-06,1.1907575769980682e-06,2.5401447730764013e-05
259,1.958010336527896e-06,1.2799401526204734e-06,2.225719531352358e-06,1.5047462030216563e-06,7.155197496714661e-06,8.77430330301802e-06,3.3248706822488213e-06,2.7937142343223195e-06,2.441959872876562e-06,2.2796402365982615e-06,8.128316161757976e-07,1.84450515067457e-06,2.43036290315835e-06,5.830795550776177e-06,1.1814767203303768e-06,2.5296537332730092e-05
260,1.972376306064896e-06,1.303249928041322e-06,2.2878239718428386e-06,1.5267357445229315e-06,7.287146219629277e-06,9.08129647541659e-06,3.372933754006867e-06,2.7867443575904355e-06,2.4740019405129994e-06,2.287931597828783e-06,8.240932378914678e-07,1.8222661170795054e-06,2.4426472631597815e-06,5.75903784895887e-06,1.1734120520095748e-06,2.511591993161459e-05
261,1.9862035330243947e-06,1.3265127577761712e-06,2.3453400328208763e-06,1.5487258472988541e-06,7.3931342534403166e-06,9.38107184065754e-06,3.416219788704175e-06,2.777352547420245e-06,2.5084716676567e-06,2.306839790405601e-06,8.347333060294175e-07,1.7940829472596615e-06,2.4642365354517063e-06,5.731496536602174e-06,1.1661600071924984e-06,2.4868977398237408e-05
262,1.9990010353987178e-06,1.3492197003753229e-06,2.397331171922772e-06,1.5704754566708716e-06,7.469247869075142e-06,9.66824943362938e-06,3.4540844007294176e-06,2.766074849426337e-06,2.5455107579106726e-06,2.336446215516077e-06,8.447839715190442e-07,1.7607194202397479e-06,2.49501475883657e-06,5.753649343491373e-06,1.1591485541279392e-06,2.4566129869813124e-05
263,2.010499818455459e-06,1.3709818158537561e-06,2.4427929587814398e-06,1.5916445937656723e-06,7.512362876017799e-06,9.939073856373566e-06,3.4860449924891737e-06,2.7531620923638107e-06,2.585532974809762e-06,2.3766205251806184e-06,8.543659071411797e-07,1.7228076888961274e-06,2.5348821006325896e-06,5.8306817376843265e-06,1.1517632843100119e-06,2.4218206737107767e-05
264,2.0207453642904453e-06,1.3914977880249516e-06,2.4806198210676837e-06,1.6117362503641813e-06,7.521135405558678e-06,1.0191483619544998e-05,3.5119662037574676e-06,2.738750436645101e-06,2.6292015337133035e-06,2.4271286734972458e-06,8.635877277278487e-07,1.6808371978423963e-06,2.5837004353858903e-06,5.967573174625058e-06,1.1435825436779502e-06,2.3836006332904907e-05
265,2.0299235276191677e-06,1.410609429778181e-06,2.5097882125319944e-06,1.6300833813188397e-06,7.496351875485869e-06,1.042449515231082e-05,3.5320564814222836e-06,2.7230784542065827e-06,2.6771514416848176e-06,2.487548818950003e-06,8.724956878371138e-07,1.635288328956887e-06,2.6411750271596805e-06,6.16893531329214e-06,1.1345982253523684e-06,2.34298915893704e-05
266,2.0380805057680987e-06,1.4284073537200585e-06,2.529586836123044e-06,1.6458735402209898e-06,7.440610267430812e-06,1.0637055016439326e-05,3.546668546982398e-06,2.706553898286206e-06,2.7297233712910694e-06,2.557120269683654e-06,8.811001473753999e-07,1.5867545916386676e-06,2.7067960956023048e-06,6.438645402616015e-06,1.1252171457618827e-06,2.3009038501348183e-05
267,2.0449693448881146e-06,1.445191356221547e-06,2.5397598476520887e-06,1.6582393518402393e-06,7.3575346464573215e-06,1.0827087828206713e-05,3.555958901883992e-06,2.689674374928605e-06,2.786810491561777e-06,2.6347008562936986e-06,8.893988703996015e-07,1.5359452488553212e-06,2.779756487473322e-06,6.779476177062726e-06,1.1160440876383021e-06,2.2580173162471094e-05
268,2.0500798477045907e-06,1.4613049427624525e-06,2.5406005065527964e-06,1.6664387501804701e-06,7.2507870736784345e-06,1.0991433702728408e-05,3.5596239002103772e-06,2.672884849702089e-06,2.847856359948848e-06,2.7188512433959966e-06,8.973676169137449e-07,1.4835896554382438e-06,2.8588553275690686e-06,7.19292053303285e-06,1.107640001381619e-06,2.2146252658869298e-05
269,2.0527382521223557e-06,1.4770224211011064e-06,2.532965312327557e-06,1.6699921450825663e-06,7.123392832783675e-06,1.1126511336592337e-05,3.556901715063985e-06,2.656410120693506e-06,2.9120939003227517e-06,2.8079351164177263e-06,9.049587739758577e-07,1.4303754410242548e-06,2.9424709750010732e-06,7.679268144190094e-06,1.100398821332675e-06,2.1705996633609146e-05
270,2.052213014966441e-06,1.4925102959088533e-06,2.5181087796942352e-06,1.6686224229493253e-06,6.977803552896944e-06,1.122913010974521e-05,3.546798296688787e-06,2.64014230161289e-06,2.978891791997646e-06,2.900155364076649e-06,9.121331740476039e-07,1.3769315050515633e-06,3.0285662420245507e-06,8.237954537521996e-06,1.094548621037586e-06,2.1254699111276818e-05
271,2.0478734095025628e-06,1.5077912850197187e-06,2.4973823271557333e-06,1.6621740935174438e-06,6.81641571613014e-06,1.1297215257629826e-05,3.528404445964763e-06,2.623689938014816e-06,3.0478871339732954e-06,2.9935091597996737e-06,9.189383416410161e-07,1.3237675302373512e-06,3.114796614801958e-06,8.8680935785685e-06,1.090199900579283e-06,2.0785795132143685e-05
272,2.0392925421369974e-06,1.5227343350285844e-06,2.4719764021295494e-06,1.65077172513731e-06,6.641955595318569e-06,1.1330391267077169e-05,3.5011872667037423e-06,2.606558460810996e-06,3.1188859937268854e-06,3.0857054311266474e-06,9.255670002602246e-07,1.27122722225517e-06,3.1989018290331196e-06,9.568943978533815e-06,1.087368172858312e-06,2.02923953817103e-05
273,2.0261638672939946e-06,1.5370890418028583e-06,2.4427872953609096e-06,1.6350656108368694e-06,6.457523617280754e-06,1.1330240711239964e-05,3.465112777433134e-06,2.5883478829421333e-06,3.1918268265405906e-06,3.174283017332396e-06,9.323069396071645e-07,1.2195698401091008e-06,3.279167042445111e-06,1.033996898977125e-05,1.0859731959104947e-06,1.9768355912695265e-05
274,2.0081848944976494e-06,1.5505023671876977e-06,2.4103513959116978e-06,1.6162561225514622e-06,6.266418244641031e-06,1.1300001149472387e-05,3.4205190339109276e-06,2.568871807447058e-06,3.2668483851555973e-06,3.2571008284349524e-06,9.394444878132129e-07,1.1691137335225358e-06,3.354492764137016e-06,1.1180286815673897e-05,1.0858595297212156e-06,1.9208824243444815e-05
275,1.9850610262087387e-06,1.5625142889571788e-06,2.3748544076789408e-06,1.5958753037565136e-06,6.071845563131928e-06,1.1243587223632134e-05,3.3678117021962004e-06,2.548097912146392e-06,3.3442099551515705e-06,3.33288641908729e-06,9.472064920386291e-07,1.1202827316314775e-06,3.4241905883039873e-06,1.2087833743704477e-05,1.0868529835910898e-06,1.8610483787268045e-05
276,1.956608519343515e-06,1.5726477454495397e-06,2.336241374695995e-06,1.5754971478905481e-06,5.876535855933392e-06,1.1164291321860686e-05,3.307211767618167e-06,2.5259205592850304e-06,3.4241417535819867e-06,3.4013883512897818e-06,9.557222734476423e-07,1.0735658530416093e-06,3.487961927717229e-06,1.3058774309445637e-05,1.0888184206602524e-06,1.7971753956778735e-05
277,1.922960855379455e-06,1.5806058456465787e-06,2.294322989285026e-06,1.556517265730587e-06,5.682419172838318e-06,1.1064049831423675e-05,3.2388115644081024e-06,2.5019694851278224e-06,3.5069761044916495e-06,3.463089447563628e-06,9.64997567100093e-07,1.0294856122279043e-06,3.5459225828673005e-06,1.4087335320641068e-05,1.091695768355747e-06,1.7292976018337863e-05
278,1.8847744168850417e-06,1.5863857748358026e-06,2.248842271977334e-06,1.540071910681386e-06,5.490618827676911e-06,1.0943761942445164e-05,3.1629004137308293e-06,2.475682960001885e-06,3.5934672944202255e-06,3.5188006005233767e-06,9.749362519311546e-07,9.885391850464548e-07,3.59836613039489e-06,1.5166052232050269e-05,1.095521247018031e-06,1.657643847785629e-05
279,1.8431772504057117e-06,1.590201733905357e-06,2.1996224580488247e-06,1.5270801033167868e-06,5.3017737168048615e-06,1.0804182322510446e-05,3.0802394915380133e-06,2.446638320527287e-06,3.684833020097644e-06,3.5694450874074223e-06,9.85425634563744e-07,9.511096488817409e-07,3.6455021722598294e-06,1.6286038198275465e-05,1.1003975602677415e-06,1.5826175335406215e-05
280,1.7994666775882015e-06,1.5923087426124588e-06,2.1468042409229877e-06,1.5182938454455245e-06,5.116458595852343e-06,1.064675075261343e-05,2.992123928373766e-06,2.414818172443209e-06,3.7823804598415746e-06,3.6160192226992043e-06,9.964126926532462e-07,9.174507905241597e-07,3.6873538570787587e-06,1.7436584808643318e-05,1.1063958531466811e-06,1.504766578934381e-05
281,1.7548353012616592e-06,1.5928465182105025e-06,2.090993522387399e-06,1.5142763591913144e-06,4.935518539019839e-06,1.0474074365511672e-05,2.9003330868719327e-06,2.380553241247e-06,3.8871114851873235e-06,3.6594801512739656e-06,1.0078627629897505e-06,8.877306640619881e-07,3.7237140806675253e-06,1.8604379746753977e-05,1.1134679269971244e-06,1.4247620096348334e-05
282,1.7102394489414548e-06,1.5917541011145415e-06,2.033192399095054e-06,1.5153558550095507e-06,4.760216572801693e-06,1.0289918176154436e-05,2.8070299817121326e-06,2.3442820430197235e-06,3.999683197169575e-06,3.700560244990203e-06,1.0196354705046015e-06,8.620325676072704e-07,3.7542801952548803e-06,1.9773227308630118e-05,1.121438242008036e-06,1.3433885804727257e-05
283,1.6663521713151868e-06,1.5887468699214929e-06,1.9745730557450014e-06,1.5216210798298868e-06,4.592170440611089e-06,1.0098738727277928e-05,2.714535517571291e-06,2.3063609526562293e-06,4.120531250444297e-06,3.739774399182097e-06,1.0314326385401258e-06,8.40338606490424e-07,3.7790264590232846e-06,2.0924249477228313e-05,1.1300451099306942e-06,1.2615320109919681e-05
284,1.6236208179041706e-06,1.5833903182147053e-06,1.9162330620993445e-06,1.5329796668974184e-06,4.433182998535202e-06,9.905047018314044e-06,2.624979510718499e-06,2.266964932128865e-06,4.249740267348836e-06,3.7776276207964713e-06,1.0429008184266306e-06,8.225931549248981e-07,3.798511431341433e-06,2.2036152300581852e-05,1.1389573007557632e-06,1.1801459384855774e-05
285,1.5824626784110998e-06,1.575324039258478e-06,1.8590420295562857e-06,1.54924109784412e-06,4.285060976068968e-06,9.712916271948661e-06,2.540000575031945e-06,2.2260962659840258e-06,4.386712959078745e-06,3.8146949542264083e-06,1.0538024605345024e-06,8.0879988247102e-07,3.8138778714907284e-06,2.308560984216801e-05,1.1477841151736861e-06,1.1001995973691241e-05
286,1.5434655202432206e-06,1.5645083299033567e-06,1.8036488871611857e-06,1.570152049373719e-06,4.149411847529045e-06,9.525766733932822e-06,2.4606340961147063e-06,2.1836852229820114e-06,4.530018257982469e-06,3.851391595535307e-06,1.0640881069253305e-06,7.99028767488504e-07,3.826538646823489e-06,2.4048032632652325e-05,1.156138414344497e-06,1.0226269034919893e-05
287,1.5073800870224608e-06,1.5512745150441872e-06,1.7505950090951614e-06,1.595387977263989e-06,4.027430294558683e-06,9.346346409527502e-06,2.3873583557550295e-06,2.1396307640257058e-06,4.677558846715295e-06,3.8876523409755655e-06,1.0738245070608092e-06,7.933575091268546e-07,3.837687244789379e-06,2.4899061533724944e-05,1.1637106376230022e-06,9.48295426991182e-06
288,1.4749293218898039e-06,1.5361915485066399e-06,1.700360907447833e-06,1.6245347672265194e-06,3.9197308439005765e-06,9.176633178028024e-06,2.3202163459610137e-06,2.09374334833961e-06,4.826892931002879e-06,3.922814115072992e-06,1.0830749989206435e-06,7.918237450547508e-07,3.847942151552807e-06,2.5616910055145097e-05,1.1702852637315604e-06,8.779892351745536e-06
289,1.4466969352573875e-06,1.519942098600276e-06,1.6533158261937505e-06,1.6570991501112356e-06,3.826225592294947e-06,9.017484825620635e-06,2.2589795390188197e-06,2.0457417659400994e-06,4.975489084224698e-06,3.955762789525958e-06,1.0918201593985818e-06,7.94383273959641e-07,3.857353654525684e-06,2.61848296537477e-05,1.175690098183064e-06,8.123844886252584e-06
290,1.4232070631051743e-06,1.5032501730875083e-06,1.6097129406642883e-06,1.6925958100513566e-06,3.7460454894041283e-06,8.868400812551301e-06,2.2033417870805103e-06,1.9953608359111363e-06,5.120771449085471e-06,3.985225147768303e-06,1.0999399385250576e-06,8.009062783047412e-07,3.865646973276636e-06,2.65923940487524e-05,1.1797286096853733e-06,7.520131177125311e-06
291,1.4050343900307953e-06,1.4867832207282669e-06,1.5697481691387697e-06,1.7305999486506964e-06,3.677600634937147e-06,8.727808944370668e-06,2.153080911189248e-06,1.942415805898012e-06,5.259922644358244e-06,4.009971188969687e-06,1.107242040359213e-06,8.112540971734318e-07,3.872479051770791e-06,2.6834821065178196e-05,1.1821946040703304e-06,6.97235296194537e-06
292,1.3927858737645577e-06,1.4710837481024962e-06,1.5335563885024851e-06,1.7706278916974468e-06,3.6188917924787448e-06,8.593604655152201e-06,2.1080879230587643e-06,1.8867187508573324e-06,5.389569983868534e-06,4.028785945404417e-06,1.1135313096112505e-06,8.253740694686214e-07,3.877636160377564e-06,2.6910489990658967e-05,1.182996304734557e-06,6.482351694636267e-06
293,1.3869825403640145e-06,1.4566041247118703e-06,1.501120747143041e-06,1.8119616384732152e-06,3.5680326480672225e-06,8.463468053163496e-06,2.06826521479303e-06,1.8280526713421048e-06,5.505699246536456e-06,4.040366038603061e-06,1.1186645501784325e-06,8.433275655152169e-07,3.8810852995759326e-06,2.6817649363458266e-05,1.182253714941451e-06,6.050300243187738e-06
294,1.3879500901843418e-06,1.44375688251143e-06,1.4722093725338704e-06,1.8536075031446297e-06,3.523690245778944e-06,8.33491253556394e-06,2.033402580001271e-06,1.7664032797527492e-06,5.604067450625319e-06,4.0433470507216425e-06,1.1225044867036131e-06,8.652367923828031e-07,3.882814177329145e-06,2.6552389628056306e-05,1.1802341042711638e-06,5.674825894251458e-06
295,1.3957664834712763e-06,1.4329007003798749e-06,1.4464501931124522e-06,1.8944210596427285e-06,3.4850844920374215e-06,8.20529621092594e-06,2.003118733555461e-06,1.702243005880142e-06,5.680865399938816e-06,4.036370338822726e-06,1.1248704964967085e-06,8.912111561400654e-07,3.882646439072148e-06,2.6109902668911467e-05,1.1772212455033438e-06,5.35320007351364e-06
296,1.4102621546650759e-06,1.4243236663929254e-06,1.42352548932214e-06,1.9333448890224475e-06,3.4515528308379823e-06,8.072061633960878e-06,1.976939271028694e-06,1.636561746224082e-06,5.7331221953044604e-06,4.018021099114104e-06,1.1256506500449959e-06,9.213151558626527e-07,3.8802106949137586e-06,2.5488690846634355e-05,1.1735168951056507e-06,5.081638254045991e-06
297,1.4310406961078067e-06,1.4182911572885408e-06,1.4033290279483732e-06,1.9696734418003907e-06,3.4221210233819927e-06,7.93330527837934e-06,1.9545381193461565e-06,1.5706360418600013e-06,5.758761439507819e-06,3.986973811167261e-06,1.1249670206995281e-06,9.555515763873688e-07,3.874932233818085e-06,2.469516585541883e-05,1.1695511983606044e-06,4.855640509978916e-06
298,1.4574801823702696e-06,1.4151009039641033e-06,1.3859542314338997e-06,2.0032177592441105e-06,3.3954508438850122e-06,7.788433338833672e-06,1.935965090914704e-06,1.5057474779533271e-06,5.756642402473118e-06,3.942724591996551e-06,1.1231510607287715e-06,9.938320988110437e-07,3.865989799215323e-06,2.3746026019170613e-05,1.1659002324615837e-06,4.670249688148626e-06
299,1.488739585429234e-06,1.4150462622394906e-06,1.371545809131861e-06,2.0342756948055646e-06,3.3701042011050393e-06,7.638481357373122e-06,1.9216157120745022e-06,1.4430171695130507e-06,5.726655691675728e-06,3.886269690267604e-06,1.1205516423768844e-06,1.0359607369998262e-06,3.852492619864002e-06,2.2667197327004466e-05,1.1631502005262496e-06,4.520205608006713e-06
300,1.5238041385749968e-06,1.4183171174561628e-06,1.3601515555055296e-06,2.063425928292338e-06,3.3448748501995046e-06,7.4858593218878725e-06,1.912016981775384e-06,1.3833410359680363e-06,5.669511829446601e-06,3.8198777140696895e-06,1.117410788398738e-06,1.0816205766494922e-06,3.8339022209458485e-06,2.149007790741581e-05,1.1617489859256822e-06,4.400085369548871e-06
301,1.5615203640652541e-06,1.42493764452241e-06,1.3516586329583659e-06,2.0912717672427986e-06,3.319097404503447e-06,7.333600190541135e-06,1.9076989121342673e-06,1.3273550491146026e-06,5.58629038326219e-06,3.7464360808556827e-06,1.1138735697752958e-06,1.1303522427227328e-06,3.8102909171738236e-06,2.0247202379654252e-05,1.1619670995323592e-06,4.304488999198365e-06
302,1.6006319640218281e-06,1.4347638411307106e-06,1.3458107090087563e-06,2.1182564663097993e-06,3.292917535180921e-06,7.184435251496231e-06,1.9091516945332786e-06,1.2754328377913311e-06,5.478383984909123e-06,3.6692099902461156e-06,1.1100246794299544e-06,1.1815436566542152e-06,3.7822027800910915e-06,1.896907388022711e-05,1.1639678847212193e-06,4.228236435787698e-06
303,1.6399378405216357e-06,1.4475315582876647e-06,1.3423042850526823e-06,2.144556723666748e-06,3.267353294768102e-06,7.040179605217686e-06,1.916709420068943e-06,1.2277099091176382e-06,5.347863309416567e-06,3.591730874863663e-06,1.1059238049936173e-06,1.234442285410072e-06,3.7503358149678105e-06,1.7682551388360464e-05,1.1679063161734485e-06,4.1665155139900465e-06
304,1.6785695234795983e-06,1.4629329189314205e-06,1.3408981090457544e-06,2.170013588009674e-06,3.243973065572118e-06,6.901773300398039e-06,1.9304355903769618e-06,1.1840863919442593e-06,5.197565111237246e-06,3.5173803824610284e-06,1.1016484781600584e-06,1.2882025467064006e-06,3.715347686130764e-06,1.641044542527998e-05,1.173952674925698e-06,4.114960546163244e-06
305,1.716201712078806e-06,1.480663667173486e-06,1.3414000528870146e-06,2.1941651477909145e-06,3.224332186172447e-06,6.769819041620274e-06,1.950187838919919e-06,1.144209580963944e-06,5.030698737897479e-06,3.4489688859546426e-06,1.0972783024190538e-06,1.341982992037509e-06,3.677824912322309e-06,1.517188425193705e-05,1.182247363099159e-06,4.069701753780268e-06
306,1.7530112399804159e-06,1.5004043159182239e-06,1.3435582764924342e-06,2.2164673663884005e-06,3.2095493564539565e-06,6.645138961380468e-06,1.975805904819569e-06,1.1074958914765232e-06,4.850489764198259e-06,3.388594110385291e-06,1.092797148344451e-06,1.3950957041114472e-06,3.638208814464827e-06,1.3982900652981293e-05,1.1928678614282635e-06,4.027423796420614e-06
307,1.7893792091368755e-06,1.521744542639932e-06,1.3469994453579017e-06,2.2365853925955097e-06,3.20022278960649e-06,6.529068756324227e-06,2.0071820582742713e-06,1.0732374639477646e-06,4.660195294326376e-06,3.3376823756275806e-06,1.0880166032656153e-06,1.4471369504267933e-06,3.5965964813920994e-06,1.2856766545566582e-05,1.2058011189351252e-06,3.985388969083417e-06
308,1.8255748349401372e-06,1.5441240432776191e-06,1.3512659984766394e-06,2.25452344427347e-06,3.196516841977805e-06,6.423484263975613e-06,2.0441240283594524e-06,1.0407770039365715e-06,4.463212622697172e-06,3.29704293673654e-06,1.0826552546690905e-06,1.498000028967776e-06,3.5525864929419546e-06,1.1803988607560532e-05,1.220905154848645e-06,3.941360569447972e-06
309,1.8616876594760218e-06,1.5668383771925217e-06,1.3558834020202785e-06,2.270544986493019e-06,3.198184073261679e-06,6.330599011876292e-06,2.086204568381301e-06,1.0096734617188246e-06,4.262900514918813e-06,3.266863690904086e-06,1.0765588826815408e-06,1.5478182821234447e-06,3.5052819762627432e-06,1.0832226165741006e-05,1.2378767548277867e-06,3.8934498638698656e-06
310,1.8977684455188918e-06,1.5890586745330558e-06,1.3603532439985092e-06,2.2850244996114296e-06,3.204589030738084e-06,6.25259902862232e-06,2.1327789374475666e-06,9.797889384022894e-07,4.062199392793537e-06,3.246721020425988e-06,1.069837202126322e-06,1.5969211446775609e-06,3.4535429002741276e-06,9.946433917829869e-06,1.2562330697638462e-06,3.839976755818055e-06
311,1.93389857948247e-06,1.6098769864256173e-06,1.3641445154622805e-06,2.2983196183746675e-06,3.2149232071694184e-06,6.191270691149093e-06,2.1830923227942317e-06,9.512731002338194e-07,3.863429220703229e-06,3.235730398097574e-06,1.0627721552737089e-06,1.6457476131208633e-06,3.396566785762588e-06,9.149211794818027e-06,1.2753661936482245e-06,3.77942531487849e-06
312,1.9700983388777914e-06,1.6284457058566068e-06,1.3668149973877955e-06,2.3106236590531025e-06,3.228510853876168e-06,6.147701599530126e-06,2.236296944966312e-06,9.244507104016442e-07,3.668387101201702e-06,3.2327773011670767e-06,1.0556694819079766e-06,1.694709453187345e-06,3.3345322049407774e-06,8.441173731614131e-06,1.2946682767521091e-06,3.710535898688279e-06
313,2.0062450640540453e-06,1.644138941273956e-06,1.3681448203476327e-06,2.3218043511371268e-06,3.2449184777622353e-06,6.1220010263956695e-06,2.2913480868090098e-06,8.996875981176898e-07,3.4784944393203954e-06,3.2365752975596035e-06,1.0488267283403632e-06,1.7441019066617943e-06,3.268888445284987e-06,7.821552253465685e-06,1.3136104454671616e-06,3.632477405367685e-06
314,2.042093937355915e-06,1.6565767103335069e-06,1.3681130865653648e-06,2.3313971779046562e-06,3.2637581419652505e-06,6.113078212682605e-06,2.346972220904884e-06,8.77340540888551e-07,3.294816882845575e-06,3.245510567553859e-06,1.0425388987724289e-06,1.7940706210295985e-06,3.20211150981649e-06,7.289327161987157e-06,1.3317825579692169e-06,3.5449397484823187e-06
315,2.077350699558316e-06,1.6654926267269767e-06,1.3667483428090795e-06,2.338903195179131e-06,3.2843471439889606e-06,6.118645626370076e-06,2.4018751427786444e-06,8.577859531234932e-07,3.118157242212682e-06,3.2575928095362185e-06,1.037073201092268e-06,1.8446201740470684e-06,3.1370679843142673e-06,6.844383505026885e-06,1.34899247154113e-06,3.44809264941878e-06
316,2.1117377130735775e-06,1.6706682023385917e-06,1.3639806876934637e-06,2.3442541818852746e-06,3.3055390809606703e-06,6.135531641838983e-06,2.4550194373625567e-06,8.414420727646984e-07,2.9493718351222244e-06,3.27074791928569e-06,1.0326699268618883e-06,1.895667230142915e-06,3.076388965024116e-06,6.4879384299209795e-06,1.365340950774943e-06,3.3425614725134777e-06
317,2.1450102716881845e-06,1.6721204738183866e-06,1.3596120480982166e-06,2.3480809123987584e-06,3.3259538253437028e-06,6.160202755727632e-06,2.505668822722201e-06,8.287403197535258e-07,2.7896338139451017e-06,3.283250184578099e-06,1.0295690731329204e-06,1.9470452187359777e-06,3.022146972249912e-06,6.222225261782485e-06,1.3811198882346035e-06,3.229515519269624e-06
318,2.1769342141372753e-06,1.6703393591563225e-06,1.3534284085145403e-06,2.3515635785914563e-06,3.3445204901687746e-06,6.189210297420503e-06,2.5532057833315497e-06,8.200578314080663e-07,2.6403403726565207e-06,3.2938527216234923e-06,1.0279886863057848e-06,1.9984531211209005e-06,2.975795750100135e-06,6.049915570915362e-06,1.3966226870493855e-06,3.1107418259530553e-06
319,2.2072926483681405e-06,1.6662408599555405e-06,1.3453530507555083e-06,2.3560053321293926e-06,3.3609708035284268e-06,6.219201792557066e-06,2.5969645022336994e-06,8.156567398517984e-07,2.502762450052274e-06,3.30154759246599e-06,1.0280422227664238e-06,2.0494316949950848e-06,2.9382671088725973e-06,5.97354507587385e-06,1.412094659909844e-06,2.9885596099644097e-06
320,2.235960872696212e-06,1.6608546620058739e-06,1.3355411745233408e-06,2.3624530032228642e-06,3.375938830418983e-06,6.246474472674078e-06,2.636148288238463e-06,8.15661589654508e-07,2.3777598944923137e-06,3.3054237205016775e-06,1.0296665265720646e-06,2.09932528350634e-06,2.9101796065798466e-06,5.9949849040922864e-06,1.4278167718649075e-06,2.8656027955215154e-06
321,2.2630143745414476e-06,1.655041445140756e-06,1.3243758175767871e-06,2.3715397224233957e-06,3.390618240788231e-06,6.266627503729535e-06,2.6697597728067845e-06,8.200694304605186e-07,2.265718613308806e-06,3.304827343169646e-06,1.0326179336204976e-06,2.147277514320917e-06,2.8920608228163854e-06,6.115057284520546e-06,1.4441095166973907e-06,2.744561005876218e-06
322,2.2887894476095473e-06,1.6494121568186996e-06,1.3123505084140536e-06,2.3834836861982807e-06,3.4062164566058035e-06,6.274839418116552e-06,2.6966458804252492e-06,8.287759387452258e-07,2.1666200573238533e-06,3.2994821506501556e-06,1.03652940088277e-06,2.1924374569014107e-06,2.8844753807353077e-06,6.3334143557398484e-06,1.4612279142618013e-06,2.6279166448560086e-06
323,2.313807024467195e-06,1.64438359478951e-06,1.2999115115011549e-06,2.3981301336517384e-06,3.4235039867626966e-06,6.266621865893667e-06,2.715767929957055e-06,8.41585674097985e-07,2.0801172873856206e-06,3.289441872189855e-06,1.0409813250701218e-06,2.2343147960467315e-06,2.8880027286020777e-06,6.648587800263632e-06,1.4792825337543885e-06,2.517735804435918e-06
324,2.3385706636976912e-06,1.640310036240276e-06,1.2874134822020162e-06,2.4150175866939802e-06,3.4426498756140456e-06,6.238557605679575e-06,2.7265305148489714e-06,8.581931007284886e-07,2.005589031971596e-06,3.2750221724780357e-06,1.0455447960997314e-06,2.2730274741232768e-06,2.90309494337065e-06,7.057945348173837e-06,1.4981955103191446e-06,2.415586101195292e-06
325,2.363454234129238e-06,1.6376681603900768e-06,1.275223256506461e-06,2.4334800965636897e-06,3.4633510971199455e-06,6.188712912661153e-06,2.728931539068437e-06,8.781765155540439e-07,1.942224425977367e-06,3.256671494522628e-06,1.049803114787856e-06,2.3093051402753103e-06,2.929937830090962e-06,7.557459322203843e-06,1.5176631394106546e-06,2.3225871336112925e-06
326,2.3887824254138654e-06,1.6371190475104592e-06,1.2638091986377254e-06,2.4527497886362683e-06,3.485067547349447e-06,6.116643191995891e-06,2.7234724049128585e-06,9.010408446169655e-07,1.8892097794297395e-06,3.2348621957080657e-06,1.0533836660461546e-06,2.344268628816945e-06,2.968362697382743e-06,8.141444608380527e-06,1.5371817762435311e-06,2.2395120308157043e-06
327,2.4148535459280143e-06,1.6393497439257607e-06,1.253707200740587e-06,2.4720323931052967e-06,3.5071477797185622e-06,6.023095750389457e-06,2.710885947798144e-06,9.262882885723963e-07,1.8459545163155074e-06,3.2102251786038954e-06,1.0559973888208128e-06,2.379076490775633e-06,3.0177964305613572e-06,8.802413613471408e-06,1.5561454628867937e-06,2.166837038135526e-06
328,2.441778680213848e-06,1.6448823269993e-06,1.2454793809204706e-06,2.490594171259261e-06,3.5287846893299513e-06,5.909607761351259e-06,2.6918214963101003e-06,9.534687621012312e-07,1.812139781601141e-06,3.183762417357629e-06,1.057434314491758e-06,2.414618253293988e-06,3.0772546466418784e-06,9.53105664825215e-06,1.573932067050221e-06,2.104773218453822e-06
