,EMG1,EMG2,EMG3,EMG4,EMG5,EMG6,EMG7,EMG8,EMG9,EMG10,EMG11,EMG12,EMG13,EMG14,EMG15,EMG16
0,1.2196224408528973e-07,4.749959129858642e-07,2.498712881109935e-07,1.8807470592050012e-07,7.636959677541102e-08,2.128417735594691e-07,1.1841407373285568e-06,-3.1445108355900225e-08,5.116940517994324e-07,1.0875400179778533e-07,5.547278641759935e-07,1.3391483491604191e-06,9.75041338496339e-07,1.6275862490089642e-06,2.485936023472346e-07,-3.6639512759846264e-08
1,2.75349276559173e-07,6.57595829327651e-07,3.8811030959472487e-07,2.5408418906612046e-07,4.522192774739739e-07,4.1066970322901245e-07,1.3387987444379121e-06,1.1387766941442973e-07,5.966415671323857e-07,2.581015331544387e-07,7.009437788733145e-07,1.5811204614362031e-06,1.2369072707217846e-06,2.5020274152642344e-06,3.341290341209423e-07,1.5414022650230782e-07
2,4.252939372962542e-07,8.324808995004753e-07,5.209000513743232e-07,3.200454515967213e-07,8.204962311201312e-07,6.080858626675575e-07,1.495810441270788e-06,2.525083787337706e-07,6.857032980175981e-07,4.0828898083007097e-07,8.453182242514774e-07,1.8180340684586894e-06,1.5014316668039148e-06,3.3613330306821754e-06,4.184556452531413e-07,3.3758018961759807e-07
3,5.686911883275515e-07,9.97032714304601e-07,6.458681195600199e-07,3.8500174433475266e-07,1.1772021199928434e-06,8.021462638444342e-07,1.6535349084973372e-06,3.828216207734853e-07,7.777760846398342e-07,5.580491437508771e-07,9.851004952946668e-07,2.0458047759037516e-06,1.7637810761715059e-06,4.191555104293577e-06,4.999780784603767e-07,5.118607341289853e-07
4,7.027927917253604e-07,1.1492169124766704e-06,7.615504490571514e-07,4.4800396768293543e-07,1.5188414440553063e-06,9.904816559980148e-07,1.8104771598648155e-06,5.035286146223074e-07,8.718912145367295e-07,7.061561215463126e-07,1.1177009702387113e-06,2.2608661017099267e-06,2.0197435360283894e-06,4.980838618465013e-06,5.774765169611423e-07,6.75302634480016e-07
5,8.255964703397927e-07,1.2877649162687758e-06,8.673330935779835e-07,5.081945343273175e-07,1.8424934653085746e-06,1.1714840866957328e-06,1.9652127989837e-06,6.137516579706258e-07,9.67226961037348e-07,8.513760866422856e-07,1.2408183033375581e-06,2.460222642105535e-06,2.2661466010010657e-06,5.718722397659464e-06,6.502607060694987e-07,8.263741875343102e-07
6,9.360915513900203e-07,1.4121161300029844e-06,9.631230353422277e-07,5.649596910595461e-07,2.1458418329176916e-06,1.3443490882734315e-06,2.1162466978655208e-06,7.130422251597674e-07,1.063115974123596e-06,9.924393335124425e-07,1.3525529613180987e-06,2.6414861552743712e-06,2.5010678722158545e-06,6.3964030165797816e-06,7.181036902849677e-07,9.636671360539174e-07
7,1.0341286253032655e-06,1.522137890718892e-06,1.0489903899517732e-06,6.180571857193859e-07,2.4271368237795865e-06,1.5089847413374447e-06,2.2620588104155393e-06,8.013322008706074e-07,1.1590284346660333e-06,1.1280789125708864e-06,1.4515335708644524e-06,2.8029182642954824e-06,2.723700536956573e-06,7.007436356642971e-06,7.81035112442303e-07,1.085888928612798e-06
8,1.120044857775879e-06,1.6178467253252083e-06,1.1249504111300221e-06,6.676039412085481e-07,2.685097398215467e-06,1.6657833824896895e-06,2.4013268096280406e-06,8.788220553964529e-07,1.2545150493921382e-06,1.2571702011456325e-06,1.5370049618833854e-06,2.9432642179095338e-06,2.934043725248783e-06,7.547574442195799e-06,8.391695955895793e-07,1.19192276564392e-06
9,1.1943721126991287e-06,1.6993561639585543e-06,1.1909302317058122e-06,7.139205557685433e-07,2.918880528036639e-06,1.8153103593641998e-06,2.533041113639823e-06,9.459018176317805e-07,1.3490998756401104e-06,1.3789121405185811e-06,1.6087486700456497e-06,3.0613533436215078e-06,3.132625922236799e-06,8.013704827287581e-06,8.926451311013013e-07,1.280982428762945e-06
10,1.2577501963483626e-06,1.7669999135494946e-06,1.2468784643969318e-06,7.573642190083852e-07,3.1281254220309665e-06,1.958101653452179e-06,2.6563507436488656e-06,1.003205749992694e-06,1.4421907435532088e-06,1.4928491417861302e-06,1.6668146428250133e-06,3.1558581018343373e-06,3.320217459770288e-06,8.40299093989279e-06,9.416319682640718e-07,1.3527487242083433e-06
11,1.3109599272541256e-06,1.821361773368864e-06,1.2929033409159107e-06,7.98241786716596e-07,3.3129247454522287e-06,2.0946719831591835e-06,2.7702896560839436e-06,1.0517073139031152e-06,1.533103683045299e-06,1.59871491913458e-06,1.7112380233826041e-06,3.225520090899509e-06,3.4975738009333007e-06,8.71331740627306e-06,9.863354007714963e-07,1.4073663457645904e-06
12,1.354929125130485e-06,1.8631325291567843e-06,1.3292966582231304e-06,8.367962641112513e-07,3.4737266112662067e-06,2.2255543065645817e-06,2.8736745697743292e-06,1.0926632538223169e-06,1.62117289425433e-06,1.6963076010007038e-06,1.7419622720785968e-06,3.2696540226771165e-06,3.665396797187729e-06,8.944755349545032e-06,1.0270115969771192e-06,1.4453839269088622e-06
13,1.3906229577870698e-06,1.8930348692450743e-06,1.356420872117795e-06,8.732463277369516e-07,3.6113466916373704e-06,2.351212541603388e-06,2.9652692044030766e-06,1.127427115896468e-06,1.7058053889107973e-06,1.7854353556001918e-06,1.7590063510901276e-06,3.288570543726261e-06,3.82438278769344e-06,9.100587749310956e-06,1.0640163950006011e-06,1.467764181535481e-06
14,1.4189203000574801e-06,1.9119439716271125e-06,1.3746446847243155e-06,9.078458089508071e-07,3.727126654066908e-06,2.471947855677027e-06,3.0440383379186484e-06,1.1573019557674418e-06,1.7864475930663647e-06,1.8658136259787425e-06,1.7626988315229969e-06,3.283762215795898e-06,3.975065086059357e-06,9.186893089001337e-06,1.0977942110814746e-06,1.4758946034460172e-06
15,1.4405805164191666e-06,1.9209924459941887e-06,1.3844816533169857e-06,9.409103024790693e-07,3.823003585596176e-06,2.5879761252587513e-06,3.1093546221489577e-06,1.1834773493459662e-06,1.8625581826993255e-06,1.9369465538630087e-06,1.7537922605747889e-06,3.257843501770994e-06,4.117486146411475e-06,9.210969702108363e-06,1.1287954453622902e-06,1.4714564916203899e-06
16,1.4562621976533033e-06,1.921500508645927e-06,1.3867939781933918e-06,9.72781835185546e-07,3.901256215867785e-06,2.6996624922514143e-06,3.1611365289439556e-06,1.2069992857441336e-06,1.933579080185119e-06,1.998153490664607e-06,1.7333858315900334e-06,3.2142657670272557e-06,4.250940856772847e-06,9.179645177639037e-06,1.1574335615135612e-06,1.4562082487619663e-06
17,1.4666150993533206e-06,1.914836947953175e-06,1.3828271748408784e-06,1.0037714994454568e-06,3.964065694703136e-06,2.8077215804575187e-06,3.19985305065304e-06,1.228744034645967e-06,1.998859982932273e-06,2.0487707674145995e-06,1.7027361519166645e-06,3.156881470206472e-06,4.373933018931413e-06,9.09830630916432e-06,1.1840995489179674e-06,1.4318422474475117e-06
18,1.472449900657243e-06,1.9023399845227982e-06,1.3740504413745933e-06,1.034130791273096e-06,4.0133010312642025e-06,2.9131743971572615e-06,3.2263804756215656e-06,1.2493890416353497e-06,2.0576877124547022e-06,2.088329769844196e-06,1.6631721272742056e-06,3.089510295125707e-06,4.484424003986041e-06,8.970958198958657e-06,1.2091599588305448e-06,1.3999222946320381e-06
19,1.4747902812624638e-06,1.8853025541266712e-06,1.3619352066144994e-06,1.064032544497804e-06,4.050676220311809e-06,3.017089783177629e-06,3.241832111889469e-06,1.269397837182349e-06,2.10948120638001e-06,2.116533654812766e-06,1.616167378166896e-06,3.0156418138421197e-06,4.5803322709635054e-06,8.801117967135932e-06,1.2329267375264113e-06,1.361863570538992e-06
20,1.4747110851829827e-06,1.8649733029543635e-06,1.3477773782162153e-06,1.093570682850482e-06,4.078028202137271e-06,3.120423082404198e-06,3.247456356762966e-06,1.2890603473915225e-06,2.1538589607934603e-06,2.1331600329370823e-06,1.5633425181216007e-06,2.9383014968272567e-06,4.659985285341735e-06,8.592812569068245e-06,1.2556366995215594e-06,1.3189697924833643e-06
21,1.4731394798950213e-06,1.8425313719124818e-06,1.3325987397503189e-06,1.1228177128423088e-06,4.097438572058181e-06,3.2240643981104493e-06,3.2445347185522773e-06,1.3085762995729479e-06,2.1904615358435067e-06,2.138138240241355e-06,1.5062989379601516e-06,2.8600576146136522e-06,4.722307217492877e-06,8.351015656614e-06,1.2774669722304606e-06,1.272474013715015e-06
22,1.4707643774227747e-06,1.8190171347092785e-06,1.3171196092047943e-06,1.1518908339862915e-06,4.111111914133068e-06,3.3287993184222426e-06,3.234192270610698e-06,1.3280852551554121e-06,2.21885359354749e-06,2.131739158147586e-06,1.4464630069753833e-06,2.7831205776614676e-06,4.766846064061803e-06,8.0814424445608e-06,1.298557647665269e-06,1.2235357567528263e-06
23,1.4680211740941046e-06,1.7952744027812035e-06,1.3017811510956987e-06,1.1809846859411974e-06,4.121092875156479e-06,3.4350449622343943e-06,3.2172609874137275e-06,1.3476203273529963e-06,2.2387311651256083e-06,2.1145680257314964e-06,1.3850433565612313e-06,2.7094043965575735e-06,4.793701362292673e-06,7.789910637783336e-06,1.3189714632780033e-06,1.1732200478870676e-06
24,1.4650931163190656e-06,1.771976044002904e-06,1.286835506096915e-06,1.2103812852543088e-06,4.128987410432951e-06,3.5426303589806947e-06,3.1943620834558876e-06,1.367090556584981e-06,2.2502222917849405e-06,2.087292504982685e-06,1.3230223198899875e-06,2.640458408663555e-06,4.803226527837825e-06,7.481619573661651e-06,1.3386101980361407e-06,1.1224790944315872e-06
25,1.4619206394259379e-06,1.7496788082288263e-06,1.2725085863428344e-06,1.2404182771949336e-06,4.13579940242986e-06,3.6508989107720037e-06,3.1660756631823645e-06,1.3863342649061723e-06,2.2539220930901744e-06,2.050348031343789e-06,1.2611544511585795e-06,2.577360812783251e-06,4.795552013207819e-06,7.160869964443112e-06,1.3571885518006312e-06,1.072177344285916e-06
26,1.4582421187482528e-06,1.7288240388074609e-06,1.2591078030861604e-06,1.2714484741683329e-06,4.141899465514196e-06,3.7591292989669325e-06,3.1330293513261396e-06,1.4051546360212195e-06,2.250683151177089e-06,2.0037911109081916e-06,1.2000283605319667e-06,2.5206828988695364e-06,4.770286724613019e-06,6.831435821528576e-06,1.374318653519755e-06,1.0231741172632128e-06
27,1.453734111349727e-06,1.7097485714207393e-06,1.2469592617628796e-06,1.3038343611790362e-06,4.147118898169687e-06,3.8669921409110876e-06,3.0959475272625e-06,1.423309340337657e-06,2.2414519118025267e-06,1.9473049209323394e-06,1.1401659235165404e-06,2.470505712953074e-06,4.7267169804756956e-06,6.497157064957595e-06,1.3896463133961725e-06,9.763788594141366e-07
28,1.448255109496938e-06,1.6927801624596811e-06,1.2362735786038792e-06,1.3379021983910983e-06,4.150920737773162e-06,3.974690748487877e-06,3.0556940086055677e-06,1.4405725520263016e-06,2.2271711485818515e-06,1.8803612838308238e-06,1.0820666370722337e-06,2.426473922304817e-06,4.664424022711119e-06,6.162197740906667e-06,1.4029134372079778e-06,9.327234428164755e-07
29,1.4420063436038489e-06,1.6783128964362684e-06,1.2270949744184384e-06,1.3738420112003213e-06,4.15249503308422e-06,4.082656825099394e-06,3.013234686576882e-06,1.4568948077062125e-06,2.208661700388579e-06,1.8025180015691194e-06,1.0261955846456645e-06,2.3878645303333883e-06,4.58386841092037e-06,5.830911060435813e-06,1.4139614599853003e-06,8.930928891632335e-07
30,1.4354458658901119e-06,1.666730416408365e-06,1.2193652400165816e-06,1.411642727911784e-06,4.150750161838452e-06,4.191014063165462e-06,2.96949344412812e-06,1.4724722829917885e-06,2.1865666566093577e-06,1.7137423650370613e-06,9.730019580963934e-07,2.3536003468063576e-06,4.486512767983804e-06,5.507590204128298e-06,1.4227707198305246e-06,8.582723501261276e-07
31,1.429079911511258e-06,1.6582433325259847e-06,1.2130222562918623e-06,1.4510605921604962e-06,4.144508103045673e-06,4.299160068754935e-06,2.925180014979712e-06,1.4876366855552171e-06,2.1614386824781197e-06,1.6146511863977052e-06,9.229774680106775e-07,2.3222842811003605e-06,4.374522860273619e-06,5.196237127102388e-06,1.4294455537772393e-06,8.289436276775379e-07
32,1.4233594578220194e-06,1.65280162227113e-06,1.2080207304217552e-06,1.4915828774699344e-06,4.1330169250925e-06,4.405613461417136e-06,2.8806735837105728e-06,1.5027503974716093e-06,2.133913879544713e-06,1.5066158188899626e-06,8.766593194156433e-07,2.2923928496957694e-06,4.250434095620909e-06,4.900307859114859e-06,1.4340721959519356e-06,8.057078257949421e-07
33,1.4186774304863487e-06,1.6501016321186133e-06,1.2043167591042557e-06,1.5323955575661033e-06,4.116315479621504e-06,4.508017720113258e-06,2.8359765150828386e-06,1.5182166774850525e-06,2.104786767245952e-06,1.3916927841799558e-06,8.345500365588781e-07,2.262549259675468e-06,4.116952611696565e-06,4.6224853652079605e-06,1.4366270380589045e-06,7.890759317448122e-07
34,1.415326440562708e-06,1.6496279210696752e-06,1.201904861480321e-06,1.5723905323156281e-06,4.095103849585948e-06,4.603222001191512e-06,2.7907469413015066e-06,1.5344614724339346e-06,2.07492321895505e-06,1.2723624578480684e-06,7.97054306195305e-07,2.23169389627419e-06,3.976789918530415e-06,4.364652474483347e-06,1.4371033623679773e-06,7.794328554097149e-07
35,1.413417784257274e-06,1.6507808498861568e-06,1.20081632291763e-06,1.6102787258191269e-06,4.07034754548858e-06,4.68754725797175e-06,2.7444462469033325e-06,1.5518118722576778e-06,2.045133170686466e-06,1.151186146501328e-06,7.645044773983986e-07,2.199121099541078e-06,3.832502485250464e-06,4.128124677434651e-06,1.4357627369079795e-06,7.770228944620886e-07
36,1.4128404810259781e-06,1.6531013217899566e-06,1.201043028876404e-06,1.6447967035727757e-06,4.042910441762108e-06,4.757302265906145e-06,2.6965419174666345e-06,1.5704022291250373e-06,2.0160492780204017e-06,1.0305800781304605e-06,7.372092443626291e-07,2.1644856796086038e-06,3.68635804701394e-06,3.913894223217521e-06,1.4332642693830393e-06,7.819572266911673e-07
37,1.4132961325054905e-06,1.6563787921335503e-06,1.2025308441392126e-06,1.6748640780952543e-06,4.013268785084983e-06,4.8093134723762525e-06,2.646597383601498e-06,1.590207197718325e-06,1.988015411136704e-06,9.127773723225996e-07,7.154358523148463e-07,2.1278408644873736e-06,3.5402310003282776e-06,3.7225697600307424e-06,1.4305370688382159e-06,7.942221461871668e-07
38,1.4144090152339562e-06,1.6605055231359963e-06,1.205289499830401e-06,1.6996169716026394e-06,3.981398843043321e-06,4.8410310780120086e-06,2.594195504985584e-06,1.6111126961429106e-06,1.9610529747306325e-06,7.998712999776704e-07,6.99346611384344e-07,2.089654710308745e-06,3.395657829913306e-06,3.5541210948791173e-06,1.4285021974979713e-06,8.136852229239642e-07
39,1.4158459735563353e-06,1.665284414570009e-06,1.2094821430174065e-06,1.7184335718255366e-06,3.946996932716993e-06,4.850134813439366e-06,2.5387989608617715e-06,1.632911544328853e-06,1.934955120082598e-06,6.938359433947432e-07,6.889623247057272e-07,2.0507408474119525e-06,3.2540690926293616e-06,3.4077917245117284e-06,1.427854800487796e-06,8.401066751247648e-07
40,1.417383643490963e-06,1.6703957855302733e-06,1.21536675879786e-06,1.7310664926954331e-06,3.909924534981853e-06,4.834324817505367e-06,2.479647139438384e-06,1.655316100757943e-06,1.9094454055091855e-06,5.965410670939449e-07,6.841659978836749e-07,2.012099222530567e-06,3.1168919421446236e-06,3.282234961570829e-06,1.4289963222043499e-06,8.731750350642803e-07
41,1.4189070386684392e-06,1.6754396017335926e-06,1.2231419183873022e-06,1.737794009365716e-06,3.870558910292172e-06,4.791903656687706e-06,2.4158483486689314e-06,1.6781042969052175e-06,1.8842571831853388e-06,5.0981408043887e-07,6.8471082992941e-07,1.9746984629974864e-06,2.9854295961029903e-06,3.1756629413500547e-06,1.4320600563424315e-06,9.125498615294496e-07
42,1.4203167011176583e-06,1.6799859989457396e-06,1.232880854404113e-06,1.7394072150526317e-06,3.829864359293484e-06,4.722746076129947e-06,2.3467898830649936e-06,1.7012543401174122e-06,1.859161340079964e-06,4.355117862766748e-07,6.902182209820778e-07,1.9392840294616476e-06,2.8607792184532405e-06,3.085876453920506e-06,1.436976568751819e-06,9.57863084806463e-07
43,1.4213850003009392e-06,1.6836787537776887e-06,1.2446149165440086e-06,1.7369973842374156e-06,3.7892351294142325e-06,4.62885181283394e-06,2.2726181203368766e-06,1.724874984907804e-06,1.8340542645952315e-06,3.755283353648359e-07,7.001889395545412e-07,1.9063057901378812e-06,2.743840351990922e-06,3.0102250081418684e-06,1.4435829065077034e-06,1.0087022514401727e-06
44,1.4216939084919807e-06,1.6862944085311893e-06,1.258413855085739e-06,1.7316786266648642e-06,3.750275736577689e-06,4.514173318473652e-06,2.1943985656789616e-06,1.7489946544577288e-06,1.8089895949917472e-06,3.317671461422412e-07,7.140346411882859e-07,1.8759498903628999e-06,2.6353072814811533e-06,2.9456904094183706e-06,1.4517168344770728e-06,1.064614592876117e-06
45,1.420747839014345e-06,1.6877180098592037e-06,1.2743361243270316e-06,1.7243813665922938e-06,3.7146547329771307e-06,4.383926413852108e-06,2.1138990367300006e-06,1.7734187565783e-06,1.7840604284661777e-06,3.0615343467874994e-07,7.311174724445136e-07,1.8482245013514738e-06,2.5357044645759856e-06,2.8893068614514023e-06,1.4612015067939223e-06,1.1251087826073628e-06
46,1.4181790793166362e-06,1.6879752569069654e-06,1.2923103178162733e-06,1.715778338842698e-06,3.6840642687624444e-06,4.243756549908519e-06,2.0332075385625268e-06,1.7977884196901048e-06,1.7592506238727668e-06,3.0066993499039584e-07,7.507874043033878e-07,1.8231270013657486e-06,2.445475676553771e-06,2.8388495345239667e-06,1.47177543863389e-06,1.189655695898908e-06
47,1.4138347615621157e-06,1.6872605033424731e-06,1.3120602958428232e-06,1.7063506728182985e-06,3.6602031218251286e-06,4.0990748470741766e-06,1.954378456979e-06,1.8217874035549311e-06,1.7343394150106718e-06,3.1736725723552656e-07,7.723866405078776e-07,1.8008613993826326e-06,2.3650309518867083e-06,2.7933848247490103e-06,1.483069457338361e-06,1.2576932954444072e-06
48,1.4077133945383891e-06,1.6858002003242964e-06,1.3331211470914217e-06,1.696520334254103e-06,3.6446479923807835e-06,3.9547506648695915e-06,1.8792149696821535e-06,1.8452625547680647e-06,1.7089111958217148e-06,3.5839576543811315e-07,7.952178796774624e-07,1.7819604114890547e-06,2.2947162025260917e-06,2.7533961014062755e-06,1.494636147575687e-06,1.3285925959950577e-06
49,1.3999175467896135e-06,1.6836907617814507e-06,1.3549564617963066e-06,1.6867303997382338e-06,3.6386101069553716e-06,3.8151126103894606e-06,1.8092062368905081e-06,1.8681535937312068e-06,1.6825284220973632e-06,4.2608411988633594e-07,8.185139507427076e-07,1.7672341017053194e-06,2.2346925815308686e-06,2.7205199304103613e-06,1.5060392527963145e-06,1.4016017866017989e-06
50,1.3906360348017823e-06,1.6809092345387673e-06,1.377113352775951e-06,1.6774102471272837e-06,3.642733196500076e-06,3.684036212093082e-06,1.7455416374841477e-06,1.8904553570091015e-06,1.6549089709677453e-06,5.229654414210589e-07,8.414249067811725e-07,1.757597828123188e-06,2.1847785894395186e-06,2.6970222646848207e-06,1.5169674346835277e-06,1.475827503404185e-06
51,1.3800820855444491e-06,1.677416008995289e-06,1.399268671547939e-06,1.6688581758706762e-06,3.6570139105739124e-06,3.5649732855188205e-06,1.6891398400988555e-06,1.912326567385574e-06,1.625888674095405e-06,6.517181016906679e-07,8.630661203390458e-07,1.7538971639818506e-06,2.14440233681263e-06,2.6852814792897515e-06,1.5272453022109588e-06,1.5502322028067721e-06
52,1.368436797915191e-06,1.6731787454935204e-06,1.421110151247676e-06,1.661145308634612e-06,3.6808318146828386e-06,3.4609102034452056e-06,1.6406885911336294e-06,1.934096875713976e-06,1.595325738435688e-06,8.151221825572561e-07,8.826736209015221e-07,1.7568355556465792e-06,2.1127724365926248e-06,2.6876203155877867e-06,1.536703979028528e-06,1.6236302724911556e-06
53,1.355817406915775e-06,1.6681295095297435e-06,1.4421721249921818e-06,1.6540941147518252e-06,3.7130698607742284e-06,3.3743029105696917e-06,1.6006597257191846e-06,1.9560438948952005e-06,1.5632003491178848e-06,1.0160509997264702e-06,8.997649653772408e-07,1.7669695615900461e-06,2.0892052016257083e-06,2.706434625370989e-06,1.5450488088111777e-06,1.6947643017552898e-06
54,1.3422848044159243e-06,1.6622099918722532e-06,1.4617667934102878e-06,1.6473043339877239e-06,3.7522232345079107e-06,3.307023770452885e-06,1.5692749165420443e-06,1.978179496134719e-06,1.5297513026159284e-06,1.2574263650104414e-06,9.141353744040309e-07,1.7846510387872692e-06,2.0733199384715185e-06,2.7442088140450053e-06,1.5518710615872897e-06,1.7625134623461815e-06
55,1.3279629595456936e-06,1.6555301670839189e-06,1.4790290309920878e-06,1.640249376337042e-06,3.796409034098804e-06,3.260308153808208e-06,1.5464921332427754e-06,2.0002708845427575e-06,1.4954092418369002e-06,1.5421627237329364e-06,9.256970440319324e-07,1.8099365241951208e-06,2.06489718708255e-06,2.803262101372222e-06,1.5567625027658342e-06,1.826079056208929e-06
56,1.3131775574493052e-06,1.6484539016198989e-06,1.4930229857610241e-06,1.6324732351339335e-06,3.843390679638564e-06,3.234725958463239e-06,1.5320785947814215e-06,2.022018200037702e-06,1.4606306851192968e-06,1.8731783710431639e-06,9.343607779496984e-07,1.8425878064426774e-06,2.063589501599881e-06,2.885485856327653e-06,1.5594240183263007e-06,1.884935143278823e-06
57,1.298439229541207e-06,1.641486916255654e-06,1.502907810901208e-06,1.6237999076371212e-06,3.890820224686493e-06,3.2302120785048884e-06,1.5257285493091539e-06,2.0431407370695074e-06,1.4258473709616863e-06,2.253459012349798e-06,9.40087378269871e-07,1.882169490301454e-06,2.0687714996295217e-06,2.9922802902676578e-06,1.559791213279217e-06,1.9386259481822972e-06
58,1.2843278496770583e-06,1.6350774307890378e-06,1.508165520767761e-06,1.6144201975852556e-06,3.936616652988702e-06,3.2461162687653394e-06,1.5271430359292041e-06,2.0632744637461683e-06,1.3915602416672058e-06,2.6860756434643785e-06,9.430052772756897e-07,1.928104784574438e-06,2.0795541846353346e-06,3.1246099230689013e-06,1.5581432596192832e-06,1.9866288715112593e-06
59,1.2714192419166726e-06,1.6295264707130011e-06,1.5087790717250378e-06,1.6048200362481704e-06,3.979147245196152e-06,3.2812809945648313e-06,1.5360528278757417e-06,2.0818461241725785e-06,1.3584495700337462e-06,3.174062817726205e-06,9.434331095983022e-07,1.979601236966462e-06,2.0948718284399844e-06,3.2831124291193533e-06,1.5550323966664954e-06,2.028272173181468e-06
60,1.2602271906494013e-06,1.6250521211256137e-06,1.5052172657149486e-06,1.5956243673277177e-06,4.017164985325494e-06,3.3341948068847994e-06,1.5522225712372302e-06,2.098074209916279e-06,1.3274001365510486e-06,3.720203045962697e-06,9.417892771980521e-07,2.035559513108467e-06,2.113623310145926e-06,3.4682739337880508e-06,1.551044895715876e-06,2.062651406098466e-06
61,1.2511623544730387e-06,1.621845683343543e-06,1.4982266129775335e-06,1.5874358007977592e-06,4.049724898634008e-06,3.4031060848862177e-06,1.575447183337069e-06,2.111017794844709e-06,1.2994736516925134e-06,4.326924538923057e-06,9.384710087739145e-07,2.0946318324485896e-06,2.1347872804836574e-06,3.6804886701918203e-06,1.5466096596789354e-06,2.088700539261947e-06
62,1.2446226680256047e-06,1.6199980290736447e-06,1.4885709983580076e-06,1.58073615024908e-06,4.076115379684351e-06,3.485930910812268e-06,1.6055038702014435e-06,2.119617087939005e-06,1.275860319563063e-06,4.996428238151524e-06,9.337754169694784e-07,2.155433577490395e-06,2.157428320611848e-06,3.919840065407218e-06,1.542021155435319e-06,2.1055323781541015e-06
63,1.2411777897928236e-06,1.6194105375771129e-06,1.4768903389603976e-06,1.5758749640887524e-06,4.095682581132902e-06,3.580036564210599e-06,1.6420486693834863e-06,2.1228382312546906e-06,1.2577914295558266e-06,5.730898949729233e-06,9.279023159051764e-07,2.2167729779956544e-06,2.1807986306994513e-06,4.185770596182555e-06,1.5376309656936798e-06,2.1128446372781313e-06
64,1.2416479916478945e-06,1.61983220697724e-06,1.4637309867623072e-06,1.5730689194564991e-06,4.107551151286846e-06,3.6821472380281693e-06,1.6845168958185255e-06,2.1199200849400887e-06,1.2464428692858317e-06,6.532557452992848e-06,9.210372467237274e-07,2.277766111790542e-06,2.2046910097565865e-06,4.476874891651352e-06,1.533974417333508e-06,2.1111002407060553e-06
65,1.2469815235553496e-06,1.620971744587446e-06,1.4496266577332164e-06,1.5723940994853728e-06,4.110477399065225e-06,3.788416125633836e-06,1.7320727034953109e-06,2.1105602243117944e-06,1.2428648621765812e-06,7.403473650828796e-06,9.134511497967649e-07,2.3378254484252566e-06,2.2296864047200066e-06,4.7908937087440174e-06,1.5316781859088166e-06,2.1014230454149263e-06
66,1.2580499683627796e-06,1.6225886713569668e-06,1.4351199975446427e-06,1.5738143902687136e-06,4.103126996380744e-06,3.894483301296243e-06,1.7835838030555598e-06,2.094933872384774e-06,1.2479541024456826e-06,8.34534152812911e-06,9.055287063748429e-07,2.396613230809831e-06,2.2569411423590923e-06,5.124842670461807e-06,1.5312613596816442e-06,2.0853106070286126e-06
67,1.2755131839954596e-06,1.6245409080672659e-06,1.4207283997842915e-06,1.5772036028631478e-06,4.084669510177861e-06,3.99550875655055e-06,1.837653962509067e-06,2.073531720867058e-06,1.2624943447637618e-06,9.35950536545069e-06,8.976996016160296e-07,2.4540007818351e-06,2.287754842497876e-06,5.4750728585242565e-06,1.5330127388441067e-06,2.0642778284988714e-06
68,1.29977158793371e-06,1.6267542647450552e-06,1.4068760899476433e-06,1.5823786294877954e-06,4.055104684070241e-06,4.086404442801978e-06,1.8928257757382611e-06,2.046944347420189e-06,1.287243243883213e-06,1.0447187080764415e-05,8.90343338322974e-07,2.509998610614635e-06,2.3232949493963e-06,5.837203646535662e-06,1.5369834564078857e-06,2.039569370609029e-06
69,1.3309741403261566e-06,1.6291047953073287e-06,1.3938261013617166e-06,1.5891942301311556e-06,4.014961641055253e-06,4.1623276857256695e-06,1.9479443334839965e-06,2.0158290771922893e-06,1.3229995241588012e-06,1.1609494272739948e-05,8.837560373738913e-07,2.5646560343881945e-06,2.3644861129936412e-06,6.2061977021419385e-06,1.5430308298750661e-06,2.012035375461513e-06
70,1.3690664149319305e-06,1.6313155016896595e-06,1.3816540237717747e-06,1.5975881598265065e-06,3.964794164297411e-06,4.219263594134845e-06,2.0024821681050986e-06,1.981062703317842e-06,1.3706294997951433e-06,1.28470065828987e-05,8.781669094788962e-07,2.617982368518429e-06,2.412009612943521e-06,6.576743974074565e-06,1.5508350427691962e-06,1.982158305971327e-06
71,1.413835199533073e-06,1.633001773567673e-06,1.370243184729304e-06,1.6074860190654545e-06,3.905148268871876e-06,4.254535020466937e-06,2.0566091165015472e-06,1.943808906455067e-06,1.4310619822535065e-06,1.4159231160012497e-05,8.737227035754376e-07,2.66991270722749e-06,2.466405370556135e-06,6.943715377511566e-06,1.5598609617767659e-06,1.9502026608889567e-06
72,1.4649066546746852e-06,1.6338740567677835e-06,1.3592949679484293e-06,1.6186553868172273e-06,3.837042937856357e-06,4.2670778828752495e-06,2.1109621598077686e-06,1.9053616068364385e-06,1.5052329678080138e-06,1.554419823421795e-05,8.704383391928381e-07,2.720275505825708e-06,2.5281084037263317e-06,7.302457891280084e-06,1.5693188517324241e-06,1.916451439459702e-06
73,1.5217396511226871e-06,1.6338856957114889e-06,1.3484235795258607e-06,1.6306184879524074e-06,3.7623794757382218e-06,4.257233420341354e-06,2.1662818256593753e-06,1.8669019265285965e-06,1.5939853045518385e-06,1.699807550571296e-05,8.681828149480448e-07,2.7687021030623196e-06,2.59734275810767e-06,7.648966072150528e-06,1.5781641111889181e-06,1.8814227985971644e-06
74,1.5837086800217363e-06,1.6331488595290642e-06,1.3373319191499798e-06,1.6426461494352885e-06,3.68380148482059e-06,4.226055135759257e-06,2.2231200073454202e-06,1.8293681228024506e-06,1.6980291223394667e-06,1.851465604214566e-05,8.667119509648361e-07,2.8145157377719915e-06,2.6740519099560095e-06,7.980056813305687e-06,1.5851353834467457e-06,1.8459373784636887e-06
75,1.6502628710151826e-06,1.631821317351731e-06,1.3259378558756846e-06,1.6538582792357681e-06,3.604104646758476e-06,4.174718828822991e-06,2.2816938568523297e-06,1.793502081702157e-06,1.8180789785823987e-06,2.0084869823332e-05,8.656975954645977e-07,2.856797961126979e-06,2.757981156274591e-06,8.29339843042206e-06,1.588885246898497e-06,1.8109821604524191e-06
76,1.7210324556317271e-06,1.6301989188565872e-06,1.3143641347401128e-06,1.6633977073700603e-06,3.525673504977659e-06,4.104608300436336e-06,2.3418967702359193e-06,1.7599396933353969e-06,1.9550720989877488e-06,2.1696467807686306e-05,8.647285405082106e-07,2.8947429225384996e-06,2.8488138658377435e-06,8.587098947390904e-06,1.5882328166296059e-06,1.7774653023630507e-06
77,1.7958343374097115e-06,1.6288277675096866e-06,1.3028498198812516e-06,1.6705105261253986e-06,3.4503100916791363e-06,4.017833156089115e-06,2.4034077444927033e-06,1.7291965619687133e-06,2.1102313582328576e-06,2.3333790907952132e-05,8.633245053097477e-07,2.9280697038967376e-06,2.9462257633399747e-06,8.858854167797205e-06,1.5823723887296726e-06,1.7460466622647227e-06
78,1.8746355529370946e-06,1.6283965970142488e-06,1.291667288641103e-06,1.6745611994505948e-06,3.3794505059217234e-06,3.91752101875277e-06,2.465737202201603e-06,1.7016071042604833e-06,2.2849082593081298e-06,2.4977477194605586e-05,8.610217830856441e-07,2.9571732714083473e-06,3.0497945209914872e-06,9.105147202181991e-06,1.57085242107424e-06,1.7171108059066577e-06
79,1.957472875191342e-06,1.6295129732596825e-06,1.2810430861545586e-06,1.6752051055394324e-06,3.314462687195846e-06,3.8075790007427965e-06,2.5282194558980923e-06,1.677339199012301e-06,2.480339849632191e-06,2.6603959613770867e-05,8.575167326106814e-07,2.9829688594190415e-06,3.1588089247882585e-06,9.321002866031022e-06,1.553488402458562e-06,1.6907843384148786e-06
80,2.044291790329847e-06,1.6325814809324244e-06,1.271070095593155e-06,1.672638880256064e-06,3.2566965198787715e-06,3.69208346739317e-06,2.59011375959147e-06,1.6564557499928652e-06,2.6974807065608786e-06,2.818501866402802e-05,8.527634292148948e-07,3.006645968761763e-06,3.2720984309184154e-06,9.500359761418214e-06,1.5304702850986242e-06,1.6669495045515746e-06
81,2.134779497092629e-06,1.6378330871040646e-06,1.2616670435594014e-06,1.6676319118283438e-06,3.207248918525896e-06,3.574690147925397e-06,2.6507456307290985e-06,1.6389299370254715e-06,2.936955905163017e-06,2.9689273912746238e-05,8.469437535835605e-07,3.0295394142092705e-06,3.3879320792823476e-06,9.636909170264128e-06,1.5024965185919228e-06,1.6453319756631002e-06
82,2.2282981900845677e-06,1.645406730188544e-06,1.2526338691380552e-06,1.6612790884606538e-06,3.166710865525163e-06,3.458351752145013e-06,2.7094848464383768e-06,1.6246137161565421e-06,3.1990869194328877e-06,3.108800627415882e-05,8.403745814097959e-07,3.0530854816735058e-06,3.504054586796607e-06,9.72528260631585e-06,1.4706732962128211e-06,1.6256724438679988e-06
83,2.323923436517733e-06,1.6553794729858383e-06,1.2437361656401545e-06,1.654662022219883e-06,3.135108291066254e-06,3.345369685895528e-06,2.7655529794522576e-06,1.6132686964516784e-06,3.4839697868489035e-06,3.2363855975250595e-05,8.334559988216162e-07,3.0786870789943504e-06,3.61804165337617e-06,9.76228134487345e-06,1.4363059422502822e-06,1.6078235545927382e-06
84,2.420489127048383e-06,1.6677471815277503e-06,1.23473010454264e-06,1.648620129320733e-06,3.1120075943238993e-06,3.237696610858663e-06,2.8178414781296264e-06,1.604676911198825e-06,3.7915029541788272e-06,3.3516637884706016e-05,8.266266335191936e-07,3.1074605515204256e-06,3.727914063404428e-06,9.747567972338606e-06,1.4007802350400873e-06,1.5916505338143057e-06
85,2.516540669716469e-06,1.6824616747742718e-06,1.2253784865182663e-06,1.643695525291489e-06,3.096702582678405e-06,3.1372967064495828e-06,2.864883568119256e-06,1.5986617123272252e-06,4.121258979041206e-06,3.4562109638027944e-05,8.20276619349638e-07,3.1400058874837887e-06,3.832594415677329e-06,9.683420976487487e-06,1.3654922827905033e-06,1.5768719801832794e-06
86,2.6102702759377274e-06,1.6995545404573455e-06,1.2155086616803352e-06,1.6401774209502264e-06,3.0883674460430244e-06,3.046247973675161e-06,2.9049450514707135e-06,1.5949653794901706e-06,4.472302965158052e-06,3.5524870872104445e-05,8.146740142263458e-07,3.1763290120725536e-06,3.931854572892413e-06,9.573737478861268e-06,1.33174528842123e-06,1.5630817378087162e-06
87,2.6995584079791794e-06,1.7191880988821698e-06,1.2050231202516257e-06,1.6381901100474321e-06,3.0860221689388176e-06,2.966502583541335e-06,2.936163751190467e-06,1.5931523469375545e-06,4.843050710412611e-06,3.6430156832252556e-05,8.099399668628032e-07,3.2159730351021377e-06,4.025774436161006e-06,9.422843583424913e-06,1.3006488874873462e-06,1.549973292752413e-06
88,2.782068301441882e-06,1.7415182961584393e-06,1.193810963686095e-06,1.6378350606076936e-06,3.0883847749306203e-06,2.8995945820814585e-06,2.9567833715019603e-06,1.5926519615023658e-06,5.23117653312798e-06,3.729950458354309e-05,8.060545086728993e-07,3.25829055956967e-06,4.114102057802163e-06,9.234526408949412e-06,1.2730732505305455e-06,1.5375543198155467e-06
89,2.855352236511545e-06,1.7665075713305419e-06,1.1816573120471823e-06,1.6392944774030974e-06,3.093847621671219e-06,2.8465435458893288e-06,2.9655134427663358e-06,1.5928948260846018e-06,5.6336081128582616e-06,3.8151333465881855e-05,8.028881739115503e-07,3.3026590534115947e-06,4.195952284523287e-06,9.011481898978755e-06,1.2496406711654127e-06,1.5261819547479613e-06
90,2.9171060617864958e-06,1.7938473004553413e-06,1.1682605161851485e-06,1.6427766568947505e-06,3.100608039081101e-06,2.8078877692387107e-06,2.961881605971022e-06,1.5934086207466064e-06,6.046522653835932e-06,3.900227138665434e-05,8.002528688255374e-07,3.348511714058467e-06,4.269952913665265e-06,8.755453309687904e-06,1.2307155643647689e-06,1.516447817404126e-06
91,2.9656547167306014e-06,1.8229749824991733e-06,1.1533530005972506e-06,1.6484276040202707e-06,3.1068404964069705e-06,2.783684323842948e-06,2.946333150765061e-06,1.593767314644095e-06,6.4652561513978815e-06,3.986555143649866e-05,7.979573983385184e-07,3.395229670542693e-06,4.334636504578237e-06,8.468103533581384e-06,1.2163979998949038e-06,1.5090183755139257e-06
92,3.0004601379316435e-06,1.8531534354877574e-06,1.1368366793144127e-06,1.6563544385082442e-06,3.11089449191742e-06,2.773462413666765e-06,2.919951991405183e-06,1.5934812432255313e-06,6.884214358522037e-06,4.0748153253622734e-05,7.95844127768286e-07,3.4420101413470502e-06,4.388739156844236e-06,8.152056713698088e-06,1.206566947790265e-06,1.504502065098675e-06
93,3.0222770971765717e-06,1.8835915970581759e-06,1.1188235598011765e-06,1.6666366194298692e-06,3.11148530036413e-06,2.776234916555128e-06,2.8840535683027158e-06,1.5919933615062978e-06,7.296872738605878e-06,4.16505850105481e-05,7.937905051916917e-07,3.4878366485193018e-06,4.431140125487394e-06,7.811472868840759e-06,1.2009997631282686e-06,1.5033685611190916e-06
94,3.032812762640217e-06,1.9134898157968153e-06,1.0995435823519068e-06,1.679234657233958e-06,3.1076851765559043e-06,2.790624719985636e-06,2.840089013165859e-06,1.5887536272749623e-06,7.696112786997287e-06,4.257068724491243e-05,7.917280380897124e-07,3.531650541194254e-06,4.460594872840094e-06,7.451868618951857e-06,1.1994914930800364e-06,1.505904507992701e-06
95,3.034127095537343e-06,1.9419486656092892e-06,1.0792646510537338e-06,1.693929241357431e-06,3.0986517560219496e-06,2.815009738852156e-06,2.789873130600525e-06,1.5832276526656498e-06,8.075249575522097e-06,4.350952115242513e-05,7.89707087336786e-07,3.5726711420726397e-06,4.475702372607285e-06,7.079278323390575e-06,1.2018539603532131e-06,1.5122158184853885e-06
96,3.0281058613644006e-06,1.967913485556523e-06,1.0583498367035905e-06,1.710371500214352e-06,3.0834641955481904e-06,2.8475359371200835e-06,2.73570740686001e-06,1.5748137305630404e-06,8.429385755300356e-06,4.447551765556147e-05,7.879072745030065e-07,3.6106689250530334e-06,4.475181071569351e-06,6.699382317874359e-06,1.2078162870419519e-06,1.5222889906205536e-06
97,3.016170304321427e-06,1.9902955210796118e-06,1.037330933193254e-06,1.7281719225292152e-06,3.061373237341084e-06,2.8860203365114165e-06,2.680195868104041e-06,1.5627986757251208e-06,8.756083298658146e-06,4.548401431372919e-05,7.865359419562698e-07,3.646059004314394e-06,4.458129691049976e-06,6.3171729413345275e-06,1.216945976501904e-06,1.5360341227874303e-06
98,2.999231684553045e-06,2.0080900065141505e-06,1.016870239208553e-06,1.7469656845442636e-06,3.032172297326535e-06,2.9279456840790363e-06,2.6259370253437836e-06,1.5464941890963262e-06,9.054840038726105e-06,4.655247844676215e-05,7.857110033810772e-07,3.6798270033662263e-06,4.424134799075044e-06,5.936927872627508e-06,1.22864232224003e-06,1.5532509176409174e-06
99,2.977815602868806e-06,2.0203334914908e-06,9.976494235189595e-07,1.7664635465174391e-06,2.996261277411526e-06,2.970656569123583e-06,2.575262201248563e-06,1.525506288849184e-06,9.325793307298827e-06,4.7694282802646204e-05,7.854152912717719e-07,3.713340680382697e-06,4.373347319573665e-06,5.562053245677176e-06,1.2422069696541328e-06,1.573580555839416e-06
100,2.9522609069031107e-06,2.026123245496388e-06,9.802526573456827e-07,1.7865201939456602e-06,2.9543753909182654e-06,3.0116626474308433e-06,2.5300496847384015e-06,1.4999180062199407e-06,9.568634022233114e-06,4.891417210305829e-05,7.855234261528875e-07,3.748082783536011e-06,4.306589606790286e-06,5.194901221641035e-06,1.2569620710064118e-06,1.596485853456151e-06
101,2.9229140851863813e-06,2.0249087027625536e-06,9.650887591165006e-07,1.8072175213666869e-06,2.9073051668900787e-06,3.0488688993228365e-06,2.4916247480581416e-06,1.470230405680774e-06,9.782556389736074e-06,5.0206505535214513e-05,7.858766786378952e-07,3.78533722984688e-06,4.2254361297063834e-06,4.836945820920337e-06,1.2723122338742433e-06,1.6212303028015416e-06
102,2.8902219998240506e-06,2.0168520308572486e-06,9.52391815171258e-07,1.8288789269736133e-06,2.855921693747731e-06,3.0805535340579184e-06,2.460761165263769e-06,1.4371288171705749e-06,9.967051889057964e-06,5.1555406367105856e-05,7.86349974236868e-07,3.825882538775282e-06,4.132159794045847e-06,4.489405786214474e-06,1.2876992057354782e-06,1.646873837424865e-06
103,2.8546809735235336e-06,2.0029295469942224e-06,9.42305284078124e-07,1.851933683207991e-06,2.8013619257715236e-06,3.1051435624157136e-06,2.437766695736198e-06,1.4013222557740625e-06,1.0122499241477601e-05,5.2935871451387323e-05,7.868748821204611e-07,3.86978236683765e-06,4.029422396569466e-06,4.153827264260035e-06,1.3025682586216219e-06,1.6723414886985472e-06
104,2.816749667133448e-06,1.984683619035892e-06,9.350076534869112e-07,1.8767110472153362e-06,2.7449859533102285e-06,3.121191071195275e-06,2.4225851869587703e-06,1.3636166434716935e-06,1.0249866548253424e-05,5.4314870908071004e-05,7.874413611450727e-07,3.916335321555376e-06,3.919759570287638e-06,3.832059072726529e-06,1.3164077461831132e-06,1.6965795526882921e-06
105,2.776825032571457e-06,1.9637882380185314e-06,9.30809819484492e-07,1.90331654509304e-06,2.6881439668408426e-06,3.1277455851498924e-06,2.4148311933735065e-06,1.3250559341882915e-06,1.0349804785114315e-05,5.5652264620616274e-05,7.881000664707744e-07,3.964177312849724e-06,3.8051634491798296e-06,3.5257814426682772e-06,1.32876174727485e-06,1.7187289950689826e-06
106,2.735210788071298e-06,1.9416867630161838e-06,9.301698084161996e-07,1.931590540140467e-06,2.632108556571137e-06,3.124750979502639e-06,2.413763237668556e-06,1.2868808836862597e-06,1.0421911325571234e-05,5.690398941398721e-05,7.889956853920456e-07,4.011526377135965e-06,3.6869575920161346e-06,3.236217527460364e-06,1.3392837010481565e-06,1.7381868160663055e-06
107,2.69199518515918e-06,1.919454307042262e-06,9.336203016622909e-07,1.9610638480728066e-06,2.578214388771321e-06,3.1131058785094177e-06,2.4183268310353833e-06,1.2503506089176142e-06,1.0464835382276277e-05,5.802863816114513e-05,7.904022725656746e-07,4.056524097459092e-06,3.5658991653352106e-06,2.964242276687297e-06,1.347930419011339e-06,1.7545222823074588e-06
108,2.646958030444435e-06,1.8978653334254075e-06,9.416684721321909e-07,1.9909375915036606e-06,2.5279134209062435e-06,3.0944283493562745e-06,2.4273337350834346e-06,1.2166146369521776e-06,1.0477291301074816e-05,5.89933369138659e-05,7.926570418085017e-07,4.097527121642041e-06,3.442480708460821e-06,2.710574710615025e-06,1.3550483040589226e-06,1.7673667796922625e-06
109,2.5996868478180196e-06,1.877557499266144e-06,9.54743731716844e-07,2.020136455192109e-06,2.4825978109441403e-06,3.0706934155334648e-06,2.4396654936029153e-06,1.1866574446234042e-06,1.0458986619825674e-05,5.977402946053642e-05,7.960276865767018e-07,4.133233960805111e-06,3.317362218966157e-06,2.475761034662915e-06,1.3611603992222562e-06,1.776394568858852e-06
110,2.5498259094582067e-06,1.859159909050367e-06,9.731840345376084e-07,2.0473799320890263e-06,2.443352887578643e-06,3.0438476300650582e-06,2.4544024191539763e-06,1.1612783745754669e-06,1.0410420132169457e-05,6.0350726161005014e-05,8.00651226924118e-07,4.162690624166534e-06,3.191654510958349e-06,2.2600548071136157e-06,1.3666816009328534e-06,1.781400961339631e-06
111,2.497175061950879e-06,1.8432807364969729e-06,9.972038869489072e-07,2.0712980859654063e-06,2.4108684505581737e-06,3.015511653845357e-06,2.4708956922629804e-06,1.1411211837128333e-06,1.0332343936826051e-05,6.070574929679556e-05,8.065458921332719e-07,4.185300167455128e-06,3.06689533914838e-06,2.063448830294084e-06,1.3718023539460302e-06,1.782410173431952e-06
112,2.441559819362053e-06,1.8303598695598728e-06,1.0268574676920613e-06,2.090716877755423e-06,2.3855591395087566e-06,2.986881842960605e-06,2.488775597042086e-06,1.1267122489957284e-06,1.022614292833666e-05,6.083196919991302e-05,8.136213700946953e-07,4.2008742306139225e-06,2.944885921836686e-06,1.8858658212929589e-06,1.3765058907314524e-06,1.7797498792873137e-06
113,2.382743087277242e-06,1.8205259598208906e-06,1.0620324946624087e-06,2.1049945169681127e-06,2.3677353676616376e-06,2.958768550523237e-06,2.507820309205816e-06,1.1184456530246182e-06,1.0094385309986122e-05,6.074459090306241e-05,8.216823470004619e-07,4.209614114770569e-06,2.827612616869978e-06,1.7273390563539793e-06,1.3806312755580766e-06,1.7740665360618491e-06
114,2.3205580954580445e-06,1.813605325710189e-06,1.1024706334337045e-06,2.114100921809207e-06,2.3576221522368274e-06,2.9316040787829284e-06,2.5277102244484313e-06,1.116531557829871e-06,9.940435505706886e-06,6.04830332240887e-05,8.304573208731046e-07,4.211916733146913e-06,2.717222912061187e-06,1.5880455869971556e-06,1.3839553414261206e-06,1.7662949209180274e-06
115,2.2550706729797674e-06,1.8092833225945348e-06,1.1478255241257697e-06,2.118363417775366e-06,2.3552148015889942e-06,2.905478370166081e-06,2.5478536733710205e-06,1.1209606778256112e-06,9.767485321702996e-06,6.010018707851754e-05,8.397110969110875e-07,4.208116227620431e-06,2.61586637200797e-06,1.4682223954549797e-06,1.3862531726142439e-06,1.7576160809060193e-06
116,2.1865605288464306e-06,1.807271432873398e-06,1.197747730383756e-06,2.1180769543592704e-06,2.3601743050276227e-06,2.8803416760841745e-06,2.567345981245507e-06,1.1315039820464277e-06,9.577690648155402e-06,5.9649320692055936e-05,8.494196083882841e-07,4.198424630188742e-06,2.525419837272314e-06,1.368121305295394e-06,1.3873509850361626e-06,1.7493791650489967e-06
117,2.1153949319934075e-06,1.8073665095518343e-06,1.2519048662628863e-06,2.1132102278903276e-06,2.371873209393216e-06,2.856213481483709e-06,2.5849087476221915e-06,1.147738629515211e-06,9.37172532478626e-06,5.9178112906768016e-05,8.598117535891508e-07,4.183162975240645e-06,2.4473088378122792e-06,1.2880044813618957e-06,1.387180621311641e-06,1.742932821883922e-06
118,2.0420234078867486e-06,1.8094615485759782e-06,1.3098961126399684e-06,2.103305007354156e-06,2.389446478302692e-06,2.833163399162574e-06,2.598812699819201e-06,1.1690905716511205e-06,9.148966491198743e-06,5.872917592064878e-05,8.712066235811956e-07,4.163035088430149e-06,2.3824938525088167e-06,1.2280928598905651e-06,1.3857619091558807e-06,1.7394220265361086e-06
119,1.9671611935193194e-06,1.813605944826745e-06,1.3711546731576994e-06,2.087522765213183e-06,2.4117206830019625e-06,2.811140152810097e-06,2.6070097279634987e-06,1.1949119749031038e-06,8.908257672480021e-06,5.834151672588602e-05,8.838407372046569e-07,4.1391019344598994e-06,2.3315065828057913e-06,1.188537129615735e-06,1.3831486155735688e-06,1.7396809842809169e-06
120,1.8919344312196923e-06,1.8200480869166613e-06,1.4349176961759258e-06,2.0648439399664484e-06,2.437114510489463e-06,2.7899121495815378e-06,2.6075520709348938e-06,1.224650379069636e-06,8.648847849438529e-06,5.805020009952065e-05,8.978156098155601e-07,4.112409797663567e-06,2.294449111539844e-06,1.1694681812626277e-06,1.3794546544910662e-06,1.7442611507360918e-06
121,1.817765116417169e-06,1.8291292066452827e-06,1.5002635494914272e-06,2.0344731563879396e-06,2.4636635581399916e-06,2.769210819291021e-06,2.599106558309305e-06,1.2580568408739752e-06,8.370925258749314e-06,5.788465811048591e-05,9.13106822099407e-07,4.083606464444924e-06,2.2709667442096737e-06,1.1710461459960717e-06,1.3749253650463947e-06,1.7535111781499917e-06
122,1.7460736273954033e-06,1.8410705413424654e-06,1.566186359617073e-06,1.996269874035586e-06,2.4892177037729275e-06,2.748897490121131e-06,2.5813046381789665e-06,1.2952198420068081e-06,8.075378040947098e-06,5.7866548771973716e-05,9.295858663527787e-07,4.052884619490382e-06,2.260226314495988e-06,1.193471314320832e-06,1.3699369551716916e-06,1.7676296038663749e-06
123,1.6780322354868053e-06,1.8558105785908418e-06,1.631616318901344e-06,1.950881789798244e-06,2.511746674061055e-06,2.7289747220223443e-06,2.5547671736365303e-06,1.3363666135533545e-06,7.763400518445061e-06,5.80076019478283e-05,9.470490071564454e-07,4.020198115711605e-06,2.260952741422025e-06,1.236977241680734e-06,1.3649210993361622e-06,1.7866785108907288e-06
124,1.6144907440245416e-06,1.8729487467703764e-06,1.6953460629395301e-06,1.899487036366947e-06,2.529617035111023e-06,2.7094893625417388e-06,2.5207841662568797e-06,1.3816447423578845e-06,7.436888665447281e-06,5.8308361702273565e-05,9.65214824568213e-07,3.985413575140168e-06,2.2716136496534155e-06,1.3018077673098024e-06,1.3602791840435303e-06,1.8105544665778443e-06
125,1.556028793924484e-06,1.8917883081253825e-06,1.7560290104931995e-06,1.843349444287546e-06,2.541725256738334e-06,2.6904610660222743e-06,2.4808381745741594e-06,1.431022113124466e-06,7.099195843138579e-06,5.875818465085085e-05,9.83691580251874e-07,3.948196708038626e-06,2.290705832984464e-06,1.3882230796619114e-06,1.3562889168654441e-06,1.838925626190257e-06
126,1.5030177694566283e-06,1.9115472203907236e-06,1.8124257663014822e-06,1.7834797627565779e-06,2.547505271315383e-06,2.6718424118774543e-06,2.436299752436341e-06,1.484236006671941e-06,6.7551438718252535e-06,5.933541313766124e-05,1.0019791992697935e-06,3.907777931659929e-06,2.31689926014416e-06,1.4965608717498986e-06,1.3530207040657303e-06,1.8711796451046237e-06
127,1.4556254388480903e-06,1.931699754899069e-06,1.8638079235660754e-06,1.720565661245925e-06,2.546921372113173e-06,2.653434525584585e-06,2.3883692877936525e-06,1.540755428249224e-06,6.410309585003663e-06,6.0008087139737834e-05,1.0195103804913457e-06,3.86290469966028e-06,2.3489783246595473e-06,1.6272386247960562e-06,1.3503292488889946e-06,1.9063946727578385e-06
128,1.4138094243817163e-06,1.952131627748899e-06,1.9102029602763886e-06,1.6551379215391145e-06,2.540481447830666e-06,2.6347541471819617e-06,2.338030087702408e-06,1.5998079190875285e-06,6.070322575356343e-06,6.0736220311616846e-05,1.0356897040728307e-06,3.812069824111973e-06,2.385872300391359e-06,1.7806056293751087e-06,1.3479086428673042e-06,1.943337396037758e-06
129,1.377388711940981e-06,1.972917556847429e-06,1.952245048110225e-06,1.5878102106634954e-06,2.5291754583311645e-06,2.6149520064357647e-06,2.285948481777195e-06,1.6604434200682058e-06,5.740418996952386e-06,6.147345915005814e-05,1.0499717494041715e-06,3.7538291784476532e-06,2.4268670517506385e-06,1.9567777308483526e-06,1.345370587398872e-06,1.9805392244168524e-06
130,1.346194966671329e-06,1.9939937035283953e-06,1.9907416408902622e-06,1.519427485525433e-06,2.5142423328068936e-06,2.5928692475835576e-06,2.2324669298127023e-06,1.7215519926411649e-06,5.425138560783647e-06,6.216663934367417e-05,1.062005712057749e-06,3.6870736821808715e-06,2.4716663341713696e-06,2.1556536369837838e-06,1.3423119152807162e-06,2.0164631422259693e-06
131,1.3202033837741432e-06,2.0150632953420615e-06,2.0263032655932935e-06,1.451077588468727e-06,2.4968447751413476e-06,2.5671921487149878e-06,2.1776956939544963e-06,1.7818759301043659e-06,5.128184772882063e-06,6.275764017758756e-05,1.07174363112213e-06,3.6112710432848717e-06,2.5201524773904317e-06,2.3771261143675836e-06,1.3382825509032382e-06,2.049708759511668e-06
132,1.299560173962864e-06,2.0357282825014953e-06,2.0592613649117437e-06,1.3840050544414369e-06,2.4779109427134937e-06,2.5366355602540733e-06,2.1216256718175153e-06,1.8400954846038545e-06,4.852402248677509e-06,6.319131586739112e-05,1.0794005234626438e-06,3.5266388137053755e-06,2.572102014058214e-06,2.6213654702747672e-06,1.3326993765398757e-06,2.0791853244001236e-06
133,1.2845133795974414e-06,2.055623174959256e-06,2.0898005373548298e-06,1.3194595048880193e-06,2.4582680385341675e-06,2.5001559310532e-06,2.0642741182277377e-06,1.894892628695382e-06,4.599706087341555e-06,6.342533534325808e-05,1.0852878712221456e-06,3.434115961842559e-06,2.6270663849871113e-06,2.8890222805081572e-06,1.3249274441830214e-06,2.1041564924770306e-06
134,1.2752940198424286e-06,2.0744038210367174e-06,2.118057188310131e-06,1.2585300909172058e-06,2.4388489019336557e-06,2.4571584686647104e-06,2.0058529408272815e-06,1.944888651312334e-06,4.370996206780951e-06,6.343484123620205e-05,1.089681215863668e-06,3.3351414381896115e-06,2.684398367637983e-06,3.1811806188346658e-06,1.314547391772687e-06,2.1241133578558215e-06
135,1.2719880861442224e-06,2.0916333144963685e-06,2.1440648536851804e-06,1.2020407569744582e-06,2.4206887995361033e-06,2.407596580895344e-06,1.946861632115269e-06,1.9885823080815046e-06,4.166176309442424e-06,6.320866642670093e-05,1.0928280377673433e-06,3.231480951423527e-06,2.743347600557314e-06,3.4991247355816407e-06,1.3015352492451909e-06,2.1386038261478016e-06
136,1.2744402840112302e-06,2.1066997102819926e-06,2.1676856260963023e-06,1.1505311044034776e-06,2.4047190893113567e-06,2.3518775245167986e-06,1.8880316023212485e-06,2.024495802938672e-06,3.984267077833099e-06,6.274049384615186e-05,1.0949904918055298e-06,3.125227551409254e-06,2.8031779960909857e-06,3.844224578389105e-06,1.2861924211522806e-06,2.147194934136177e-06
137,1.2822201868381058e-06,2.118829418026668e-06,2.188630379323621e-06,1.1042843731277676e-06,2.3915996956790802e-06,2.29063182119828e-06,1.8301528719195365e-06,2.0515399731217625e-06,3.823647783363066e-06,6.202457204494115e-05,1.0963996548134282e-06,3.0187568180903984e-06,2.8632841124442164e-06,4.217938039462968e-06,1.2689762620491367e-06,2.149570695816455e-06
138,1.2946513633265968e-06,2.1271275753918007e-06,2.2064844362006446e-06,1.0633508248967152e-06,2.3816934024399586e-06,2.224648243419682e-06,1.7739235321973221e-06,2.0693231507448487e-06,3.682504278851025e-06,6.106071682535096e-05,1.0971683298226535e-06,2.914442865171728e-06,2.923259553070532e-06,4.621604943162845e-06,1.2504040673303415e-06,2.1456228455280344e-06
139,1.3108964076992865e-06,2.1305945836372796e-06,2.2207294779122975e-06,1.0275563783395718e-06,2.3750489751125525e-06,2.1550752896835513e-06,1.7199440534941405e-06,2.0780854789573303e-06,3.559296061658935e-06,5.986081079496825e-05,1.0972576850573473e-06,2.814315662021542e-06,2.9828214951524064e-06,5.056004937803988e-06,1.2310185523161528e-06,2.1354000972701944e-06
140,1.3300959095185625e-06,2.128224446394793e-06,2.2308391968267226e-06,9.965482638258855e-07,2.3713531553926534e-06,2.083477908519977e-06,1.668776995664706e-06,2.0783385995505693e-06,3.4528858052793177e-06,5.8447392312971224e-05,1.0965156962997734e-06,2.719918995003749e-06,3.041611373767554e-06,5.52097558107505e-06,1.2113823731173533e-06,2.1189390248139587e-06
141,1.351511288749624e-06,2.1192316661496558e-06,2.236396378917163e-06,9.699125809333495e-07,2.3699406437395226e-06,2.011534916748791e-06,1.620910680195883e-06,2.0706149898803406e-06,3.3622620385307527e-06,5.68452323301016e-05,1.094781463148528e-06,2.632319760531039e-06,3.099116320375101e-06,6.015245617272606e-06,1.192087700686887e-06,2.0962222854235137e-06
142,1.3745701903634148e-06,2.1032649063361004e-06,2.2371341264755646e-06,9.472892368366097e-07,2.3698456161510802e-06,1.94071934474661e-06,1.5766487040811277e-06,2.0554962863328957e-06,3.286152012519521e-06,5.507487502186214e-05,1.0920349391318043e-06,2.5521066069455566e-06,3.1548528556471554e-06,6.536475267865682e-06,1.1737258178535905e-06,2.0673844112295554e-06
143,1.3987837442866312e-06,2.080526555000566e-06,2.2329415667854922e-06,9.28376658083537e-07,2.369861954086622e-06,1.8722101110102582e-06,1.5360763823965532e-06,2.033754914567703e-06,3.2228038818686076e-06,5.3152711129862714e-05,1.0884689967430046e-06,2.4794143278688588e-06,3.2085688355112418e-06,7.081509551424458e-06,1.1568223407176582e-06,2.0329038270924757e-06
144,1.4236144971882164e-06,2.0518223440166113e-06,2.22390730997069e-06,9.128484391034668e-07,2.3686954051449642e-06,1.8069091805379412e-06,1.4991506996043565e-06,2.006431324251956e-06,3.1699282984368025e-06,5.109245562243742e-05,1.0843952273534051e-06,2.4140760141023173e-06,3.2601612932645888e-06,7.6467119273681e-06,1.1417984672779433e-06,1.9935575254716417e-06
145,1.4483839681348509e-06,2.018489857109396e-06,2.210310225615932e-06,9.003156203241969e-07,2.3652618355003836e-06,1.745431696864342e-06,1.4658022052013328e-06,1.97477922438422e-06,3.1247407252553315e-06,4.89044916829781e-05,1.080138391354323e-06,2.355849266460648e-06,3.309379772828695e-06,8.228070487717208e-06,1.1290003629925858e-06,1.950254117087668e-06
146,1.4722777121620814e-06,1.9821460926655036e-06,2.19246261680079e-06,8.903995946094284e-07,2.3590164723642913e-06,1.6880795275632847e-06,1.4359461366131883e-06,1.9400912552967415e-06,3.0842400687712452e-06,4.659692583812492e-05,1.0760793858725935e-06,2.3045595147530096e-06,3.3556835156643194e-06,8.820929133211067e-06,1.1187561260593646e-06,1.9039375327616458e-06
147,1.4944735948785949e-06,1.944352422889752e-06,2.1706036859761895e-06,8.828547566149943e-07,2.3500971314208013e-06,1.6348348014843253e-06,1.4094897043566063e-06,1.9034924347471984e-06,3.045771658437059e-06,4.418032729066914e-05,1.0727320895599258e-06,2.2600620917348654e-06,3.398392870931243e-06,9.419528949707725e-06,1.1113580964488803e-06,1.8555915598492404e-06
148,1.5143628098322877e-06,1.9063893150446907e-06,2.1450543539526367e-06,8.776506661220588e-07,2.3391706595390344e-06,1.5854022329589253e-06,1.386465495449649e-06,1.8658074438619225e-06,3.007573810504983e-06,4.167221899122139e-05,1.0706909695900132e-06,2.222062405781636e-06,3.436849057123662e-06,1.001659933610273e-05,1.106988667088321e-06,1.8062330251907758e-06
149,1.5317535841127874e-06,1.8692421486177996e-06,2.1164298751958237e-06,8.749496805415965e-07,2.3271122364953055e-06,1.5393083541411359e-06,1.367187506526239e-06,1.8275362935467607e-06,2.968874466530195e-06,3.9097169868384985e-05,1.070494336739143e-06,2.1899198047117726e-06,3.4704194762515275e-06,1.0603137103031432e-05,1.1057003006958256e-06,1.756803618781283e-06
150,1.546897426705431e-06,1.8337214075771805e-06,2.085600213675875e-06,8.749862339763149e-07,2.3147466513635486e-06,1.4960188485125728e-06,1.3522388304747054e-06,1.7889430086691424e-06,2.9295218475260344e-06,3.6482547638505006e-05,1.0725416056615297e-06,2.1625282655233554e-06,3.498533141053444e-06,1.1168620658872291e-05,1.1074882200824714e-06,1.7080426500147353e-06
151,1.5602991881798583e-06,1.8005333032129826e-06,2.0534587744968387e-06,8.779529268841506e-07,2.302711248082291e-06,1.4550202736447947e-06,1.3422956453429664e-06,1.7502341559581458e-06,2.8897550772872977e-06,3.385434044958484e-05,1.0771030094109474e-06,2.1383069299538497e-06,3.5208409785211883e-06,1.1701750047247462e-05,1.1123921396867827e-06,1.6605020314276526e-06
152,1.5724632005807303e-06,1.7702307911960873e-06,2.020772612756381e-06,8.839559656429898e-07,2.2913560800108023e-06,1.4158562568042565e-06,1.3379430827858015e-06,1.711682062478343e-06,2.8504204575605616e-06,3.1236806927650774e-05,1.084352533697184e-06,2.115360466138741e-06,3.5373655458639847e-06,1.2191279396434701e-05,1.1205057697901822e-06,1.6147044652633027e-06
153,1.583713068740028e-06,1.7431536357094834e-06,1.9881566790285416e-06,8.929855479335566e-07,2.280722882772986e-06,1.3781548353307138e-06,1.3396129706013043e-06,1.673589233826983e-06,2.8130530038630394e-06,2.8654211142158462e-05,1.0943722026810304e-06,2.091856631237675e-06,3.548512252895218e-06,1.2626587817690121e-05,1.1318673506874397e-06,1.5712547986759349e-06
154,1.5941011991998321e-06,1.719448094063456e-06,1.956018455061587e-06,9.04880774260119e-07,2.270718695460137e-06,1.3416338767266283e-06,1.3476341772026114e-06,1.6361877735170369e-06,2.779427001047089e-06,2.6131028621042074e-05,1.1071531791178075e-06,2.066460056208419e-06,3.554948138483795e-06,1.299821670471303e-05,1.146361885889769e-06,1.5307952389459347e-06
155,1.6034162825317685e-06,1.6991688471593599e-06,1.924502022042801e-06,9.193290823355356e-07,2.261394627337382e-06,1.3060562624767273e-06,1.3622683240054953e-06,1.599577329601038e-06,2.751012115975731e-06,2.369027217705531e-05,1.122602568986254e-06,2.0385185602621042e-06,3.557393912891838e-06,1.3298626475399105e-05,1.1637293519603757e-06,1.493940721415464e-06
156,1.6112957097397722e-06,1.6824156115860023e-06,1.8935593372001352e-06,9.358922659559407e-07,2.2530967648120846e-06,1.271255460817932e-06,1.3836609894112637e-06,1.5636960670151784e-06,2.7288011934391e-06,2.1351710321546915e-05,1.1405262738495305e-06,2.007901488496467e-06,3.5563768394582735e-06,1.3522881948021865e-05,1.1836208522679329e-06,1.4612843237353492e-06
157,1.617358707626689e-06,1.669397914614563e-06,1.8630792342931558e-06,9.540236010936211e-07,2.2463651972315395e-06,1.2373155135119785e-06,1.4117679063325405e-06,1.5283571879621556e-06,2.7134589889813235e-06,1.91310730122986e-05,1.1606314607839128e-06,1.9747208808989623e-06,3.552122975194138e-06,1.3668612741096684e-05,1.2056456511560417e-06,1.433352777864687e-06
158,1.621273796341655e-06,1.6603614100422043e-06,1.832949292101803e-06,9.730994135378186e-07,2.241690151289841e-06,1.2047202321319286e-06,1.446313446729969e-06,1.4934322450498404e-06,2.7054869304156247e-06,1.7040099073550056e-05,1.1826159007575896e-06,1.939223937014134e-06,3.544644937614865e-06,1.3734835398327918e-05,1.2294108288165247e-06,1.4104929069105068e-06
159,1.6228216391150366e-06,1.6554525660026927e-06,1.8030423769153562e-06,9.925286710616898e-07,2.2394136904628434e-06,1.1743000200195635e-06,1.4867667102409324e-06,1.4590877449347546e-06,2.7051875329387052e-06,1.5086865605012829e-05,1.2062931675395063e-06,1.9018644111994296e-06,3.533749547741022e-06,1.372025942438832e-05,1.2545010409899185e-06,1.3928089889936995e-06
160,1.622043480416763e-06,1.6546727905323428e-06,1.7731646862910092e-06,1.011894846949327e-06,2.239883692814633e-06,1.147045927839894e-06,1.5323170671052158e-06,1.425830163300664e-06,2.712472565383991e-06,1.3276131354651583e-05,1.2316414869756648e-06,1.8633287364600387e-06,3.518898228950063e-06,1.3622864525693456e-05,1.280404969476674e-06,1.38016964113756e-06
161,1.619365664408907e-06,1.6579884648665174e-06,1.7430597669447097e-06,1.0309744862769513e-06,2.2435808072669064e-06,1.1239204955355631e-06,1.5818664979743921e-06,1.3943153744764302e-06,2.7267236639808964e-06,1.1609716905519661e-05,1.25873889670357e-06,1.824395108964365e-06,3.4992020667809665e-06,1.3441796098552566e-05,1.3065218432929458e-06,1.3722514048896517e-06
162,1.6155035279603651e-06,1.6654958173531102e-06,1.712561531764784e-06,1.0496243271448377e-06,2.251017802618379e-06,1.1057282618173368e-06,1.6340653426810153e-06,1.3651683904730319e-06,2.7467787199766634e-06,1.0086968437013172e-05,1.287636398031722e-06,1.7857158932769182e-06,3.4736642935213317e-06,1.3180262482003762e-05,1.3322488556730371e-06,1.3686249515069315e-06
163,1.611188676506468e-06,1.6774880992534405e-06,1.6817662987400938e-06,1.067705639427844e-06,2.262588013843189e-06,1.0930650096042712e-06,1.6873878933511836e-06,1.3389549838968113e-06,2.770941925486663e-06,8.705261504284038e-06,1.3182558340208396e-06,1.7476653663210096e-06,3.4415432493620482e-06,1.2847354109954274e-05,1.3569996001187385e-06,1.3688558548933412e-06
164,1.606979581265053e-06,1.6944008786547228e-06,1.6509938920826967e-06,1.0851149942569633e-06,2.278495862856015e-06,1.0863185243781978e-06,1.7402428744350255e-06,1.3161772009161814e-06,2.796994123317988e-06,7.460476607174015e-06,1.3503727413240065e-06,1.7103405391542014e-06,3.4026281834332333e-06,1.2457963863587695e-05,1.3801449970522736e-06,1.3725710877598852e-06
165,1.603257610512131e-06,1.7167127476116944e-06,1.620574000142998e-06,1.1018300477707682e-06,2.298733598324306e-06,1.0856770753598416e-06,1.7911694138997322e-06,1.297242891055426e-06,2.822333258853579e-06,6.347387506047979e-06,1.383679413754386e-06,1.6737362867429689e-06,3.3572068803626895e-06,1.2031083698231447e-05,1.401027559289473e-06,1.3794808661811763e-06
166,1.6002860432680786e-06,1.7448408784834316e-06,1.590730927818618e-06,1.117881408070798e-06,2.323211985565109e-06,1.0911515848117593e-06,1.839094304796039e-06,1.2824929334664971e-06,2.844276149130153e-06,5.35989673345889e-06,1.417874595115003e-06,1.637979529039004e-06,3.3057159134374493e-06,1.1587243669458012e-05,1.419116848532355e-06,1.3893463958675028e-06
167,1.5982945808814511e-06,1.7790422574520135e-06,1.5616971462360597e-06,1.1332573701188383e-06,2.3520589917817385e-06,1.1026211541709142e-06,1.8834253255773219e-06,1.2722448599951956e-06,2.860349871815847e-06,4.491135390738719e-06,1.4527289761036368e-06,1.603421606249459e-06,3.248384135737155e-06,1.1146178040058782e-05,1.4341832831756875e-06,1.4019030100852123e-06
168,1.5975817981315959e-06,1.8193700699175686e-06,1.5338780404844226e-06,1.147833287854014e-06,2.3857398394080053e-06,1.1198493058110047e-06,1.9238628138139834e-06,1.2667659600134397e-06,2.8684270783954917e-06,3.733532590804761e-06,1.488108699055029e-06,1.5705679494352931e-06,3.1852624088142916e-06,1.0725559845854701e-05,1.446291435576268e-06,1.4168148068575824e-06
169,1.5984908719466324e-06,1.8657036330984288e-06,1.5078394957686341e-06,1.1613805937747952e-06,2.4248007137256735e-06,1.1424547848097965e-06,1.9601809718662458e-06,1.2661992316192682e-06,2.8666821871434034e-06,3.0788922305667466e-06,1.5239275593744754e-06,1.5400320530610992e-06,3.1167015408632166e-06,1.0340823652887884e-05,1.4555909695800321e-06,1.4337253294929029e-06
170,1.6012855597334745e-06,1.9177743882279628e-06,1.4841402349155308e-06,1.1736129523818194e-06,2.4695289291166598e-06,1.1699333666902073e-06,1.9921571548294295e-06,1.2705101178720421e-06,2.8535019471155157e-06,2.518482313130018e-06,1.5600123605732465e-06,1.5125927775662139e-06,3.043835465824269e-06,1.0005475142948319e-05,1.462125783354691e-06,1.4523816505646845e-06
171,1.6061110310028018e-06,1.975152711705596e-06,1.4632190627576372e-06,1.1842453125308244e-06,2.519873375939952e-06,1.201785526830477e-06,2.0195007804042547e-06,1.2794966897732868e-06,2.8277038158792516e-06,2.043290428273287e-06,1.5959734308502311e-06,1.489204180221323e-06,2.9685617924472073e-06,9.731277154680795e-06,1.4657972395317976e-06,1.4727071130346233e-06
172,1.6130084341047506e-06,2.037278792128967e-06,1.4454314725558298e-06,1.1930723261180745e-06,2.5756250277873305e-06,1.2376348995434662e-06,2.041735370353128e-06,1.2928401204001172e-06,2.789145571918315e-06,1.6445995325692319e-06,1.6311785510658394e-06,1.4708644461304811e-06,2.893029030539389e-06,9.52811286891384e-06,1.466388184064257e-06,1.4947236919441024e-06
173,1.6218650550222304e-06,2.103535071321727e-06,1.4311323367089813e-06,1.199995768442944e-06,2.6365927601008358e-06,1.2772145319323399e-06,2.0581553951599733e-06,1.3101523656225225e-06,2.739155317824066e-06,1.3146131664921827e-06,1.6648006440428098e-06,1.4584762506025338e-06,2.819102130907588e-06,9.40374824397031e-06,1.4635916612783422e-06,1.5184548404704809e-06
174,1.6323328174896606e-06,2.1732295668391828e-06,1.420689743763522e-06,1.2049440161326287e-06,2.702553185688109e-06,1.320255487345229e-06,2.0679569507358593e-06,1.3310731807401352e-06,2.680256917373442e-06,1.0465759329255e-06,1.6958734788296826e-06,1.452794358863926e-06,2.748187570024704e-06,9.363766235161492e-06,1.4570973428989672e-06,1.543956260184789e-06
175,1.6437922924926969e-06,2.245493966105618e-06,1.4144297615694086e-06,1.2077946395939078e-06,2.7730590751940735e-06,1.366379564323374e-06,2.0706008134241683e-06,1.3554089781159094e-06,2.615402425990741e-06,8.343530960936402e-07,1.7233589753634555e-06,1.4543971313807062e-06,2.6813779825159212e-06,9.411712424216583e-06,1.4467345143321035e-06,1.5713513062380043e-06
176,1.655366052417874e-06,2.3192592229686365e-06,1.412595607742167e-06,1.2084006508837209e-06,2.8473085401448726e-06,1.4150689390649931e-06,2.066216297426185e-06,1.3831348008720752e-06,2.5473109324287617e-06,6.720467064770636e-07,1.746263214170159e-06,1.4636496534355652e-06,2.619618954769316e-06,9.54936014715174e-06,1.4325745888914353e-06,1.6007417124014315e-06
177,1.66598325718954e-06,2.3933416631803952e-06,1.415345981989467e-06,1.2066203495689008e-06,2.9240792152682945e-06,1.4657465783348882e-06,2.055676289724932e-06,1.4142303555389315e-06,2.4782167288870188e-06,5.540115815895635e-07,1.763796951919069e-06,1.4806800838312603e-06,2.5636940922594444e-06,9.777031673273228e-06,1.4148888670926603e-06,1.6320655770511857e-06
178,1.6745749196362295e-06,2.466492647700164e-06,1.4227444048394798e-06,1.2022708964251404e-06,3.0016998769374698e-06,1.5178891958582684e-06,2.0402730898584466e-06,1.448530440976922e-06,2.409913807302651e-06,4.750602998347527e-07,1.7755118727742854e-06,1.5053848986260896e-06,2.5140914762316675e-06,1.0093920287483214e-05,1.3940093304533389e-06,1.6649983381274355e-06
179,1.6804222859114382e-06,2.537413956611735e-06,1.4347336149942589e-06,1.1951116203594573e-06,3.0781188508390037e-06,1.5710179348468664e-06,2.021319670181566e-06,1.4856717262434982e-06,2.3438799782637497e-06,4.3052436402778514e-07,1.7813274831039429e-06,1.5374921516320766e-06,2.470937336653221e-06,1.0498326086292634e-05,1.3702653915171383e-06,1.698951230555369e-06
180,1.6834731079805681e-06,2.604921540058543e-06,1.4510961647943028e-06,1.1849555866777457e-06,3.151044056725362e-06,1.6245538131990889e-06,2.000012354292006e-06,1.525109934242285e-06,2.2813267971357914e-06,4.161207952700596e-07,1.7814132619131006e-06,1.5766532665134294e-06,2.434019670088963e-06,1.0987685480944132e-05,1.344034090853428e-06,1.7331840880352078e-06
181,1.6843830381362474e-06,2.6681829109799224e-06,1.4714141813937976e-06,1.1718294944147412e-06,3.2181318594166993e-06,1.6777158667920067e-06,1.9775707462651284e-06,1.5661593503208953e-06,2.2231523873317857e-06,4.277815490051416e-07,1.7759839664651383e-06,1.6224603548166828e-06,2.4027923225544263e-06,1.155825367143101e-05,1.3157967538022873e-06,1.766917876746094e-06
182,1.6842512962317925e-06,2.7267081814309018e-06,1.4950601997330562e-06,1.1560237792672143e-06,3.2773146509741636e-06,1.7296010571554257e-06,1.9554182592045337e-06,1.6079790767479127e-06,2.169935107077555e-06,4.6156815498143463e-07,1.7651452752606397e-06,1.6743881665403237e-06,2.3764060206824994e-06,1.2204492957357653e-05,1.2861336665802798e-06,1.7992945652871731e-06
183,1.6842616975586125e-06,2.7800392448211e-06,1.5211886303027124e-06,1.1380058962678955e-06,3.3272589660118435e-06,1.7793867821049446e-06,1.9351952192935175e-06,1.6495356482884562e-06,2.1220270369442473e-06,5.136946345138744e-07,1.7489005847878307e-06,1.7318136490925493e-06,2.3539003452461265e-06,1.2918606231195515e-05,1.25565693062941e-06,1.8292272680159467e-06
184,1.6854890833962993e-06,2.8274239854416844e-06,1.5487516969279983e-06,1.1183091895566772e-06,3.3677062168347815e-06,1.826493623443567e-06,1.9185766717000176e-06,1.689672053965842e-06,2.0796014465657637e-06,5.805992356784546e-07,1.7272857971911554e-06,1.7941558445734767e-06,2.3344612935453392e-06,1.3690627819414582e-05,1.2249676274774897e-06,1.8553425644496664e-06
185,1.6889432433936512e-06,2.867737081471151e-06,1.5766574805003015e-06,1.0974612466207865e-06,3.3994306393041533e-06,1.8705867205832385e-06,1.9070237489195011e-06,1.7272994290809184e-06,2.0426050449576354e-06,6.589464994929151e-07,1.7004562254070955e-06,1.8609316071132352e-06,2.317496211074713e-06,1.4508958472573139e-05,1.194694310288002e-06,1.8761540408669544e-06
186,1.6956535341039952e-06,2.899655657894785e-06,1.6040658835823716e-06,1.075921520534097e-06,3.423841523353588e-06,1.9114136062670725e-06,1.9016127042673306e-06,1.7615861703052044e-06,2.01075354146816e-06,7.455799917125294e-07,1.668634528555653e-06,1.9315927112623504e-06,2.3025377239186154e-06,1.5360975361989812e-05,1.16550779696642e-06,1.890426063094487e-06
187,1.7066032458593318e-06,2.921937368823421e-06,1.6306243376041433e-06,1.0540407867572766e-06,3.442485033612012e-06,1.9486290341669336e-06,1.9029771053797652e-06,1.7920233092979086e-06,1.9836568967383113e-06,8.375673120572162e-07,1.6321045103466047e-06,2.005315579304781e-06,2.289227133377409e-06,1.6233597698969408e-05,1.1380759392166361e-06,1.8975147938713005e-06
188,1.7225854472779624e-06,2.933700140587528e-06,1.6564318915011478e-06,1.0320855301100699e-06,3.456622105033997e-06,1.9817482559704866e-06,1.911321642607717e-06,1.8183302462405682e-06,1.961032259217624e-06,9.322957129294498e-07,1.5913778876186526e-06,2.0809893438136455e-06,2.2773744138224227e-06,1.711381498711482e-05,1.1130320376500222e-06,1.8974831289818974e-06
189,1.744132073710319e-06,2.9346792575737997e-06,1.681763012270585e-06,1.0102728133565395e-06,3.466931799089615e-06,2.0101645697207026e-06,1.9264554140587544e-06,1.8403015070703197e-06,1.9428195751789846e-06,1.0274969102361548e-06,1.5473037142821703e-06,2.157420858406446e-06,2.2668608739700345e-06,1.7988799253899485e-05,1.090923515575633e-06,1.8909793046045982e-06
190,1.771534980097219e-06,2.925372303196812e-06,1.7068226612376597e-06,9.887507126495763e-07,3.4734021355425376e-06,2.0331539624424455e-06,1.9478149098296683e-06,1.8577777458869459e-06,1.929036232360855e-06,1.1212362897978955e-06,1.5009447828775208e-06,2.2335122110766813e-06,2.25738005648306e-06,1.8845131064404565e-05,1.0721210619013287e-06,1.8790032352150849e-06
191,1.8048915761375937e-06,2.906895918205268e-06,1.731667438960466e-06,9.67587570293469e-07,3.4754837592792037e-06,2.0499695684401026e-06,1.9745135233230325e-06,1.8707316960248296e-06,1.9195236879511147e-06,1.2118810650957435e-06,1.4533950646045717e-06,2.308212944699576e-06,2.248239721606732e-06,1.966776206574553e-05,1.0567753176325758e-06,1.8627025169530427e-06
192,1.8441077765018015e-06,2.8805538276351713e-06,1.7561906490652938e-06,9.468159776814772e-07,3.4724781782817456e-06,2.0600202500368203e-06,2.005440188737099e-06,1.8792783320030569e-06,1.913826395429195e-06,1.2979694407678767e-06,1.4057126386505213e-06,2.3804023234233015e-06,2.238378915582319e-06,2.0440324251916686e-05,1.0448748182381927e-06,1.8432824050459126e-06
193,1.8888425177417476e-06,2.847474580248436e-06,1.7801553275421174e-06,9.264589202996367e-07,3.4639604105523595e-06,2.0629120283098758e-06,2.0393233825419283e-06,1.8836140335266013e-06,1.9111938393436694e-06,1.3780341178568354e-06,1.358895383780298e-06,2.4489054980413604e-06,2.2265508928708635e-06,2.11474641365723e-05,1.036370963927348e-06,1.821972155822603e-06
194,1.938435761497483e-06,2.8085947056339456e-06,1.803322654115517e-06,9.065483796291721e-07,3.4499907713099756e-06,2.0583315930573484e-06,2.0747516805550777e-06,1.884025690190427e-06,1.910632512784702e-06,1.4505506748942361e-06,1.3138018066163145e-06,2.512589164507276e-06,2.211489643065956e-06,2.1778069975964287e-05,1.0312570076692147e-06,1.799939205725236e-06
195,1.9918685829934406e-06,2.7647780983944803e-06,1.8255719205384075e-06,8.872138752310128e-07,3.4310496678346884e-06,2.0460249118545824e-06,2.110314029726023e-06,1.8809216843194135e-06,1.910996944950159e-06,1.5141120273161133e-06,1.2710681853762356e-06,2.5705256425812427e-06,2.1920545468823434e-06,2.232761775926219e-05,1.0295183519510512e-06,1.7781842589431456e-06
196,2.0477723645626122e-06,2.716779310406657e-06,1.8468917020337808e-06,8.687743868264932e-07,3.4078365299661356e-06,2.0259564698084406e-06,2.1449044766409377e-06,1.8747562361225895e-06,1.911107977739834e-06,1.5677447968371857e-06,1.2310798449539398e-06,2.6222970489763827e-06,2.1675496232387664e-06,2.2798427869928203e-05,1.0310291103686513e-06,1.7575096511599913e-06
197,2.1045286710516295e-06,2.665077667866812e-06,1.8672613178470788e-06,8.517220043190207e-07,3.3811244099328734e-06,1.9984930185224066e-06,2.1779732195037035e-06,1.8658657447778473e-06,1.9099114564627817e-06,1.611092714345063e-06,1.1939919241827406e-06,2.668280755355621e-06,2.1380697939320292e-06,2.3197584340693456e-05,1.0355396715715673e-06,1.7385233992986314e-06
198,2.160524517797236e-06,2.6097608149036464e-06,1.8865703399931334e-06,8.366117722797435e-07,3.3517538823133162e-06,1.964502631643669e-06,2.2095042670667056e-06,1.854354295640202e-06,1.9065863734807265e-06,1.6442889736051311e-06,1.159796481617349e-06,2.709648947374713e-06,2.10442978386196e-06,2.3533315319974324e-05,1.0427905605774152e-06,1.7215970325653591e-06
199,2.2144715641701146e-06,2.5505659373653767e-06,1.9047097313222045e-06,8.239740660509215e-07,3.3206883914417113e-06,1.9253300854419286e-06,2.239736235793258e-06,1.8401673680480236e-06,1.9005194298073483e-06,1.6676595876168608e-06,1.128412187505158e-06,2.748044372036557e-06,2.067721159700183e-06,2.3811445428352547e-05,1.052618603746046e-06,1.7067964650146828e-06
200,2.2655390817727375e-06,2.4870949349612337e-06,1.9217378168823946e-06,8.143144786315043e-07,3.289021688324667e-06,1.8826092274964717e-06,2.2688585293306387e-06,1.8233602837162498e-06,1.8913320760322242e-06,1.6815366765148342e-06,1.0997538554125286e-06,2.7851321835520078e-06,2.028948863708558e-06,2.4033461152908078e-05,1.0649267804713437e-06,1.6938472108077536e-06
201,2.3131949429993543e-06,2.419123756880692e-06,1.937897185496631e-06,8.081321705224725e-07,3.257930274756613e-06,1.8379645111480954e-06,2.2969050144721846e-06,1.804361272150608e-06,1.8790225222105462e-06,1.6863013210495172e-06,1.073762417937595e-06,2.8222395931990966e-06,1.9888876922934833e-06,2.419676563355754e-05,1.0795922826283919e-06,1.6821477428240933e-06
202,2.3569829920964323e-06,2.346858208623349e-06,1.953445462110247e-06,8.059168033695385e-07,3.2285892191251473e-06,1.7927551296245248e-06,2.323804320199111e-06,1.7839834030438916e-06,1.8639444242486762e-06,1.6825059342131172e-06,1.05038671776645e-06,2.8601815446987193e-06,1.9480786926031203e-06,2.4296882974892034e-05,1.0964344989466362e-06,1.6708556876512464e-06
203,2.3964990993233337e-06,2.2710023895044035e-06,1.9684621779707326e-06,8.081566174464175e-07,3.202010360443493e-06,1.7479854425785512e-06,2.3493787290577737e-06,1.7631762593942177e-06,1.846559607433972e-06,1.6708571409605537e-06,1.0295397036356105e-06,2.89925188606502e-06,1.9069935332223236e-06,2.4330893034138455e-05,1.1152298083714249e-06,1.659071082785567e-06
204,2.431462524508127e-06,2.1925743535575993e-06,1.9827857951175044e-06,8.153216293213095e-07,3.1788368401054448e-06,1.7043926813398675e-06,2.3732811081845264e-06,1.7427904228991234e-06,1.8272578701900171e-06,1.6520830164670396e-06,1.0111044311700897e-06,2.939264679230825e-06,1.8662996171785668e-06,2.430050295164232e-05,1.135741930364465e-06,1.6460001348699889e-06
205,2.461652475417816e-06,2.1125957568423677e-06,1.996125462036269e-06,8.278002036451817e-07,3.1592990928173674e-06,1.6626108822374929e-06,2.3950095388335804e-06,1.7235630722280668e-06,1.8063979590338645e-06,1.6269024876110545e-06,9.949966819801926e-07,2.9795521469958707e-06,1.8270053716113752e-06,2.4212788551887146e-05,1.1577709161118608e-06,1.6309588227743783e-06
206,2.4867755298945127e-06,2.0319341293598293e-06,2.0082782470643773e-06,8.458641493291294e-07,3.1434457533437866e-06,1.6232682987780641e-06,2.4139725928169753e-06,1.7062208241687809e-06,1.784449688931737e-06,1.5961156677921264e-06,9.81185481368957e-07,3.0189432331598246e-06,1.7903643076571022e-06,2.407805180880931e-05,1.1811702944325715e-06,1.6133052770695137e-06
207,2.506468963801195e-06,1.951391939156197e-06,2.019275972117989e-06,8.69686754169413e-07,3.1314682806757207e-06,1.5869572634640943e-06,2.4295281283860583e-06,1.691505025986849e-06,1.7620817212420692e-06,1.5606066471286234e-06,9.696500632826509e-07,3.0557887972012753e-06,1.7576091662846631e-06,2.3906224903665093e-05,1.2057776554194508e-06,1.592509316636221e-06
208,2.5204667404151104e-06,1.8718691475727027e-06,2.0293150680612056e-06,8.993505350011317e-07,3.123910323532046e-06,1.5541330672784107e-06,2.4410422491053013e-06,1.680080926754626e-06,1.7401026212347037e-06,1.5212452629925744e-06,9.603526097639374e-07,3.08806768665741e-06,1.7297083010966317e-06,2.3703872936564935e-05,1.2313251265666378e-06,1.5683530032988986e-06
209,2.5287716073908408e-06,1.7944164662454241e-06,2.0385626026677613e-06,9.348201630943863e-07,3.1217100212790516e-06,1.5250482781975264e-06,2.4479670852270553e-06,1.6724428259022204e-06,1.7192792349574787e-06,1.4788364036389599e-06,9.532354801978711e-07,3.1136104105001988e-06,1.7073021345558908e-06,2.347313465265582e-05,1.257445647606505e-06,1.5410373880573346e-06
210,2.5316646178764408e-06,1.7201398613356276e-06,2.0470492214760306e-06,9.759115654412836e-07,3.1260331153944562e-06,1.4997901324995515e-06,2.4498562823092137e-06,1.668916692992721e-06,1.700183031965795e-06,1.4340815769029209e-06,9.481915076369757e-07,3.13045431985172e-06,1.690783952774237e-06,2.321276984315461e-05,1.2837483330538416e-06,1.5110886504673633e-06
211,2.5295293299063063e-06,1.650059673685331e-06,2.05468468990805e-06,1.022273478189278e-06,3.137923907962485e-06,1.4783784678680123e-06,2.446351371622304e-06,1.6697079508821875e-06,1.6831696730803627e-06,1.3875240683743463e-06,9.4504155205535e-07,3.137218201565358e-06,1.6803614214912922e-06,2.2920360681439198e-05,1.3098445190079375e-06,1.4791820520188565e-06
212,2.522624515670764e-06,1.585067129595451e-06,2.0613482797271473e-06,1.0733887887967143e-06,3.1580150727387382e-06,1.4608241585883942e-06,2.437281759792128e-06,1.6749011431481588e-06,1.6684679886830888e-06,1.339613102036989e-06,9.435733872086207e-07,3.13332537726733e-06,1.676066090641976e-06,2.259430229499546e-05,1.335310411229973e-06,1.446003876602025e-06
213,2.5109928050719514e-06,1.5259562071042443e-06,2.06706289658926e-06,1.1286230296945955e-06,3.186443838027056e-06,1.447114508195209e-06,2.422887228090121e-06,1.6844234203131796e-06,1.6562616434796229e-06,1.2908717912670746e-06,9.435976627975503e-07,3.1190699645236246e-06,1.6778207055886624e-06,2.2234764421152416e-05,1.359653088559605e-06,1.4121769876036269e-06
214,2.4945914519870524e-06,1.4733870345461852e-06,2.07213766378953e-06,1.1873029505936637e-06,3.222825080323867e-06,1.4371712946129417e-06,2.403928377043356e-06,1.698006754231222e-06,1.6466512536103812e-06,1.241962140824514e-06,9.449887043344615e-07,3.0956369500804652e-06,1.6855352472524345e-06,2.1843625526121007e-05,1.3823279004519578e-06,1.3782415632637983e-06
215,2.473472433700898e-06,1.427794061380773e-06,2.077098268929794e-06,1.2487325456611808e-06,3.2661844304664367e-06,1.4308346617561505e-06,2.3814720927957137e-06,1.715153900842395e-06,1.639618286592922e-06,1.1935696341746907e-06,9.477118192441124e-07,3.0650440006823437e-06,1.6990694935079573e-06,2.142374902284897e-05,1.4028087410928856e-06,1.344639891624574e-06
216,2.4477667672363725e-06,1.3893822525238863e-06,2.082513785753967e-06,1.3121315763464107e-06,3.314934488024217e-06,1.4278762794482337e-06,2.356480110781599e-06,1.7351244024896671e-06,1.6351906911684622e-06,1.1462680365506758e-06,9.517989656109652e-07,3.0299137086360054e-06,1.7180870460889557e-06,2.097778278385004e-05,1.420633530730048e-06,1.3116544798955868e-06
217,2.417557339861243e-06,1.3582319474915679e-06,2.0889477511040234e-06,1.3766189316319146e-06,3.367001152324267e-06,1.4280080782304804e-06,2.329518590298067e-06,1.7569427914508356e-06,1.633639174831914e-06,1.1005468855678808e-06,9.572934465376617e-07,2.993136431368071e-06,1.7419853598452903e-06,2.0506636965565484e-05,1.435415988367971e-06,1.2793429658275703e-06
218,2.382950694364748e-06,1.3343827891295848e-06,2.0969535551386116e-06,1.4412869501730835e-06,3.420190730615499e-06,1.4309342437255067e-06,2.300698033080351e-06,1.7794520945240459e-06,1.6354286700483565e-06,1.0569430445489282e-06,9.642208755188183e-07,2.9575302599052582e-06,1.7699476142318585e-06,2.0008547458934948e-05,1.4469485039225181e-06,1.2475329931750797e-06
219,2.344377928447301e-06,1.317817820775746e-06,2.106969457111763e-06,1.5052474762583987e-06,3.47264155668563e-06,1.4365613166542245e-06,2.2697687941690927e-06,1.8014399506010092e-06,1.641050668077405e-06,1.0160644981993889e-06,9.725781047676234e-07,2.925548499556457e-06,1.801076194327925e-06,1.9479949542911867e-05,1.4553305464860247e-06,1.2158766880254733e-06
220,2.3027909623410543e-06,1.3084363877215215e-06,2.119217622224925e-06,1.567570082502853e-06,3.522918333895458e-06,1.4452710495658473e-06,2.2363489352798985e-06,1.8217150245765191e-06,1.6509358780384672e-06,9.784930297965856e-07,9.823446234390812e-07,2.899100049042108e-06,1.8345805706030297e-06,1.8918120188704533e-05,1.4609054037933945e-06,1.1839925006380353e-06
221,2.2595380090078925e-06,1.3060772066736646e-06,2.1337088017010185e-06,1.6271982525303158e-06,3.56962677036944e-06,1.4579500407501272e-06,2.200224969027062e-06,1.8390170681162794e-06,1.6653964373277347e-06,9.447460882287195e-07,9.93524312179022e-07,2.879531467051866e-06,1.869917118739952e-06,1.8323998378217955e-05,1.464068864880301e-06,1.1517161975456626e-06
222,2.2160897845098923e-06,1.310498345792129e-06,2.150311330116626e-06,1.6829869199220099e-06,3.6110416170427556e-06,1.4757107732376473e-06,2.161546699883946e-06,1.851932254644962e-06,1.6845697169124374e-06,9.154063157386704e-07,1.0061628197096543e-06,2.867691211024095e-06,1.9068233175396325e-06,1.7703327052926306e-05,1.4651788787917179e-06,1.1192909858231124e-06
223,2.1738403738484497e-06,1.3213019219427375e-06,2.1688362286113617e-06,1.7338740100481197e-06,3.6451965160063772e-06,1.4995944378343762e-06,2.1207918062701915e-06,1.8590620478580425e-06,1.708404286650013e-06,8.913490590331104e-07,1.020302364213172e-06,2.863965530836873e-06,1.9453044107946668e-06,1.7065522206001447e-05,1.464637055940973e-06,1.0872953798185206e-06
224,2.1339756945386574e-06,1.3379588663203921e-06,2.1890941001476926e-06,1.7790241083498513e-06,3.67027335271487e-06,1.5304468404358544e-06,2.078545294563996e-06,1.8593938942820338e-06,1.7366642832510698e-06,8.738816190643762e-07,1.0358958385734536e-06,2.8683276188556546e-06,1.985585822970714e-06,1.6421488867342513e-05,1.463030800917732e-06,1.056397003352389e-06
225,2.0973505745722636e-06,1.359979563259113e-06,2.21088091809662e-06,1.8178574774547407e-06,3.684884357388424e-06,1.5688687714754733e-06,2.035276638012266e-06,1.8525856162717843e-06,1.7689512075614135e-06,8.647093195099883e-07,1.0527245341619003e-06,2.880470874330171e-06,2.027992283763464e-06,1.5782104929325054e-05,1.4611346549764846e-06,1.0271554450658714e-06
226,2.0644208274529013e-06,1.3870397542384576e-06,2.2339011554889273e-06,1.8500819157255106e-06,3.6881361934997535e-06,1.6151534408472245e-06,1.9912586967116593e-06,1.8389775856312079e-06,1.8047572534275747e-06,8.657978406450019e-07,1.0703690083368976e-06,2.8999518187337975e-06,2.0727932609176357e-06,1.5157837729419528e-05,1.4597646942345022e-06,9.99939723239505e-07
227,2.0352548660260736e-06,1.4188974890287025e-06,2.257655825891496e-06,1.8757860988360525e-06,3.679606952317818e-06,1.6692605872850763e-06,1.946571006776123e-06,1.8193954828011746e-06,1.8434918450507432e-06,8.792036478726261e-07,1.0882800829414297e-06,2.9262426966948083e-06,2.1200929986033963e-06,1.4558686086955459e-05,1.4596747498091337e-06,9.749326830554341e-07
228,2.009574070805607e-06,1.4551903316887924e-06,2.2813390240435512e-06,1.8954532393627503e-06,3.6592867228455046e-06,1.7308805269319009e-06,1.9011252215290873e-06,1.794896871587516e-06,1.8844663378528977e-06,9.069557555389034e-07,1.1059504085204481e-06,2.958681175819797e-06,2.169795068357857e-06,1.3993694813119025e-05,1.4615150443959858e-06,9.52199118990563e-07
229,1.986815954174086e-06,1.49530166736069e-06,2.3038418695665236e-06,1.9097861116925723e-06,3.6274349907625718e-06,1.799558170579101e-06,1.854808288778697e-06,1.7665338035708545e-06,1.9269541389740335e-06,9.510723032716926e-07,1.123089212093189e-06,2.9963363552070304e-06,2.2216938167630296e-06,1.3470078092321448e-05,1.4657627560343713e-06,9.317684692973738e-07
230,1.9662492020966366e-06,1.5383435391987675e-06,2.3239138913136796e-06,1.919440477924152e-06,3.5843956422328803e-06,1.8747517492680967e-06,1.8077221826206419e-06,1.7351730516843002e-06,1.9703537140534218e-06,1.0136441287384587e-06,1.1396614492167643e-06,3.0378411954720595e-06,2.2756751321274785e-06,1.299243101161125e-05,1.4726494910001812e-06,9.136922584749743e-07
231,1.947114245519053e-06,1.583174813814487e-06,2.3403761112395434e-06,1.924838221693908e-06,3.5304334766181574e-06,1.9557654556546135e-06,1.7602742358985484e-06,1.7014556565375532e-06,2.014289270859981e-06,1.0968353412972855e-06,1.1557648277404857e-06,3.081308867793032e-06,2.3318017059577224e-06,1.2562403999170422e-05,1.4821467701731342e-06,8.980728059852539e-07
232,1.9287536181291964e-06,1.6284095774040708e-06,2.3522305493683304e-06,1.9261627844027307e-06,3.465572232648832e-06,2.041710869703206e-06,1.7130079578446446e-06,1.665923073762702e-06,2.058533900896836e-06,1.2028353923138911e-06,1.1714850434579994e-06,3.1244128710351784e-06,2.3901397817691067e-06,1.2178852014135733e-05,1.4939979503251247e-06,8.850495192810885e-07
233,1.910715529846086e-06,1.6724712962741195e-06,2.358623637812169e-06,1.9235515144201014e-06,3.389529073102714e-06,2.1316286913355682e-06,1.666381970931796e-06,1.6291995883484086e-06,2.102835296018152e-06,1.3338960617045178e-06,1.1868717444099627e-06,3.1645874516792574e-06,2.4505156203668246e-06,1.1838266865596776e-05,1.5077524700972207e-06,8.747406775712655e-07
234,1.8927923869568622e-06,1.7137412982704247e-06,2.358778297716094e-06,1.9173555058160433e-06,3.3019265656742994e-06,2.224610835239001e-06,1.620685922848798e-06,1.5920573758295276e-06,2.146873390073242e-06,1.4923719959017755e-06,1.202016315730669e-06,3.1992879414993465e-06,2.5124566355379472e-06,1.1535429279599768e-05,1.5227906170717204e-06,8.671873083215758e-07
235,1.8749969683452778e-06,1.7507610217548692e-06,2.3520632617246277e-06,1.908258346529907e-06,3.202702388203635e-06,2.319723660723245e-06,1.576053170791423e-06,1.55530062744596e-06,2.1904689733612604e-06,1.6806188377188115e-06,1.2171158751549366e-06,3.2262852413723494e-06,2.5753182036159507e-06,1.1264210268271088e-05,1.5383418081203092e-06,8.623293253994469e-07
236,1.8575363882817465e-06,1.7823958981488125e-06,2.3382246565135315e-06,1.8971804998481827e-06,3.092458614434599e-06,2.4158223302783085e-06,1.5325504136302621e-06,1.5195993839639163e-06,2.2338033760561215e-06,1.9008281817051978e-06,1.232438987471158e-06,3.243894376021297e-06,2.638386150697244e-06,1.1018242220128322e-05,1.553525208109013e-06,8.599965844349298e-07
237,1.8407548012711533e-06,1.8078365374091514e-06,2.317583810587221e-06,1.8850567869879408e-06,2.9726108347175325e-06,2.5114457384793642e-06,1.4903422318408777e-06,1.4854219001208653e-06,2.277378217047465e-06,2.154916969244203e-06,1.2482043266031582e-06,3.251011501551382e-06,2.700808077701123e-06,1.0791364162783545e-05,1.567453070864164e-06,8.599019310312458e-07
238,1.8249801796519709e-06,1.8264172834724298e-06,2.290957547588217e-06,1.8726099392172212e-06,2.845289615808227e-06,2.6047938535375573e-06,1.4497577743948112e-06,1.453057496966337e-06,2.3217851515961473e-06,2.4444504562912907e-06,1.2644818908922307e-06,3.247018980874624e-06,2.7614504079600245e-06,1.0578189722891315e-05,1.5793609105481357e-06,8.616440120102637e-07
239,1.8103986699295507e-06,1.8375080142677423e-06,2.259316561194733e-06,1.8602250831469602e-06,2.7129998760238665e-06,2.693752706118592e-06,1.4111945888646372e-06,1.4227078824133093e-06,2.3674764541862127e-06,2.770615706645033e-06,1.281191405511386e-06,3.231764781519082e-06,2.818855828869339e-06,1.0375088571148979e-05,1.5887342776146677e-06,8.64729834491614e-07
240,1.7970984557671591e-06,1.8406760447062598e-06,2.2234982423494237e-06,1.8479876529554727e-06,2.5782206681381017e-06,2.776092937982024e-06,1.375041152076998e-06,1.394671566134322e-06,2.414598842923718e-06,3.1342950548227365e-06,1.29815182818078e-06,3.205688001368319e-06,2.8713232524190048e-06,1.0181230358663088e-05,1.5954308920966499e-06,8.68634088063718e-07
241,1.7851544038402192e-06,1.8359044762938065e-06,2.1841387185408094e-06,1.8358231679575194e-06,2.4432268910281456e-06,2.849885717492361e-06,1.341677372002374e-06,1.3694771041715478e-06,2.462923305314326e-06,3.536192531539878e-06,1.3151241014172806e-06,3.1699250409412553e-06,2.9170630941181507e-06,9.998829080108857e-06,1.59967877913215e-06,8.728921654170789e-07
242,1.7745872070603185e-06,1.8236197327966627e-06,2.141662702654582e-06,1.823555745767945e-06,2.3101634169732957e-06,2.913891934399835e-06,1.3114304923491797e-06,1.3477899005269723e-06,2.5119455362779658e-06,3.977009390170349e-06,1.3318370959814066e-06,3.126178548021934e-06,2.9544065256857065e-06,9.832072173690996e-06,1.6018639249862905e-06,8.771524766082966e-07
243,1.7652937403941463e-06,1.8046017950632442e-06,2.0962613557568026e-06,1.8108102998635072e-06,2.1811141058308665e-06,2.967687090356674e-06,1.284488276127488e-06,1.3302175498021468e-06,2.561143006357471e-06,4.457643425965182e-06,1.3479782018462652e-06,3.076317005573638e-06,2.9820250719724866e-06,9.685385877649878e-06,1.6022799956474875e-06,8.811339330366248e-07
244,1.7570681028732348e-06,1.7799271760673237e-06,2.0479074356419933e-06,1.7969267640849381e-06,2.05802211625201e-06,3.0115508394956224e-06,1.260865349000802e-06,1.317219797979163e-06,2.6102291653635574e-06,4.97914776563115e-06,1.36313611286314e-06,3.021922300991054e-06,2.999080958382469e-06,9.562361050327254e-06,1.6010516797958058e-06,8.845770339968046e-07
245,1.7496299233235574e-06,1.7509007849371398e-06,1.996383408850248e-06,1.7810927284668152e-06,1.9425764767225823e-06,3.0462632348427175e-06,1.2403987428772844e-06,1.3091306320533479e-06,2.6591963434601446e-06,5.5423129524557925e-06,1.3767580357502118e-06,2.9640494127165433e-06,3.005209694869166e-06,9.46567725257436e-06,1.5982086441572517e-06,8.872825399856252e-07
246,1.7426570642913715e-06,1.7188827068622322e-06,1.941428619186399e-06,1.7626815658283934e-06,1.8361755875759635e-06,3.0728741390959914e-06,1.222712847067995e-06,1.3062144827724787e-06,2.7080910664889095e-06,6.147213231396665e-06,1.388220066991723e-06,2.9032593569509658e-06,3.0002988813779033e-06,9.397136767952495e-06,1.5937472017944908e-06,8.891632280830168e-07
247,1.7359285521582086e-06,1.6851142939722749e-06,1.8830949693170073e-06,1.7415481892162875e-06,1.7399273950510134e-06,3.0924433425561666e-06,1.2072076615354097e-06,1.3086650832760706e-06,2.7567902261910406e-06,6.793047677694186e-06,1.3970022877598956e-06,2.8398036456560472e-06,2.984235998633341e-06,9.357311879239016e-06,1.5876117367940943e-06,8.902020281380048e-07
248,1.7294529226958065e-06,1.6506648487975422e-06,1.822035066524903e-06,1.718037063573824e-06,1.6546233777661337e-06,3.105777913611897e-06,1.193174160418359e-06,1.3165171408751684e-06,2.8050417175368176e-06,7.4781345108836185e-06,1.4028297179263572e-06,2.7738403926262746e-06,2.9569524043095947e-06,9.34516782226729e-06,1.5796691877043806e-06,8.903612297180272e-07
249,1.7233972203723065e-06,1.6164278345083581e-06,1.7594288035138939e-06,1.6927272449689094e-06,1.5807051789651755e-06,3.1133048378570275e-06,1.1800456239626253e-06,1.3295582733533505e-06,2.8526459230769723e-06,8.199800011590398e-06,1.4056678776992649e-06,2.70564505609687e-06,2.918796612239097e-06,9.357891883150938e-06,1.569731604285086e-06,8.895653724344233e-07
250,1.7179036090511406e-06,1.5830999338062398e-06,1.69666108334796e-06,1.6662003828360774e-06,1.5182673582162747e-06,3.1152138042574954e-06,1.1676370078029027e-06,1.3472903484279345e-06,2.8995615730441876e-06,8.95417384271904e-06,1.4055891353948298e-06,2.635799485839828e-06,2.8708271390653744e-06,9.39079116439197e-06,1.5576214976111955e-06,8.877800000137573e-07
251,1.7129730240780193e-06,1.5511731776288877e-06,1.6350506053286794e-06,1.6390240338983663e-06,1.467119736167675e-06,3.1117856841662605e-06,1.1561876312818339e-06,1.3689265492873659e-06,2.9459065206125805e-06,9.735983883345175e-06,1.4026257118295217e-06,2.5652683396513203e-06,2.8147394307207497e-06,9.437242845844079e-06,1.543253624689538e-06,8.850881921901657e-07
252,1.7084556059630492e-06,1.5209864578413356e-06,1.5757388693849734e-06,1.6118043323192704e-06,1.4269145613057277e-06,3.103680324856829e-06,1.1461944566753653e-06,1.3934614375774434e-06,2.991858770776323e-06,1.0538390005424446e-05,1.396746825444907e-06,2.495278787521757e-06,2.752555865539651e-06,9.48901178604104e-06,1.5266656209505022e-06,8.816890387672807e-07
253,1.704088381485474e-06,1.4928168858646219e-06,1.5196546292910165e-06,1.5851094765113014e-06,1.3972751157490986e-06,3.0920350136196974e-06,1.13819929554902e-06,1.4198541774829285e-06,3.037471737798313e-06,1.135291388287284e-05,1.387981533921657e-06,2.427096125107883e-06,2.6862956440307374e-06,9.537238253863485e-06,1.507995921943808e-06,8.778271370060451e-07
254,1.6995092292913108e-06,1.466897847885926e-06,1.4675066157469872e-06,1.5593343153417197e-06,1.3778332655691962e-06,3.0783221211047813e-06,1.1326586824573167e-06,1.4472343048941456e-06,3.0825525461499277e-06,1.2169387803176375e-05,1.3765529094989543e-06,2.361873113235948e-06,2.617730307522535e-06,9.573792670065407e-06,1.4875153429497659e-06,8.737046961884883e-07
255,1.6942808288777823e-06,1.4433732159052423e-06,1.4198202524557015e-06,1.534645218972782e-06,1.3681844757996927e-06,3.064013278669779e-06,1.1298895087762128e-06,1.4749566233974704e-06,3.1267180758757394e-06,1.2975691877679618e-05,1.3629044322393024e-06,2.3006163313954315e-06,2.5483076023408156e-06,9.59224205895686e-06,1.4657305112175325e-06,8.694411507343222e-07
256,1.687998209397584e-06,1.4223220045815928e-06,1.3769624231238346e-06,1.5109857691979651e-06,1.3678265588423282e-06,3.0502467594525125e-06,1.1300512253415628e-06,1.5025126531112028e-06,3.1694809658122946e-06,1.3757280605178627e-05,1.347631650452702e-06,2.244163177381612e-06,2.479252696707268e-06,9.58798849511361e-06,1.4434093039715013e-06,8.651045970593769e-07
257,1.6803767477136618e-06,1.4038420668962336e-06,1.3391013040971372e-06,1.488137072917945e-06,1.3761235555370793e-06,3.0376955237067924e-06,1.1331568050009543e-06,1.5295025793232223e-06,3.21019844984126e-06,1.4496954258201578e-05,1.3313838951848497e-06,2.193098790094911e-06,2.4116651887643037e-06,9.557667207696512e-06,1.4214279804570837e-06,8.607502906768859e-07
258,1.6712188171497893e-06,1.388090608079895e-06,1.3061634715082238e-06,1.4658721724310884e-06,1.3923291229789005e-06,3.0266362234024365e-06,1.1390898626424293e-06,1.5556775004163096e-06,3.247981035207904e-06,1.5175453019975004e-05,1.3147763719332677e-06,2.1477082718114925e-06,2.346473661751707e-06,9.498115177222214e-06,1.4005532664829543e-06,8.564011375636864e-07
259,1.6603520184595048e-06,1.3752515348694248e-06,1.277853425419202e-06,1.444083432114537e-06,1.4156323854352003e-06,3.0170977711891543e-06,1.1476182128241184e-06,1.5808623722517215e-06,3.2817472753058457e-06,1.57730672801416e-05,1.2983333192799403e-06,2.1080322504271137e-06,2.284327574466842e-06,9.40534770352748e-06,1.3813106717945701e-06,8.52026779494142e-07
260,1.6476022016805117e-06,1.3654408843410692e-06,1.253694735435073e-06,1.422773616329125e-06,1.445162121754811e-06,3.0090049772986126e-06,1.1584430071051204e-06,1.6047970465249185e-06,3.3104034914430213e-06,1.6271888556087548e-05,1.2824642357176167e-06,2.073907036948204e-06,2.225538227071466e-06,9.27423232212829e-06,1.3639650985842901e-06,8.475844565504196e-07
261,1.6327910072744249e-06,1.3585953222527457e-06,1.2330477001150808e-06,1.4020460117475625e-06,1.4800235712141126e-06,3.002261295217864e-06,1.1712604072810626e-06,1.6270689212879144e-06,3.3329061502587368e-06,1.665797900703432e-05,1.2674551155456708e-06,2.0449364648356825e-06,2.170152397195182e-06,9.099461449161616e-06,1.3485969279006345e-06,8.4304956335198e-07
262,1.6158283240609676e-06,1.3544273736025866e-06,1.2151764575356944e-06,1.3821751262137696e-06,1.519397262834805e-06,2.9967083390181264e-06,1.1857440408479285e-06,1.6471693463647282e-06,3.3480666275180533e-06,1.6922765382969932e-05,1.2534479875305747e-06,2.020508889370845e-06,2.1181714042805436e-06,8.877562193422308e-06,1.3352075556473377e-06,8.383813775177976e-07
263,1.5968899755911317e-06,1.3524930704213358e-06,1.1994209635845137e-06,1.3636207152905791e-06,1.5625514739261248e-06,2.99197848449126e-06,1.2014692267529977e-06,1.6646469293825677e-06,3.3542987841057843e-06,1.7063022364679836e-05,1.2403909196964368e-06,1.999888017981889e-06,2.0697069745731613e-06,8.608706427296364e-06,1.3237405732412858e-06,8.334806199114699e-07
264,1.5765053399220827e-06,1.3523433867201245e-06,1.185353339165761e-06,1.3469398756568983e-06,1.6087843417410475e-06,2.987421342802933e-06,1.2179032966044325e-06,1.6792544021721357e-06,3.3495681068929987e-06,1.7079198631884724e-05,1.227991616643736e-06,1.9823147672485245e-06,2.02491775591965e-06,8.297064894559741e-06,1.3140199423306911e-06,8.281698301294887e-07
265,1.55547614595075e-06,1.353684668508277e-06,1.1728024464457632e-06,1.33268371847437e-06,1.657452884088814e-06,2.982244368332571e-06,1.2345163742093295e-06,1.6909498151702978e-06,3.3316381043739533e-06,1.6973535061723113e-05,1.2157604811310019e-06,1.967141815254638e-06,1.9839447029587853e-06,7.949608774453843e-06,1.3057064362241568e-06,8.221958272256415e-07
266,1.5347071690215305e-06,1.3564350562636398e-06,1.1618168127856377e-06,1.3213060786713606e-06,1.708025289194286e-06,2.9757347800005803e-06,1.2509677429191424e-06,1.6997950907138662e-06,3.2987237910228545e-06,1.6750230630371223e-05,1.2031729026241743e-06,1.954020080876265e-06,1.947001304583198e-06,7.574469842845762e-06,1.2983532276913716e-06,8.152846920812395e-07
267,1.5150581403051465e-06,1.3606101152536073e-06,1.152660412905549e-06,1.3131011223115425e-06,1.760036207592325e-06,2.967405431022475e-06,1.267239215759416e-06,1.7059039889624057e-06,3.2503370545116634e-06,1.6417115748537856e-05,1.1898335287514164e-06,1.943007328084353e-06,1.9143784147235085e-06,7.179888004100628e-06,1.291569239286744e-06,8.072333545262239e-07
268,1.497311300906117e-06,1.3661439366159965e-06,1.1457837211529926e-06,1.3081846764808347e-06,1.8129856332901532e-06,2.9571015138949317e-06,1.2835941525652414e-06,1.7094655299520467e-06,3.187566539110325e-06,1.5986008614071075e-05,1.1754957601979254e-06,1.9344534329987737e-06,1.8862870526370294e-06,6.7737384624830875e-06,1.285156582788007e-06,7.9797024694957e-07
269,1.4822223106564321e-06,1.372823289877354e-06,1.1416859442432027e-06,1.3064845258822972e-06,1.8662661843267935e-06,2.945106446286436e-06,1.3004655682528774e-06,1.7107253034581815e-06,3.11248163088132e-06,1.547106512441243e-05,1.1599831952621093e-06,1.9287457778308607e-06,1.8628426489642342e-06,6.363149149524914e-06,1.2790753358477944e-06,7.875659534556199e-07
270,1.4705000883352769e-06,1.380394592456125e-06,1.140743595305622e-06,1.307767132347405e-06,1.9192036542412e-06,2.932227223298507e-06,1.318437973628038e-06,1.709864843567043e-06,3.0272679728970385e-06,1.4886876735232632e-05,1.1431843610094027e-06,1.926165752075997e-06,1.8442575867663998e-06,5.954180685383832e-06,1.2733158240648825e-06,7.762066845274919e-07
271,1.4626871671042805e-06,1.3887309157032728e-06,1.1431369059881326e-06,1.311724736747902e-06,1.971209585058588e-06,2.9198212858544174e-06,1.3382241674893899e-06,1.7068804456933456e-06,2.933759447990978e-06,1.424748048360374e-05,1.125112899710908e-06,1.926929552952898e-06,1.8309135337956854e-06,5.551823704526041e-06,1.267832310039269e-06,7.64130518601585e-07
272,1.4590876578865654e-06,1.3978644927541284e-06,1.1488637668457744e-06,1.3180283697136772e-06,2.021886949371282e-06,2.9096497856082977e-06,1.3605219025770886e-06,1.7015642860439205e-06,2.833476064779585e-06,1.3566140833253578e-05,1.1058951294495872e-06,1.9312262050194647e-06,1.823160920042509e-06,5.1602477136090175e-06,1.2625377338076808e-06,7.5156106330283e-07
273,1.4598428762615423e-06,1.4078631890157327e-06,1.1577576617886008e-06,1.3263507581731973e-06,2.070973120080671e-06,2.9035717310539442e-06,1.3858629905197237e-06,1.6935631505189363e-06,2.7278063047068854e-06,1.2855516835092132e-05,1.0857106517428572e-06,1.939123716626737e-06,1.821084495754181e-06,4.783041778504314e-06,1.2573341194425883e-06,7.386909689611928e-07
274,1.4650772313166042e-06,1.4187066895345063e-06,1.1695036270546968e-06,1.3364577577439628e-06,2.118164398455973e-06,2.9032984796754405e-06,1.414559574158954e-06,1.6824271013802324e-06,2.6179875013673485e-06,1.2127920879069672e-05,1.0648102026731673e-06,1.950459930121271e-06,1.824482622374777e-06,4.423271958919697e-06,1.2521611865706002e-06,7.256965018552147e-07
275,1.47495404103539e-06,1.4302318513530608e-06,1.1836672212498652e-06,1.348301476903578e-06,2.162951610793233e-06,2.9102559018788474e-06,1.4467309670748852e-06,1.6676478951381391e-06,2.505032007813999e-06,1.1395338734918352e-05,1.0435926211683811e-06,1.9648620064272545e-06,1.8330508611922117e-06,4.083355424788629e-06,1.2469679803267923e-06,7.127351386537676e-07
276,1.4895936277297455e-06,1.4421410217737406e-06,1.1997092085306933e-06,1.362006583922684e-06,2.204619964441175e-06,2.925442361952046e-06,1.482350290213407e-06,1.6487595640652786e-06,2.3898729015213272e-06,1.0668984349017412e-05,1.0226165228558162e-06,1.981841678030233e-06,1.846573312183411e-06,3.7649762560745938e-06,1.2416000433565422e-06,6.999404995545239e-07
277,1.5089757978448792e-06,1.4540743561878576e-06,1.2169976192564385e-06,1.3777722747221428e-06,2.242438040886327e-06,2.949326577784304e-06,1.5212343084941564e-06,1.625455466279443e-06,2.2735703299025542e-06,9.958580603045026e-06,1.0025160197721295e-06,2.000826184723605e-06,1.8649449913786156e-06,3.4691810752247223e-06,1.2357478312510765e-06,6.87452257561742e-07
278,1.532945445295099e-06,1.4656859972843082e-06,1.234873147750835e-06,1.3957662552032506e-06,2.2758684390010106e-06,2.981837828898801e-06,1.5629710958535076e-06,1.5976488892146358e-06,2.157332137288854e-06,9.271957585399248e-06,9.839339547882666e-07,2.021092779831094e-06,1.8880408668664168e-06,3.19649251404651e-06,1.2290090227111124e-06,6.754966954367045e-07
279,1.5612745257548823e-06,1.4766351736194858e-06,1.25277799414684e-06,1.4160763387709982e-06,2.304696702488633e-06,3.0223664142603915e-06,1.6068741645719875e-06,1.5655544067759348e-06,2.0424323377035206e-06,8.615252922645838e-06,9.675243924510874e-07,2.0416804281428225e-06,1.9155750077479923e-06,2.946918835893583e-06,1.2209951659852352e-06,6.644819654228519e-07
280,1.5936614519016387e-06,1.4864990923895117e-06,1.2703865476929546e-06,1.4387134524220852e-06,2.329147788456588e-06,3.0697615819529456e-06,1.6519953281607074e-06,1.5298312683690445e-06,1.9301559486104944e-06,7.993310628321377e-06,9.539253087853175e-07,2.061341130041678e-06,1.947019082260028e-06,2.7199873842309293e-06,1.2114981432560535e-06,6.550118282110073e-07
281,1.6296862474699299e-06,1.4947595243072555e-06,1.287630201165944e-06,1.4635935411121654e-06,2.3499524951947842e-06,3.1223919148054653e-06,1.6971429306009626e-06,1.491618062951579e-06,1.821723479875289e-06,7.409861855977856e-06,9.436750235777853e-07,2.0785126068902256e-06,1.9815912099250574e-06,2.5149030447516755e-06,1.2006799399469695e-06,6.477989220498289e-07
282,1.668822224143454e-06,1.5010020594800662e-06,1.3045535402737712e-06,1.4904721146190272e-06,2.3681811870025027e-06,3.178245257156121e-06,1.7409448444711383e-06,1.4523301338461798e-06,1.7181979097540292e-06,6.8675724582995345e-06,9.371468317846878e-07,2.0912876433496323e-06,2.018391920832479e-06,2.330722162577259e-06,1.1890859829837737e-06,6.435662796821479e-07
283,1.7104741141516071e-06,1.5052379381492406e-06,1.3211185700902704e-06,1.5188831248495228e-06,2.3848814554209567e-06,3.2350291106830904e-06,1.7820653817865247e-06,1.4134166829438167e-06,1.6204748509303999e-06,6.368225242625756e-06,9.345174590504027e-07,2.0974715957362836e-06,2.0566351005215137e-06,2.166429289332828e-06,1.177452383268316e-06,6.429814629412818e-07
284,1.7539898872139727e-06,1.508063240699164e-06,1.3371918731925e-06,1.5481702124582832e-06,2.4007768279519014e-06,3.29031513876335e-06,1.8195280444450944e-06,1.3762762592167566e-06,1.5293385179200182e-06,5.91306481881666e-06,9.357636957554279e-07,2.0948448000026382e-06,2.0957153600511993e-06,2.0209530140194905e-06,1.1665112635307223e-06,6.466110220854907e-07
285,1.798708909745729e-06,1.5104809698606633e-06,1.3527713629348195e-06,1.5776736507989552e-06,2.4161314620454264e-06,3.3417823414716425e-06,1.8529648299179394e-06,1.3422292818621985e-06,1.4454598016625315e-06,5.503080870910159e-06,9.407003535772219e-07,2.0816039856246797e-06,2.1350956180016755e-06,1.893172848620867e-06,1.156919326586873e-06,6.54906582801679e-07
286,1.8440168269435575e-06,1.5135593622040646e-06,1.3681985761868966e-06,1.6069979006029907e-06,2.430747823810537e-06,3.3875741783293286e-06,1.8826676443033495e-06,1.3124585827146e-06,1.3693299257226946e-06,5.139029693342214e-06,9.490291881066689e-07,2.0568277485620265e-06,2.1742642448442403e-06,1.7818821634837522e-06,1.1492680895945872e-06,6.682592922591777e-07
287,1.8893184271477813e-06,1.5182116154153922e-06,1.3840936437963432e-06,1.6361464491212834e-06,2.4441374347959485e-06,3.426689436906871e-06,1.909411547862201e-06,1.2879550570016222e-06,1.3012354702794606e-06,4.821234958423651e-06,9.603540764207048e-07,2.020738774646388e-06,2.2127598642539056e-06,1.6856834406353504e-06,1.1440804356958076e-06,6.87132488998484e-07
288,1.9340103636169763e-06,1.5251829067225397e-06,1.4010873886138727e-06,1.6654024472773663e-06,2.4558514776675006e-06,3.4591806931284974e-06,1.9341318075036264e-06,1.2694730114568177e-06,1.2412898734483215e-06,4.549381093296356e-06,9.742016911165683e-07,1.9746007487007583e-06,2.2501066853411674e-06,1.6029137469946554e-06,1.141758135401803e-06,7.121950027986868e-07
289,1.977491602261191e-06,1.5351655752289758e-06,1.4196346271306557e-06,1.695091182622682e-06,2.4657495191107336e-06,3.4859672095117626e-06,1.9576793018187904e-06,1.2575228989588604e-06,1.1894517935342715e-06,4.322433848228531e-06,9.901050836327082e-07,1.92035392705834e-06,2.2857437340124497e-06,1.531758287485079e-06,1.1425248203379836e-06,7.443334077307216e-07
290,2.0190876003376237e-06,1.5488682473212006e-06,1.4400217615762467e-06,1.7254392371913432e-06,2.473958482324232e-06,3.5083330269922395e-06,1.980824470137362e-06,1.2524290879317289e-06,1.1455207725890126e-06,4.138757508918198e-06,1.0076835807029919e-06,1.8602401340690174e-06,2.3190706721905683e-06,1.4705846686687194e-06,1.1464010467111559e-06,7.845345575580293e-07
291,2.057921539136332e-06,1.5669213122763525e-06,1.4624329067741442e-06,1.756543631215725e-06,2.4805435223278067e-06,3.527372556315832e-06,2.0044063292499656e-06,1.2543832623200532e-06,1.1091454400734043e-06,3.996621582037038e-06,1.0266205500206018e-06,1.7965267069048177e-06,2.3495036422178433e-06,1.418243445502672e-06,1.1532170641487423e-06,8.337841267599741e-07
292,2.092959221415389e-06,1.5897265964971684e-06,1.4869389917132526e-06,1.7883190961064461e-06,2.4851844083342224e-06,3.5435899084203855e-06,2.029401122974566e-06,1.263423504018867e-06,1.0798379346800508e-06,3.8950923110502315e-06,1.0465601475634315e-06,1.731303018691396e-06,2.376468212914562e-06,1.3740161914638224e-06,1.162649884386018e-06,8.930836481988799e-07
293,2.1233228067125758e-06,1.6174092337526405e-06,1.5134629182000289e-06,1.820406436513473e-06,2.487115482820341e-06,3.5567078843291756e-06,2.056825714458065e-06,1.279373518658202e-06,1.0569762731123822e-06,3.834741378228758e-06,1.0670100816725545e-06,1.6663421156650958e-06,2.3994794266176706e-06,1.3373073658128247e-06,1.1742675101611686e-06,9.635087815327608e-07
294,2.1486898046068603e-06,1.6498633709648436e-06,1.5418250186226701e-06,1.8521225885057935e-06,2.485344989942423e-06,3.565648479115682e-06,2.087547914139795e-06,1.3018058924364934e-06,1.0398363102093596e-06,3.817562973917548e-06,1.087314275676051e-06,1.603050565951348e-06,2.4183592796714547e-06,1.3074201067429216e-06,1.187623473599013e-06,1.0462047638922472e-06
295,2.169488347093146e-06,1.6867871827849069e-06,1.5718077924324398e-06,1.8824877685307342e-06,2.4790112431665493e-06,3.568613337756682e-06,2.1221103281405517e-06,1.3300414507189059e-06,1.0277391065547855e-06,3.846252176281686e-06,1.1067201723718359e-06,1.5425007405430798e-06,2.433392641070821e-06,1.2835126417820662e-06,1.2024251136346514e-06,1.1423205669424293e-06
296,2.186756529012247e-06,1.7276838644270034e-06,1.6031220311613523e-06,1.910356935906316e-06,2.467693459666632e-06,3.563290675370038e-06,2.160633273366724e-06,1.3631811332214186e-06,1.0202698693123975e-06,3.923781521059697e-06,1.1244774922503913e-06,1.485489984046267e-06,2.445246815777925e-06,1.2647025582641929e-06,1.2186311720031074e-06,1.252930482300499e-06
297,2.2017736900628785e-06,1.7718986248230052e-06,1.635319118255979e-06,1.9346448883126376e-06,2.4514861737386634e-06,3.5473799682924867e-06,2.202824684033e-06,1.4001742070596556e-06,1.0173425802441624e-06,4.054051022802615e-06,1.1398975475956505e-06,1.4325812266816605e-06,2.454703130907044e-06,1.2503292508009244e-06,1.236353639511226e-06,1.379003447449135e-06
298,2.2156898018558654e-06,1.818694082171913e-06,1.6677858560430105e-06,1.9545253264638952e-06,2.43077455799927e-06,3.5194669003499124e-06,2.2480761573202402e-06,1.4399321400858748e-06,1.0190315332329085e-06,4.243243853396847e-06,1.1524253117514186e-06,1.3841403111874929e-06,2.4624579231754833e-06,1.2402743219958796e-06,1.2557155760051555e-06,1.5214703416015883e-06
299,2.2293068238259192e-06,1.867279132622772e-06,1.6998236354376019e-06,1.9694955088025253e-06,2.4059521600569253e-06,3.479837043952935e-06,2.295552215404781e-06,1.4814784027509948e-06,1.0253553057806892e-06,4.500727692485462e-06,1.161704292152755e-06,1.3403963543704924e-06,2.4691348122597654e-06,1.2351156256162437e-06,1.2768438859148888e-06,1.6813815499673455e-06
300,2.243022443824523e-06,1.9167710455194878e-06,1.73068076708297e-06,1.9793019429340413e-06,2.3774049067749438e-06,3.4306597828414375e-06,2.344239618860517e-06,1.5240278470676007e-06,1.0361796861183806e-06,4.83880559244883e-06,1.167489492908728e-06,1.3015440269085875e-06,2.475287191532899e-06,1.235975308105914e-06,1.299910544526393e-06,1.8601120320801274e-06
301,2.256921459050712e-06,1.96616342408873e-06,1.7595023872413844e-06,1.983805230501096e-06,2.3457239339652895e-06,3.3753800096093162e-06,2.39304848142308e-06,1.5669057014774242e-06,1.0512842379406361e-06,5.2715639064286035e-06,1.1694491129452388e-06,1.2678797635651884e-06,2.4812633854000265e-06,1.2441866336797511e-06,1.3251036112913146e-06,2.0595072063324346e-06
302,2.2709827634657154e-06,2.014376389962752e-06,1.7852820827714506e-06,1.9829292726391694e-06,2.3118199979916995e-06,3.317806302706967e-06,2.440916566119252e-06,1.609429599941083e-06,1.07054274516837e-06,5.8135336868340114e-06,1.1670478592087952e-06,1.23988270064192e-06,2.487133817525147e-06,1.2610636157505005e-06,1.3525997944258107e-06,2.2817918296757652e-06
303,2.2852758226688923e-06,2.060407047339849e-06,1.8068637483646144e-06,1.976772086233979e-06,2.276771195019159e-06,3.2614959181508746e-06,2.4867515231106137e-06,1.6508807067619902e-06,1.0940924064802215e-06,6.478767354953288e-06,1.1595982642050175e-06,1.218159151573389e-06,2.4927369315084986e-06,1.287857794194802e-06,1.3826015946740309e-06,2.529227105861777e-06
304,2.300050872917139e-06,2.103514173371423e-06,1.8230397036046526e-06,1.965739829174103e-06,2.241522792054344e-06,3.2095160426640314e-06,2.529346839048526e-06,1.6905047665869662e-06,1.122435362303028e-06,7.280409109824962e-06,1.1464476268688126e-06,1.2033002789131802e-06,2.4977435754786808e-06,1.3257419101696754e-06,1.4153684566441941e-06,2.8037488236989467e-06
305,2.3156892124049228e-06,2.143314256084858e-06,1.832773380733863e-06,1.950508299880038e-06,2.206679321698344e-06,3.1643961389035613e-06,2.567534892806938e-06,1.7275486913360808e-06,1.1565021838415624e-06,8.230409407365644e-06,1.1272042425680717e-06,1.1957624294897386e-06,2.501754427960236e-06,1.375757003765903e-06,1.4512165379696756e-06,3.1067541869216727e-06
306,2.332502009329049e-06,2.179694473581087e-06,1.8354412756495262e-06,1.9318102175057015e-06,2.1725871460689967e-06,3.128163759548878e-06,2.6004891472554817e-06,1.761398271294741e-06,1.1976342981358487e-06,9.339182068735115e-06,1.1018899649326053e-06,1.1958203893335938e-06,2.5043740151974785e-06,1.4387930812085904e-06,1.4905115236203095e-06,3.4390007462323665e-06
307,2.350507542494767e-06,2.212586360635133e-06,1.830966730518961e-06,1.9102277069686638e-06,2.1396861112380863e-06,3.102354453455866e-06,2.6279242316607554e-06,1.7916983206441948e-06,1.2474140525459581e-06,1.0615268386389006e-05,1.0709542244580409e-06,1.2036109880399607e-06,2.505154031885447e-06,1.5156369912207651e-06,1.5336286574801301e-06,3.800592708924217e-06
308,2.3693452888231287e-06,2.24182424936591e-06,1.8198031732567572e-06,1.8861576506659948e-06,2.1088502273978685e-06,3.0880143800048014e-06,2.650113646502187e-06,1.8183180861828778e-06,1.3074252238976015e-06,1.2065022883926263e-05,1.035155680155439e-06,1.2192459017597886e-06,2.5035932381782745e-06,1.6070813096790586e-06,1.5809480209727984e-06,4.191094695734581e-06
309,2.388365323733003e-06,2.2672663494276446e-06,1.8027627206791838e-06,1.8599416292227516e-06,2.0814266559155396e-06,3.0858663447777286e-06,2.667723261093721e-06,1.8412613825672221e-06,1.3790910764538048e-06,1.369228591259914e-05,9.953919319867166e-07,1.242874264765601e-06,2.4993983439629475e-06,1.7139963875012044e-06,1.6329717974948089e-06,4.609722690389451e-06
310,2.406922140346394e-06,2.2889938424564766e-06,1.7807834725470028e-06,1.8320089885827398e-06,2.0589447541240736e-06,3.096600496100988e-06,2.68150516339857e-06,1.8606879895670718e-06,1.4636092473446419e-06,1.549809903942302e-05,9.525736752843246e-07,1.2746261628724919e-06,2.492751919061501e-06,1.8372454838229582e-06,1.6903988404059342e-06,5.055466463070173e-06
311,2.4247546604472198e-06,2.3072739218080106e-06,1.754819883408874e-06,1.8029366630298296e-06,2.042766554250507e-06,3.120981365975658e-06,2.6920856844806943e-06,1.8769660517025162e-06,1.5619274004586439e-06,1.748052407592171e-05,9.075636013151838e-07,1.3145161826208882e-06,2.4842470571247987e-06,1.977511978141407e-06,1.7539853572431861e-06,5.5270513293010795e-06
312,2.44208858646044e-06,2.322351560967055e-06,1.725857407271951e-06,1.773449905971968e-06,2.033958460850511e-06,3.159640790246812e-06,2.700044537396085e-06,1.8905743098966073e-06,1.674719544828637e-06,1.9634502145320203e-05,8.611376022895849e-07,1.3623628169447944e-06,2.4745466099598223e-06,2.1351879959444007e-06,1.8243214563657956e-06,6.022783256273097e-06
313,2.459326373429923e-06,2.3343309067541735e-06,1.6948585373770403e-06,1.7444013640086531e-06,2.0333468607579414e-06,3.2128370989601805e-06,2.7061069707443724e-06,1.9019615120485855e-06,1.802341247394988e-06,2.1951647070385873e-05,8.139528511601894e-07,1.4177141863672504e-06,2.464054594720903e-06,2.31034948665221e-06,1.901687627149986e-06,6.540371803423601e-06
314,2.4766546904711965e-06,2.3432122351457586e-06,1.66261468164581e-06,1.7167276383676446e-06,2.0415694692265205e-06,3.280448150864844e-06,2.711160349107522e-06,1.9115259411429383e-06,1.9447982847186745e-06,2.44199444025463e-05,7.665429216387482e-07,1.4798002879318151e-06,2.4527642659975498e-06,2.5028417066282955e-06,1.9859811754908502e-06,7.076775783933226e-06
315,2.4938771155919893e-06,2.3490575109873257e-06,1.6296680431637715e-06,1.6913674220100477e-06,2.059121889915608e-06,3.3621455104227597e-06,2.7160959397627175e-06,1.919591688623805e-06,2.1018045998980665e-06,2.7023433903751872e-05,7.193294328543507e-07,1.5475383364714782e-06,2.440252677876822e-06,2.7125126176046195e-06,2.0766956311911168e-06,7.628121412791735e-06
316,2.510488644597332e-06,2.3521513933242394e-06,1.596375741587294e-06,1.6691420684384454e-06,2.0864438689771194e-06,3.457657819902199e-06,2.7216551787091313e-06,1.926325395017628e-06,2.272912634656061e-06,2.97420792507003e-05,6.726309361847016e-07,1.6195945638633527e-06,2.4258199668326333e-06,2.939422708309804e-06,2.1729711884037767e-06,8.189781690543296e-06
317,2.5259060210070333e-06,2.352927377479825e-06,1.5630449822264312e-06,1.6506537557696184e-06,2.1239204896317945e-06,3.5670463867252447e-06,2.728376038842003e-06,1.931708401916448e-06,2.4575665388463625e-06,3.2552059749719965e-05,6.267211647172962e-07,1.6944746243398606e-06,2.4087912591150646e-06,3.1837928367663863e-06,2.273665031980377e-06,8.756608398672476e-06
318,2.5397029288884415e-06,2.351702977326373e-06,1.5300393886482685e-06,1.6362451440283226e-06,2.1717241940116605e-06,3.6907336184496113e-06,2.736598547233012e-06,1.9355669807106647e-06,2.6550202551240847e-06,3.5426631479643854e-05,5.819909820723847e-07,1.7705621902598484e-06,2.3887636652503174e-06,3.445751370554272e-06,2.377365284011522e-06,9.32315355815521e-06
319,2.5516704647868657e-06,2.348483566044578e-06,1.4977908598131079e-06,1.6259879770386828e-06,2.229632091544961e-06,3.8291366010851e-06,2.746439271306604e-06,1.937652100845381e-06,2.8642593137453944e-06,3.833753238471352e-05,5.391342842507231e-07,1.8460801578533418e-06,2.365549116561273e-06,3.7251874151070062e-06,2.48237242064857e-06,9.883699321876906e-06
320,2.5616715935113734e-06,2.34292892511646e-06,1.4667115347009835e-06,1.6196964726652574e-06,2.2969609400451206e-06,3.982183292299842e-06,2.7577549640959025e-06,1.9377358816276524e-06,3.083979199965183e-06,4.125657714415857e-05,4.992080045538722e-07,1.9191346444955946e-06,2.338934487425663e-06,4.0217543662305395e-06,2.586756570237393e-06,1.0431978979916109e-05
321,2.5694793573776976e-06,2.3344928455770014e-06,1.437076170152176e-06,1.6170094124695711e-06,2.372618603365407e-06,4.1490842186481165e-06,2.7702195501470036e-06,1.9355868982814376e-06,3.3125477006590614e-06,4.4156965566880014e-05,4.635284604874988e-07,1.9879926791243606e-06,2.3086070768803913e-06,4.334734880089772e-06,2.688533911282586e-06,1.0960625990098909e-05
322,2.57479264679906e-06,2.322743143240369e-06,1.408973945101268e-06,1.6175274030807893e-06,2.4551985788968816e-06,4.328395850207311e-06,2.7834446902289196e-06,1.9308839545925254e-06,3.5480326208806126e-06,4.701419111593106e-05,4.3351203646882797e-07,2.051471551120163e-06,2.274314354618076e-06,4.662746671197056e-06,2.7858595661735595e-06,1.1460731680041682e-05
323,2.577299410063998e-06,2.3076103215415287e-06,1.3823601792402249e-06,1.6209494456490283e-06,2.5430390436256773e-06,4.518123550749433e-06,2.796948109600895e-06,1.923274865869936e-06,3.788357625280138e-06,4.980625521666653e-05,4.105889763014948e-07,2.1091944283851376e-06,2.235968629121789e-06,5.003579113572899e-06,2.877049162753133e-06,1.1922002688408224e-05
324,2.5765576756813786e-06,2.289288309590404e-06,1.3571384307535279e-06,1.6271561985276903e-06,2.6342027208209645e-06,4.715649968754997e-06,2.810082689277109e-06,1.912551812119452e-06,4.031359841128379e-06,5.25120658201472e-05,3.962096800214787e-07,2.1615748244109253e-06,2.1936014188500902e-06,5.354233625082636e-06,2.9603559086283195e-06,1.2333688687410783e-05
325,2.5717905753185376e-06,2.2680040518647327e-06,1.3331790305582345e-06,1.6361859675173524e-06,2.7264790245133407e-06,4.9175428953254514e-06,2.8221338716038373e-06,1.898782673120189e-06,4.274658041754531e-06,5.510872849450927e-05,3.9187468421992144e-07,2.209526285520178e-06,2.1474357045241087e-06,5.710993810802355e-06,3.033770769835353e-06,1.268619006967312e-05
326,2.5618226849322604e-06,2.2440243790428104e-06,1.3102702768537007e-06,1.648091008329961e-06,2.817500408845551e-06,5.119525265075644e-06,2.832485878668749e-06,1.882345799282973e-06,4.515736972289912e-06,5.757205752728176e-05,3.991605519012677e-07,2.2540573439798825e-06,2.098107255669212e-06,6.069517493234073e-06,3.095228635565943e-06,1.2972886044677955e-05
327,2.5452661386911024e-06,2.2178040303614834e-06,1.2880904396884867e-06,1.6627507577705634e-06,2.904847612722123e-06,5.3168702628683805e-06,2.840718490470642e-06,1.8638480207204409e-06,4.752450886275946e-06,5.9882240229160254e-05,4.1973422353167176e-07,2.2960121525448825e-06,2.0467069346678234e-06,6.4251840342368145e-06,3.1430707130828233e-06,1.3191138930703924e-05
