,EMG1,EMG2,EMG3,EMG4,EMG5,EMG6,EMG7,EMG8,EMG9,EMG10,EMG11,EMG12,EMG13,EMG14,EMG15,EMG16
0,1.92392940510142e-07,-5.948399508533733e-11,2.4863460318084534e-07,4.997073429439774e-07,3.5068365906959906e-07,9.12125041097905e-07,2.8994848303757213e-07,3.347433470574757e-07,7.300370247465589e-07,2.275783210769889e-06,-8.397648897691659e-09,4.5380406119241954e-07,1.5692829323820572e-07,1.3867204548495584e-07,1.283284551264558e-07,1.6039311652324483e-07
1,3.83044752071479e-07,2.0032619450991937e-07,3.1747577016314396e-07,6.083394658736226e-07,4.5749640396739394e-07,1.1048262528368606e-06,3.7037215894143995e-07,4.0019687530081607e-07,1.0728415594606055e-06,4.0659842397004385e-06,7.659805878282407e-08,5.021514239483503e-07,3.472805034927209e-07,2.1842971890621502e-07,2.515741615238441e-07,2.961779796625956e-07
2,5.74927074838218e-07,3.938449634878715e-07,3.884972612719898e-07,7.196219092004181e-07,5.627123144075374e-07,1.2953826316013594e-06,4.501557361312392e-07,4.6906464179943996e-07,1.4247855785273243e-06,5.906796920123182e-06,1.5740137418940422e-07,5.536946235461376e-07,5.358830110342064e-07,3.0041062710466175e-07,3.744779374032688e-07,4.3221665698948307e-07
3,7.66973481893638e-07,5.775385672582928e-07,4.6097744746824484e-07,8.311896152542837e-07,6.636338566730295e-07,1.478715823626023e-06,5.287378788069959e-07,5.40974623553444e-07,1.7833909563819892e-06,7.793527326003159e-06,2.3377531949810946e-07,6.089020031071166e-07,7.209062713201388e-07,3.8317355457231315e-07,4.956204504216224e-07,5.671989398711232e-07
4,9.580763261840347e-07,7.4893267817659e-07,5.341455723671962e-07,9.408560458627094e-07,7.586232290918151e-07,1.6501550770441627e-06,6.057087799873918e-07,6.15597774549769e-07,2.146770775302553e-06,9.720409399966582e-06,3.0555659728813047e-07,6.682887189854273e-07,9.007246822077865e-07,4.6543162855624805e-07,6.136754048579188e-07,7.00118302614605e-07
5,1.147165465274405e-06,9.062755570345248e-07,6.072031939313173e-07,1.0468481135919056e-06,8.472594458877299e-07,1.8058187424012932e-06,6.808070140353777e-07,6.926437781300645e-07,2.5135609223485188e-06,1.168069783613028e-05,3.7260047663790445e-07,7.323356669393981e-07,1.073863653127079e-06,5.461261683549857e-07,7.274056489694169e-07,8.302987492648382e-07
6,1.333391342588699e-06,1.048440148666587e-06,6.79399877437385e-07,1.1480010060736858e-06,9.300051448838373e-07,1.9429231128740694e-06,7.539191086368072e-07,7.717933736863485e-07,2.882568761887445e-06,1.3666916167334886e-05,4.3475064480243005e-07,8.014497063654458e-07,1.2388941446935197e-06,6.24522152698974e-07,8.356021865935615e-07,9.572824592484324e-07
7,1.5162227758039718e-06,1.174731059761023e-06,7.501228763764692e-07,1.2438274114918943e-06,1.0076722319670008e-06,2.059893336506669e-06,8.250398809257933e-07,8.526203482548752e-07,3.252438955301622e-06,1.5670913578099283e-05,4.918376056136109e-07,8.759467988198952e-07,1.3944912946938044e-06,7.002698205759058e-07,9.371253417261518e-07,1.0806925680036747e-06
8,1.6953211185949393e-06,1.2849697514585606e-06,8.189060712521453e-07,1.3344246922856893e-06,1.081051846221714e-06,2.156236146804268e-06,8.941861748995492e-07,9.345712081504651e-07,3.621568652776133e-06,1.768342805864755e-05,5.436729083569684e-07,9.560199460013304e-07,1.5396107018744703e-06,7.733363776465471e-07,1.0311143220414936e-06,1.2001905086462142e-06
9,1.8703566809738523e-06,1.3796920931040863e-06,8.853336408208486e-07,1.4202231086411416e-06,1.1507824515635393e-06,2.232182209532289e-06,9.613487484136687e-07,1.0169977287999205e-06,3.988103802249568e-06,1.9693361267927845e-05,5.900696859682183e-07,1.0417132039850865e-06,1.6735616100108838e-06,8.43865637237925e-07,1.1171588363341675e-06,1.315507502829439e-06
10,2.040993477705239e-06,1.460107784298373e-06,9.489336879472303e-07,1.5016707551217797e-06,1.217362165216223e-06,2.288241929921338e-06,1.02651291737301e-06,1.0991805723539552e-06,4.349912275648286e-06,2.168789971134517e-05,6.309455660067385e-07,1.1329563920647588e-06,1.795943833463393e-06,9.120449959356935e-07,1.1952308272641452e-06,1.4264765859409686e-06
11,2.206983449026412e-06,1.5278200813838987e-06,1.0091737171545027e-06,1.5790137508609429e-06,1.281214445782025e-06,2.3250161968109575e-06,1.089681518297135e-06,1.180349610523714e-06,4.70468791398561e-06,2.3654169095343848e-05,6.664328964780076e-07,1.2296281629151439e-06,1.9065946209276771e-06,9.780105115447005e-07,1.2654955464391677e-06,1.5330639012317878e-06
12,2.3681701869583904e-06,1.5845083337990495e-06,1.0655764174799976e-06,1.652266863764091e-06,1.3427024861443213e-06,2.3434090128851155e-06,1.1508298651934463e-06,1.259788208550111e-06,5.0500424064272415e-06,2.5580986261464864e-05,6.968508122089854e-07,1.3315461417106472e-06,2.005604824105414e-06,1.0418803551511902e-06,1.328225113536985e-06,1.6354007175116767e-06
13,2.524352588572587e-06,1.6317173704064819e-06,1.1178772932201416e-06,1.7213366231060901e-06,1.4020431491226337e-06,2.3449020733814223e-06,1.209838307350522e-06,1.3370020739994452e-06,5.383327831331749e-06,2.74585127161309e-05,7.225690073408504e-07,1.4383789005523146e-06,2.0933601985384817e-06,1.1038949015010538e-06,1.3837767356493102e-06,1.7337595749897687e-06
14,2.6751130928461144e-06,1.670804173750915e-06,1.1661166484498136e-06,1.7861359768104314e-06,1.4592061059738706e-06,2.331494533935376e-06,1.2664722019468758e-06,1.411773853747891e-06,5.701517471431347e-06,2.9275639603940107e-05,7.439083286590921e-07,1.5495620338130758e-06,2.1705836570852335e-06,1.1644541340629012e-06,1.432500917203247e-06,1.828456218073736e-06
15,2.8197068659499035e-06,1.703016355746345e-06,1.2105942061095189e-06,1.8465813607485291e-06,1.5139065626789131e-06,2.3053111636346565e-06,1.3203557463131623e-06,1.4840057941535442e-06,6.001481657299884e-06,3.101744727459718e-05,7.611343668201705e-07,1.6642600059167463e-06,2.2383151297041067e-06,1.2239725467732862e-06,1.4746597923611716e-06,1.919743962129589e-06
16,2.956995385991347e-06,1.7295767960667149e-06,1.2516973706577857e-06,1.9026161415813452e-06,1.5656822490412352e-06,2.268220228038736e-06,1.3709004584703371e-06,1.5535046054295824e-06,6.280172215718183e-06,3.266502551496046e-05,7.745235100061321e-07,1.7813466743947638e-06,2.297760610163917e-06,1.282729103114652e-06,1.510448190100827e-06,2.007762875641607e-06
17,3.0853977438408404e-06,1.7516470120820552e-06,1.2897160643380328e-06,1.954382829185065e-06,1.6139658164077056e-06,2.221790351278827e-06,1.4172680670643799e-06,1.619932176785978e-06,6.534243663589134e-06,3.419751711951336e-05,7.844224317303455e-07,1.8994008963024025e-06,2.3500923844102613e-06,1.340851358333e-06,1.5400059520260597e-06,2.092508713500583e-06
18,3.2029716012136953e-06,1.770224778668298e-06,1.3247725684463891e-06,2.0023430701683313e-06,1.6581400389822537e-06,2.167563517880421e-06,1.4584579568561725e-06,1.682912402442549e-06,6.7595533677922074e-06,3.559411118094802e-05,7.912213061170149e-07,2.0168113990130154e-06,2.396303938738167e-06,1.3983572177695268e-06,1.5633890888652096e-06,2.173771281159395e-06
19,3.307756689219155e-06,1.7861026597879926e-06,1.3568531456752975e-06,2.0471716615725423e-06,1.697669582284406e-06,2.107301449419331e-06,1.4935331630983828e-06,1.7420793817390977e-06,6.951164377947606e-06,3.683384940476403e-05,7.95300520919978e-07,2.1320050361864435e-06,2.4371181494204125e-06,1.4551722372921487e-06,1.5806477974183218e-06,2.2511365815164944e-06
20,3.3983137628160856e-06,1.799854595456208e-06,1.3858416888189135e-06,2.089559150583121e-06,1.7323303834174292e-06,2.0429453815257027e-06,1.5218973485298431e-06,1.796983942935589e-06,7.103847058919559e-06,3.789447637428109e-05,7.970267303611996e-07,2.243610146677374e-06,2.4729779605629177e-06,1.511150742607487e-06,1.5919881304499544e-06,2.324163382049395e-06
21,3.474191360096307e-06,1.8117848395575e-06,1.4115798623284245e-06,2.1301091945934214e-06,1.7623592162477539e-06,1.9763679743455495e-06,1.5434692092415077e-06,1.8470145263655007e-06,7.212777872611425e-06,3.8753920676934816e-05,7.967396629984559e-07,2.350471159359656e-06,2.5041665776031606e-06,1.5660849344284264e-06,1.597792945392765e-06,2.3926286798227694e-06
22,3.5360139385468873e-06,1.8219176009776429e-06,1.4339909122415344e-06,2.169362046576928e-06,1.78833202439994e-06,1.909157257355256e-06,1.5586280759088967e-06,1.891478671744857e-06,7.27427913245264e-06,3.9394811125667876e-05,7.947088549751191e-07,2.45168842388023e-06,2.530982620804448e-06,1.6196812173472143e-06,1.5984837869631502e-06,2.456630839628896e-06
23,3.5850701058519437e-06,1.8300956089229159e-06,1.4531230908272996e-06,2.207883579795338e-06,1.8108407581876e-06,1.8425336900652226e-06,1.567967501987124e-06,1.9298363803518693e-06,7.2863432880322765e-06,3.980879572756887e-05,7.911304647629471e-07,2.5467681525615485e-06,2.553824074032535e-06,1.6715651360498764e-06,1.5944563253035262e-06,2.5164999427543167e-06
24,3.6226713793335888e-06,1.8360811325041316e-06,1.4690235471963566e-06,2.246351562831907e-06,1.8302446394927804e-06,1.7773394391102843e-06,1.5720851121111512e-06,1.9619567065368667e-06,7.2484902208111745e-06,3.999770579069381e-05,7.861623099433771e-07,2.6357293336169386e-06,2.573140342245761e-06,1.7212977684282532e-06,1.586189375087833e-06,2.572675830880211e-06
25,3.6497710541220558e-06,1.8395611804561109e-06,1.4815799242628925e-06,2.2855660953600675e-06,1.846661758520036e-06,1.7140619624931488e-06,1.5715424969117466e-06,1.9881704872837015e-06,7.161195049787623e-06,3.9970279263903776e-05,7.799589394382055e-07,2.719073830090837e-06,2.5893417498105572e-06,1.7683454669527734e-06,1.574387147532242e-06,2.625683873777848e-06
26,3.6670214134829234e-06,1.8401912650266188e-06,1.4904624391433472e-06,2.3263230729528523e-06,1.860101866526613e-06,1.652944234232448e-06,1.56688786229835e-06,2.0090033818558874e-06,7.0259204977443785e-06,3.9736370451593494e-05,7.72720940717915e-07,2.7977002404504165e-06,2.602708978226471e-06,1.8120480401088797e-06,1.5599862524009464e-06,2.6761189439440956e-06
27,3.674998447044587e-06,1.83776257204283e-06,1.4952007855156892e-06,2.3691944799746314e-06,1.8705419890876292e-06,1.5942040022035528e-06,1.558642990635203e-06,2.024822883916527e-06,6.845900464347014e-06,3.930419487604314e-05,7.647357411949778e-07,2.872770021694634e-06,2.6133105489603378e-06,1.8516557087122834e-06,1.5440059471049008e-06,2.7245355203951566e-06
28,3.6742964286190907e-06,1.8322704685822812e-06,1.4953978969831e-06,2.4143747390349114e-06,1.8779044625077687e-06,1.538243918938722e-06,1.547256224222138e-06,2.0357259490728705e-06,6.626618931613045e-06,3.8683805319030674e-05,7.563431622823323e-07,2.9454305338072354e-06,2.6209979546009436e-06,1.8864760483282134e-06,1.527363647857546e-06,2.7713049098295235e-06
29,3.6654532137272196e-06,1.823771509662409e-06,1.4909845466291609e-06,2.461678923855136e-06,1.8820757727194155e-06,1.4856780571364137e-06,1.5330511580426454e-06,2.041695836602875e-06,6.375435936369822e-06,3.789311623985223e-05,7.478511483975964e-07,3.016501655948894e-06,2.625459031633291e-06,1.916100740934846e-06,1.5107528019374194e-06,2.8165214884971152e-06
30,3.6488468402864354e-06,1.8122288025850625e-06,1.4823508809572005e-06,2.5106004329128246e-06,1.8830396219921948e-06,1.4371705315743636e-06,1.5162455296294974e-06,2.04280056636011e-06,6.100766494227122e-06,3.6960775576576464e-05,7.394964331913819e-07,3.086385950391185e-06,2.6262792064973476e-06,1.940607277036347e-06,1.494612181623647e-06,2.8600035373114084e-06
31,3.624720323002543e-06,1.7974949235317805e-06,1.4702747843331378e-06,2.5603250862068747e-06,1.8809732136382489e-06,1.3932571651421357e-06,1.4970598512090725e-06,2.0392227769025754e-06,5.811269478468161e-06,3.5924560927678116e-05,7.314653570706111e-07,3.1551766370581206e-06,2.6230361504549534e-06,1.960646978220974e-06,1.4792282901908343e-06,2.9013960710896615e-06
32,3.5933636866976442e-06,1.7794330489312275e-06,1.4557119978405242e-06,2.6097245416469063e-06,1.8761783953337503e-06,1.3542414121832884e-06,1.4758293744882704e-06,2.031166359003318e-06,5.515207244097687e-06,3.48278079474691e-05,7.239312373566608e-07,3.2226864651649296e-06,2.615356976134073e-06,1.977345296298102e-06,1.4649181666832392e-06,2.9402450337581987e-06
33,3.5553057545706554e-06,1.7580741329738786e-06,1.43959122264034e-06,2.657405074225864e-06,1.8689980674189242e-06,1.3201368310733674e-06,1.4530629292068836e-06,2.0188790103489942e-06,5.220033352194429e-06,3.37160364087958e-05,7.171059580071545e-07,3.2883545672679654e-06,2.602940945088342e-06,1.9920214923933542e-06,1.4520913683655289e-06,2.9759486773913335e-06
34,3.5113593539555825e-06,1.7336149231001267e-06,1.4226890374979765e-06,2.7018419963402214e-06,1.8598300036016003e-06,1.2906762962799327e-06,1.4294197723909474e-06,2.0028202526433104e-06,4.932275665530014e-06,3.263408479356757e-05,7.112808199603823e-07,3.3512443598461697e-06,2.58562190085795e-06,2.0059094563617823e-06,1.4411306763095691e-06,3.007740228855488e-06
35,3.462563345413573e-06,1.706253259546685e-06,1.4055542442242301e-06,2.7415845080015923e-06,1.8490949915855132e-06,1.2654471681032347e-06,1.405594762139426e-06,1.983718382099406e-06,4.6576585284983466e-06,3.162350832013294e-05,7.067910397870371e-07,3.4102064406291876e-06,2.5633321443112764e-06,2.02003245678919e-06,1.4322891929848204e-06,3.0348011176512594e-06
36,3.410169040240248e-06,1.6761016173159723e-06,1.3884533832306626e-06,2.77548450717081e-06,1.8371280943210081e-06,1.2441057335774503e-06,1.3822252993816765e-06,1.9623818940817724e-06,4.401252055817984e-06,3.072042792761125e-05,7.03924358755077e-07,3.464091170165321e-06,2.536044339765595e-06,2.03517436504878e-06,1.4257166977595741e-06,3.056351736354419e-06
37,3.355645371432772e-06,1.643310121269788e-06,1.371348464137102e-06,2.802861685940765e-06,1.824125986296349e-06,1.2264889503015672e-06,1.3598896082148837e-06,1.9394284551942086e-06,4.167522191216448e-06,2.995426665963029e-05,7.02857437274472e-07,3.511903310662605e-06,2.5039633367886627e-06,2.051879751033917e-06,1.4215131758128991e-06,3.0716446627016634e-06
38,3.3005354962426457e-06,1.6082652947631344e-06,1.3539002232964947e-06,2.8235468651128555e-06,1.8101320977631806e-06,1.2125360378563819e-06,1.3390801416841882e-06,1.9151454766750043e-06,3.960286029616292e-06,2.934753125892759e-05,7.036471824018074e-07,3.552836616591676e-06,2.4677434857276964e-06,2.070531154908964e-06,1.419766990956983e-06,3.0799949460477123e-06
39,3.2461945742136128e-06,1.5716350988139846e-06,1.3354875378913126e-06,2.837843269879907e-06,1.7949596096031517e-06,1.2021982019195557e-06,1.3201019422987357e-06,1.889563700135339e-06,3.7826094751769204e-06,2.8916301911405075e-05,7.062416273551234e-07,3.5861896208303715e-06,2.42837882257567e-06,2.091447808198908e-06,1.4206170252388612e-06,3.0809503831095924e-06
40,3.1936558516135573e-06,1.5342129794398933e-06,1.3152997808123842e-06,2.846448000044235e-06,1.7781325889461799e-06,1.1954759901683723e-06,1.3029966511219152e-06,1.862683976848107e-06,3.636724230814376e-06,2.8670920933382618e-05,7.104832674121891e-07,3.6112515231080946e-06,2.386946221139481e-06,2.1148831478074886e-06,1.4242672770797507e-06,3.0745213753944616e-06
41,3.1436788684498216e-06,1.4967522730859253e-06,1.2925698409873492e-06,2.8502824478878587e-06,1.7590487784028856e-06,1.192455647997284e-06,1.2875374926690245e-06,1.8346525559027905e-06,3.5240132691840304e-06,2.861658841242049e-05,7.161283270388057e-07,3.627248606043442e-06,2.3444896820438426e-06,2.141033188193172e-06,1.4308954594813357e-06,3.0613056271407176e-06
42,3.0968002250023145e-06,1.4599032526952405e-06,1.2668931925948795e-06,2.850204811896828e-06,1.7373635217229128e-06,1.1932689912522171e-06,1.2732536265957378e-06,1.8057247449353993e-06,3.4450695587686457e-06,2.8753795180633685e-05,7.228896099615221e-07,3.633389551730119e-06,2.3019671333789306e-06,2.1701436658914286e-06,1.4405454273037868e-06,3.042453703959234e-06
43,3.0533635040433363e-06,1.4241746713369814e-06,1.2384585632233046e-06,2.8467484683147255e-06,1.7132516299084216e-06,1.1980808597165752e-06,1.2594725779858639e-06,1.7761671711869286e-06,3.399849486527868e-06,2.9078644351261544e-05,7.304648211914506e-07,3.6290322093364586e-06,2.2601769914118495e-06,2.202549731556703e-06,1.453073938252577e-06,3.0195355758548795e-06
44,3.013625546877541e-06,1.389905353303743e-06,1.2080394555412329e-06,2.840047576983639e-06,1.687284685802078e-06,1.207099325438346e-06,1.2454245380281126e-06,1.746319351489481e-06,3.3878696287119614e-06,2.9583151514685948e-05,7.385651850306172e-07,3.6139743824123836e-06,2.2197527979216965e-06,2.238696906184765e-06,1.4681541205814153e-06,2.9943365323767304e-06
45,2.977844354607378e-06,1.3572976489897066e-06,1.1767495583846284e-06,2.8298853358729717e-06,1.6601622399225541e-06,1.220507666842687e-06,1.2304270099382513e-06,1.7167117144928624e-06,3.4082879117060375e-06,3.0255486495627994e-05,7.469673342110162e-07,3.58878836526608e-06,2.1812405208953087e-06,2.2793166821875455e-06,1.485364716326894e-06,2.96858525252976e-06
46,2.946180913784157e-06,1.326483306025447e-06,1.145727137396815e-06,2.8156804510094824e-06,1.6326109422458769e-06,1.2383502824862028e-06,1.2140970736335307e-06,1.6880331533201559e-06,3.4598181509514495e-06,3.108004330603209e-05,7.555339362448839e-07,3.555040771763297e-06,2.145241403793308e-06,2.3255508080630443e-06,1.5043487181515414e-06,2.9436920058073228e-06
47,2.9184896837951776e-06,1.2975876699109093e-06,1.1159265321654843e-06,2.79639643029942e-06,1.6054179364117503e-06,1.2604808472310432e-06,1.1965096989982276e-06,1.660992461974558e-06,3.540626896246662e-06,3.203739207694711e-05,7.641948278940692e-07,3.5152688592910734e-06,2.112509171751544e-06,2.3787862961021647e-06,1.5249294773394937e-06,2.920595729183541e-06
48,2.894251795846028e-06,1.2707927856710516e-06,1.0880523918398605e-06,2.770575485654727e-06,1.5794991641831122e-06,1.2865780498673884e-06,1.1782222096245286e-06,1.6362318288843597e-06,3.6482961758332467e-06,3.3104236081506144e-05,7.729371253767382e-07,3.4726846646342046e-06,2.08382433633411e-06,2.4403415499370954e-06,1.5470844117376603e-06,2.899718189626123e-06
49,2.8727292737192998e-06,1.2463519782474062e-06,1.062563458989724e-06,2.7366807741802456e-06,1.5559223993997441e-06,1.3161707278447464e-06,1.1601289320811039e-06,1.6143190429786854e-06,3.779772505238149e-06,3.4253274402644174e-05,7.817882854594047e-07,3.4306838703392415e-06,2.0597606983108405e-06,2.5112611941867962e-06,1.5708047252641387e-06,2.8809818842134535e-06
50,2.8531494014491377e-06,1.2245305362493653e-06,1.0396965638705092e-06,2.6936706733292467e-06,1.5357995715068819e-06,1.3486745960562407e-06,1.143245512633538e-06,1.5957510152654628e-06,3.931277081301608e-06,3.5452791562528007e-05,7.907711035144948e-07,3.3923409434372927e-06,2.0405738152921806e-06,2.5922684497316767e-06,1.5960126587344883e-06,2.8639186100166634e-06
51,2.8347126301525862e-06,1.2055735770677719e-06,1.0195255846051714e-06,2.6414910583764197e-06,1.5201400115013457e-06,1.383440547442475e-06,1.1285751062330418e-06,1.5809381033012323e-06,4.098228886359905e-06,3.6666169650198984e-05,7.998875476235683e-07,3.3600716650588873e-06,2.02621129102801e-06,2.6837432766370333e-06,1.6226231902035452e-06,2.8478654716487397e-06
52,2.8164323345823246e-06,1.1897635561162237e-06,1.0020429151084834e-06,2.581177616380857e-06,1.5097992232758072e-06,1.4197962045763673e-06,1.1170589783460593e-06,1.5701689155104678e-06,4.275226122440512e-06,3.7852224227235205e-05,8.091648696037399e-07,3.3355042535008867e-06,2.016382367759193e-06,2.7856609772649338e-06,1.6505862821434657e-06,2.8321127563687025e-06
53,2.7970629064104317e-06,1.1774694945201484e-06,9.87178907930394e-07,2.5145071116538098e-06,1.5054989360225078e-06,1.457123851862694e-06,1.1095273652456556e-06,1.5635513640717576e-06,4.456221247514252e-06,3.896784122146019e-05,8.186806177236166e-07,3.3195190220297443e-06,2.010649791189903e-06,2.89760904202366e-06,1.679775614666838e-06,2.8158730343005093e-06
54,2.775310290665039e-06,1.169111112056534e-06,9.747513580940254e-07,2.4434490648022875e-06,1.5078405183376752e-06,1.4949474415561533e-06,1.106644252648067e-06,1.5609556781942504e-06,4.635026902488508e-06,3.997322032100165e-05,8.28495450340879e-07,3.312447346571433e-06,2.008466108655914e-06,3.0189926824648806e-06,1.7098512335268392e-06,2.7981141436921162e-06
55,2.750151034823213e-06,1.1650684964125113e-06,9.644606267597957e-07,2.369766883842916e-06,1.5173072469159534e-06,1.5329098753804814e-06,1.108876408862049e-06,1.561989496488624e-06,4.805823949315337e-06,4.083650957983392e-05,8.385602958909343e-07,3.3143571385699305e-06,2.009178202318548e-06,3.1493098118390113e-06,1.740251327297672e-06,2.7774738194302437e-06
56,2.7209898789257945e-06,1.1655799327257147e-06,9.55967531759814e-07,2.294891798761998e-06,1.5342553171137782e-06,1.5706393519194426e-06,1.1164937379389024e-06,1.5659976674858444e-06,4.963144663500359e-06,4.1533122293495945e-05,8.486998648007885e-07,3.325206943692364e-06,2.0120990506752127e-06,3.288254180015988e-06,1.7702573666663656e-06,2.752454367746164e-06
57,2.6876387259482683e-06,1.1706684104206353e-06,9.489436762389536e-07,2.2199190266335484e-06,1.5588675435571185e-06,1.6076105245724729e-06,1.1295865994586355e-06,1.572093699300331e-06,5.101666369103315e-06,4.2040016213987066e-05,8.586659454638857e-07,3.344727794802212e-06,2.0165758523938254e-06,3.4355828527881204e-06,1.7990202282784637e-06,2.7218315718844047e-06
58,2.6502452858108616e-06,1.1801287323264653e-06,9.430312216320335e-07,2.145569246630464e-06,1.591097144602294e-06,1.6430876206591979e-06,1.148061034940216e-06,1.5792264465666323e-06,5.216462958717029e-06,4.233136603224961e-05,8.681886841901125e-07,3.3722000904927036e-06,2.021955315782697e-06,3.5909273617844163e-06,1.8255700862974761e-06,2.6849778956634844e-06
59,2.6092147091546363e-06,1.1935555287731212e-06,9.378095283533129e-07,2.072140613746068e-06,1.6306426517162434e-06,1.6761905502907904e-06,1.1716003858902866e-06,1.5862431119787984e-06,5.303423008233303e-06,4.2380245346355636e-05,8.77048246952885e-07,3.406402498605183e-06,2.027622751507571e-06,3.7537054193336078e-06,1.8488623093106633e-06,2.641888068458528e-06
60,2.5650464328235747e-06,1.2103986108145633e-06,9.32848377111964e-07,1.9995559395390935e-06,1.6769730881087088e-06,1.7060605227159292e-06,1.1996349122238995e-06,1.5919831631578998e-06,5.359435133161186e-06,4.216469868878736e-05,8.851872562559619e-07,3.4457650638547516e-06,2.033244787417166e-06,3.9230805777265975e-06,1.8678695048600322e-06,2.592995568949456e-06
61,2.518070068105121e-06,1.2300585551684503e-06,9.277709092709034e-07,1.9275586497768772e-06,1.7294475545192838e-06,1.7320487557248123e-06,1.2313496080186465e-06,1.5954698628016207e-06,5.3825968609948385e-06,4.167451500284364e-05,8.927329029818361e-07,3.4885508554679697e-06,2.038920538412736e-06,4.097844847149719e-06,1.8817557897241072e-06,2.5390295452848556e-06
62,2.4682511465196286e-06,1.2519889325256904e-06,9.222584161426758e-07,1.8560337521353922e-06,1.7874713713654274e-06,1.7537987361618054e-06,1.2657453214406945e-06,1.5960652148379926e-06,5.372421774078045e-06,4.091529194170172e-05,8.998973354400396e-07,3.532930429318772e-06,2.044993613826903e-06,4.2762201660989406e-06,1.8900802208508263e-06,2.4810530739082647e-06
63,2.415223217888757e-06,1.2757620874396145e-06,9.160589833880774e-07,1.7853073504078663e-06,1.850505123718749e-06,1.7711431636383904e-06,1.3018020135984656e-06,1.593409576374027e-06,5.329591085039655e-06,3.990679486526747e-05,9.069181116096385e-07,3.576922513924585e-06,2.0517838787910205e-06,4.45573904202513e-06,1.8928264766455427e-06,2.4205835276480393e-06
64,2.3585205464607827e-06,1.3010876408384101e-06,9.09059188367428e-07,1.7162229236768666e-06,1.917975812470688e-06,1.7840126368423614e-06,1.338751942953484e-06,1.5873025724986538e-06,5.25548556905119e-06,3.867626463048166e-05,9.140779399195289e-07,3.6182817186029033e-06,2.059605018006902e-06,4.633350614434763e-06,1.8902341265254025e-06,2.359544143253153e-06
65,2.297909944102678e-06,1.3277664300284656e-06,9.013610826727828e-07,1.6499480564248062e-06,1.9893430646142e-06,1.7926009567206468e-06,1.3763163561787005e-06,1.5777408989678892e-06,5.152265588784728e-06,3.72523968258854e-05,9.216924429744701e-07,3.6545204148087687e-06,2.069013448635134e-06,4.805689694819477e-06,1.882662011733622e-06,2.299954777872192e-06
66,2.2336735269002256e-06,1.3555773439982578e-06,8.932657678809648e-07,1.5876678090750353e-06,2.0643028080633817e-06,1.7976443451315836e-06,1.414702341716692e-06,1.5649473330928434e-06,5.023340523999283e-06,3.566466194131398e-05,9.300531096984547e-07,3.6831969474087906e-06,2.080941499867383e-06,4.969320702670665e-06,1.8705522998748675e-06,2.243599436410023e-06
67,2.1666279915992328e-06,1.3841435849031088e-06,8.851579262186031e-07,1.5303571227689404e-06,2.1428733585834655e-06,1.8004959400710488e-06,1.4543517492766153e-06,1.5492434990111858e-06,4.873323820105365e-06,3.3945113899682804e-05,9.393902869959433e-07,3.7023224556425524e-06,2.096563968090533e-06,5.120797207483346e-06,1.8543877367654535e-06,2.1919090883786526e-06
68,2.097837450893524e-06,1.4128508371999452e-06,8.773879326471228e-07,1.478725813517737e-06,2.2252620160213905e-06,1.8029127515882152e-06,1.4956786655672998e-06,1.5309765083010674e-06,4.707346036946904e-06,3.212727005448522e-05,9.498440131986556e-07,3.7105783782395767e-06,2.117031475444162e-06,5.256501041040881e-06,1.83465826234215e-06,2.1459919463144115e-06
69,2.028294265738961e-06,1.4408913196653183e-06,8.702326307030959e-07,1.433305649467708e-06,2.3116497248804107e-06,1.8067181081000685e-06,1.538993976625132e-06,1.5106197240421562e-06,4.530396942935573e-06,3.0242594028093143e-05,9.614088291231766e-07,3.707279238467746e-06,2.1432246013932828e-06,5.372453543117712e-06,1.8118856325005968e-06,2.1066412948167447e-06
70,1.958800582171711e-06,1.467480770989759e-06,8.639115470296235e-07,1.3945468502853365e-06,2.4020611817236706e-06,1.8135752712473976e-06,1.5845525670544151e-06,1.4888386176290372e-06,4.34703564322449e-06,2.831830077741384e-05,9.738853224006167e-07,3.692299766117691e-06,2.1756034466012778e-06,5.464485048987053e-06,1.7866632902692057e-06,2.074299500305933e-06
71,1.8900131811779815e-06,1.492140921561011e-06,8.586104429728975e-07,1.3628172335036268e-06,2.4963371174046234e-06,1.8249356599949693e-06,1.632550266327313e-06,1.4663649904085385e-06,4.161275639143823e-06,2.637688682727356e-05,9.868704567144081e-07,3.666120882295401e-06,2.2141762147295417e-06,5.52898123726497e-06,1.7596638513216653e-06,2.049030538393234e-06
72,1.8225662983201324e-06,1.5147958060978705e-06,8.545152837041933e-07,1.3383648473197414e-06,2.5941209184329873e-06,1.8420262568112922e-06,1.6830420127182026e-06,1.4438112428620258e-06,3.976552583335975e-06,2.4436131890759474e-05,9.99783072925147e-07,3.629902849392389e-06,2.258586856385793e-06,5.563780640332912e-06,1.7315927073673196e-06,2.030504004889444e-06
73,1.7571532963633971e-06,1.5356596088944564e-06,8.518256461092688e-07,1.3213254018055297e-06,2.694789780379424e-06,1.8658499062377445e-06,1.7358703387807265e-06,1.4215880984561225e-06,3.795795884331715e-06,2.251006262677052e-05,1.0119653934488965e-06,3.5853525048274234e-06,2.308281548723162e-06,5.5683637422882986e-06,1.7031307778345521e-06,2.018002876817646e-06
74,1.6944530860773725e-06,1.5551673480496328e-06,8.507082671807557e-07,1.3117226882069634e-06,2.797346507785637e-06,1.8972835706743593e-06,1.7906574163811519e-06,1.3999369958415655e-06,3.621434396016098e-06,2.061129188937632e-05,1.022886232296739e-06,3.534290880446478e-06,2.3626130264439444e-06,5.5432361526794835e-06,1.6749577830537215e-06,2.0105072683084476e-06
75,1.635021535270269e-06,1.5739761690687659e-06,8.512626876663779e-07,1.30944570766419e-06,2.9004287479957414e-06,1.9371823817223677e-06,1.8468578744071017e-06,1.3790436545641494e-06,3.455284089272677e-06,1.875321765867019e-05,1.03229481979316e-06,3.4781761910839348e-06,2.4207964004829594e-06,5.489582432200865e-06,1.6478088575174926e-06,2.006845690631572e-06
76,1.5792765256223254e-06,1.5928411728303132e-06,8.535686100876636e-07,1.3142415356988573e-06,3.002603721188233e-06,1.9863365116027846e-06,1.9038095170703723e-06,1.3591496938526134e-06,3.298498292295204e-06,1.6950467970114596e-05,1.04018672657286e-06,3.4179195531079933e-06,2.481818168032965e-06,5.409724205925146e-06,1.6224137507820401e-06,2.0058327886765683e-06
77,1.5274990523270048e-06,1.612402235357289e-06,8.577462711558327e-07,1.3257033391818332e-06,3.1028334935635916e-06,2.045364139401157e-06,1.960725990709679e-06,1.340538340693232e-06,3.1516430673354247e-06,1.5217736701490774e-05,1.04673824622752e-06,3.354020230610241e-06,2.5444234469025507e-06,5.307432288841457e-06,1.5993443574979827e-06,2.0063463329706736e-06
78,1.4798024266398158e-06,1.6330782149001881e-06,8.639428299297921e-07,1.343284180490582e-06,3.2007223488165074e-06,2.114696306215591e-06,2.016718372189089e-06,1.3234053883367858e-06,3.0148381064924475e-06,1.3568266052011386e-05,1.0523510882841155e-06,3.2867927157026083e-06,2.6072377714012434e-06,5.187399470440807e-06,1.5789507927411372e-06,2.0074018859111305e-06
79,1.4361039957067555e-06,1.6550696803266517e-06,8.722575271001561e-07,1.3663810387806033e-06,3.296290414625216e-06,2.194605900205647e-06,2.0709101353702935e-06,1.3077434980574231e-06,2.8879638986988655e-06,1.2012876803760886e-05,1.0576450450621905e-06,3.216507011599201e-06,2.6689339454153885e-06,5.0544483613547686e-06,1.561446053215133e-06,2.0083025824446548e-06
80,1.396134160693572e-06,1.6783547083054379e-06,8.826612256854302e-07,1.3944076563007462e-06,3.3894567541420965e-06,2.2851898364776547e-06,2.1225144814385533e-06,1.2932998318652428e-06,2.7709018424362352e-06,1.0559631676035099e-05,1.0633147314397827e-06,3.143476727621888e-06,2.7282942176700957e-06,4.9131058134486524e-06,1.5469995165461418e-06,2.0088072168177485e-06
81,1.3595459379075758e-06,1.7027134231083979e-06,8.949433253356759e-07,1.4267910600204072e-06,3.4796689902928585e-06,2.3863625200141117e-06,2.170752515471533e-06,1.279588090323516e-06,2.6636436567683357e-06,9.213864033956553e-06,1.0699969413033356e-06,3.068201802199298e-06,2.784286153905355e-06,4.767437680171439e-06,1.5356872646341487e-06,2.009145000337098e-06
82,1.3261033917485821e-06,1.727848122082602e-06,9.086922134072028e-07,1.462931963233009e-06,3.5659115149849643e-06,2.4979403934567716e-06,2.214708697374974e-06,1.2659670631932238e-06,2.56620768291206e-06,7.97840428931957e-06,1.0782075487772639e-06,2.991512787501921e-06,2.836236030835559e-06,4.620907590975356e-06,1.5273575283693297e-06,2.009786790959653e-06
83,1.2958037485163866e-06,1.753472263703857e-06,9.233097450412587e-07,1.5021979553509991e-06,3.6469227114719978e-06,2.6197913233005356e-06,2.2533821510591517e-06,1.251792686923775e-06,2.4786051896403065e-06,6.853927151146839e-06,1.08830910826815e-06,2.9145756482543163e-06,2.883831576490929e-06,4.47642518706499e-06,1.5216136611294316e-06,2.0111351063345596e-06
84,1.2688605221729226e-06,1.7792764796781297e-06,9.380792471539559e-07,1.5440185321157876e-06,3.721293082391639e-06,2.751946812529726e-06,2.28602628236826e-06,1.2365748047771947e-06,2.4010225471527015e-06,5.839293361357652e-06,1.1005089374101912e-06,2.8387853000122577e-06,2.9268549903118e-06,4.336716225759851e-06,1.5179855143733561e-06,2.0134194965318135e-06
85,1.2456252880640707e-06,1.8049008783630033e-06,9.522828562455475e-07,1.5880055574184082e-06,3.7873881616674608e-06,2.894591573848381e-06,2.312470254710174e-06,1.2200780221701408e-06,2.3339254771885358e-06,4.9318125692843194e-06,1.1148832711091346e-06,2.7657401173351356e-06,2.9649299944732906e-06,4.20468169065266e-06,1.516158412958834e-06,2.0168410711600413e-06
86,1.2265156262602038e-06,1.829963743104472e-06,9.652783399816947e-07,1.6339031622788862e-06,3.843364287474598e-06,3.0479489436141563e-06,2.3330720201545457e-06,1.2023315340816416e-06,2.277833842885193e-06,4.127505575110419e-06,1.13139275818455e-06,2.6973104044859623e-06,2.9975262644328907e-06,4.083379143323198e-06,1.5160804211357883e-06,2.021701535597408e-06
87,1.2119231036051962e-06,1.8540157586196422e-06,9.76477210244303e-07,1.6814223559741252e-06,3.887383562425965e-06,3.2121464866170906e-06,2.3483569032847444e-06,1.1835265242663189e-06,2.2330009868806665e-06,3.4214062070496714e-06,1.149868903521468e-06,2.6355675442788647e-06,3.024170533434238e-06,3.97570209827333e-06,1.5178763720600603e-06,2.028313353207409e-06
88,1.202101212379963e-06,1.8764348245273363e-06,9.853375278448522e-07,1.7301881399824505e-06,3.9178483833051985e-06,3.387066887157421e-06,2.3586961783461983e-06,1.1639077815107604e-06,2.199266785582093e-06,2.807794876572731e-06,1.1700122233843924e-06,2.582528024035686e-06,3.044630588234767e-06,3.884158624488375e-06,1.5216518888966135e-06,2.0367872188801428e-06
89,1.197091042002747e-06,1.8964680649999247e-06,9.914804170596e-07,1.7797864306248041e-06,3.933630787232732e-06,3.5721632119182667e-06,2.3642840513755196e-06,1.1437574902888888e-06,2.1760669397643454e-06,2.280329028869908e-06,1.1914412086282824e-06,2.539940716219306e-06,3.0589575725503047e-06,3.811042087402587e-06,1.5273325566929828e-06,2.046887939052564e-06
90,1.1967017831303013e-06,1.913457091510778e-06,9.948451321745816e-07,1.829750867297764e-06,3.9344205362510995e-06,3.766399241117211e-06,2.3653193166154624e-06,1.1233815049366774e-06,2.162524592944473e-06,1.8322257088709069e-06,1.213751087884264e-06,2.5091985404034145e-06,3.0674624260612038e-06,3.7587700724418837e-06,1.5346345231082464e-06,2.0580141695816318e-06
91,1.200540020026006e-06,1.926978537666519e-06,9.95736157837111e-07,1.8794844839967402e-06,3.92102795733855e-06,3.968505578656164e-06,2.362084763693157e-06,1.103077085841123e-06,2.157599944716411e-06,1.4565813116552319e-06,1.2365368692666277e-06,2.491270581165557e-06,3.0706189043630754e-06,3.7298888320804866e-06,1.54314179134071e-06,2.0692618005818195e-06
92,1.2081452599938078e-06,1.93671626410233e-06,9.94713662903662e-07,1.9282635269772637e-06,3.895255620230541e-06,4.177448563330635e-06,2.354864419307662e-06,1.0831717501708619e-06,2.1602052834218197e-06,1.1466869910621643e-06,1.2593817843342254e-06,2.486679727680202e-06,3.0688688706076423e-06,3.7266810732422227e-06,1.5523611481593242e-06,2.07950367231583e-06
93,1.2192362950909527e-06,1.942289667211738e-06,9.923928403964803e-07,1.9754188069723294e-06,3.859361181697345e-06,4.392810158476928e-06,2.3439405133806117e-06,1.0640629426349308e-06,2.1691675299656546e-06,8.962183031528747e-07,1.281812400696941e-06,2.4956115247866863e-06,3.0626330137015753e-06,3.750777346266612e-06,1.561720607465917e-06,2.087408954581812e-06
94,1.233860430129768e-06,1.943333385906473e-06,9.892894993419702e-07,2.0205608972916353e-06,3.8156299327816125e-06,4.614841807002862e-06,2.3297085617362266e-06,1.0461819435049022e-06,2.1830952995971357e-06,6.993321700723003e-07,1.3032251913409486e-06,2.5180615818468012e-06,3.0527409440614665e-06,3.803024239521708e-06,1.5706166279148681e-06,2.091443795310871e-06
95,1.2522679919823895e-06,1.9397606412250167e-06,9.858191889754301e-07,2.063604458805437e-06,3.7662449317746647e-06,4.844118131471146e-06,2.312659661998301e-06,1.0299606992458892e-06,2.2003753756770875e-06,5.506589012476732e-07,1.3228497161257683e-06,2.5538680589184833e-06,3.040857820859795e-06,3.883539662436894e-06,1.5785114410681492e-06,2.090063167194396e-06
96,1.274658144912178e-06,1.9319338693357715e-06,9.82405277193923e-07,2.104607134476479e-06,3.7131515319353454e-06,5.081003391848706e-06,2.293170485096721e-06,1.0158206371284143e-06,2.2194253557939706e-06,4.451540564727235e-07,1.33984777688371e-06,2.6026553995993107e-06,3.0293851610107637e-06,3.991803324654654e-06,1.5849711732515e-06,2.082163139079687e-06
97,1.3010467030247482e-06,1.9205986245829683e-06,9.795284735227006e-07,2.1436948180448283e-06,3.6579105616498558e-06,5.325408449243123e-06,2.271339805040838e-06,1.0041391580087964e-06,2.239029705044354e-06,3.779424586566619e-07,1.353530735683118e-06,2.66385166012072e-06,3.0209232990815054e-06,4.126665152326651e-06,1.5896192925094119e-06,2.067492341332655e-06
98,1.3312968999712475e-06,1.9066568737389651e-06,9.77649394721618e-07,2.1811226612121044e-06,3.601851298720537e-06,5.57708278651636e-06,2.2470181132759665e-06,9.95234984938145e-07,2.2584748705550727e-06,3.442955230394999e-07,1.363529450074264e-06,2.7368140801593634e-06,3.0178036736005284e-06,4.286270136091623e-06,1.592055552506866e-06,2.046671491875124e-06
99,1.3651789388204388e-06,1.8909517383212265e-06,9.771093802009468e-07,2.2172517075979364e-06,3.546493117742286e-06,5.836107385794199e-06,2.219914608266209e-06,9.893946151270148e-07,2.2774820619969098e-06,3.39778202990355e-07,1.3698018409137456e-06,2.8208895958695615e-06,3.021931716074409e-06,4.468011817572459e-06,1.5918495865881884e-06,2.02081157661467e-06
100,1.4023602081742169e-06,1.8741401392708756e-06,9.78112776238218e-07,2.2524050797910603e-06,3.493808153605749e-06,6.103029022331555e-06,2.1897240042408977e-06,9.868813638407118e-07,2.29616269074543e-06,3.6054883885152037e-07,1.3725194049325075e-06,2.9152967369177232e-06,3.034782555758856e-06,4.668535894393021e-06,1.5887157809158438e-06,1.9910337939687924e-06
101,1.442399461536077e-06,1.856630933534055e-06,9.807682482457393e-07,2.286762210185161e-06,3.446023303548703e-06,6.378450562290051e-06,2.1564142081183666e-06,9.879102235546099e-07,2.315018760421044e-06,4.036441336993443e-07,1.3719098731650233e-06,3.018942332640519e-06,3.057468505137831e-06,4.883741344499149e-06,1.5827584093204981e-06,1.9581887615210565e-06
102,1.4848293930112763e-06,1.8385798099776456e-06,9.850936524409867e-07,2.320312578572649e-06,3.405145039995155e-06,6.66256117908127e-06,2.120590555127323e-06,9.926334259911355e-07,2.334806939426654e-06,4.6703380615660253e-07,1.3681016094159562e-06,3.130289900491727e-06,3.0908613639061555e-06,5.108781697054884e-06,1.5745368285404192e-06,1.922818810206088e-06
103,1.5292339021490878e-06,1.8199360465525963e-06,9.909580370571487e-07,2.352813402350251e-06,3.3726462951860428e-06,6.955196931394719e-06,2.0835696795734287e-06,1.001147209133863e-06,2.3562626848092688e-06,5.493952483933802e-07,1.3610391350126766e-06,3.24727284252732e-06,3.135597294393767e-06,5.338090252456525e-06,1.5648730439212913e-06,1.8852291422009853e-06
104,1.5752240101195964e-06,1.800531181212861e-06,9.980364869201984e-07,2.3838020539962146e-06,3.3495165303866793e-06,7.256312472727796e-06,2.047077175953515e-06,1.013480254757638e-06,2.3798613786741147e-06,6.497387623936542e-07,1.3505320129981471e-06,3.367295158138303e-06,3.191919726260591e-06,5.565564134869385e-06,1.5545681500283896e-06,1.8455625346908888e-06
105,1.6223699169444105e-06,1.7801737235948249e-06,1.0058493241653213e-06,2.4126637569501863e-06,3.3365140422468987e-06,7.5663032042869655e-06,2.0128518093490528e-06,1.0295710558498002e-06,2.4057031424337324e-06,7.671306534106832e-07,1.3364216439582959e-06,3.4873970356596275e-06,3.259548783533008e-06,5.785004342977127e-06,1.5442235023519565e-06,1.8038688077913459e-06
106,1.670178591782853e-06,1.7586752184360387e-06,1.0138784591041891e-06,2.438657129021551e-06,3.3343439755916406e-06,7.885866068716636e-06,1.9823896603512845e-06,1.0493021876636756e-06,2.433532175964143e-06,9.006795338226048e-07,1.3187724937128312e-06,3.604511139396832e-06,3.3377296293540742e-06,5.990625549437909e-06,1.5341900522666366e-06,1.760226459263197e-06
107,1.7181333712461238e-06,1.73587126744387e-06,1.021675503685148e-06,2.4609470579014615e-06,3.3435981354604596e-06,8.215438548446115e-06,1.9568781476511946e-06,1.0725821659099286e-06,2.4629065756742696e-06,1.0496587618939214e-06,1.2979583580847277e-06,3.715653160895328e-06,3.42545251982781e-06,6.1774827699326885e-06,1.5245922790741844e-06,1.7149316216850653e-06
108,1.7657436863248998e-06,1.7117650050110475e-06,1.0288931355527794e-06,2.4787863358089016e-06,3.364499109681285e-06,8.554464160135105e-06,1.9372348877478207e-06,1.0993603984972633e-06,2.4934162938058018e-06,1.213515493203496e-06,1.2745936397400065e-06,3.818021368373854e-06,3.5217736401620768e-06,6.341781421147614e-06,1.5154078366807068e-06,1.6686065940273647e-06
109,1.8125326056160388e-06,1.6866582325808886e-06,1.0352738763138521e-06,2.491756797284767e-06,3.3966401168180657e-06,8.900805151448376e-06,1.9241116382165978e-06,1.1295326438513995e-06,2.524770539515007e-06,1.3917496312089106e-06,1.249375865323852e-06,3.909148219308317e-06,3.626146052541839e-06,6.480891348013584e-06,1.5065507903620724e-06,1.6220634129560598e-06
110,1.8579344470129053e-06,1.661055296442103e-06,1.0406451005619142e-06,2.4997769930909473e-06,3.4388641108841138e-06,9.250564893519004e-06,1.9178633016380852e-06,1.162853640503805e-06,2.55679995493426e-06,1.5838085625388854e-06,1.2229300332212132e-06,3.987214403191666e-06,3.7385678049263417e-06,6.592911297355574e-06,1.4979627655726616e-06,1.5760231658089007e-06
111,1.901166066331267e-06,1.635411777916253e-06,1.0449136673190003e-06,2.50278982284465e-06,3.489330651458604e-06,9.598383849891846e-06,1.9185613362476954e-06,1.198959417825739e-06,2.589511179165123e-06,1.7890629483114638e-06,1.1957179004780798e-06,4.0513862315401415e-06,3.859458743420159e-06,6.675952712800096e-06,1.4897459460632627e-06,1.5309463387381773e-06
112,1.941202329823902e-06,1.6099502745824712e-06,1.048080847197456e-06,2.5004221299624606e-06,3.545845294429322e-06,9.938010272622737e-06,1.926047751725744e-06,1.2374233780642056e-06,2.623045727967355e-06,2.0068503002626153e-06,1.168021570500826e-06,4.101906224288457e-06,3.989483836809428e-06,6.727708003437673e-06,1.482197175127641e-06,1.4870288249261548e-06
113,1.97692296140152e-06,1.584624448148166e-06,1.050328327448257e-06,2.4919162411474563e-06,3.606392605869313e-06,1.0262912526500299e-05,1.9400511805334328e-06,1.2777353597788755e-06,2.6574248176858683e-06,2.2364936542054336e-06,1.139975640603497e-06,4.139858339138659e-06,4.1294385425136485e-06,6.745828528017122e-06,1.4756743222863593e-06,1.4442566620561032e-06
114,2.0073471874953487e-06,1.5591806632546197e-06,1.0521296114163074e-06,2.47632703464744e-06,3.6694851628049836e-06,1.0566856221266934e-05,1.9603754799816557e-06,1.3192589643051197e-06,2.6922772415458377e-06,2.4771906538517133e-06,1.111603182894538e-06,4.166793615120345e-06,4.28001189788086e-06,6.728904333296222e-06,1.4704755382872127e-06,1.4025278842775956e-06
115,2.03182411343602e-06,1.5332752000157487e-06,1.0542452473818225e-06,2.452804555550498e-06,3.7340168082878728e-06,1.0844394995980456e-05,1.9870392375716343e-06,1.3612594637617708e-06,2.726687680973763e-06,2.7278182760269862e-06,1.0828157915245159e-06,4.1844536891693e-06,4.441396000884025e-06,6.677357751102822e-06,1.466846985585929e-06,1.3618611297741004e-06
116,2.050133324471222e-06,1.5066213159152899e-06,1.057556154467194e-06,2.420829865891272e-06,3.798855451257234e-06,1.1091180972315119e-05,2.020266375906572e-06,1.4029600683689302e-06,2.759157774481113e-06,2.98678166111084e-06,1.0534333129486857e-06,4.194642330410783e-06,4.612975034092478e-06,6.593834375125265e-06,1.4650766882318527e-06,1.3225225808161849e-06
117,2.0625080977674747e-06,1.4791221343961251e-06,1.0628681733841075e-06,2.3803969882522805e-06,3.862659109951893e-06,1.1304053443812314e-05,2.06035138905208e-06,1.443565656388012e-06,2.7877791489433626e-06,3.251991549525352e-06,1.0232724304640978e-06,4.199084567044336e-06,4.7932567403293125e-06,6.483020117747492e-06,1.4655737181235831e-06,1.284935081895982e-06
118,2.0695581202024906e-06,1.4509374146065683e-06,1.0708111842270608e-06,2.3321658211178167e-06,3.924014717371267e-06,1.1480888982430831e-05,2.1075164065212244e-06,1.4822894172832495e-06,2.8106991991114397e-06,3.521023785625196e-06,9.92236680786149e-07,4.199146502701978e-06,4.98004040431449e-06,6.351058729909993e-06,1.468810485410274e-06,1.2494763873606426e-06
119,2.0720695758862174e-06,1.4224361747701288e-06,1.0818095155713877e-06,2.277505298694302e-06,3.9815585527013675e-06,1.1620120173290343e-05,2.161876198882218e-06,1.5184493709076954e-06,2.8266909910321835e-06,3.791429478524414e-06,9.603606214518569e-07,4.195520850657345e-06,5.170671630187743e-06,6.2049758729994375e-06,1.4751529469901115e-06,1.2163438364375705e-06
120,2.0707578127582575e-06,1.394054816505255e-06,1.0960626403199366e-06,2.2183164497986376e-06,4.03380883410834e-06,1.1719897220387425e-05,2.2234365896488508e-06,1.5516208580845501e-06,2.8355022607789386e-06,4.061056441309261e-06,9.27815487394496e-07,4.188101622589486e-06,5.362182929857678e-06,6.052298479115804e-06,1.4847525327101733e-06,1.1855204431594278e-06
121,2.066137468868693e-06,1.3661787247764e-06,1.1135365237394842e-06,2.1566800588203344e-06,4.078881003409028e-06,1.1777367139370903e-05,2.2919801976297896e-06,1.5816975713302626e-06,2.837827802965002e-06,4.328287631265711e-06,8.949014661119227e-07,4.1761551044526245e-06,5.551344085552885e-06,5.900641854175773e-06,1.497577197258233e-06,1.1567776891236155e-06
122,2.058629007500056e-06,1.3391178391174435e-06,1.1340046842459639e-06,2.0945300475757425e-06,4.114486053021897e-06,1.1788920824211396e-05,2.3669410089474104e-06,1.6087831123416496e-06,2.835001311654648e-06,4.592190516733674e-06,8.620825399666415e-07,4.158714663281261e-06,5.734824711011917e-06,5.757259318910421e-06,1.5135282994340619e-06,1.1296999095889832e-06
123,2.0487822244703816e-06,1.3131017355358591e-06,1.1571533304001689e-06,2.03351518204382e-06,4.138345447693898e-06,1.1751544317021023e-05,2.447477615387801e-06,1.633113889999874e-06,2.828592095805008e-06,4.852543785162955e-06,8.300183285332176e-07,4.135025574854931e-06,5.909505901305702e-06,5.6289269562733735e-06,1.5325824249859941e-06,1.1037829178783587e-06
124,2.0373415425545157e-06,1.2882434500393928e-06,1.1826760290961576e-06,1.975020965001295e-06,4.148755807120394e-06,1.1664341645548471e-05,2.532669153791289e-06,1.655114628430562e-06,2.8200205519198784e-06,5.1096350209965475e-06,7.994758929359871e-07,4.1048548164293515e-06,6.0727786595939085e-06,5.522169159497135e-06,1.5548864664786056e-06,1.0786400068297166e-06
125,2.0251264264931598e-06,1.2645603990534244e-06,1.210272732992157e-06,1.9202042076503976e-06,4.1449724885142365e-06,1.1529321396317459e-05,2.6215680479686765e-06,1.675361267334238e-06,2.8102839095757736e-06,5.363780187618565e-06,7.711684937350705e-07,4.068579349219965e-06,6.222617033729138e-06,5.443378048191022e-06,1.5807300288711116e-06,1.0542409187142277e-06
126,2.0129299476704627e-06,1.2421057168952174e-06,1.2396282637847412e-06,1.8699600688774062e-06,4.1272775639794855e-06,1.1351273831345655e-05,2.7131276504107924e-06,1.6944277005677458e-06,2.799914893693978e-06,5.614757356982111e-06,7.45654297292991e-07,4.027100631169289e-06,6.357253308395772e-06,5.398594142930062e-06,1.6104141547850477e-06,1.031014655293892e-06
127,2.001466415228475e-06,1.2210959132312105e-06,1.27049727719104e-06,1.8248789305299943e-06,4.096732150185463e-06,1.1136981201989756e-05,2.8062695936181547e-06,1.7128011389425273e-06,2.7891428867955342e-06,5.86141561336096e-06,7.233203467630028e-07,3.981643065280798e-06,6.474584892719753e-06,5.393147757301084e-06,1.6441077100074466e-06,1.0097235714827079e-06
128,1.9913210698572625e-06,1.2018967601622438e-06,1.3028176930538395e-06,1.7852719016629751e-06,4.054708932087045e-06,1.0894089363073193e-05,2.900099943931121e-06,1.7308183910157607e-06,2.7780199161796046e-06,6.10148842714029e-06,7.044189056336928e-07,3.93344864039944e-06,6.5717866945676964e-06,5.43142815806872e-06,1.6817342642997628e-06,9.91210512853477e-07
129,1.9829444725916212e-06,1.1848970651181216e-06,1.3366810955985365e-06,1.7512373875637267e-06,4.002473728104444e-06,1.063001176987555e-05,2.99403644432264e-06,1.7485609161041115e-06,2.7664240072941773e-06,6.3315898934821245e-06,6.891174671315859e-07,3.883457167078918e-06,6.6453764073454e-06,5.5168035910094125e-06,1.7228952911925132e-06,9.76196244673132e-07
130,1.9766247965671788e-06,1.1704001754724144e-06,1.372173919584938e-06,1.722704299113969e-06,3.941078402789502e-06,1.0351163593575652e-05,3.087777933094179e-06,1.7657828823616543e-06,2.754107802671332e-06,6.547482889765467e-06,6.775111522030612e-07,3.832159561539694e-06,6.691591783132751e-06,5.651617465219161e-06,1.766854791911872e-06,9.651961294450327e-07
131,1.972375578266712e-06,1.158559246977572e-06,1.409235524397134e-06,1.6994713708108262e-06,3.871496680187521e-06,1.0062526228255718e-05,3.1812316576712263e-06,1.7818737035908004e-06,2.7407878049933662e-06,6.7446082904873785e-06,6.695977910478948e-07,3.7797168105953e-06,6.707008197018943e-06,5.837215609277132e-06,1.8125938963034785e-06,9.58514828050374e-07
132,1.969866054900822e-06,1.1493315547045983e-06,1.4475921895529673e-06,1.6812760861856118e-06,3.7946703385355104e-06,9.767362240082593e-06,3.274427739507924e-06,1.7958546598804041e-06,2.7260823758872485e-06,6.918759001696534e-06,6.652615107012398e-07,3.7261964012823677e-06,6.689311388314977e-06,6.073896706043418e-06,1.8588976369539611e-06,9.563022787316953e-07
133,1.9684557845662635e-06,1.142512575146548e-06,1.4867302595277499e-06,1.6678531066704072e-06,3.7113205186516936e-06,9.467163272755516e-06,3.367334562331267e-06,1.8064962216527845e-06,2.7093733101032557e-06,7.066843890835686e-06,6.642668733318393e-07,3.6716847935610337e-06,6.637767149899825e-06,6.360816165598993e-06,1.904457008142714e-06,9.586730657468883e-07
134,1.9672188138931153e-06,1.1378691213338064e-06,1.5258870930128304e-06,1.6589396576561027e-06,3.6218105108962155e-06,9.162078499226042e-06,3.4595720380264514e-06,1.8125905114208024e-06,2.6897778445743033e-06,7.187719679483592e-06,6.662450725632225e-07,3.6162571645894465e-06,6.552967880312368e-06,6.696145818316777e-06,1.948034954280097e-06,9.657992804769827e-07
135,1.9649479384021425e-06,1.1352539710669499e-06,1.5640853556615784e-06,1.654235258696835e-06,3.5263579282939137e-06,8.851686020426791e-06,3.5501812241322676e-06,1.8132682480957199e-06,2.666203109946788e-06,7.282905422506195e-06,6.706884084150756e-07,3.560000768358917e-06,6.436317493582864e-06,7.077612656945089e-06,1.9886805324186755e-06,9.779300411712008e-07
136,1.9603093757292525e-06,1.134604493874639e-06,1.6002550862731479e-06,1.6533319749351115e-06,3.425457232035655e-06,8.535721474945454e-06,3.637634187289163e-06,1.8082163330288908e-06,2.6375369847080506e-06,7.3565939090651206e-06,6.769795086609273e-07,3.5031456338955855e-06,6.290150146817784e-06,7.502978002476137e-06,2.02585729806299e-06,9.954945498672009e-07
137,1.9521938811225003e-06,1.1358611348936346e-06,1.6334263955017245e-06,1.6556503651983776e-06,3.3202129843981886e-06,8.214674852972715e-06,3.7201328920107057e-06,1.797775761874209e-06,2.6030075890119167e-06,7.414699253850759e-06,6.844798160421594e-07,3.4461687307638933e-06,6.118266912292215e-06,7.969918936550358e-06,2.0593830188336356e-06,1.019368234395451e-06
138,1.9400399188024877e-06,1.1388809810416873e-06,1.6628821230552196e-06,1.6604288840819762e-06,3.212457061061685e-06,7.890321009273971e-06,3.7960321366759533e-06,1.7829521151258328e-06,2.562395902944539e-06,7.464023432473642e-06,6.926559051942273e-07,3.3898304680824757e-06,5.925864727589451e-06,8.47547027064211e-06,2.0892470129559132e-06,1.051074850028342e-06
139,1.9238607689354347e-06,1.1433846868111817e-06,1.6881697777111436e-06,1.6667350696430464e-06,3.1046160778610328e-06,7.565951870085399e-06,3.864109343120561e-06,1.7652853814741695e-06,2.515982325256031e-06,7.512446095099782e-06,7.011463678555418e-07,3.3351691275639056e-06,5.718732682163297e-06,9.01580554328588e-06,2.1155220570684947e-06,1.0927530153762436e-06
140,1.903950047959263e-06,1.1490023430547309e-06,1.7089680704238052e-06,1.6734573252775653e-06,2.9993707895890338e-06,7.2459573262389355e-06,3.923603600126201e-06,1.746554690338566e-06,2.4645295019619364e-06,7.569411577993593e-06,7.097488984845761e-07,3.28337560686938e-06,5.502447284756514e-06,9.586674242315553e-06,2.1384052384126697e-06,1.1470261258737467e-06
141,1.8805265359521064e-06,1.1554508551760026e-06,1.724931990346192e-06,1.6793526095039493e-06,2.8992715842503323e-06,6.934870523705074e-06,3.974199908910028e-06,1.7284651877681186e-06,2.4094081317038646e-06,7.646097101953706e-06,7.184178159916589e-07,3.2355135482951306e-06,5.281944585608112e-06,1.0183860166724168e-05,2.1581507727880745e-06,1.2168927231650532e-06
142,1.853588974363386e-06,1.1626882497925276e-06,1.735720385613547e-06,1.683213777188178e-06,2.8064993367177095e-06,6.63653309460671e-06,4.016026053094779e-06,1.7124745131887565e-06,2.3525824805375886e-06,7.755537990291913e-06,7.272623646438945e-07,3.1922646807821287e-06,5.061336898938222e-06,1.0802998145389642e-05,2.1748726003485374e-06,1.3055704794990176e-06
143,1.8230074472963795e-06,1.1708653788140991e-06,1.7412332937438166e-06,1.6840869987649006e-06,2.7228381543186145e-06,6.353849328943888e-06,4.049548924150491e-06,1.699733481641429e-06,2.2963074205902187e-06,7.912606053405167e-06,7.364777313412039e-07,3.1539024901104848e-06,4.843910001204013e-06,1.143879428993388e-05,2.188481261587006e-06,1.4163178737769275e-06
144,1.7887181468267945e-06,1.1801366050950263e-06,1.7418017948620173e-06,1.6814167709517065e-06,2.649723736396658e-06,6.0888943648259e-06,4.075400961320276e-06,1.6910591716194776e-06,2.242871545063237e-06,8.13341725961598e-06,7.462565473017007e-07,3.1204339603240843e-06,4.632311133829269e-06,1.2084113769074038e-05,2.1988727992083916e-06,1.5523573854014884e-06
145,1.7509054661764983e-06,1.1905338301750285e-06,1.738125711112935e-06,1.6750291973528688e-06,2.588209928772114e-06,5.842922373662979e-06,4.094312224719968e-06,1.6869442688285517e-06,2.1946411828519167e-06,8.434268023190389e-06,7.567342449641533e-07,3.0917153431179293e-06,4.428766649074662e-06,1.2729371905609063e-05,2.206181065578296e-06,1.716861461702189e-06
146,1.7101050789395897e-06,1.2020132660425024e-06,1.731055331286236e-06,1.664952529744024e-06,2.5389229316967814e-06,5.616252697131812e-06,4.107143057648683e-06,1.6875966023388395e-06,2.154114878626838e-06,8.830593768339454e-06,7.679566882871346e-07,3.0675322356078736e-06,4.235242300709216e-06,1.3362323241812425e-05,2.2108107989735696e-06,1.912887719972739e-06
147,1.667178744657716e-06,1.214613246835045e-06,1.7214190760064166e-06,1.6512175259550168e-06,2.502103288484872e-06,5.408344526050233e-06,4.1147866951416795e-06,1.692957515087838e-06,2.123733025515852e-06,9.336262023061572e-06,7.798755955498251e-07,3.047732119622196e-06,4.0535921389053136e-06,1.3968148255028909e-05,2.213279967397802e-06,2.1432942213107247e-06
148,1.6231521210449118e-06,1.2285496542074164e-06,1.7099484441980186e-06,1.633828530395077e-06,2.477637628061784e-06,5.2180891599276275e-06,4.117841451624042e-06,1.7026938768890437e-06,2.1056461365787144e-06,9.963225053352222e-06,7.923760651001472e-07,3.0323427817138284e-06,3.8855744040159035e-06,1.4530298776619671e-05,2.2141792698591925e-06,2.4106782423319976e-06
149,1.579025237591616e-06,1.2441443425525895e-06,1.6972160244358193e-06,1.6129122611890827e-06,2.46503824174553e-06,5.04396558686857e-06,4.116302232941929e-06,1.7162174068285386e-06,2.1017077347572856e-06,1.0721477822373227e-05,8.053163838221259e-07,3.021538983394918e-06,3.73263328490209e-06,1.5032681615608729e-05,2.214258411003523e-06,2.717292918353157e-06
150,1.535678547844022e-06,1.261658574014236e-06,1.6835492766759078e-06,1.588858555146745e-06,2.4634855766889478e-06,4.8840390548533685e-06,4.109525019583618e-06,1.7327821825804726e-06,2.1136269444809575e-06,1.1619170595137361e-05,8.185531418604266e-07,3.0154720756581147e-06,3.5956876089534543e-06,1.5462370494007556e-05,2.214357680747941e-06,3.064936314172306e-06
151,1.4938580302848407e-06,1.281165822893995e-06,1.6689866337570386e-06,1.5623162769968098e-06,2.471948576835946e-06,4.736187314288357e-06,4.096417166762543e-06,1.7516472326542344e-06,2.1430157285218963e-06,1.2662617990668322e-05,8.319346248855375e-07,3.014121821583473e-06,3.4751129409375193e-06,1.5811127716947585e-05,2.21516571237381e-06,3.4548434885891713e-06
152,1.454246047620411e-06,1.302524780598934e-06,1.6533403715567288e-06,1.5340603401122649e-06,2.4892543291808045e-06,4.598568349506142e-06,4.075713683400302e-06,1.7722268389817176e-06,2.1912844832091644e-06,1.3856126780723665e-05,8.452974908301319e-07,3.017264538557243e-06,3.370755582483539e-06,1.607500609566747e-05,2.2170454658599788e-06,3.887581252201861e-06
153,1.4176491892932346e-06,1.3254246572274216e-06,1.6363643345971073e-06,1.5048224630736836e-06,2.514023700909778e-06,4.4699874783887645e-06,4.0462396475259e-06,1.7941548541071747e-06,2.2595855731126063e-06,1.5201835164626584e-05,8.584925474465052e-07,3.0244589451130226e-06,3.281947968152391e-06,1.6252685780339958e-05,2.220094732258864e-06,4.362954447445633e-06
154,1.3851112772656744e-06,1.349446571241419e-06,1.6179569725178575e-06,1.4751671762443883e-06,2.5445775589781476e-06,4.350029801025139e-06,4.007068113846819e-06,1.817239114214954e-06,2.3488789311492023e-06,1.6699733167915892e-05,8.713987423009856e-07,3.034950856425577e-06,3.207683207539719e-06,1.6343443042006974e-05,2.2243998421654263e-06,4.879965922160542e-06
155,1.3577713877457263e-06,1.3741148637899399e-06,1.5982857294999201e-06,1.4454401600862158e-06,2.5789855276039022e-06,4.23899409077215e-06,3.957575197081316e-06,1.8413409584241602e-06,2.4599742111510856e-06,1.834784020767734e-05,8.839094288154401e-07,3.0476128735367244e-06,3.1468427682014784e-06,1.634537091299772e-05,2.2302169846469164e-06,5.436818940527224e-06
156,1.33661784373923e-06,1.398916911492951e-06,1.5777566236437277e-06,1.4158041644167554e-06,2.6152808224715118e-06,4.137611273869625e-06,3.897473319376111e-06,1.8662600244636543e-06,2.5934500124645473e-06,2.0142347564452362e-05,8.959109533056672e-07,3.0610392881396476e-06,3.098224122238916e-06,1.6254865869435932e-05,2.237880181233622e-06,6.030836157550498e-06
157,1.3223607557036958e-06,1.4232692924565526e-06,1.5568634137666443e-06,1.3863473774194708e-06,2.651766860309249e-06,4.046584387601636e-06,3.826894440862767e-06,1.8916850242144178e-06,2.7495667491795116e-06,2.2077500999025363e-05,9.072768389281548e-07,3.073736524798151e-06,3.060365839260431e-06,1.6068135614800124e-05,2.247632282265761e-06,6.6582567919714e-06
158,1.3154294814659787e-06,1.4464890919223547e-06,1.5360607202744167e-06,1.3571498173095313e-06,2.687277621378644e-06,3.966143041574628e-06,3.746540722231094e-06,1.9172008693101925e-06,2.928277676548051e-06,2.4145257291673874e-05,9.178818783807491e-07,3.08434845326062e-06,3.0314859752101173e-06,1.5783779592935486e-05,2.2596437587617008e-06,7.314121195429837e-06
159,1.3160003318682893e-06,1.467820788725753e-06,1.5157656507869896e-06,1.3282434616680295e-06,2.7211549890232544e-06,3.895827287286934e-06,3.657804350976216e-06,1.9423068504234306e-06,3.1292132007905605e-06,2.633497228123046e-05,9.275816228572645e-07,3.091872015069873e-06,3.0098138806058093e-06,1.5404739480045062e-05,2.274097085193296e-06,7.992395517744535e-06
160,1.324015914973396e-06,1.4864723455839725e-06,1.496386425825975e-06,1.299579152260925e-06,2.752917780939673e-06,3.834563733168046e-06,3.5626964875665353e-06,1.9664231670120853e-06,3.3515580223488617e-06,2.8633229059382175e-05,9.361711538509614e-07,3.095731089961884e-06,2.9941153844507043e-06,1.4938867197661782e-05,2.2911153757720544e-06,8.686129566333038e-06
161,1.3392078482755228e-06,1.5016337373999485e-06,1.478248650478845e-06,1.271108425872465e-06,2.781994521856075e-06,3.7809161861331618e-06,3.4635517902812298e-06,1.9889005884968083e-06,3.5939839815863074e-06,3.102378934455597e-05,9.43407888926976e-07,3.0956210770443733e-06,2.9838960267236733e-06,1.4398253419467314e-05,2.3106440529592873e-06,9.387405918313097e-06
162,1.3611380867839193e-06,1.5124709603438332e-06,1.46150156285319e-06,1.2429349045111708e-06,2.807798506993563e-06,3.733297825501197e-06,3.3626434367659755e-06,2.00907001700275e-06,3.8547490601304975e-06,3.3487815248724946e-05,9.490865377644809e-07,3.0912164781741453e-06,2.9790979083431466e-06,1.3797576602539644e-05,2.332494960839445e-06,1.0087183669233492e-05
163,1.3892420458907861e-06,1.5181543686543838e-06,1.446121943999361e-06,1.2154148876484915e-06,2.829961978240552e-06,3.6899797985226897e-06,3.261858585239603e-06,2.0263490972851186e-06,4.131841045355944e-06,3.600452838455131e-05,9.531023170618171e-07,3.0819109378332207e-06,2.979619745811558e-06,1.3151893235835129e-05,2.356449784495463e-06,1.0775147202585925e-05
164,1.4228341661413639e-06,1.5180790441306988e-06,1.4319734994854807e-06,1.1891152892899367e-06,2.848422855953884e-06,3.6489923140397915e-06,3.16251844846246e-06,2.04035778267692e-06,4.423045226815993e-06,3.855196932492781e-05,9.554689904805484e-07,3.0666648780324694e-06,2.985002222906237e-06,1.2474922360607989e-05,2.3821724541966155e-06,1.1439447313884973e-05
165,1.461063517042491e-06,1.5122055989515008e-06,1.4188304865014608e-06,1.1646445766681796e-06,2.8633161279935374e-06,3.6082757840398475e-06,3.065383287703494e-06,2.050958530678123e-06,4.725952312618868e-06,4.110689263766073e-05,9.56321028210327e-07,3.0440203880548054e-06,2.994281963911392e-06,1.1778658012458355e-05,2.4089749877337623e-06,1.2066520985727411e-05
166,1.5028536793968807e-06,1.5011580583565952e-06,1.406348998275788e-06,1.142489036003382e-06,2.874851970736904e-06,3.5661977783645702e-06,2.9707566959903646e-06,2.0581956387437734e-06,5.03793400564251e-06,4.3643081146136606e-05,9.55974907453e-07,3.0123990731052325e-06,3.0059122238432864e-06,1.1073857464842076e-05,2.4356815868553844e-06,1.2641546775942077e-05
167,1.5468734595392764e-06,1.4859298345403147e-06,1.3940844801841682e-06,1.122959949910366e-06,2.883302626983261e-06,3.5220451982197057e-06,2.8785044897237186e-06,2.0621741545030202e-06,5.356061973570753e-06,4.612910851283628e-05,9.549929110089173e-07,2.970612030816135e-06,3.017789544890662e-06,1.0370475368798777e-05,2.460678388033902e-06,1.3149824382639897e-05
168,1.5915855309915043e-06,1.467484810372524e-06,1.381669131308911e-06,1.1062463594499456e-06,2.8890042307957172e-06,3.4760876807498175e-06,2.7880304226851745e-06,2.062932902697112e-06,5.67697319959603e-06,4.8528274640152336e-05,9.54104110563738e-07,2.9182753835128478e-06,3.0274362945045726e-06,9.677655255859603e-06,2.482141742558789e-06,1.3578844649247425e-05
169,1.6354475555007088e-06,1.4465487381737072e-06,1.3690571785920206e-06,1.092498376802329e-06,2.892284314551245e-06,3.4291852077035455e-06,2.6985029547936953e-06,2.0604278770303657e-06,5.996907490091346e-06,5.0802189059862145e-05,9.540207276127356e-07,2.8559033798629725e-06,3.03229345000081e-06,9.003379252605408e-06,2.4984517541583782e-06,1.3920294085369686e-05
170,1.6772672689420403e-06,1.4236158740390815e-06,1.3565896804746522e-06,1.081850294260853e-06,2.8933987518131787e-06,3.382238621398202e-06,2.6093638610966575e-06,2.0546891342637006e-06,6.312196006956898e-06,5.2916304773794106e-05,9.553121347905896e-07,2.7847093969922847e-06,3.0301234627518283e-06,8.354196357593108e-06,2.5086300609174267e-06,1.4170853569576292e-05
171,1.716511798561967e-06,1.3991103987200516e-06,1.3447958736016672e-06,1.0743933992758508e-06,2.8925510044128017e-06,3.335874860729149e-06,2.5206730648274313e-06,2.0459308184519966e-06,6.6199248393583686e-06,5.4844599367734696e-05,9.583805689088929e-07,2.7063050402674124e-06,3.0194659962648964e-06,7.735358570336612e-06,2.5124934410359022e-06,1.4331072464719443e-05
172,1.753312126175247e-06,1.3736134790915055e-06,1.3341232446086778e-06,1.070184014672272e-06,2.88990403176531e-06,3.2904233239044316e-06,2.432943940325828e-06,2.034391903165094e-06,6.918130827775889e-06,5.657198235548983e-05,9.63482635443938e-07,2.6224784279711585e-06,2.999797057654468e-06,7.151109605956214e-06,2.510396492665806e-06,1.4402893661005659e-05
173,1.788139394755364e-06,1.3479767426014834e-06,1.3248084485744384e-06,1.0692689008335146e-06,2.8854676606640587e-06,3.2459074283939465e-06,2.3467180757244587e-06,2.020084170982591e-06,7.205378633121481e-06,5.809409589047531e-05,9.707587298980095e-07,2.53511355948084e-06,2.9712472963531747e-06,6.604869875114918e-06,2.502763697777793e-06,1.438754103031534e-05
174,1.8214085766028588e-06,1.3232174803348044e-06,1.3169230694797425e-06,1.0716528242790857e-06,2.878914934447147e-06,3.2020088296976665e-06,2.26229700447277e-06,2.0027692805851643e-06,7.48018131595326e-06,5.9413791012123344e-05,9.80248952772152e-07,2.4461667574034176e-06,2.934416471195658e-06,6.099587970980037e-06,2.48973251964846e-06,1.4285156511293332e-05
175,1.8532551947539531e-06,1.3003112478457153e-06,1.3105327777517468e-06,1.0772195519703992e-06,2.8695270931969476e-06,3.158213622532027e-06,2.17972227236448e-06,1.9822319889434565e-06,7.740790319016909e-06,6.053573769888589e-05,9.918828615887929e-07,2.3575735262593738e-06,2.890569869614647e-06,5.638296679741166e-06,2.4710648294109035e-06,1.4096004134309431e-05
176,1.8835106042154807e-06,1.2800538657488308e-06,1.3058842479635902e-06,1.085683545254621e-06,2.8563403688850384e-06,3.1141227106603223e-06,2.098948770601461e-06,1.958638858676032e-06,7.985462960324122e-06,6.146516420236066e-05,1.0054763410818655e-06,2.2710650481897824e-06,2.8416422133134875e-06,5.2244157210543914e-06,2.4462654556577485e-06,1.3822112630084584e-05
177,1.9117759060223376e-06,1.2630241340607421e-06,1.3035043523474284e-06,1.0966410528907888e-06,2.8383394705513306e-06,3.069696714580856e-06,2.0201349569111666e-06,1.9326763446625986e-06,8.212704434957174e-06,6.221284098355223e-05,1.0207507091863666e-06,2.1879867251589424e-06,2.7897617889950636e-06,4.861591971888444e-06,2.4148174974156107e-06,1.3468503991712768e-05
178,1.9375768381508535e-06,1.2496137963459015e-06,1.3041304237332223e-06,1.1097066282991801e-06,2.8145968248448116e-06,3.025280589800068e-06,1.9438793856172268e-06,1.9053588075222138e-06,8.42099954800656e-06,6.279925705119617e-05,1.0373146102356355e-06,2.1092355308723613e-06,2.736788486386253e-06,4.5533310673511615e-06,2.3764965003291647e-06,1.3043633995837675e-05
179,1.9606586434079274e-06,1.240101958903584e-06,1.3085142408699063e-06,1.124603886773413e-06,2.784454152458408e-06,2.9814003825159806e-06,1.8712651048067036e-06,1.8776983297138984e-06,8.608566701822075e-06,6.325181052337465e-05,1.0546104362282764e-06,2.035375044009493e-06,2.684217817049806e-06,4.302720996826383e-06,2.331641862586777e-06,1.2558947421140304e-05
180,1.98129302423363e-06,1.2347016453661528e-06,1.3172449887399983e-06,1.141098618944949e-06,2.7477906431414285e-06,2.938499222094074e-06,1.8037124581709718e-06,1.8504834465333735e-06,8.7738219343421e-06,6.359759514629509e-05,1.071941740046475e-06,1.9668779268401025e-06,2.633325152671545e-06,4.112280148786145e-06,2.2811563322081857e-06,1.2027718540251886e-05
181,2.0003429426116762e-06,1.2335160018906635e-06,1.330677761693449e-06,1.158857954460847e-06,2.705196423504487e-06,2.8968730937202303e-06,1.742739134707624e-06,1.8242559322200033e-06,8.915976890755221e-06,6.385979973554566e-05,1.0886274088259676e-06,1.9043643480533495e-06,2.585332695344304e-06,3.983804326959867e-06,2.226189005997047e-06,1.1463570745590724e-05
182,2.0190632188213853e-06,1.236446435183479e-06,1.3489290874056937e-06,1.1774248290051206e-06,2.657865137210562e-06,2.8568607337127574e-06,1.6897371836955781e-06,1.7994045117585053e-06,9.035037250983127e-06,6.406024494816283e-05,1.1041459321862334e-06,1.8486975004782166e-06,2.5414490038388768e-06,3.918238609252951e-06,2.1678184276797912e-06,1.0879122708383689e-05
183,2.0388032474097707e-06,1.2431265544865084e-06,1.3718881736289136e-06,1.1963471165402682e-06,2.6073013681061755e-06,2.819021318337215e-06,1.6458247100827912e-06,1.7762265294189785e-06,9.131534183647406e-06,6.422071564258541e-05,1.1181216206837405e-06,1.8008683050766022e-06,2.5027435328741703e-06,3.915713539950595e-06,2.1069861356828124e-06,1.0285122295569544e-05
184,2.060738018750224e-06,1.2528992857929723e-06,1.3992323115290639e-06,1.2153084565551837e-06,2.555089057070002e-06,2.7840430198995967e-06,1.611780777158866e-06,1.7549160391901832e-06,9.20646577140193e-06,6.435927867710355e-05,1.1302221073832117e-06,1.7617478923004569e-06,2.470032289716754e-06,3.975705537577257e-06,2.0445443574010116e-06,9.690218862696857e-06
185,2.085715662505197e-06,1.2648381437600409e-06,1.4304260913449194e-06,1.2341328391956421e-06,2.5027590579289457e-06,2.7524415323331774e-06,1.588038373839304e-06,1.7355730013398387e-06,9.261281732477464e-06,6.448615059531158e-05,1.1401519689263071e-06,1.7318822655281653e-06,2.443985463180938e-06,4.097101667734633e-06,1.9812369461312585e-06,9.101180165701583e-06
186,2.1142542943182153e-06,1.2778566956606726e-06,1.4646931731683165e-06,1.2527176269652051e-06,2.451646543411067e-06,2.72428190367007e-06,1.5747144745311027e-06,1.7182700459251755e-06,9.297644499560533e-06,6.460104796455746e-05,1.1477591088242365e-06,1.7114433140997977e-06,2.425412097138793e-06,4.278086345892208e-06,1.9176367421953336e-06,8.523231954190098e-06
187,2.14659232757329e-06,1.2909508847768774e-06,1.5010190480673029e-06,1.2709870658377693e-06,2.4028094291226935e-06,2.699056856764023e-06,1.5716848624522254e-06,1.7030910649065646e-06,9.317073080886792e-06,6.469100028409563e-05,1.1530961634643566e-06,1.7003454678413546e-06,2.41546976179148e-06,4.5159954421948386e-06,1.8541715599144125e-06,7.960425099277934e-06
188,2.1826671677612805e-06,1.3035031506058122e-06,1.5382616358259154e-06,1.2888459640491162e-06,2.357124493427366e-06,2.675735173899923e-06,1.5786604201474812e-06,1.6900769315558565e-06,9.320600828627802e-06,6.47305367961526e-05,1.1563316647971198e-06,1.698431840173403e-06,2.4155902870654064e-06,4.8072303839767816e-06,1.79132114690396e-06,7.4160324349235195e-06
189,2.222031286860839e-06,1.315444360540091e-06,1.5753574762753258e-06,1.3061374177808155e-06,2.3154461360079464e-06,2.6529904764455457e-06,1.5951939151442883e-06,1.6791131367488431e-06,9.308608741847555e-06,6.468647986478885e-05,1.1575953701029976e-06,1.7055409411179449e-06,2.4271762318410187e-06,5.147192812163249e-06,1.7298520105355026e-06,6.892871775060901e-06
190,2.2638324228645004e-06,1.3271315871190366e-06,1.6114898041032036e-06,1.3226481729620273e-06,2.278649027464478e-06,2.629577546648909e-06,1.6206636662829168e-06,1.6698679297068525e-06,9.281285862403745e-06,6.452435667260579e-05,1.1569047474020716e-06,1.7213854032140889e-06,2.451344334120341e-06,5.530232126097496e-06,1.6708373185619905e-06,6.393494515372818e-06
191,2.3069344277115673e-06,1.3390586359911088e-06,1.646076378165526e-06,1.3381350448585488e-06,2.247505386370417e-06,2.6046487073343093e-06,1.6542831873010917e-06,1.66183636704473e-06,9.239578744540118e-06,6.421061451627357e-05,1.1541940988092626e-06,1.7454001574922599e-06,2.4888454930123505e-06,5.94967843405562e-06,1.6154366670913298e-06,5.92027944422536e-06
192,2.3500897380398025e-06,1.3516388536057079e-06,1.6786433682296032e-06,1.3524055885034862e-06,2.222510658930633e-06,2.577762945274215e-06,1.6950677403948941e-06,1.6544318098161201e-06,9.185556320065968e-06,6.371248660596939e-05,1.1493804434266283e-06,1.7767071904031675e-06,2.54006215976903e-06,6.398147379248854e-06,1.5646771698315059e-06,5.47544162691297e-06
193,2.3919804183604727e-06,1.3651242834800707e-06,1.7087963826862573e-06,1.3654514418185418e-06,2.2038758403113102e-06,2.5486023612003614e-06,1.741797372301934e-06,1.6470955639025235e-06,9.121644226325375e-06,6.30027758882079e-05,1.1424113284986562e-06,1.8142046991662418e-06,2.6050670346578133e-06,6.868161676925729e-06,1.5193689912089616e-06,5.06093489700512e-06
194,2.4310903108476493e-06,1.379588826676875e-06,1.736304400051183e-06,1.3774590368783134e-06,2.191687345237446e-06,2.5166673667883945e-06,1.7931437845802026e-06,1.6394244145910812e-06,9.049477425357026e-06,6.206829209769368e-05,1.1332776918188135e-06,1.8567305231774466e-06,2.6837699723794195e-06,7.35274095090053e-06,1.4800799469691824e-06,4.6783047398080035e-06
195,2.4656386786361388e-06,1.3949645165212995e-06,1.7611360274702904e-06,1.388720526635255e-06,2.1859692634255653e-06,2.4811812128800377e-06,1.847919632606722e-06,1.6312469990342331e-06,8.969464751586231e-06,6.0914628724687906e-05,1.12201763414706e-06,1.9032309889118683e-06,2.7759718265307575e-06,7.845755458989325e-06,1.4471235474182855e-06,4.328603548185993e-06
196,2.493809233954705e-06,1.4111116515378004e-06,1.7834116811570186e-06,1.399648082054309e-06,2.186567711539677e-06,2.441229836336393e-06,1.9051877743955365e-06,1.6226075274830767e-06,8.881396312493719e-06,5.9564751765814524e-05,1.1087173608196648e-06,1.952881195053485e-06,2.881185581940556e-06,8.342300115308496e-06,1.4205690665610096e-06,4.012373121095083e-06
197,2.5142157078246576e-06,1.4278520576732124e-06,1.8033644800250794e-06,1.410826677814174e-06,2.193041503685043e-06,2.396053158090092e-06,1.964133550112041e-06,1.6136993310839057e-06,8.78545445991443e-06,5.805237880529387e-05,1.093475279446312e-06,2.0051188290134044e-06,2.998391279426419e-06,8.839181509145446e-06,1.4002653732090956e-06,3.729605932928965e-06
198,2.526330406447928e-06,1.4450202859953547e-06,1.8213614725420986e-06,1.4229472446285967e-06,2.2046961685672558e-06,2.345368682041765e-06,2.023901006083026e-06,1.604802283528183e-06,8.682710987848849e-06,5.641273150192833e-05,1.0763428599690333e-06,2.059536270947543e-06,3.1259455176203647e-06,9.335086938898151e-06,1.385867598382503e-06,3.479690231873717e-06
199,2.530598309011377e-06,1.462642277457677e-06,1.8379414954757783e-06,1.4366894309716911e-06,2.2207441622147733e-06,2.2895559441201554e-06,2.0835767901429933e-06,1.5962555265962607e-06,8.574792100544692e-06,5.4676414565884323e-05,1.057305255894149e-06,2.1156630056224823e-06,3.261700892358289e-06,9.830072943476506e-06,1.376859452539599e-06,3.261421682383376e-06
200,2.528143240042201e-06,1.4811035273522269e-06,1.853775188133971e-06,1.4526646510301252e-06,2.240407985127685e-06,2.2296020803441344e-06,2.142268603379989e-06,1.5884355836727982e-06,8.46342412313866e-06,5.286953908396426e-05,1.0362984563478093e-06,2.172844759725028e-06,3.403224462026457e-06,1.0324669118430346e-05,1.3725784746829729e-06,3.0730821478251693e-06
201,2.520326085896693e-06,1.5010807086216015e-06,1.8695207543111922e-06,1.4713876340707531e-06,2.2628046786880855e-06,2.1669107986752533e-06,2.1991582543594588e-06,1.5816850100388819e-06,8.350814957207595e-06,5.1016978011912545e-05,1.0132211778513055e-06,2.2303709575633145e-06,3.547901343994298e-06,1.081903603867221e-05,1.372263630065431e-06,2.912529776879571e-06
202,2.5085128781083983e-06,1.5233413761168059e-06,1.8856796423231736e-06,1.4932336690412772e-06,2.286737479591448e-06,2.103113382648269e-06,2.25354223748982e-06,1.5762663078314466e-06,8.240582197214504e-06,4.9145496364529724e-05,9.879671476369707e-07,2.2877200425394996e-06,3.6928898666703932e-06,1.1312282645835105e-05,1.3751306706427951e-06,2.777271741942532e-06
203,2.494022171031991e-06,1.5486456274218464e-06,1.9025475509003044e-06,1.5184268979920486e-06,2.3106165166124084e-06,2.0398877397979163e-06,2.304924230023196e-06,1.5724282004924133e-06,8.138043222947371e-06,4.7285682022254636e-05,9.604699220770378e-07,2.3446805488351304e-06,3.835143439007249e-06,1.180234315754711e-05,1.3804242700787998e-06,2.664495312263953e-06
204,2.4780276632323207e-06,1.5777032690465155e-06,1.920205849044663e-06,1.54707341332717e-06,2.3326078597590175e-06,1.9788041035636498e-06,2.3531031559139317e-06,1.5704601563718506e-06,8.049495099302151e-06,4.547159122684607e-05,9.3068332505376e-07,2.4012363655116554e-06,3.97159528164705e-06,1.2286712227392092e-05,1.3874061252624484e-06,2.5711098212566685e-06
205,2.4614526751398862e-06,1.6110669185670572e-06,1.938469618733759e-06,1.5791918958645447e-06,2.3510176456433016e-06,1.9212801027679948e-06,2.3981063730265296e-06,1.5706267280252003e-06,7.981085071443176e-06,4.373822800098844e-05,8.985346990995958e-07,2.457282493258362e-06,4.099444196966562e-06,1.2763158798768678e-05,1.3953320244553718e-06,2.4939394274030974e-06
206,2.4449424378941205e-06,1.6490619447016944e-06,1.9568643796105963e-06,1.6147427338225233e-06,2.364721160549358e-06,1.8685896811080864e-06,2.4399673622735716e-06,1.5730783873590288e-06,7.937898577971666e-06,4.211870941511574e-05,8.639710056604476e-07,2.512371839123098e-06,4.216520353135917e-06,1.3229502596815227e-05,1.4034543337182435e-06,2.4300287917093663e-06
207,2.4288495686938138e-06,1.6919008170178236e-06,1.974752279952346e-06,1.653666220004214e-06,2.373291509545601e-06,1.821795510495348e-06,2.4786136778549707e-06,1.577830636983536e-06,7.923583163267537e-06,4.064239078168806e-05,8.270796423515451e-07,2.565676606027476e-06,4.321590982945848e-06,1.368292230583054e-05,1.4110325474157097e-06,2.376824814124222e-06
208,2.4132088439808498e-06,1.7399228825092862e-06,1.9915645047470624e-06,1.6958652294221846e-06,2.376720651084475e-06,1.7816372378486458e-06,2.514005751702353e-06,1.5848161555653571e-06,7.940481970441712e-06,3.9333611419886086e-05,7.881385482342401e-07,2.6161888690603907e-06,4.414301449938737e-06,1.41198376976943e-05,1.4173753882397646e-06,2.332144156463465e-06
209,2.397710048672602e-06,1.7937322389467193e-06,2.006973292137487e-06,1.74110063119073e-06,2.3750574454923833e-06,1.7484774716212593e-06,2.546260696746281e-06,1.59394464043075e-06,7.989857593269629e-06,3.821032125720786e-05,7.475458585303498e-07,2.663043809643066e-06,4.4946733053813185e-06,1.4536721581025674e-05,1.4219121147959713e-06,2.2940616245440466e-06
210,2.381703662163602e-06,1.854096236020867e-06,2.0208748898060152e-06,1.7889210847560158e-06,2.3683233741745605e-06,1.7222989173327145e-06,2.5755537168359434e-06,1.605072952891845e-06,8.071800715942784e-06,3.728271944830945e-05,7.057520508472415e-07,2.7057927164222657e-06,4.56256017053059e-06,1.4931341260925753e-05,1.424221445034024e-06,2.2608569870205585e-06
211,2.3643649109166956e-06,1.921702102457748e-06,2.0331987069633763e-06,1.838746754560707e-06,2.3566629743546027e-06,1.702711448577929e-06,2.6019864111423394e-06,1.6179431174995705e-06,8.184927891688613e-06,3.655268459587848e-05,6.632978512921577e-07,2.744532405625285e-06,4.617561907083471e-06,1.5303579870291113e-05,1.4240306278601343e-06,2.2310645911878995e-06
212,2.3450266924854857e-06,1.9969784215630923e-06,2.043733811862842e-06,1.8900301812513422e-06,2.340486903755446e-06,1.6889850289010406e-06,2.6256495224980636e-06,1.6321738117419214e-06,8.326213522541736e-06,3.601423121602853e-05,6.20893239430246e-07,2.7799509699117268e-06,4.659373744738601e-06,1.5655334391218462e-05,1.421253878696559e-06,2.2035963847565855e-06
213,2.3234791328116956e-06,2.080083299125439e-06,2.0521349718077257e-06,1.9423240109853874e-06,2.3205324311414486e-06,1.6801264930166138e-06,2.6467990361884882e-06,1.6472364673239428e-06,8.490994517690051e-06,3.565439555502826e-05,5.794185832789146e-07,2.813358267524598e-06,4.688090956056185e-06,1.5989725835576432e-05,1.4159972709576552e-06,2.177821883712858e-06
214,2.3000428037823852e-06,2.170970622623182e-06,2.0580289305368124e-06,1.995186976659387e-06,2.297866527993408e-06,1.674980146811127e-06,2.665891879109348e-06,1.6624421272100476e-06,8.672982268575449e-06,3.5454099443848924e-05,5.398517980013981e-07,2.8466496291128162e-06,4.704209083607181e-06,1.6310141997177862e-05,1.4084287042226827e-06,2.1534963943657887e-06
215,2.27538245550612e-06,2.269401621779849e-06,2.061083345742014e-06,2.048036094694167e-06,2.273806946537116e-06,1.6723269690025008e-06,2.68341416823599e-06,1.6770612370670474e-06,8.864332129690915e-06,3.538934416541314e-05,5.032199368023848e-07,2.8821136224964142e-06,4.708514600784368e-06,1.6619337336056598e-05,1.3986076009981672e-06,2.1305903007482388e-06
216,2.2501723331846493e-06,2.3749171051428517e-06,2.061053412496392e-06,2.100129415280724e-06,2.249742801889912e-06,1.6709510030187082e-06,2.699702452887238e-06,1.6905149097523649e-06,9.056066330166392e-06,3.5433499001007986e-05,4.7060138624886065e-07,2.9221421736966583e-06,4.702087426994912e-06,1.691872808047294e-05,1.3864252818369262e-06,2.1091315213810917e-06
217,2.2248027305497754e-06,2.486832272385531e-06,2.057818368076789e-06,2.1506602469151556e-06,2.226906402804191e-06,1.6696365797199156e-06,2.7148887439397504e-06,1.7024698438981154e-06,9.238956914325751e-06,3.556056649145437e-05,4.4314131419957143e-07,2.9690490396468956e-06,4.686325781645217e-06,1.720796898045831e-05,1.3716565890438379e-06,2.0890723923504377e-06
218,2.1992514781221377e-06,2.604204459219979e-06,2.051316057724928e-06,2.1987772116974516e-06,2.206173129516655e-06,1.6671375161522328e-06,2.7288783940312687e-06,1.7127692976494302e-06,9.404553828470345e-06,3.574730321536827e-05,4.2209582459739724e-07,3.025026672283621e-06,4.662753018746229e-06,1.748468556819273e-05,1.354077616829585e-06,2.070179469828177e-06
219,2.1730811063449824e-06,2.7257634297873176e-06,2.0413950736572995e-06,2.243589212615809e-06,2.1879538309217316e-06,1.6622644574951567e-06,2.741378866287518e-06,1.7213120946537576e-06,9.545986264742826e-06,3.597189242088528e-05,4.0891892277142577e-07,3.0920395859767943e-06,4.632605403068263e-06,1.7744890742610945e-05,1.3336708303922092e-06,2.051976400255084e-06
220,2.1454763147602175e-06,2.849864028205517e-06,2.0277414331450475e-06,2.2843085643343853e-06,2.1722264913043828e-06,1.6541709052878392e-06,2.752097977823519e-06,1.7280644879187797e-06,9.658315107099247e-06,3.621053055877209e-05,4.053314669066882e-07,3.171632628495718e-06,4.596555445905275e-06,1.7984959141126117e-05,1.3108179012303178e-06,2.0337083680518735e-06
221,2.115373537217921e-06,2.974463146053356e-06,2.009949007365187e-06,2.320378067976637e-06,2.158671625427576e-06,1.6426729303249068e-06,2.760965093740721e-06,1.7331655446950144e-06,9.73817682524847e-06,3.643634804841427e-05,4.1332248204527217e-07,3.2648234881454073e-06,4.554805262303617e-06,1.820428319656987e-05,1.286247906840159e-06,2.014311260755042e-06
222,2.0817761827845316e-06,3.097181477584991e-06,1.9877133341088813e-06,2.3514663612903016e-06,2.1467940999785562e-06,1.6283299315889022e-06,2.7681344600722107e-06,1.7369080112243542e-06,9.782672912995872e-06,3.6622945839308916e-05,4.3510754044565226e-07,3.3720810885142014e-06,4.507355843398145e-06,1.8406552056373396e-05,1.2607734940864182e-06,1.992499107594666e-06
223,2.0441148492866343e-06,3.2155633387376212e-06,1.96107712458165e-06,2.3774936906505106e-06,2.1359955964485222e-06,1.6122191444455908e-06,2.7737678540493876e-06,1.7395937802832704e-06,9.78819311136466e-06,3.6750422671779086e-05,4.730673225965026e-07,3.493306190884457e-06,4.454224083581418e-06,1.8598979849724905e-05,1.2351255408947801e-06,1.9670367367431035e-06
224,2.0023513559177034e-06,3.3274919486972973e-06,1.9305550467603764e-06,2.3987087958788977e-06,2.125683992271365e-06,1.5955765101205463e-06,2.7777867623149594e-06,1.7414409675532675e-06,9.750188887923684e-06,3.680885732975966e-05,5.296663739032662e-07,3.627878273923563e-06,4.395545194232497e-06,1.879020478979288e-05,1.2100106210260852e-06,1.9370221670738468e-06
225,1.9567957696794744e-06,3.431542297301542e-06,1.897028262950954e-06,2.415632312757375e-06,2.115423352810776e-06,1.57950551943053e-06,2.7798243356868754e-06,1.7425557436360238e-06,9.664185697683843e-06,3.679580033747688e-05,6.073942806975857e-07,3.774863381688941e-06,4.33155707994347e-06,1.8987892824551e-05,1.1862050639324613e-06,1.901981233759063e-06
226,1.907990284518364e-06,3.5270559083190983e-06,1.8615097455223684e-06,2.4288497244947366e-06,2.1049697526887065e-06,1.5648537175999526e-06,2.7794361957650865e-06,1.742902509279806e-06,9.527412738455469e-06,3.6711266619885324e-05,7.087388776849412e-07,3.933343816839647e-06,4.262570440340916e-06,1.9197287690783037e-05,1.1645042415871184e-06,1.861846286412895e-06
227,1.8567828577576446e-06,3.613945818706995e-06,1.8249496838818943e-06,2.438801704798907e-06,2.0941554746661074e-06,1.5522163041989329e-06,2.776326671126631e-06,1.7422927590323684e-06,9.340180780022825e-06,3.6555086640807984e-05,8.361453652093722e-07,4.102726001258366e-06,4.1890221756313e-06,1.9421104708459228e-05,1.1455912510566316e-06,1.8169820916728483e-06
228,1.8042818931004957e-06,3.692434679697199e-06,1.7881465037750594e-06,2.4456384367638658e-06,2.082837268799075e-06,1.5419532900189303e-06,2.7703028950746376e-06,1.740410677942235e-06,9.106288776640311e-06,3.6325268675205146e-05,9.91999132905191e-07,4.282886679440665e-06,4.111492244861101e-06,1.965972738996707e-05,1.1300033434903731e-06,1.7682030603557496e-06
229,1.7517087014062633e-06,3.762830070118624e-06,1.7517140952837491e-06,2.4491693204511576e-06,2.0709926027990797e-06,1.5342046687231004e-06,2.7610045429349428e-06,1.7368993118649333e-06,8.832075285771935e-06,3.601600262585173e-05,1.1786737478770645e-06,4.474126733032017e-06,4.030509353322089e-06,1.991098497029889e-05,1.1182246599052846e-06,1.7166442532297055e-06
230,1.7004202497603628e-06,3.825282778230226e-06,1.7160581576766835e-06,2.448948756156594e-06,2.0587657306778234e-06,1.5289352941269e-06,2.7477207857511063e-06,1.7314599357315947e-06,8.52459256298796e-06,3.5616894825407625e-05,1.3985591429683847e-06,4.6770334199286315e-06,3.946312624872522e-06,2.016990290715874e-05,1.1107753606812061e-06,1.663559342931751e-06
231,1.6519495085009383e-06,3.879543293976389e-06,1.6814352105561984e-06,2.4444070099006024e-06,2.0463987343809373e-06,1.5259572466276737e-06,2.7294685951378347e-06,1.7238293490289208e-06,8.19024985320825e-06,3.511366093645242e-05,1.6539866681622027e-06,4.89235841378028e-06,3.858947436836353e-06,2.0428903452497786e-05,1.1081920749861662e-06,1.6102112270695622e-06
232,1.6078467814926416e-06,3.924837806658181e-06,1.6481192926767887e-06,2.4348981168246545e-06,2.0341959981409764e-06,1.5249433309210383e-06,2.7052685803245776e-06,1.7137342342770493e-06,7.834717536061917e-06,3.4490778704286616e-05,1.9470779030956423e-06,5.12089876177816e-06,3.76867039379545e-06,2.0678590416294415e-05,1.1109267254939247e-06,1.5578447977687115e-06
233,1.5694665228577397e-06,3.959874102789277e-06,1.6164873035544164e-06,2.419698384673443e-06,2.0225808193859894e-06,1.5255306174843881e-06,2.674489965921657e-06,1.7010110144189538e-06,7.463511872709505e-06,3.373634255514325e-05,2.2796134134773823e-06,5.363276500800495e-06,3.6762373030846435e-06,2.0908882908097626e-05,1.1192651508509297e-06,1.5076293057194286e-06
234,1.5378628492973612e-06,3.9828536577387495e-06,1.5869370814656696e-06,2.3980645607755245e-06,2.012152466554566e-06,1.5274644606398032e-06,2.6371218592427833e-06,1.6857514679308338e-06,7.082395796017914e-06,3.2846025348266946e-05,2.652999116807214e-06,5.6195996697999395e-06,3.5828553669196344e-06,2.1109848891657964e-05,1.133304991468821e-06,1.4605676006052557e-06
235,1.513772859198911e-06,3.991528323417823e-06,1.5598122983663848e-06,2.3693663849923704e-06,2.0036275761056003e-06,1.5306352102779778e-06,2.5938280641749832e-06,1.6682791500332998e-06,6.697242172723682e-06,3.1822708277512007e-05,3.0683135996619056e-06,5.889221140196956e-06,3.4899637235094736e-06,2.1271713350381132e-05,1.1529514557341148e-06,1.4174612706595766e-06
236,1.4976345670639993e-06,3.983526549224058e-06,1.5354058970308992e-06,2.333243899481325e-06,1.997677102763409e-06,1.535007211716936e-06,2.545724211043954e-06,1.649042201989354e-06,6.31347082928725e-06,3.067240413787578e-05,3.526364454294679e-06,6.170804241627559e-06,3.3990728992975553e-06,2.138401018120678e-05,1.177925840821075e-06,1.378960420507092e-06
237,1.4896280074983444e-06,3.95692563935103e-06,1.513925409770789e-06,2.289781381765957e-06,1.9947930374203867e-06,1.5405601931953125e-06,2.4939964965542435e-06,1.6285725771857434e-06,5.9355377555553165e-06,2.9401658103915573e-05,4.027728037960409e-06,6.462569186841123e-06,3.3116939769510623e-06,2.1434323421713603e-05,1.2078189776149273e-06,1.3456152747860042e-06
238,1.4897373659792042e-06,3.910726449811677e-06,1.4954142051058716e-06,2.239683482038049e-06,1.9952215393168867e-06,1.5472830042955941e-06,2.439681239936604e-06,1.6075120819704088e-06,5.566760911799456e-06,2.8020069899492826e-05,4.572784675471538e-06,6.76251030270263e-06,3.229221450492979e-06,2.1407937091084448e-05,1.2421446998388447e-06,1.317856107136092e-06
239,1.4978051615743627e-06,3.845015232640516e-06,1.479772352539805e-06,2.184337345217767e-06,1.99891082392848e-06,1.5551493928956907e-06,2.3837685196375687e-06,1.5866315557731621e-06,5.209359725559035e-06,2.6544416807070566e-05,5.1617355104597215e-06,7.06861455293489e-06,3.1527875625489253e-06,2.1289916562133735e-05,1.2803281468705513e-06,1.295947407797207e-06
240,1.5135430920366082e-06,3.76088950156163e-06,1.4669218847763075e-06,2.125630936642984e-06,2.0055414531402577e-06,1.564038194684607e-06,2.327349192449258e-06,1.5668021121700637e-06,4.864691777181933e-06,2.4999008586456025e-05,5.794562919321514e-06,7.379168272345046e-06,3.0832457135615355e-06,2.1069310693845862e-05,1.3216612198882106e-06,1.2799818541454456e-06
241,1.5365186680837633e-06,3.660293054423921e-06,1.4569554457241226e-06,2.0655861930657196e-06,2.014711002426494e-06,1.5736730949774808e-06,2.2715203661335514e-06,1.5489130690565498e-06,4.533705420913021e-06,2.341200464412103e-05,6.470902479619975e-06,7.693082495459546e-06,3.0212198694500214e-06,2.0743088870315862e-05,1.3652766853342137e-06,1.2698953122718546e-06
242,1.566165693913027e-06,3.5458307544146675e-06,1.4501039963014668e-06,2.0060661971609213e-06,2.0261202553142487e-06,1.5836626965707727e-06,2.2171810864031143e-06,1.5337877591502973e-06,4.217330763664903e-06,2.1810872896929908e-05,7.189845076611973e-06,8.010041438374816e-06,2.9671066364391695e-06,2.0317331632353068e-05,1.4101471565607604e-06,1.265468988771707e-06
243,1.6018290599036547e-06,3.4205729288276126e-06,1.4465846627868192e-06,1.9487045506517036e-06,2.0395458769764355e-06,1.5935804087342841e-06,2.164935913006627e-06,1.5221869845217206e-06,3.916597371954176e-06,2.0219425399035466e-05,7.949754881412653e-06,8.330289172647743e-06,2.9210545274078656e-06,1.9805003851025738e-05,1.455156198378122e-06,1.26636332676401e-06
244,1.6428187595191551e-06,3.2878240873762164e-06,1.4464898962743667e-06,1.8949179032810416e-06,2.0546365543537557e-06,1.6029664448172305e-06,2.1150889156212034e-06,1.5148760329977972e-06,3.632579712993244e-06,1.86569135410531e-05,8.748169437812908e-06,8.654075625898378e-06,2.8828644167375934e-06,1.9221847587958018e-05,1.499297900141954e-06,1.2722395303041588e-06
245,1.6884223834407146e-06,3.15082521278743e-06,1.4497373045660781e-06,1.8458570429197037e-06,2.0707914481220516e-06,1.6113121214354043e-06,2.0677213954761023e-06,1.5126300213022543e-06,3.366255650254584e-06,1.7138430238728613e-05,9.58171822713168e-06,8.981020995654121e-06,2.8518246853496578e-06,1.8582636346592125e-05,1.5418811670254897e-06,1.2828917211117827e-06
246,1.737853827528097e-06,3.0124352415817655e-06,1.4560352517891647e-06,1.8023495125868218e-06,2.0872784116632345e-06,1.6181846789331115e-06,2.022920949954901e-06,1.516150276639166e-06,3.118302496454469e-06,1.5675681084563793e-05,1.0445879341078594e-05,9.309642963733812e-06,2.826671383260067e-06,1.7898979932672757e-05,1.5825070784741736e-06,1.2982501616870941e-06
247,1.7902569739606522e-06,2.8749138173274263e-06,1.4648702610480246e-06,1.7649108474485532e-06,2.1034925634226945e-06,1.6234268892686401e-06,1.9810108200652953e-06,1.5259639037915162e-06,2.8890176927765962e-06,1.427772802942232e-05,1.133450528065945e-05,9.637063871981108e-06,2.8057531066597423e-06,1.7178701585266764e-05,1.620835653341601e-06,1.3182354533814307e-06
248,1.8448550271243984e-06,2.739874177688393e-06,1.4755257688849302e-06,1.7337759325102543e-06,2.119177490330791e-06,1.6272046820498222e-06,1.942537237427338e-06,1.5423475084363992e-06,2.678427804264562e-06,1.2951732263635785e-05,1.2239335271336131e-05,9.95875652035349e-06,2.787317480237921e-06,1.642648460676004e-05,1.6563874893895773e-06,1.3425885355978247e-06
249,1.9010546017676008e-06,2.608405706176068e-06,1.487176604224386e-06,1.7088813489900366e-06,2.134506226289129e-06,1.6298520968296738e-06,1.9080501247917445e-06,1.5652943346076712e-06,2.48635421507749e-06,1.1703566934015633e-05,1.3149700263335093e-05,1.0268265738848504e-05,2.7697940675444405e-06,1.5645404152837096e-05,1.6884949718796885e-06,1.3708016575121752e-06
250,1.958320812254566e-06,2.481319661226788e-06,1.499078062547308e-06,1.6898580023386525e-06,2.149974936785638e-06,1.6316621937766063e-06,1.877943963221825e-06,1.5945687726700526e-06,2.312422910542303e-06,1.0538021178692463e-05,1.4052333103344817e-05,1.0557096577664147e-05,2.7519863491028705e-06,1.4838623176160071e-05,1.716361061679263e-06,1.4021420346768015e-06
251,2.015980015615039e-06,2.359356105437623e-06,1.5107047632978134e-06,1.6761551639825527e-06,2.166139389215603e-06,1.6327554029855163e-06,1.8525103433291852e-06,1.6298079181988657e-06,2.156242442686927e-06,9.45857015107455e-06,1.4931278117292422e-05,1.0815072763841506e-05,2.733178897796119e-06,1.401041581927534e-05,1.7391856611527721e-06,1.4357046151516907e-06
252,2.0731329373758925e-06,2.2431914182368863e-06,1.521705249697223e-06,1.6672835949612048e-06,2.1833373486714514e-06,1.633033657646555e-06,1.8320738849127607e-06,1.6705396320945606e-06,2.0176199420347267e-06,8.46699368968708e-06,1.576827026857777e-05,1.1031283651472133e-05,2.713166110799102e-06,1.3166201819427929e-05,1.7563029451850623e-06,1.4704683365005508e-06
253,2.1286195354788096e-06,2.133295470318226e-06,1.53176262327793e-06,1.6629962023708028e-06,2.201570984290564e-06,1.6321856127647027e-06,1.8170187104390898e-06,1.716128332360381e-06,1.896526893768252e-06,7.563151434827192e-06,1.6543901221244127e-05,1.1195471886144316e-05,2.692129327373854e-06,1.2312024703295602e-05,1.7672570858461614e-06,1.5053427224610345e-06
254,2.1810271030946213e-06,2.0298347147781607e-06,1.5405384625685053e-06,1.6632444709572853e-06,2.22059688557379e-06,1.62978590968549e-06,1.8076782227687377e-06,1.7657546794976648e-06,1.7929347051002855e-06,6.745010967040816e-06,1.7239454995776494e-05,1.1299491322322836e-05,2.6703447978096193e-06,1.1454146530733975e-05,1.771806423796189e-06,1.5392180097048909e-06
255,2.228842806316689e-06,1.9327167041809717e-06,1.547736633849259e-06,1.667953438062729e-06,2.2400638973542056e-06,1.6255256886907934e-06,1.804180958374814e-06,1.818438318199251e-06,1.7067410349524874e-06,6.0088596988046494e-06,1.7838994368304837e-05,1.1338360835713606e-05,2.647889618633378e-06,1.0598982578548672e-05,1.7699096821736773e-06,1.5710465011925802e-06
256,2.2706928188339155e-06,1.841672688992897e-06,1.5531600684946429e-06,1.6768206106046142e-06,2.259505360405831e-06,1.6194646883883584e-06,1.806344407406506e-06,1.873093852041683e-06,1.637715827113524e-06,5.349629751869282e-06,1.833115887035373e-05,1.1310596559839842e-05,2.624535633727727e-06,9.753101494927683e-06,1.7617322855766657e-06,1.5999577141697726e-06
257,2.30554301812665e-06,1.7562804502634442e-06,1.5566458548585712e-06,1.6893066125032658e-06,2.2782095365619584e-06,1.6121395899161563e-06,1.8136457738180613e-06,1.928596544502855e-06,1.5853906009967501e-06,4.761290811482898e-06,1.87100257176464e-05,1.121774797107206e-05,2.599797259662753e-06,8.923055505364432e-06,1.7476153966101711e-06,1.6253836096425601e-06
258,2.3328447573190375e-06,1.6760102457526833e-06,1.5579532335349517e-06,1.7047906343065398e-06,2.2951265523381623e-06,1.6044534995130814e-06,1.825254720541155e-06,1.9838038908570397e-06,1.5489702792638677e-06,4.237276758325544e-06,1.897439084402023e-05,1.1063149615273052e-05,2.57299833204585e-06,8.11514621772971e-06,1.7279495527770744e-06,1.6471031640092694e-06
259,2.352619196444652e-06,1.600383781552857e-06,1.5567733857311076e-06,1.7226988200728008e-06,2.3089157554877086e-06,1.5974040092875986e-06,1.8401347583842286e-06,2.0375596354198734e-06,1.527329988779109e-06,3.7709562589107263e-06,1.9125395796714167e-05,1.0850247203493772e-05,2.543363604751504e-06,7.33529521868764e-06,1.7030817596094178e-06,1.6651206386385011e-06
260,2.365405593438081e-06,1.5291631644586382e-06,1.5528897852378597e-06,1.7424733715676064e-06,2.3182161360312506e-06,1.5918072000295574e-06,1.8572261860140261e-06,2.0887506028710095e-06,1.5190658024790982e-06,3.356166259782806e-06,1.916374863874143e-05,1.0581544527607974e-05,2.5101632978666713e-06,6.5889282935861245e-06,1.6733835096144783e-06,1.6795011519226196e-06
261,2.3720206992055234e-06,1.4624276446544002e-06,1.5463778109333603e-06,1.7634496256068803e-06,2.322103372108725e-06,1.588155199680251e-06,1.8756801147176988e-06,2.136431682033552e-06,1.5225287985147168e-06,2.987719190874987e-06,1.908853908322028e-05,1.0258910730959948e-05,2.472877048926746e-06,5.8807227829157825e-06,1.6393569865352456e-06,1.6903756217292125e-06
262,2.3732461483852396e-06,1.4004826625547454e-06,1.5377230681861695e-06,1.7847853984263585e-06,2.320427497762514e-06,1.5866516855362383e-06,1.8950388758773215e-06,2.1799596605129476e-06,1.5358560622985684e-06,2.6616591773016232e-06,1.8898271972168288e-05,9.884705997751289e-06,2.4313824655748304e-06,5.214346581490374e-06,1.601656876193735e-06,1.6980632809832294e-06
263,2.369678475816065e-06,1.3436746227641211e-06,1.5277741993962978e-06,1.805518673411627e-06,2.3137441625748955e-06,1.5873847450378955e-06,1.9152280300352515e-06,2.2190199305170966e-06,1.5570619431372958e-06,2.3750795866879494e-06,1.859287113215221e-05,9.462833024192493e-06,2.386114645204245e-06,4.5923928937469744e-06,1.5610858236908042e-06,1.7030717511307575e-06
264,2.3617997686821364e-06,1.2922786593397086e-06,1.5175344176125229e-06,1.8247421725100874e-06,2.3029350050054886e-06,1.5905024929436114e-06,1.9363430699636315e-06,2.253470613756046e-06,1.584151279061145e-06,2.1256292536946337e-06,1.8175430180417758e-05,8.99934233312908e-06,2.3380553595816898e-06,4.016455686844773e-06,1.5185855720897733e-06,1.7059153708295111e-06
265,2.3501045327351053e-06,1.246527389033884e-06,1.507916514822549e-06,1.8417873818738358e-06,2.288846510681149e-06,1.5962505758159706e-06,1.958384206681705e-06,2.2831111299327563e-06,1.6152034256957762e-06,1.9111725794667695e-06,1.7653330097742748e-05,8.502420141683614e-06,2.2885233371583677e-06,3.487206898930924e-06,1.4751604988058904e-06,1.7069504356667774e-06
266,2.3351759524665577e-06,1.2066528383926223e-06,1.4996039356498307e-06,1.8562537103246609e-06,2.2721113003243464e-06,1.6048662465229436e-06,1.981149227208151e-06,2.307606457050341e-06,1.6484732623370683e-06,1.7298586757557836e-06,1.7038496655541195e-05,7.981710677534486e-06,2.2389042787581948e-06,3.0045067261016857e-06,1.4317753758600535e-06,1.7064290387658548e-06
267,2.3177330480461827e-06,1.1728394416632893e-06,1.4930433788135916e-06,1.8678370974939137e-06,2.2530778741017956e-06,1.6164420116508825e-06,2.004343125370557e-06,2.3266073605319667e-06,1.6825051534303613e-06,1.5803150649089955e-06,1.634662079986763e-05,7.447257083662638e-06,2.1904535992897322e-06,2.567572830268941e-06,1.389316778905773e-06,1.7047014501574337e-06
268,2.298666069127214e-06,1.1451566460847735e-06,1.4884782823417482e-06,1.8761188281250687e-06,2.231792568990766e-06,1.6308854494648527e-06,2.0277227798503146e-06,2.3398404994717055e-06,1.7161428730532807e-06,1.4617229905916575e-06,1.559557517361578e-05,6.908511439071161e-06,2.1441849594369817e-06,2.175128985436212e-06,1.3485786915502641e-06,1.7022900375832914e-06
269,2.2790565384767656e-06,1.1235398030729374e-06,1.4859693561361087e-06,1.8804850934374775e-06,2.2081061720189973e-06,1.6479830721476092e-06,2.0510835382085657e-06,2.34703037542457e-06,1.7484366361793884e-06,1.373889519986903e-06,1.4803591274450512e-05,6.373717448443614e-06,2.1008452907118397e-06,1.825570726376565e-06,1.3102178814251033e-06,1.6997249827355583e-06
270,2.2601769444172236e-06,1.107802657797548e-06,1.4854662904681747e-06,1.8801453451401211e-06,2.1818859499571646e-06,1.6674287599819375e-06,2.0741208057770826e-06,2.3477890334415262e-06,1.7785728332351864e-06,1.3173266837106585e-06,1.398767030881542e-05,5.8497194130497396e-06,2.0609561804880774e-06,1.5171832692521058e-06,1.2747209904024401e-06,1.6973363603234126e-06
271,2.243435773590324e-06,1.0976723079293287e-06,1.4869557860742744e-06,1.8741725862465936e-06,2.1531267873492804e-06,1.6887644051940046e-06,2.096321121905765e-06,2.3416472585499123e-06,1.8058144336588697e-06,1.2931359375808109e-06,1.3162460807253704e-05,5.342098784340682e-06,2.0248248423264954e-06,1.2482693600564052e-06,1.2424284636110847e-06,1.6952078053413457e-06
272,2.230226009594254e-06,1.092828102227359e-06,1.4905738162687793e-06,1.861704367803431e-06,2.1218610327747125e-06,1.711351261055066e-06,2.1169239372182943e-06,2.328218225470097e-06,1.8294333316958303e-06,1.3026933390182749e-06,1.2339765237210846e-05,4.855433171062143e-06,1.992558039349984e-06,1.0171851678860365e-06,1.2136071509120667e-06,1.6932757668131094e-06
273,2.221711276731468e-06,1.0929385467298915e-06,1.4965987432899123e-06,1.8423873954153554e-06,2.0880545312935836e-06,1.7344067920575317e-06,2.134920764452644e-06,2.307359490853509e-06,1.8487127480489188e-06,1.347433105243134e-06,1.1528638988555128e-05,4.393439087502175e-06,1.9641599385369006e-06,8.224014884116769e-07,1.1885279387739154e-06,1.6914486535225264e-06
274,2.2186634076834827e-06,1.097723601849671e-06,1.5053644899229735e-06,1.816741186164836e-06,2.0517137332797122e-06,1.7570134243167544e-06,2.1490660071966335e-06,2.279198465851816e-06,1.863056376199784e-06,1.4289434253895313e-06,1.0735758595349084e-05,3.958977766732381e-06,1.9395843091670855e-06,6.625061800421744e-07,1.1674901418098486e-06,1.689660609343342e-06
275,2.221435360644684e-06,1.1069757505470768e-06,1.5171491078028784e-06,1.786095465461324e-06,2.0131461777473227e-06,1.7781371763750047e-06,2.1578554651352845e-06,2.2439903151044817e-06,1.8722534398593071e-06,1.5492132159629474e-06,9.96587145299594e-06,3.5541066564759224e-06,1.918676458056668e-06,5.360945376246352e-07,1.1507804212827331e-06,1.6878511300249512e-06
276,2.230074439145169e-06,1.1204699024856669e-06,1.5320711412233932e-06,1.752192795179208e-06,1.9730975034136623e-06,1.7968218641777217e-06,2.1595906895320206e-06,2.2020210968833517e-06,1.876749949658988e-06,1.7107076207989504e-06,9.222356451257492e-06,3.180235340176986e-06,1.9012143464723137e-06,4.4171514833941864e-07,1.1386350276623744e-06,1.6859344580046958e-06
277,2.2445072716515535e-06,1.1378428654454441e-06,1.5500348261243081e-06,1.7167755889079477e-06,1.932641458217654e-06,1.8125174176511462e-06,2.1527425942954814e-06,2.1537887619763645e-06,1.8775975977042165e-06,1.916197579193969e-06,8.507778021234553e-06,2.838268330512526e-06,1.887112454141576e-06,3.7799143275996576e-07,1.1312280224970418e-06,1.683802110380031e-06
278,2.264635083844928e-06,1.1585297069470548e-06,1.570724699453465e-06,1.6813676265230011e-06,1.8929703555657736e-06,1.8252151546265497e-06,2.1364878140678675e-06,2.1002793538724503e-06,1.8761254774318635e-06,2.1685855450957146e-06,7.824216595719824e-06,2.5286501503789234e-06,1.8765086976630822e-06,3.438036399571668e-07,1.1286303665903457e-06,1.6813446353957113e-06
279,2.2902489276333768e-06,1.181770631920195e-06,1.5936031547171238e-06,1.6472641807961849e-06,1.8552253855696645e-06,1.8352238028813865e-06,2.110998820118437e-06,2.0429613326624544e-06,1.8736394514475642e-06,2.470905237392575e-06,7.173353733656451e-06,2.2513487425661496e-06,1.8695892265016914e-06,3.383214449212699e-07,1.130754613291101e-06,1.6785129340836236e-06
280,2.3209439337913165e-06,1.2067267505131947e-06,1.6178906740237648e-06,1.6155836135909914e-06,1.820351063701232e-06,1.8428920995650095e-06,2.0772702048799397e-06,1.9834724461466772e-06,1.8712765427446767e-06,2.8263564713007402e-06,6.556471863792907e-06,2.0058499675398615e-06,1.8663665639703768e-06,3.6088927281712464e-07,1.137341334817013e-06,1.6754130830902467e-06
281,2.3561873763486417e-06,1.2326972307042185e-06,1.6425627475101417e-06,1.5872679761011748e-06,1.7889750084528002e-06,1.8485588728613045e-06,2.0366479301824404e-06,1.923284445466431e-06,1.8700081567962447e-06,3.2381851161853846e-06,5.974468817326434e-06,1.7911794952392846e-06,1.8666073010412375e-06,4.1093083355280413e-07,1.148006727816245e-06,1.6723030498576598e-06
282,2.39536756991628e-06,1.2592839049252029e-06,1.6664656101551648e-06,1.5630750520391709e-06,1.7613942030394339e-06,1.8525588977768022e-06,1.990371809889189e-06,1.8635325119433528e-06,1.8707106439172711e-06,3.7094221143704943e-06,5.427830987936994e-06,1.605936572712758e-06,1.8698598552351188e-06,4.879264772426628e-07,1.1623423812872488e-06,1.6694359725888445e-06
283,2.4376589172777086e-06,1.2863670301702751e-06,1.688590984661455e-06,1.5436020979657986e-06,1.7376584946430961e-06,1.855109747073689e-06,1.9393314918160775e-06,1.8049773819285218e-06,1.874169245854123e-06,4.242595831212447e-06,4.916544533957724e-06,1.4483433519067613e-06,1.8754803427018976e-06,5.914950570885336e-07,1.1799795956662381e-06,1.666932964357385e-06
284,2.4818122527144576e-06,1.3139415578813104e-06,1.708316437630683e-06,1.529298147343342e-06,1.7176724971986908e-06,1.8561917608584023e-06,1.8840809408900203e-06,1.7480498112832806e-06,1.8809894031726847e-06,4.839496209901902e-06,4.440091650193642e-06,1.3163128823867645e-06,1.8826624459295774e-06,7.216385979275597e-07,1.2005448514402762e-06,1.6648170465063871e-06
285,2.5260274677166905e-06,1.341972938340728e-06,1.72540588708376e-06,1.5204396112186818e-06,1.701351415711963e-06,1.8555361011668035e-06,1.8250386648254884e-06,1.6929890161792018e-06,1.8915412727266486e-06,5.501039396998603e-06,3.9976504717773334e-06,1.2075366673373588e-06,1.8905283881272159e-06,8.789949987697512e-07,1.2235903976033607e-06,1.6630679127974134e-06
286,2.567978380774627e-06,1.3703721201940645e-06,1.739820792947241e-06,1.5171263145040733e-06,1.6887922150242112e-06,1.852749508123993e-06,1.7627027661554108e-06,1.6400316600549102e-06,1.9060430289172184e-06,6.227287830983302e-06,3.5883924057604697e-06,1.1195983716692924e-06,1.8983010908972116e-06,1.064837512281461e-06,1.2485863411582701e-06,1.6615689407616517e-06
287,2.6050499702068004e-06,1.399030385053127e-06,1.7515026589146975e-06,1.5193666179700517e-06,1.6802511018101821e-06,1.847548928819267e-06,1.69773747941375e-06,1.5895522253872052e-06,1.9246981867139932e-06,7.017653016967059e-06,3.211651478393605e-06,1.050097438721156e-06,1.905451637843209e-06,1.2808241568504618e-06,1.2749598751096881e-06,1.6600451895962906e-06
288,2.6347710256257223e-06,1.427808980530577e-06,1.7602069161947579e-06,1.5271844676362668e-06,1.6759779104301786e-06,1.839954416928018e-06,1.6309755182454054e-06,1.5420814387694524e-06,1.9477112104416127e-06,7.871175509249906e-06,2.866861663644179e-06,9.967653627331043e-07,1.9116581312918656e-06,1.5287189020162787e-06,1.3021771582558507e-06,1.6581294548276255e-06
289,2.6551779084593446e-06,1.4565258663253085e-06,1.765438443118074e-06,1.5406064551793435e-06,1.6761489113950625e-06,1.8302652199068113e-06,1.563446989384725e-06,1.4982026170352774e-06,1.975157643231412e-06,8.78659469155602e-06,2.5533707299871555e-06,9.57567045322087e-07,1.9166528554645387e-06,1.8101973256868717e-06,1.3298043208696383e-06,1.655525532285523e-06
290,2.6647950662372493e-06,1.4849902347208501e-06,1.7665672300645694e-06,1.5595414580641982e-06,1.6808762619575047e-06,1.818824488645572e-06,1.4963761676103025e-06,1.458451763920824e-06,2.0068633483883263e-06,9.761986952207183e-06,2.270306057706257e-06,9.307344412595796e-07,1.920239428693833e-06,2.1267182691320317e-06,1.35744666708086e-06,1.6521129395110673e-06
291,2.6623642895726405e-06,1.5129948316727953e-06,1.763081266311584e-06,1.5836786077699925e-06,1.690204707308029e-06,1.8057660611642242e-06,1.4310452128006412e-06,1.4233251927066712e-06,2.0424077650263777e-06,1.0794181770914659e-05,2.0165445379374823e-06,9.146910158891903e-07,1.9225254405420123e-06,2.4794903826854523e-06,1.3846674253869591e-06,1.6479241111999775e-06
292,2.646798780402685e-06,1.5402762032625561e-06,1.754751182628182e-06,1.6124443205693826e-06,1.7041649439224323e-06,1.7909108773540092e-06,1.368617095195797e-06,1.3932927058752406e-06,2.0812446387702786e-06,1.187831116485978e-05,1.7907114351487813e-06,9.079376480838031e-07,1.9241110680572533e-06,2.8695453047983995e-06,1.411044757879914e-06,1.6431070825796272e-06
293,2.61747891424254e-06,1.5665623244528635e-06,1.7415584404108622e-06,1.6450000188889841e-06,1.722851530619588e-06,1.7738679286540773e-06,1.3100388840036772e-06,1.3687147787662005e-06,2.1229021218626455e-06,1.3007483270344149e-05,1.5911663565213406e-06,9.090279927920532e-07,1.926027664641841e-06,3.2977729336853347e-06,1.4362649343707552e-06,1.6379847877356392e-06
294,2.5745474182839914e-06,1.5916437918086012e-06,1.7234844839920929e-06,1.6802775980450584e-06,1.7463997967049364e-06,1.754322300821881e-06,1.2560106754430414e-06,1.3497433344088728e-06,2.167176201472836e-06,1.4172432059848808e-05,1.4160558097969004e-06,9.16684777183213e-07,1.929482807830079e-06,3.7648166987805774e-06,1.4600779519667386e-06,1.6331164195871635e-06
295,2.518968778913557e-06,1.6153659022009183e-06,1.7003855166004598e-06,1.7170501698020883e-06,1.7749774013656843e-06,1.7323037702839035e-06,1.2070030946664013e-06,1.3362950043348648e-06,2.21419965916231e-06,1.5361147375622727e-05,1.2634505256981422e-06,9.29915683968483e-07,1.935625603066197e-06,4.2709727473427805e-06,1.4822029081949806e-06,1.6291939660195213e-06
296,2.452416137298171e-06,1.6376250072974934e-06,1.6720676578098193e-06,1.7540470562245076e-06,1.808907206416945e-06,1.708180928962294e-06,1.1633198786787659e-06,1.328095151372289e-06,2.2643296632734178e-06,1.655874785780874e-05,1.1314325087650595e-06,9.479437093240924e-07,1.94542106837398e-06,4.816231385009829e-06,1.5023341756543564e-06,1.6268167230730981e-06
297,2.3770877405120476e-06,1.6583789946669968e-06,1.6384526066846572e-06,1.7900932149691562e-06,1.8487033366717372e-06,1.6824859599507055e-06,1.1251420720880918e-06,1.324736590469147e-06,2.317936565084582e-06,1.7748211613638264e-05,1.0181185556182833e-06,9.700583409773402e-07,1.9595526960334775e-06,5.400323738354142e-06,1.520165803540564e-06,1.6263240757745246e-06
298,2.295465850177659e-06,1.6775455956419116e-06,1.5997042833903141e-06,1.824175043124605e-06,1.8949448860005491e-06,1.655842400793405e-06,1.0925156783666596e-06,1.3256949890112801e-06,2.3752924287999053e-06,1.891225564253365e-05,9.21730282388065e-07,9.955905103080614e-07,1.978330794127473e-06,6.0225710111108035e-06,1.5353218769183051e-06,1.6277566609233672e-06
299,2.2100388395709332e-06,1.6948656271609922e-06,1.5563159408133429e-06,1.85536641749699e-06,1.94820764209679e-06,1.628956158216086e-06,1.0653347322128297e-06,1.3303517106505399e-06,2.436664739128178e-06,2.003560468985187e-05,8.406487792537178e-07,1.023925239223044e-06,2.001650162143196e-06,6.68161697878017e-06,1.5472678592570868e-06,1.6309082202227657e-06
300,2.1230959094167757e-06,1.7099648938756804e-06,1.5091433179791324e-06,1.882736687129477e-06,2.0090511402070633e-06,1.602543238097293e-06,1.0433617209563325e-06,1.3380717958211066e-06,2.502524189149127e-06,2.110644336731013e-05,7.733617432485245e-07,1.0544377725924274e-06,2.029016586848343e-06,7.375259448588692e-06,1.5553310073233172e-06,1.6353980904152061e-06
301,2.036684383689454e-06,1.7226208070452176e-06,1.4593113801709932e-06,1.9054352871255064e-06,2.077913388605234e-06,1.5773237770946668e-06,1.0262718569360335e-06,1.3482625547166358e-06,2.5736485113555486e-06,2.2116470133746796e-05,7.184168782235362e-07,1.086469164479421e-06,2.0597024719340793e-06,8.10037018693401e-06,1.5588530436950287e-06,1.6407017562423889e-06
302,1.952636684907946e-06,1.7329790043939589e-06,1.4080102445959112e-06,1.9229165347355747e-06,2.155004499037369e-06,1.5541639260471042e-06,1.0137468723556292e-06,1.3604449528717364e-06,2.650948828448852e-06,2.3059512787656203e-05,6.744636821536608e-07,1.1194142094120955e-06,2.0930561974760056e-06,8.852752738602215e-06,1.5573481212524032e-06,1.646133541544725e-06
303,1.872519113387504e-06,1.7415416862565046e-06,1.3563091583087111e-06,1.935084460727771e-06,2.240335887697549e-06,1.5341582456810428e-06,1.0056123376049538e-06,1.3743961488836097e-06,2.7351123662028293e-06,2.3929312725093533e-05,6.402683565963662e-07,1.1528016056143917e-06,2.12874390250922e-06,9.626964450131695e-06,1.550506816085607e-06,1.6507983642241636e-06
304,1.7975360274069526e-06,1.749001108871116e-06,1.3050986323693048e-06,1.9422686328351755e-06,2.3337932763902494e-06,1.5184924542967507e-06,1.0018820086781255e-06,1.3901831980634039e-06,2.82632296136093e-06,2.4718713367324843e-05,6.14657432316423e-07,1.1862823809053037e-06,2.166679090447035e-06,1.0416424227186955e-05,1.5380939360250173e-06,1.6535607722304647e-06
305,1.7284959338783554e-06,1.756053449478518e-06,1.255144287459572e-06,1.9450760936482604e-06,2.435106912792465e-06,1.508229288757946e-06,1.0026568608424591e-06,1.4079970236404855e-06,2.924218992782194e-06,2.5421666024843186e-05,5.965155861360138e-07,1.21958155094833e-06,2.2068150202487126e-06,1.1214045541691964e-05,1.5199730182224935e-06,1.6531248166140545e-06
306,1.6658525308100002e-06,1.7632429629654267e-06,1.2071253805128304e-06,1.9441709376678256e-06,2.5437186685242357e-06,1.5041952670341687e-06,1.0080248618433176e-06,1.4280072248058346e-06,3.02811746992458e-06,2.603514305786043e-05,5.848625341893224e-07,1.2524442092978564e-06,2.2490956056742664e-06,1.201305841139503e-05,1.4962991825225693e-06,1.6482707276479783e-06
307,1.609798350545588e-06,1.7708907425641762e-06,1.161594184046702e-06,1.940091799826159e-06,2.6586427339909516e-06,1.506951772849177e-06,1.0180375724198174e-06,1.4503634956982139e-06,3.1373785825927886e-06,2.655811307171614e-05,5.788671483704284e-07,1.284590040082203e-06,2.293479402633034e-06,1.2807361368770287e-05,1.4676162930357264e-06,1.63819165621724e-06
308,1.5603475987893095e-06,1.7791525783944736e-06,1.118958764028209e-06,1.9332031182575286e-06,2.778431471104182e-06,1.516789271661137e-06,1.032684616517213e-06,1.4751954262290043e-06,3.2516120509458514e-06,2.6990322422904887e-05,5.777495383474759e-07,1.315699269280515e-06,2.339854110442293e-06,1.3591079160643253e-05,1.434746040642624e-06,1.6227595112068634e-06
309,1.5173223770900303e-06,1.788101836079296e-06,1.0795699015595072e-06,1.923778835399016e-06,2.901287475003481e-06,1.5337313586076469e-06,1.0518707784766008e-06,1.5025377444299568e-06,3.3705408212095313e-06,2.7333636328630417e-05,5.807054280948985e-07,1.345393594638639e-06,2.3879331243274624e-06,1.4357549206129556e-05,1.398693488708539e-06,1.6025156871570293e-06
310,1.4803052743386318e-06,1.7977070640505335e-06,1.04381497263407e-06,1.9122005911344265e-06,3.0252252419132623e-06,1.557547271757638e-06,1.0754726082618728e-06,1.5323227033864819e-06,3.493692138361919e-06,2.75929782964092e-05,5.869602587067941e-07,1.3732579077065529e-06,2.4373349154283277e-06,1.5098241366434001e-05,1.3606418462325225e-06,1.578378028025783e-06
311,1.4486993933910326e-06,1.8077921489553517e-06,1.0121072969601822e-06,1.899127183670699e-06,3.1481749562258567e-06,1.5878201857352002e-06,1.10344483706326e-06,1.5644859680898966e-06,3.620172294202188e-06,2.7774119817493857e-05,5.958946799608448e-07,1.3989898445853833e-06,2.4877771215818257e-06,1.5802191039163085e-05,1.3218446469868062e-06,1.5513221630786107e-06
312,1.4218471218464991e-06,1.8181164707414573e-06,9.848100552546783e-07,1.8854129459613394e-06,3.2680730682320763e-06,1.6241045204129592e-06,1.1359011289420352e-06,1.5990054642557677e-06,3.748525587865208e-06,2.7880814378829696e-05,6.071083735032969e-07,1.4225896904340324e-06,2.5391103788356227e-06,1.645650641418169e-05,1.283426951508018e-06,1.5222562391648758e-06
313,1.3990512400641401e-06,1.8284658729977328e-06,9.62177604194959e-07,1.8718377498180187e-06,3.3830410234835668e-06,1.666061684063586e-06,1.1731359301718578e-06,1.6357750245780834e-06,3.8766288545745655e-06,2.7914637965196835e-05,6.203569709891806e-07,1.4444349037625338e-06,2.5912640586306316e-06,1.7048042189579514e-05,1.2463051116624535e-06,1.49201862813249e-06
314,1.379532469662527e-06,1.8385837897592736e-06,9.443237095991388e-07,1.8589033452983096e-06,3.4916235170123678e-06,1.713437138149034e-06,1.215582715873009e-06,1.6744709415714251e-06,4.00176409862348e-06,2.7877636509732258e-05,6.354237987882517e-07,1.4652014788523487e-06,2.6443308266849024e-06,1.756553897119472e-05,1.2112399745819083e-06,1.461337867682202e-06
315,1.3624342485226346e-06,1.8480078699315592e-06,9.312190235797862e-07,1.8467704397485508e-06,3.5929498695631015e-06,1.7659715560579693e-06,1.2637501475327138e-06,1.7145520772183015e-06,4.120882318047932e-06,2.7775827707020054e-05,6.520510164913013e-07,1.4856903727872064e-06,2.69857684202992e-06,1.800118419393874e-05,1.1788753775842386e-06,1.4307373611688726e-06
316,1.3468415607278492e-06,1.8560288383101956e-06,9.227297138076281e-07,1.8352848026251327e-06,3.686717480546731e-06,1.8234669679696009e-06,1.3181945870948682e-06,1.7553075937622956e-06,4.230778329707282e-06,2.7621383061397617e-05,6.69965252575226e-07,1.5066533226887701e-06,2.7541748896986574e-06,1.8350945311399365e-05,1.1497293749855809e-06,1.4004734052532878e-06
317,1.3318496838940528e-06,1.8618861839203132e-06,9.18661443074854e-07,1.824100269364443e-06,3.7729930804330426e-06,1.8859563730453807e-06,1.379501846534683e-06,1.7958500165580253e-06,4.328138406574789e-06,2.7432237511672128e-05,6.889102898168499e-07,1.5287415445944102e-06,2.810915396953353e-06,1.8613797149579537e-05,1.124191053316645e-06,1.370598095979144e-06
318,1.3167912290739702e-06,1.8650853885179262e-06,9.187868479999882e-07,1.8129125349501137e-06,3.8518878110310805e-06,1.9537057430795574e-06,1.4481985692974373e-06,1.8351427218458514e-06,4.409852466581317e-06,2.7230101665940107e-05,7.086398486294427e-07,1.5525998603798594e-06,2.868164925862617e-06,1.8790464414137932e-05,1.1025105738462983e-06,1.3411338258938238e-06
319,1.3014653379254139e-06,1.8655804545757929e-06,9.22877630768612e-07,1.8017203480903324e-06,3.923193443279928e-06,2.0270420538311377e-06,1.5246233652811742e-06,1.872147577056317e-06,4.473687261970242e-06,2.7038576234718105e-05,7.289055400385766e-07,1.5789337970345678e-06,2.925057111456415e-06,1.888206529011813e-05,1.0847883604889645e-06,1.312203745818262e-06
320,1.2861080455921518e-06,1.8636694674821237e-06,9.307171871171392e-07,1.790953550907364e-06,3.986121442224448e-06,2.106233199731227e-06,1.6088639535395644e-06,1.9059705460138584e-06,4.518780070522739e-06,2.688144983549078e-05,7.494368613268872e-07,1.6084287085154565e-06,2.980703182751948e-06,1.88886997553899e-05,1.0710326292788656e-06,1.2839989819572604e-06
321,1.2711317998650106e-06,1.859704183885909e-06,9.420532402364293e-07,1.7813601776289665e-06,4.039268584758954e-06,2.1914517773094537e-06,1.7007616886328927e-06,1.9358502672318283e-06,4.54545451737643e-06,2.678135036667469e-05,7.699028699955723e-07,1.6416274646976462e-06,3.0341865913402115e-06,1.880858323035268e-05,1.0612549536493783e-06,1.2566736819476218e-06
322,1.256879642357406e-06,1.8538609345184938e-06,9.565393985969942e-07,1.773723974765032e-06,4.0807898801866815e-06,2.2827263215464267e-06,1.7999002895948346e-06,1.961059529459476e-06,4.554664714998185e-06,2.675981862089528e-05,7.899095257943331e-07,1.678864790229469e-06,3.0843486135437967e-06,1.8638785394458315e-05,1.055473971058525e-06,1.2303343867607852e-06
323,1.2435395068125394e-06,1.8461555200411692e-06,9.737185849774887e-07,1.768620814389777e-06,4.1087016446273005e-06,2.3798771406276687e-06,1.9055683058026915e-06,1.9809764295233314e-06,4.547839139762045e-06,2.6838048636112857e-05,8.09062758940101e-07,1.7202282217754816e-06,3.1296255844113032e-06,1.8377500711672e-05,1.0536203721287426e-06,1.2051068950934345e-06
324,1.2311559083987747e-06,1.8366793658906724e-06,9.93017565282041e-07,1.7663319163774568e-06,4.121298377836967e-06,2.4824798165834914e-06,2.0167674745220644e-06,1.995373720171812e-06,4.527189932498109e-06,2.7036519703760438e-05,8.27030983024403e-07,1.7655561854746564e-06,3.1681818995018248e-06,1.8026462577170087e-05,1.055464581740052e-06,1.18113208233658e-06
325,1.2196551172310141e-06,1.825853522467883e-06,1.0137815967710864e-06,1.766846086076483e-06,4.117629435750253e-06,2.5899563073813543e-06,2.1322899514053146e-06,2.004599479429325e-06,4.495858597348782e-06,2.73736116075753e-05,8.435502965067765e-07,1.8145092302631903e-06,3.198367410419056e-06,1.7592250896093903e-05,1.060644386925803e-06,1.158495832284442e-06
326,1.2089413956120413e-06,1.8145135382620577e-06,1.0354312219586123e-06,1.769895613265569e-06,4.0978889428729895e-06,2.701796642610951e-06,2.2508003449114605e-06,2.0094021308842224e-06,4.4576504443572555e-06,2.7864138512724846e-05,8.584135377118503e-07,1.866649047242908e-06,3.219256283424209e-06,1.708601367319301e-05,1.068764127269973e-06,1.137241235825483e-06
327,1.1990919672843016e-06,1.8037936062342536e-06,1.0576444947337456e-06,1.7750683046780157e-06,4.063610468448728e-06,2.8176417588344456e-06,2.370851139751792e-06,2.0105407154130836e-06,4.416615865785337e-06,2.851812354795642e-05,8.714736351495019e-07,1.9214444629754987e-06,3.230837373583838e-06,1.6521816805965946e-05,1.0794598001433405e-06,1.1174744859044114e-06
328,1.1904963625924015e-06,1.7949023291605515e-06,1.0803637416562946e-06,1.7819693782819243e-06,4.017642400203191e-06,2.93709355804733e-06,2.490807326045637e-06,2.008483418645953e-06,4.376716260668943e-06,2.9340285206708094e-05,8.8262776345928e-07,1.978257452070941e-06,3.233655883396476e-06,1.591447093503824e-05,1.0924002427360697e-06,1.0994217099426942e-06
