,EMG1,EMG2,EMG3,EMG4,EMG5,EMG6,EMG7,EMG8,EMG9,EMG10,EMG11,EMG12,EMG13,EMG14,EMG15,EMG16
0,5.338100646906978e-07,1.437359663076076e-07,6.895874765287177e-07,3.0438965196907345e-08,-6.692185210683668e-07,4.1663573872956843e-07,4.2843357396576973e-07,4.697536164210477e-07,2.954495748071729e-06,1.287355541080905e-05,-4.7586987776245074e-08,4.272978602188485e-08,2.1781582956478287e-07,2.510162060505329e-06,1.2110493733165375e-07,-1.8346405992752e-07
1,6.437121749485777e-07,2.8455225612798093e-07,7.648055248669012e-07,1.1212630162345692e-07,-3.594690371012848e-07,7.020845878861964e-07,5.766643142317896e-07,5.848535553564767e-07,3.3908012192653857e-06,1.93150753576478e-05,1.1780946528340837e-08,4.939387658819264e-07,3.475045423875225e-07,3.253657942582361e-06,2.27819561959029e-07,1.1488022179714537e-07
2,7.574797190712587e-07,4.239581276738959e-07,8.426776888097099e-07,1.9258742807674044e-07,-5.649056800535747e-08,9.979365793593627e-07,7.354900569044461e-07,6.980351230515805e-07,3.822775852975805e-06,2.541625817401939e-05,7.033218677946997e-08,9.286609639242359e-07,4.756379959644487e-07,4.075756786849042e-06,3.319101237236241e-07,3.9947942781950127e-07
3,8.735589198299155e-07,5.595542016357326e-07,9.223534782133147e-07,2.7004272372302693e-07,2.3753744949936352e-07,1.303777576566107e-06,9.040619508836401e-07,8.075321300843504e-07,4.247090949640401e-06,3.1112201006690496e-05,1.2713832546606778e-07,1.3434398177168173e-06,6.009036020524899e-07,4.977358380201859e-06,4.315592268272489e-07,6.672247368341693e-07
4,9.906447716468066e-07,6.891934441410025e-07,1.002895951306744e-06,3.4285746940601425e-07,5.207841512819919e-07,1.6193518660719355e-06,1.0817245662724703e-06,9.117373939069271e-07,4.66003271491211e-06,3.633769071645859e-05,1.8138722415225e-07,1.7350918346004415e-06,7.222052663458542e-07,5.9598611406456885e-06,5.256019203882051e-07,9.150753806358654e-07
5,1.107744360635197e-06,8.109840089717022e-07,1.083358602401879e-06,4.096966565457223e-07,7.918034875583382e-07,1.9446694855179364e-06,1.2679153697369395e-06,1.0094452318418107e-06,5.05724139881123e-06,4.102600225813214e-05,2.3244452724184105e-07,2.1007327078345708e-06,8.388297815055116e-07,7.024959862908168e-06,6.135297163765027e-07,1.140268815826314e-06
6,1.224072177809246e-06,9.234405195490508e-07,1.1628102336872705e-06,4.6969828554183946e-07,1.049526745351397e-06,2.2799306693749884e-06,1.4620625303816188e-06,1.1000315943323167e-06,5.433629324786423e-06,4.5110528833994885e-05,2.7997005113553015e-07,2.4378027008157675e-06,9.504699824499998e-07,8.174249202726019e-06,6.952960259720033e-07,1.3406728843441004e-06
7,1.3389087211809732e-06,1.025734293059171e-06,1.2402776194020186e-06,5.225334874364001e-07,1.293407422605441e-06,2.625291259588086e-06,1.6635854546732788e-06,1.1833839450204292e-06,5.7835899800027415e-06,4.8534189919297946e-05,3.239551268664231e-07,2.744070004560455e-06,1.0570536449389818e-06,9.408619209423367e-06,7.711049816914616e-07,1.5150608916009635e-06
8,1.4515455418500612e-06,1.117767635125416e-06,1.3147466073985198e-06,5.683679928087762e-07,1.5236702282891983e-06,2.980697057490508e-06,1.8718657126650515e-06,1.2597113393636547e-06,6.101371998484336e-06,5.126400357077251e-05,3.6462898402016e-07,3.017703111040574e-06,1.158533765929065e-06,1.0727494225058637e-05,8.412435517073029e-07,1.6631741260372885e-06
9,1.5612245027260575e-06,1.1999573321354731e-06,1.385261973856884e-06,6.077916010393582e-07,1.7414614579892125e-06,3.345914265912638e-06,2.086124193406071e-06,1.3294772496706503e-06,6.381438604885488e-06,5.330113766255618e-05,4.023568068950765e-07,3.25753878774318e-06,1.2548146116789655e-06,1.212822360051173e-05,9.059772843992968e-07,1.7856771607413968e-06
10,1.6670343637347618e-06,1.2729289291864863e-06,1.4509652558465497e-06,6.416825384600229e-07,1.948824389584964e-06,3.720674695766975e-06,2.3053344238552773e-06,1.3933877215623343e-06,6.618579782425735e-06,5.467894280889355e-05,4.375891845674415e-07,3.4634124927524856e-06,1.3458036796311308e-06,1.360589054539463e-05,9.65548955087367e-07,1.8841228244803305e-06
11,1.7679075285874578e-06,1.337370215790707e-06,1.5110574998824007e-06,6.710239613845674e-07,2.148462404880087e-06,4.104848924135598e-06,2.5282990088896105e-06,1.4522320264182938e-06,6.807861457297025e-06,5.54497842184654e-05,4.708069430187579e-07,3.6362521420022955e-06,1.4314503533329496e-06,1.5153610159634859e-05,1.0202062065642962e-06,1.9608462262251593e-06
12,1.862820458854425e-06,1.3940256411432429e-06,1.5648387332970081e-06,6.967717794233284e-07,2.3433062250878645e-06,4.4986059955253004e-06,2.7538790045808936e-06,1.5066546911641158e-06,6.945236332101362e-06,5.56690110562418e-05,5.024609823013931e-07,3.7778964179870965e-06,1.5116724928879692e-06,1.6762990465759285e-05,1.070162619418099e-06,2.01870765260009e-06
13,1.9511093493434077e-06,1.44365327355094e-06,1.6117956257171717e-06,7.19794721275291e-07,2.536076623780256e-06,4.902461118372056e-06,2.981163368044134e-06,1.5570812723510047e-06,7.028983926925586e-06,5.5384431147370386e-05,5.329603036563429e-07,3.89088988943475e-06,1.5862198788758774e-06,1.8424016460073947e-05,1.1155335325863503e-06,2.060791598965907e-06
14,2.0326455063581047e-06,1.4869041678046261e-06,1.6516198425936384e-06,7.408604797114101e-07,2.7290196318017546e-06,5.317112550890156e-06,3.209361685331558e-06,1.6038254582044829e-06,7.060511573203967e-06,5.463356791468855e-05,5.626939057583274e-07,3.978400807626687e-06,1.654600731093796e-06,2.0124159651971692e-05,1.156322156790691e-06,2.090195217909387e-06
15,2.1076793801976296e-06,1.5242463364019643e-06,1.6841745148768508e-06,7.606530961825012e-07,2.9237947061957916e-06,5.743078914170091e-06,3.437484977681936e-06,1.6472007359965793e-06,7.043535906511102e-06,5.3447310654985404e-05,5.920318569704866e-07,4.044129602631357e-06,1.716175241860742e-06,2.1847625885974402e-05,1.1924702823238112e-06,2.1099062522170617e-06
16,2.1764595406560626e-06,1.5560148889822571e-06,1.709473660207591e-06,7.797879770689413e-07,3.1214274788073937e-06,6.180246034227634e-06,3.664065680280772e-06,1.6874816732205649e-06,6.9824796108903485e-06,5.185757591634615e-05,6.213187379566174e-07,4.092037403310084e-06,1.7704500342702057e-06,2.357553026674755e-05,1.2239755361349493e-06,2.122711289016933e-06
17,2.238917445023013e-06,1.582497179050584e-06,1.7277086459757099e-06,7.988126283184683e-07,3.322291301840498e-06,6.627475816658335e-06,3.887033434042683e-06,1.724761135121413e-06,6.881290354985869e-06,4.9904469340816905e-05,6.50895340306048e-07,4.12593652611065e-06,1.8173959690311747e-06,2.5286603664014018e-05,1.2510105590906419e-06,2.1311278919317996e-06
18,2.294572402260812e-06,1.6039539524587493e-06,1.739320119459843e-06,8.182064087188128e-07,3.5261507684483654e-06,7.0823832396311065e-06,4.103689496739596e-06,1.7588808418762944e-06,6.743232989238642e-06,4.763876186641425e-05,6.811092366438508e-07,4.149158689392977e-06,1.857487529361266e-06,2.6957558859807406e-05,1.2739087574152019e-06,2.1373736624782035e-06
19,2.3426233439579963e-06,1.6206618491310512e-06,1.74504303189754e-06,8.383766954005473e-07,3.7323788414432047e-06,7.541231368819405e-06,4.310800219704742e-06,1.7895712113189677e-06,6.571489386715203e-06,4.5119661230936724e-05,7.12284429994506e-07,4.164427681403864e-06,1.8914642602030867e-06,2.8562594962948552e-05,1.2930326541164304e-06,2.1433310146315227e-06
20,2.3821825250618023e-06,1.633036335665123e-06,1.7458248964847942e-06,8.596540152706641e-07,3.940343176153888e-06,7.9988722493768e-06,4.5048633899645155e-06,1.816747829658909e-06,6.369820668280257e-06,4.241078719027227e-05,7.446911982932352e-07,4.1738368163318754e-06,1.920130840176878e-06,3.0072535258079216e-05,1.3086693598891796e-06,2.150481945957164e-06
21,2.412593525022578e-06,1.641700669241725e-06,1.7426134582112402e-06,8.823061265747658e-07,4.1496525174516954e-06,8.448857150275465e-06,4.682443195246763e-06,1.8406930579925552e-06,6.142719769951823e-06,3.957663597886469e-05,7.785278577403194e-07,4.178828035908982e-06,1.944329487621209e-06,3.1455521875865706e-05,1.32098911420524e-06,2.1598692222418578e-06
22,2.4336792387462284e-06,1.6474216994115042e-06,1.736129379591079e-06,9.065967236680889e-07,4.359981410494745e-06,8.8838247430127e-06,4.8404797295479525e-06,1.8619306144620669e-06,5.895180133596419e-06,3.667999150458994e-05,8.138950357131785e-07,4.1802313198604805e-06,1.964974324781254e-06,3.2680470994168816e-05,1.3300684994011209e-06,2.1721125892222925e-06
23,2.4457653344516716e-06,1.650987220053246e-06,1.726742663291369e-06,9.328527949549808e-07,4.570659597149985e-06,9.296011282846577e-06,4.976586723005092e-06,1.880934498765117e-06,5.6324723262529084e-06,3.37799443884881e-05,8.507807729691947e-07,4.178344680542245e-06,1.983128360791997e-06,3.372162441813673e-05,1.336014761428341e-06,2.1874285334426667e-06
24,2.449483704574469e-06,1.6530889005932484e-06,1.7145019533569933e-06,9.614495728625405e-07,4.780496925003489e-06,9.677724534438646e-06,5.08928930903743e-06,1.8979537084844892e-06,5.3600050717858405e-06,3.093039922155274e-05,8.890738873023212e-07,4.17290438440715e-06,2.000111670128339e-06,3.456151361328073e-05,1.3391138716089384e-06,2.2056563727029667e-06
25,2.4455246016151436e-06,1.6542594725606781e-06,1.6993075341171042e-06,9.927532099191026e-07,4.988036252441424e-06,1.0021874822101605e-05,5.178086326625731e-06,1.9130723975032126e-06,5.083068395458875e-06,2.8179192730931836e-05,9.285762538749424e-07,4.16298799404314e-06,2.0174758542816766e-06,3.519117515094417e-05,1.3398525208677613e-06,2.2263653292035915e-06
26,2.434501604030202e-06,1.654914220288371e-06,1.6811624427214792e-06,1.027112498102759e-06,5.1919644161043774e-06,1.0322712123621712e-05,5.24326149658215e-06,1.9263684725626267e-06,4.806423253994524e-06,2.556779169713065e-05,9.6897592413494e-07,4.147061160714197e-06,2.036774739786144e-06,3.560791573398995e-05,1.3387826745639508e-06,2.249024602007309e-06
27,2.416923350987604e-06,1.6554444076383284e-06,1.6604021686460687e-06,1.064850791515466e-06,5.391317574053311e-06,1.0576627499156153e-05,5.285421863711929e-06,1.937952055125696e-06,4.5339952148535635e-06,2.313136996094271e-05,1.0097976364885506e-06,4.123184831401021e-06,2.0592967918837923e-06,3.5811316345941155e-05,1.3363526780827931e-06,2.2731004316778426e-06
28,2.393149517661047e-06,1.656280976860011e-06,1.6378125788659672e-06,1.1062266492126772e-06,5.585370289071972e-06,1.0782490022279902e-05,5.304937389613222e-06,1.947897407064315e-06,4.268904919445009e-06,2.0899196685113296e-05,1.050374599012832e-06,4.089206179194827e-06,2.085940622594098e-06,3.57988770682799e-05,1.3328175515680283e-06,2.297995303816165e-06
29,2.363333217535196e-06,1.6579503609551154e-06,1.6145885805634061e-06,1.1514035225919822e-06,5.773280411024522e-06,1.094098371674831e-05,5.301732759679505e-06,1.9562268005963927e-06,4.013759698223459e-06,1.889531451698567e-05,1.0898520807109975e-06,4.042915541449578e-06,2.11727382322725e-06,3.5564378843422e-05,1.3282552945665876e-06,2.3229082744529047e-06
30,2.3275088441975663e-06,1.6611127007062035e-06,1.5921674615465738e-06,1.200440557981421e-06,5.953670307723295e-06,1.1053110638497052e-05,5.27565625496099e-06,1.96290622917653e-06,3.7709168643503993e-06,1.7139299219424984e-05,1.1272435307959786e-06,3.982339676653255e-06,2.1537044161968413e-06,3.510125984486405e-05,1.3227014036587216e-06,2.3467787791743015e-06
31,2.285851312394237e-06,1.6664885612481942e-06,1.5720233484874276e-06,1.2533143850569377e-06,6.124494272073968e-06,1.1118911053595876e-05,5.2270730544301074e-06,1.9677678329610074e-06,3.542564146565296e-06,1.564694621987845e-05,1.1615701109404001e-06,3.906161852028885e-06,2.19565375715814e-06,3.440917717123886e-05,1.3163161611206942e-06,2.3683892195836985e-06
32,2.238909950235985e-06,1.6747138758608498e-06,1.5554872902741401e-06,1.3099380327574739e-06,6.28333985424768e-06,1.1137277842313677e-05,5.1572393695418075e-06,1.97049027850042e-06,3.3306838428606005e-06,1.4430934807800808e-05,1.1920438718318526e-06,3.814004547222923e-06,2.2436303189686864e-06,3.349940430902473e-05,1.3094174394435058e-06,2.386552727508004e-06
33,2.1876530835281627e-06,1.6862466116213646e-06,1.5436268285658147e-06,1.3701147583892135e-06,6.4278142231446285e-06,1.1106619567591115e-05,5.0683098246617516e-06,1.970746368775006e-06,3.1369725344443457e-06,1.3501475796548024e-05,1.2182090318970776e-06,3.7064220921059565e-06,2.2981428995684696e-06,3.239591489809839e-05,1.3023764489489314e-06,2.400251561881672e-06
34,2.1333294124203472e-06,1.7013077557168937e-06,1.537208059447224e-06,1.433467674543874e-06,6.555698343352923e-06,1.1025678885108018e-05,4.963061210450913e-06,1.968401538515692e-06,2.9627598909445068e-06,1.2866847092791057e-05,1.2399756905013149e-06,3.5847684338237375e-06,2.3595274060450436e-06,3.1132072634967464e-05,1.2955420655773916e-06,2.408656846930637e-06
35,2.077230589709018e-06,1.7198275358295331e-06,1.5367629577025887e-06,1.4994451446203498e-06,6.664995535337793e-06,1.0894268418507338e-05,4.844571398638387e-06,1.963604753451342e-06,2.808992685642484e-06,1.2533741421473576e-05,1.2575301644938848e-06,3.4511711435980274e-06,2.427849231318728e-06,2.9745481320073883e-05,1.2892416586296875e-06,2.411091885337283e-06
36,2.020459136814254e-06,1.741483701403268e-06,1.542722414782906e-06,1.567400925502859e-06,6.754133256238357e-06,1.071389588895181e-05,4.716020188367376e-06,1.9567167188842636e-06,2.6762506865952792e-06,1.2507362245216447e-05,1.2711963352221053e-06,3.3085479985834494e-06,2.502875437641836e-06,2.8273620012865707e-05,1.283755603638539e-06,2.4070523634991327e-06
37,1.9638287178702887e-06,1.7658209062852258e-06,1.5554742708184357e-06,1.6366351729426647e-06,6.822321447255832e-06,1.0488065950866616e-05,4.580524261566373e-06,1.9481130425049342e-06,2.564712332970301e-06,1.2791285067976638e-05,1.2813486706541761e-06,3.160378543994925e-06,2.5839902975423086e-06,2.6751060367720935e-05,1.2792699678638546e-06,2.3962953289293745e-06
38,1.9079244847488727e-06,1.79231499181459e-06,1.575295593173017e-06,1.7063541334744041e-06,6.869806431342664e-06,1.022211630716108e-05,4.440909278895995e-06,1.938015226401253e-06,2.47409039337621e-06,1.3387258521027716e-05,1.288365901028733e-06,3.010195320401062e-06,2.670071359347215e-06,2.5207837366844597e-05,1.2758812177906749e-06,2.3789063893559516e-06
39,1.8531810313112041e-06,1.820423763001146e-06,1.6022628152877866e-06,1.7756916255418002e-06,6.8978276938047e-06,9.92273589484444e-06,4.299512281128227e-06,1.9264922316436595e-06,2.4036233780295323e-06,1.4295033780752461e-05,1.2925807862492345e-06,2.8611251471081054e-06,2.7594587072510977e-06,2.3668648574715277e-05,1.2736280879454257e-06,2.3552589412348553e-06
40,1.7999126911222424e-06,1.8497148117614622e-06,1.6362010762855244e-06,1.8439149680296099e-06,6.9083390374998964e-06,9.597324694234744e-06,4.1580734891630555e-06,1.9135509534080145e-06,2.352240538248699e-06,1.5512083854924913e-05,1.29427439253964e-06,2.7157139969896894e-06,2.8500783561361206e-06,2.2152951512944253e-05,1.2725029212533152e-06,2.3258389214474188e-06
41,1.7484214455234296e-06,1.8798889523699316e-06,1.676663565971405e-06,1.9107082625191625e-06,6.903569966495489e-06,9.25320578588635e-06,4.017656741064248e-06,1.8991431137659191e-06,2.31891680538186e-06,1.7033164494942544e-05,1.2937185503698122e-06,2.575961722189222e-06,2.9396408890076163e-06,2.067586074271251e-05,1.272429633718736e-06,2.291040075869103e-06
42,1.6991806558670164e-06,1.910578408911912e-06,1.7229298600131349e-06,1.9763077865730014e-06,6.88542092003203e-06,8.896794366730202e-06,3.8786836127169855e-06,1.8831193593815145e-06,2.3029724860189136e-06,1.8849899420659053e-05,1.2911890316717024e-06,2.4434531182982763e-06,3.0257986977886137e-06,1.924935785327481e-05,1.2732329567097611e-06,2.25112096640021e-06
43,1.652877404725467e-06,1.9411141497287273e-06,1.7740127028981635e-06,2.041357822180064e-06,6.854890920926288e-06,8.533054140570527e-06,3.7412245942034958e-06,1.8652632135747737e-06,2.3040652241571684e-06,2.095046562981474e-05,1.2869672379389896e-06,2.319520675399513e-06,3.1062464565896687e-06,1.7883342599409184e-05,1.2746284623123296e-06,2.2063263033829167e-06
44,1.6102378154111052e-06,1.9704533326372806e-06,1.8286947853252348e-06,2.106590327493663e-06,6.811917564933069e-06,8.165541716225262e-06,3.60541870871315e-06,1.845352315090556e-06,2.3219981020049124e-06,2.3319169253940017e-05,1.2814037303687792e-06,2.205317839676162e-06,3.1787610681773325e-06,1.658630534880232e-05,1.2762418768590295e-06,2.1569825750378347e-06
45,1.5718257070310153e-06,1.997291394407312e-06,1.885626622401026e-06,2.172597923287809e-06,6.7557648184125345e-06,7.796926456687267e-06,3.4717831499503978e-06,1.8231666903294256e-06,2.356640850567958e-06,2.5935730851027926e-05,1.2749984849463792e-06,2.1017372682048776e-06,3.241224160551142e-06,1.5365553564686507e-05,1.2776878129588738e-06,2.103514646697525e-06
46,1.5380136481370532e-06,2.020306921302455e-06,1.9434469262591244e-06,2.2397921568150465e-06,6.68573618498e-06,7.429488424353301e-06,3.3413325510927735e-06,1.7985609622906025e-06,2.4079195033374435e-06,2.8774430660389246e-05,1.268369016376678e-06,2.0092797084190874e-06,3.291882408346888e-06,1.4227024914190422e-05,1.278684557689679e-06,2.046483701911424e-06
47,1.5091015687870754e-06,2.038447300006214e-06,2.000810876024428e-06,2.3083814626654097e-06,6.6018353728332585e-06,7.06522580855159e-06,3.215492835870735e-06,1.771632811362629e-06,2.475651640470532e-06,3.18034855342661e-05,1.2621007394591986e-06,1.9279955675299543e-06,3.329805678904058e-06,1.3174811267757636e-05,1.2791219042471911e-06,1.9866605612328917e-06
48,1.485375418537628e-06,2.0511437303044285e-06,2.0562933599352225e-06,2.3782883197925546e-06,6.505008681713088e-06,6.7056877239252095e-06,3.0958041341765035e-06,1.7427770025762019e-06,2.5593018005051717e-06,3.4984951388655705e-05,1.25665611143758e-06,1.857521527901697e-06,3.3549532317318703e-06,1.2210639719804895e-05,1.2790813784519388e-06,1.9250380767477364e-06
49,1.4670129672551662e-06,2.058375185232688e-06,2.1083658241816476e-06,2.4491199936977434e-06,6.396844783105619e-06,6.351947161398634e-06,2.983549746926867e-06,1.7125294409712429e-06,2.6578548733121038e-06,3.8275167644870413e-05,1.2524496222117388e-06,1.7972483912598932e-06,3.3676384984713254e-06,1.1333694787474083e-05,1.2788405765061926e-06,1.862710533380685e-06
50,1.4539726601545711e-06,2.0605726842772896e-06,2.1556171141658437e-06,2.520247241210651e-06,6.278998765527847e-06,6.004933867552772e-06,2.879553254586183e-06,1.6814248156920094e-06,2.7698488973848235e-06,4.1625570037921e-05,1.249946654605908e-06,1.7466655503828503e-06,3.367965903928988e-06,1.0540848582681141e-05,1.2788093065272507e-06,1.8006724624139122e-06
51,1.4459851963402772e-06,2.058410809195608e-06,2.1970489070606234e-06,2.5908869822264386e-06,6.1527682640263426e-06,5.665884443056718e-06,2.7842264103983963e-06,1.6500490105084514e-06,2.893561463133699e-06,4.4983798815335466e-05,1.2496200442902328e-06,1.7057365298687029e-06,3.355771520503391e-06,9.826928256624472e-06,1.27937040130435e-06,1.7396635214161682e-06
52,1.4426117730149071e-06,2.0525612096134173e-06,2.2321866185788834e-06,2.6601214733838355e-06,6.019040955653029e-06,5.336509946732447e-06,2.6977259920216344e-06,1.6191231272990497e-06,3.0272542935818192e-06,4.8295139103974424e-05,1.2518246871837089e-06,1.6750077132002043e-06,3.3310027991450794e-06,9.185098357520487e-06,1.2807176086080547e-06,1.680125592269326e-06
53,1.4432971457467717e-06,2.0435346189562316e-06,2.260999544647913e-06,2.7269246651457677e-06,5.878526901390529e-06,5.018794034792705e-06,2.620051293654848e-06,1.5894373426138623e-06,3.1692390614757325e-06,5.15041204892534e-05,1.2567610666739047e-06,1.6553512322050086e-06,3.294117674859254e-06,8.607748767211715e-06,1.2827924337499365e-06,1.6223009111076108e-06
54,1.4473997236375412e-06,2.0316822095181852e-06,2.2837853040491246e-06,2.7902571346866734e-06,5.732017474392166e-06,4.714662033236266e-06,2.551006550538098e-06,1.5617276760631658e-06,3.317743025872692e-06,5.455569400270618e-05,1.264552449280107e-06,1.6475885548243364e-06,3.2461411456746865e-06,8.087584165959382e-06,1.2853456456853808e-06,1.5664491480519194e-06
55,1.4542147504949833e-06,2.017231294473099e-06,2.3010789656122677e-06,2.8492107515760335e-06,5.58036369187261e-06,4.425736276301977e-06,2.490077392497867e-06,1.536619652839131e-06,3.470890222232967e-06,5.739503200676972e-05,1.2752937119005697e-06,1.6522695958884408e-06,3.1883324196182176e-06,7.6183334060661e-06,1.288063071528899e-06,1.5130044715187662e-06
56,1.4629837574120587e-06,2.0002406741040744e-06,2.3135147700993806e-06,2.9031832904949495e-06,5.42411433248101e-06,4.15316814476112e-06,2.436343223890678e-06,1.5146178210892242e-06,3.6269006936348324e-06,5.996523162192126e-05,1.28899305799489e-06,1.6696349690807324e-06,3.121774225860581e-06,7.19492335353965e-06,1.2906310705747307e-06,1.462518472284217e-06
57,1.4728663549695089e-06,1.980584643588388e-06,2.3216156564263036e-06,2.9520274592716422e-06,5.263268845744164e-06,3.897470140225878e-06,2.3884657713622414e-06,1.4961430119925712e-06,3.7841836830904702e-06,6.220498376639712e-05,1.3055134128794785e-06,1.6996781178643075e-06,3.0472586792513894e-06,6.813119363436587e-06,1.2926895069038909e-06,1.4154857921917907e-06
58,1.4829336359370064e-06,1.9580868397458135e-06,2.32560384207703e-06,2.996018312477163e-06,5.09753715493477e-06,3.6584203750383883e-06,2.3447603051079157e-06,1.4816700565546433e-06,3.941152836568493e-06,6.40519855826332e-05,1.3246234795674675e-06,1.7422442436252894e-06,2.965511611958182e-06,6.468745380749577e-06,1.2937606466389775e-06,1.3722568764346501e-06
59,1.4922342112709328e-06,1.9326973309225476e-06,2.325345187024777e-06,3.0355571655173624e-06,4.926863674817109e-06,3.4351636322651132e-06,2.3034230101779765e-06,1.4718768071171255e-06,4.096043433817627e-06,6.545444592065853e-05,1.3461113417626408e-06,1.7970755357526432e-06,2.8775132902781175e-06,6.156945181960468e-06,1.293262470322836e-06,1.3330649399907422e-06
60,1.4998422847889846e-06,1.9045232090894676e-06,2.3204764179996174e-06,3.0707978678753195e-06,4.751851214228673e-06,3.2264818735646573e-06,2.262897712890688e-06,1.4676215263240599e-06,4.247040626212124e-06,6.638343393960054e-05,1.369862618232063e-06,1.8637599107535312e-06,2.7847411171485456e-06,5.871976098527495e-06,1.290634263611811e-06,1.2980298779505998e-06
61,1.5049067968884703e-06,1.8737391774515364e-06,2.3106509465032954e-06,3.1014424996561085e-06,4.57397926023675e-06,3.0311424967055264e-06,2.222176451462488e-06,1.4697429690121778e-06,4.392562657667467e-06,6.683630284032616e-05,1.3958660663152186e-06,1.9416644752149426e-06,2.689263809846165e-06,5.607794709916558e-06,1.2855113696901248e-06,1.2671160441951012e-06
62,1.5068478462518274e-06,1.8406023624770658e-06,2.295771353266465e-06,3.1267186740887443e-06,4.395521831614403e-06,2.848281546285696e-06,2.1808048758262814e-06,1.478868837214366e-06,4.5312864815609456e-06,6.682885557703253e-05,1.4241450453546992e-06,2.029949090333904e-06,2.5935918144101365e-06,5.359335429519937e-06,1.277854987144749e-06,1.240134196667679e-06
63,1.505544549464692e-06,1.8056089305676736e-06,2.27611596671486e-06,3.145446197620381e-06,4.219158459479323e-06,2.6776705419002613e-06,2.138645416934134e-06,1.495341862364376e-06,4.661855034553205e-06,6.638223966295966e-05,1.4546738851085185e-06,2.1276909929821973e-06,2.500327559948517e-06,5.1236726243570654e-06,1.267978229238913e-06,1.2167715118971293e-06
64,1.5012600505868073e-06,1.7695439072741444e-06,2.2522843720369112e-06,3.156208259291558e-06,4.047559956945634e-06,2.5196260866284577e-06,2.095750441533498e-06,1.5192095472350553e-06,4.782552024939524e-06,6.551435484726726e-05,1.48737660936325e-06,2.234107051140045e-06,2.41184543791453e-06,4.90014076097664e-06,1.2564442643229218e-06,1.196604829900397e-06
65,1.4944890720825391e-06,1.7333476204478385e-06,2.2249596858692786e-06,3.1576497287517934e-06,3.8832283379620974e-06,2.3746249283927847e-06,2.052465756043221e-06,1.5502306836740813e-06,4.891245846693524e-06,6.424235046819719e-05,1.522205759670007e-06,2.348781983600401e-06,2.330121256411679e-06,4.689439495134823e-06,1.2439120530271722e-06,1.1791483289138986e-06
66,1.4859416509889632e-06,1.6980003744503818e-06,2.1947142579898515e-06,3.1487966680418833e-06,3.728523249711195e-06,2.2429683316299727e-06,2.0094586821218137e-06,1.5878965564886773e-06,4.985730194849411e-06,6.259298013667688e-05,1.5592076372398623e-06,2.4717429729986904e-06,2.2566660909492007e-06,4.492508541943916e-06,1.231072995443188e-06,1.163958272008583e-06
67,1.4764678915216618e-06,1.6644738025995182e-06,2.1620246177123844e-06,3.1292340099539624e-06,3.5856229283058227e-06,2.1246364841429624e-06,1.9674947691072464e-06,1.6314399817574955e-06,5.064224628352101e-06,6.06100078252177e-05,1.5984918054446485e-06,2.603299028590738e-06,2.192514633249912e-06,4.3097686583943085e-06,1.2186544734203511e-06,1.1507135494887899e-06
68,1.466842683926475e-06,1.6336416923862502e-06,2.127305419223023e-06,3.0990831827067646e-06,3.456326889937435e-06,2.0192827383818714e-06,1.927186515061772e-06,1.679822545303605e-06,5.125518820372285e-06,5.835096889343329e-05,1.6401004920077375e-06,2.7437288012070427e-06,2.138226290070764e-06,4.140797441831042e-06,1.2073538169817957e-06,1.139200082097596e-06
69,1.4576337690270799e-06,1.6061657753083228e-06,2.09081969989799e-06,3.058855751571776e-06,3.341825735225922e-06,1.926362030767474e-06,1.888930963595367e-06,1.7317223328138265e-06,5.168579026344391e-06,5.587624024654633e-05,1.6838947488315336e-06,2.892987873611366e-06,2.093886273657251e-06,3.984320029783935e-06,1.1977267134033933e-06,1.1292618962925599e-06
70,1.4492638678883592e-06,1.5824349571625091e-06,2.052589542844549e-06,3.009237445238228e-06,3.2426139150118774e-06,1.8452874773232256e-06,1.852966189260249e-06,1.7855389765597018e-06,5.192220172486986e-06,5.323994762533225e-05,1.7295551988272097e-06,3.0505473646487478e-06,2.059121709186582e-06,3.8384445473736765e-06,1.1901328434107278e-06,1.1208366723843403e-06
71,1.4421713007184055e-06,1.5625705113612413e-06,2.0123838639322512e-06,2.9508484689593587e-06,3.158559608886139e-06,1.7754404529622408e-06,1.819387254911142e-06,1.8394683028661601e-06,5.195365647171305e-06,5.04876269304798e-05,1.7766201174675502e-06,3.2153409216827505e-06,2.033129049786188e-06,3.7010599723662122e-06,1.1847232905276124e-06,1.1140406277811473e-06
72,1.4368917848143477e-06,1.546446846329497e-06,1.9698167980066796e-06,2.88420805766619e-06,3.0889808569231613e-06,1.7160568559207012e-06,1.7881019439540353e-06,1.8917284234471848e-06,5.177479439879679e-06,4.7657696355773725e-05,1.8244807016185323e-06,3.3857287494056534e-06,2.0147516801869853e-06,3.5703062859064173e-06,1.1814374863093697e-06,1.109159677659795e-06
73,1.4339612296483586e-06,1.5337054028106287e-06,1.9245751472462544e-06,2.810007056194108e-06,3.032673288461188e-06,1.6661415798788496e-06,1.7588301725158909e-06,1.9408791859645216e-06,5.138666109858763e-06,4.4783034983513565e-05,1.8723809242431236e-06,3.5594626485427643e-06,2.0026315846025817e-06,3.445008074440253e-06,1.180053811311055e-06,1.1065446060569578e-06
74,1.433748331985263e-06,1.5238574950545536e-06,1.8765656925841345e-06,2.729352383246669e-06,2.9879604469486764e-06,1.6244928159823034e-06,1.7311970117040539e-06,1.985983808111029e-06,5.079505615368776e-06,4.189162635226243e-05,1.919420753383259e-06,3.7337556419563536e-06,1.9953169357231306e-06,3.3247962327888467e-06,1.180282129720706e-06,1.1065440507208875e-06
75,1.43639210282144e-06,1.5165296386331543e-06,1.8258463910213143e-06,2.6437118992354657e-06,2.9527535383179573e-06,1.5898203101921166e-06,1.704838677893737e-06,2.0264528585957364e-06,5.0007435672264335e-06,3.900618764996778e-05,1.964532284744863e-06,3.905546564301752e-06,1.991235682310784e-06,3.209748998532016e-06,1.1817988556991927e-06,1.1094965749867608e-06
76,1.4418680703986992e-06,1.5116654936097813e-06,1.7726041733144548e-06,2.554676817858075e-06,2.9246017021740292e-06,1.5608402750357309e-06,1.6794506064688867e-06,2.0617425145236175e-06,4.902961046523116e-06,3.614426884338227e-05,2.006513052109271e-06,4.0719071171597515e-06,1.9886719656839465e-06,3.099922134681116e-06,1.1842204374008219e-06,1.115682260612986e-06
77,1.45006114932176e-06,1.5094666355184438e-06,1.7173506180974762e-06,2.4637135882814686e-06,2.9008205609680438e-06,1.5362523107502516e-06,1.6547835746091293e-06,2.09116499310445e-06,4.7866031039713765e-06,3.332086862243504e-05,2.044141082056486e-06,4.2304141420867066e-06,1.9859434979496803e-06,2.995180389009465e-06,1.1871335891617988e-06,1.1252311733981156e-06
78,1.4607373948683902e-06,1.5101403256557147e-06,1.6610642783822294e-06,2.3720080823271413e-06,2.8787390736896625e-06,1.5147215468309415e-06,1.6305978195305572e-06,2.113867637818823e-06,4.6524841096490345e-06,3.055230107611815e-05,2.0762428402562394e-06,4.379300495742564e-06,1.981732645624709e-06,2.8953177699323156e-06,1.1902006630530611e-06,1.1380768872902001e-06
79,1.4734542932453963e-06,1.5137210160393928e-06,1.605037679163133e-06,2.2804789770008524e-06,2.856020114640687e-06,1.4950368013883357e-06,1.6065876470085893e-06,2.128986372777183e-06,4.502300735436597e-06,2.785765668563013e-05,2.1016343461683133e-06,4.517276541778356e-06,1.975278481290636e-06,2.8004691515291573e-06,1.1932221037133998e-06,1.1539696514815058e-06
80,1.487575159848977e-06,1.5200957875838775e-06,1.5505646828096913e-06,2.189908039471469e-06,2.831017742249548e-06,1.4763722107996918e-06,1.5823503811573063e-06,2.1359323272409286e-06,4.338633731952067e-06,2.5256753072873968e-05,2.1190541399344175e-06,4.643100229981146e-06,1.9662636079245906e-06,2.711670575674261e-06,1.1961189474444751e-06,1.1724887894479782e-06
81,1.5024733976310077e-06,1.5291083496284792e-06,1.4987107912976847e-06,2.1010632888239906e-06,2.8030652154244736e-06,1.4584542867618088e-06,1.557499041148533e-06,2.1345686832933655e-06,4.1644591948258754e-06,2.2767194900183653e-05,2.127346070922792e-06,4.755283607481066e-06,1.9545986869157824e-06,2.6309752475886968e-06,1.198906594250748e-06,1.1930272087546554e-06
82,1.5177399449538107e-06,1.5405615486014323e-06,1.4502385630196545e-06,2.014765766248496e-06,2.7724717619273428e-06,1.4415473182525185e-06,1.5318907738024006e-06,2.1251404920700265e-06,3.982750808553821e-06,2.0403147094022202e-05,2.125910098868821e-06,4.85224858603655e-06,1.9403854558140837e-06,2.5609437994701737e-06,1.2016669423781865e-06,1.2147918153688077e-06
83,1.5331606580845688e-06,1.5541051112003702e-06,1.4056602630000744e-06,1.9318866155643424e-06,2.7401227509627203e-06,1.4262820306125902e-06,1.505780678534228e-06,2.1081183370109565e-06,3.796474317941575e-06,1.8175560872144608e-05,2.115010801823213e-06,4.932632543738445e-06,1.923987268160424e-06,2.504064748263753e-06,1.2044843310549596e-06,1.2369074188837478e-06
84,1.54859802561276e-06,1.569154794967722e-06,1.3653816758868492e-06,1.8532516933871947e-06,2.706913834426969e-06,1.4134084234613027e-06,1.4797459100718645e-06,2.0840683638836995e-06,3.608553045090068e-06,1.6092379470642393e-05,2.0956172811980166e-06,4.995230366914942e-06,1.905953454115031e-06,2.4625487708532076e-06,1.2074240118698163e-06,1.258615378882791e-06
85,1.564013610483611e-06,1.585000092433392e-06,1.329826525065949e-06,1.7794992921973928e-06,2.6734234204003564e-06,1.4035783116539958e-06,1.4544479685321713e-06,2.053505085894247e-06,3.421591854312139e-06,1.4158444393319456e-05,2.0689333816333215e-06,5.03863144862341e-06,1.8868662026552915e-06,2.438393539813224e-06,1.2106308842241714e-06,1.2793651112336413e-06
86,1.579528708490181e-06,1.601094809422482e-06,1.2994168059987332e-06,1.7110062437478218e-06,2.640017019609381e-06,1.3972305517816995e-06,1.4304649142709642e-06,2.0168322012517176e-06,3.2377172892540716e-06,1.2375652342992405e-05,2.036024042722215e-06,5.0611461181824385e-06,1.8673117785105934e-06,2.4334094987073396e-06,1.2144091689990658e-06,1.2987078472441824e-06
87,1.5953879397194922e-06,1.6172939471047137e-06,1.2744449278899424e-06,1.647900790639223e-06,2.6071919781346754e-06,1.3945661897743232e-06,1.4082944609307528e-06,1.9745580301568787e-06,3.0587175907075056e-06,1.0743388947000504e-05,1.9977749824597363e-06,5.06130363985638e-06,1.8478720914810163e-06,2.449133713869957e-06,1.2191239582288376e-06,1.316216711590984e-06
88,1.6118924075374342e-06,1.6338059538581859e-06,1.2549943516962604e-06,1.590070323174923e-06,2.575761595862648e-06,1.395552249964369e-06,1.3883891731613948e-06,1.927656194558634e-06,2.8862845838066107e-06,9.258843854946383e-06,1.955073656695436e-06,5.038474251737251e-06,1.8290077460100891e-06,2.4867774347971132e-06,1.225022085515994e-06,1.3315886807530975e-06
89,1.6293300832743997e-06,1.650910018976998e-06,1.2409987429843132e-06,1.537175329952893e-06,2.5466948683647444e-06,1.3999677385001842e-06,1.3711314506641925e-06,1.877698851906226e-06,2.7221336414448385e-06,7.917387410191828e-06,1.908939426220099e-06,4.993145185061911e-06,1.8109284053864837e-06,2.5472652680726106e-06,1.2321475056400063e-06,1.3447559253908563e-06
90,1.6478911800118474e-06,1.6686718972998808e-06,1.232374769309581e-06,1.4887506604487847e-06,2.520894557308201e-06,1.4075572939453094e-06,1.35682234437411e-06,1.8266061588809718e-06,2.567918042931425e-06,6.713360662927081e-06,1.8604744358371779e-06,4.9269085415509566e-06,1.7935296116826404e-06,2.6313079571313478e-06,1.2403795645725462e-06,1.3558073011533546e-06
91,1.6676129680790904e-06,1.6868125251702889e-06,1.2290723797033297e-06,1.4443542151364101e-06,2.499175839751418e-06,1.4182295568600733e-06,1.34570943562214e-06,1.7762443471187115e-06,2.4250082968795456e-06,5.640903320347418e-06,1.8107320813105874e-06,4.842398685088468e-06,1.776422030108099e-06,2.7394640452375844e-06,1.249511391596386e-06,1.3647883602829395e-06
92,1.6883855055829194e-06,1.7047611076257746e-06,1.2309841446292536e-06,1.4036698869140661e-06,2.4822610549758335e-06,1.4321099204008173e-06,1.3379786245647892e-06,1.7281865229272136e-06,2.2943125225850043e-06,4.694376285464869e-06,1.7606392183055607e-06,4.743221377411134e-06,1.7591479859147443e-06,2.8722334381517927e-06,1.259278804053087e-06,1.3715887805174637e-06
93,1.7100778622951394e-06,1.7218594972238716e-06,1.237832033797117e-06,1.366514595075202e-06,2.4706323897131757e-06,1.4493883475672466e-06,1.3336932436960802e-06,1.6836808535986803e-06,2.176244140711769e-06,3.868570785084297e-06,1.7109783219204523e-06,4.633745749729473e-06,1.7415690782214928e-06,3.0302623996843163e-06,1.269346587925146e-06,1.376000012786072e-06
94,1.732790663100513e-06,1.7375687447827612e-06,1.2491471990906986e-06,1.332744967517782e-06,2.4644244034298732e-06,1.470128788798858e-06,1.3327453437454189e-06,1.6436741765851316e-06,2.0707726249260026e-06,3.1590121244272257e-06,1.6623801142515976e-06,4.518676673249462e-06,1.7241331610596784e-06,3.2145570951592723e-06,1.2793317105835104e-06,1.3778722455949297e-06
95,1.756997617884084e-06,1.7514938778899602e-06,1.2643296120372834e-06,1.3021658193900106e-06,2.463508480973458e-06,1.494189019728505e-06,1.3348431970544452e-06,1.6088254047640877e-06,1.977478828811526e-06,2.562254708131997e-06,1.6153166702376674e-06,4.402562201009376e-06,1.707765025357605e-06,3.426479436159866e-06,1.2888848022766731e-06,1.377270921208613e-06
96,1.7833822775959376e-06,1.763280227047108e-06,1.2827248941018099e-06,1.2745547459729369e-06,2.4676676767639883e-06,1.5212585536494403e-06,1.3395303520951907e-06,1.5795615933723574e-06,1.895668986741511e-06,2.075872119377942e-06,1.5701025205422386e-06,4.289511376481064e-06,1.6935207015022262e-06,3.667505622386444e-06,1.29776776485813e-06,1.374547216089088e-06
97,1.8125459733937918e-06,1.7726194799302442e-06,1.303689390090548e-06,1.2497411381733284e-06,2.4767110174318335e-06,1.550966441559395e-06,1.3462819618836246e-06,1.5561812821217505e-06,1.8245967445429883e-06,1.6981124319240382e-06,1.5268923321813397e-06,4.183165118733926e-06,1.6823295480411124e-06,3.938907829235852e-06,1.3058739312675278e-06,1.3702575331168239e-06
98,1.8448561964984819e-06,1.7793547889265977e-06,1.3266504299986133e-06,1.2276115246850093e-06,2.4905424681247968e-06,1.582947867565116e-06,1.3546531621081524e-06,1.5389136303853082e-06,1.7636403313038907e-06,1.4275462516876898e-06,1.4856670820213355e-06,4.086687380430055e-06,1.6749089154438625e-06,4.241491170480519e-06,1.3132137152354915e-06,1.3649687405662965e-06
99,1.8804812362421362e-06,1.7834390339559338e-06,1.3511494246560128e-06,1.208052587523241e-06,2.509241047482494e-06,1.6167786711639252e-06,1.364315167847262e-06,1.5278707499972795e-06,1.7122500810326251e-06,1.2630621109935815e-06,1.446255563554549e-06,4.002639265299497e-06,1.6717672715144651e-06,4.575466930011909e-06,1.31988857984713e-06,1.3591061008832238e-06
100,1.9194713088576235e-06,1.784776236511096e-06,1.376813691968404e-06,1.1909329729572458e-06,2.533050924960764e-06,1.6518555996296328e-06,1.3749096392999431e-06,1.5229498932085405e-06,1.669774712355132e-06,1.2041944243272257e-06,1.4084268028232834e-06,3.932835320992816e-06,1.6733203462239484e-06,4.940405354092429e-06,1.326025786658414e-06,1.3529230675767438e-06
101,1.9617262786949033e-06,1.7832157653420938e-06,1.403259061999589e-06,1.1761514816347279e-06,2.562177978911216e-06,1.6873527410446157e-06,1.3858695838598124e-06,1.523774356089829e-06,1.6353791133269553e-06,1.2513704353573418e-06,1.372006591942383e-06,3.8782713281332035e-06,1.680090711649223e-06,5.3351400628652e-06,1.3317163548697926e-06,1.3465175087139665e-06
102,2.006875773738725e-06,1.7787287335319875e-06,1.4300352707465618e-06,1.1636753078480476e-06,2.596513887127152e-06,1.7223164491832245e-06,1.3963823188852135e-06,1.5296791519698875e-06,1.6080791749324191e-06,1.4057571658607291e-06,1.3369580673709328e-06,3.839152087098013e-06,1.69277095745052e-06,5.757739237262826e-06,1.3370271197614941e-06,1.3398751155337823e-06
103,2.054252461488524e-06,1.771545567595956e-06,1.4566981241526749e-06,1.153509442755997e-06,2.6354738042456915e-06,1.7558932496021603e-06,1.4055452905149574e-06,1.5397126378419798e-06,1.5868953380582907e-06,1.668888602166415e-06,1.303393879875488e-06,3.81508112699524e-06,1.7120853785771236e-06,6.205765871962239e-06,1.3420162318684128e-06,1.3329561384113077e-06
104,2.1030223389934785e-06,1.7621057154606643e-06,1.4829427745200528e-06,1.145634660475341e-06,2.677957984030399e-06,1.7875676179585783e-06,1.412604849417642e-06,1.5527007543115236e-06,1.571126886180403e-06,2.0424339773441076e-06,1.2715030797322478e-06,3.805349273447853e-06,1.7386275078419492e-06,6.676712917089344e-06,1.3466589408295632e-06,1.32571773152127e-06
105,2.152332463926448e-06,1.750889022234514e-06,1.508661245755035e-06,1.1399697664346409e-06,2.722388749073955e-06,1.8172611771982934e-06,1.4170609199191345e-06,1.567459079737922e-06,1.560589988175684e-06,2.52812902892891e-06,1.2414236622588348e-06,3.8091118273017317e-06,1.7727623820423103e-06,7.168153471426311e-06,1.3507541695038609e-06,1.3180285876877543e-06
106,2.201312473224054e-06,1.738286226187151e-06,1.5338561087296315e-06,1.13634769444244e-06,2.766858375340011e-06,1.8452680103496827e-06,1.418594951459649e-06,1.5830759705549823e-06,1.5556112448560455e-06,3.127646894130633e-06,1.2131584251146043e-06,3.825398120493975e-06,1.8145599637899523e-06,7.677412539355036e-06,1.353969318332519e-06,1.309623876053373e-06
107,2.248973813019517e-06,1.7245646255761189e-06,1.5584596403362936e-06,1.1344878978221426e-06,2.809385718444457e-06,1.8720875421994893e-06,1.4170510945911775e-06,1.5990026544190553e-06,1.5567651243444813e-06,3.842393581144365e-06,1.186610008473074e-06,3.853094754394725e-06,1.8637822776371363e-06,8.20130225404595e-06,1.356061023813431e-06,1.3002179698545388e-06
108,2.294150537428682e-06,1.7099167934014976e-06,1.5821766749837874e-06,1.1340091395529773e-06,2.848151210622181e-06,1.8982224677641698e-06,1.4125713716038841e-06,1.6148677604693614e-06,1.564621007935117e-06,4.6734472168589416e-06,1.1616701360818858e-06,3.890972090865906e-06,1.920014617153293e-06,8.736377312451967e-06,1.3570914524167836e-06,1.2897163256014967e-06
109,2.3354740108917998e-06,1.6946029598116408e-06,1.6044544912796092e-06,1.1344774434838906e-06,2.8815229667650405e-06,1.9240190645422424e-06,1.4056866528959385e-06,1.630287344115551e-06,1.5796990051593656e-06,5.621686763965554e-06,1.1382270463970393e-06,3.937717121083539e-06,1.9829274041649313e-06,9.279344428017691e-06,1.3574180936788984e-06,1.278366311962093e-06
110,2.371422875715408e-06,1.6791317690966034e-06,1.6246007797376052e-06,1.1354076350515515e-06,2.9078486605754677e-06,1.949640864223816e-06,1.3972295567256834e-06,1.6448491605933923e-06,1.6025059774367995e-06,6.687861933062078e-06,1.1160736449132683e-06,3.991980561176647e-06,2.0524178064083334e-06,9.827250190018206e-06,1.357484953533082e-06,1.2667271146597675e-06
111,2.4006196944124136e-06,1.6643003851516635e-06,1.6419506832303661e-06,1.1362534131790847e-06,2.9253265877462387e-06,1.9751667782872544e-06,1.3881519922610325e-06,1.6581188026761418e-06,1.6335476320499714e-06,7.872379163871717e-06,1.0948262716470777e-06,4.052408111950983e-06,2.1284552619179324e-06,1.0377531313736746e-05,1.357682529493752e-06,1.2554872392898069e-06
112,2.422235637486706e-06,1.6510117419038177e-06,1.6559640074461453e-06,1.1364753215798449e-06,2.9322568481663226e-06,2.000702293530131e-06,1.379360239814014e-06,1.669591631861291e-06,1.673407439581127e-06,9.174858483340592e-06,1.0739373527532007e-06,4.1175279133665526e-06,2.2108394628377794e-06,1.0927936177725238e-05,1.3584148826625333e-06,1.2452692858609353e-06
113,2.4360880204881968e-06,1.640062337305882e-06,1.6662803459770917e-06,1.1356187068311848e-06,2.9275559371825448e-06,2.026476402328976e-06,1.3716453484602727e-06,1.6787326598092247e-06,1.7228330281845261e-06,1.0593756033316582e-05,1.0527755289628002e-06,4.18551498991372e-06,2.299129884622286e-06,1.1476158645037899e-05,1.360188560902681e-06,1.2365389120872893e-06
114,2.44242527399769e-06,1.6320708939786212e-06,1.6728117836376673e-06,1.1333023587684563e-06,2.9112250822696833e-06,2.052938113861463e-06,1.36572207171881e-06,1.6851018436173638e-06,1.7826402662916521e-06,1.2126222590501324e-05,1.0307047166347596e-06,4.254075940986028e-06,2.3926948879451894e-06,1.201923978904352e-05,1.3635504874118376e-06,1.2296272433735664e-06
115,2.4418451257093822e-06,1.6274477580700677e-06,1.6757827939164982e-06,1.1291643067098308e-06,2.8845376932295734e-06,2.080757085676892e-06,1.3622675523721804e-06,1.6883833046392187e-06,1.8535036636580586e-06,1.3767922917578648e-05,1.007165010944906e-06,4.320632192613169e-06,2.4907162718724274e-06,1.2553201363744541e-05,1.3689776391404781e-06,1.224800861727437e-06
116,2.4354380880116087e-06,1.626315177708486e-06,1.675604449249263e-06,1.1228873995156862e-06,2.8497946320134257e-06,2.1106540266737803e-06,1.3618920939434383e-06,1.6882755319332394e-06,1.935891861339231e-06,1.5512453233634125e-05,9.817934474202634e-07,4.3827089996453295e-06,2.592145122296991e-06,1.3073395227518515e-05,1.3768400628691002e-06,1.2223166155480586e-06
117,2.424769583679706e-06,1.6284636392597177e-06,1.672737359996446e-06,1.1143386135966772e-06,2.809717683846339e-06,2.1431494077400794e-06,1.3651059640566878e-06,1.684374406261139e-06,2.030166061297083e-06,1.7350478613408056e-05,9.545266502210329e-07,4.4382590349881204e-06,2.6956771454070437e-06,1.3575365426161495e-05,1.3874337204637054e-06,1.2224159583686643e-06
118,2.411554352153225e-06,1.6334168637421575e-06,1.667699439693711e-06,1.1036799776387797e-06,2.766828279075675e-06,2.1783877365236414e-06,1.372311874930691e-06,1.676185498179305e-06,2.136624132737057e-06,1.926899778812413e-05,9.255812306981073e-07,4.485763563638281e-06,2.7997725389671502e-06,1.405534546755025e-05,1.4010520104616374e-06,1.2252608045790157e-06
119,2.3972869776604155e-06,1.6405701116260212e-06,1.661051857314486e-06,1.0913096847071853e-06,2.723108101830637e-06,2.216119300849878e-06,1.3838321980110232e-06,1.6632611980026094e-06,2.255448509796471e-06,2.1250857682889972e-05,8.953219201782474e-07,4.52422604170889e-06,2.902752389113034e-06,1.4509766982873938e-05,1.4179993172753086e-06,1.2308736149397167e-06
120,2.38308306503932e-06,1.649311152260425e-06,1.6532344988087279e-06,1.0777495564990899e-06,2.6799332785525113e-06,2.2558041610395266e-06,1.3999912446782775e-06,1.6452940144469977e-06,2.3866650919523455e-06,2.3274371408270293e-05,8.641397397161041e-07,4.5532005988409035e-06,3.0029479810991333e-06,1.4934166544569329e-05,1.4384939756114175e-06,1.2391135821767333e-06
121,2.3697188686509103e-06,1.6590727008202119e-06,1.6444083026356465e-06,1.0636651635316921e-06,2.638122862143461e-06,2.2967146883060752e-06,1.4211536801246269e-06,1.6221456339202002e-06,2.5300663103086576e-06,2.5312918715017847e-05,8.324376025346499e-07,4.572822461120655e-06,3.0987696979990046e-06,1.5322446825844466e-05,1.4625665860293598e-06,1.2496703185045932e-06
122,2.3577214247515762e-06,1.6693655515509815e-06,1.6344525587356784e-06,1.0499279317903011e-06,2.597988932398716e-06,2.3379426617684225e-06,1.4476298794159654e-06,1.5939600385766143e-06,2.6850510391725617e-06,2.7334606894912437e-05,8.007023863255565e-07,4.583809325515181e-06,3.188647374143737e-06,1.566684553775327e-05,1.4900187720524682e-06,1.2620936557297906e-06
123,2.3475251304457925e-06,1.6798609004317145e-06,1.6231014791078478e-06,1.0375369234851534e-06,2.559384872597053e-06,2.3784159159941475e-06,1.4795374054478418e-06,1.5612439022808782e-06,2.850489649143959e-06,2.9302776641119225e-05,7.695448719941753e-07,4.587471288899644e-06,3.271010240144733e-06,1.5958072273727264e-05,1.5203935654851135e-06,1.2759057623419003e-06
124,2.3397117333248904e-06,1.6905139015815386e-06,1.6101155059246568e-06,1.0274465464603986e-06,2.5218707430780577e-06,2.4170746672691674e-06,1.5167592540183919e-06,1.5247388196619364e-06,3.0247084318696015e-06,3.1178770188009674e-05,7.396396284548088e-07,4.585694213106277e-06,3.344459310446099e-06,1.6185200315556892e-05,1.5529446971066794e-06,1.2907681236055065e-06
125,2.3350973178688523e-06,1.7016935918462339e-06,1.595374555689234e-06,1.0204447057834615e-06,2.485066108512049e-06,2.4530979607933904e-06,1.5590273303904374e-06,1.4852874030465709e-06,3.205639750132319e-06,3.2927276208233794e-05,7.11658738066641e-07,4.580817161440999e-06,3.4079674473493757e-06,1.6336160149466267e-05,1.586646463923406e-06,1.3065918463132685e-06
126,2.33453501144674e-06,1.7142792919808851e-06,1.5788777785749229e-06,1.0171139773572535e-06,2.4489576210013575e-06,2.4859934857579894e-06,1.6060071081936558e-06,1.443863817815868e-06,3.3911448885464623e-06,3.452217059923384e-05,6.862964567958731e-07,4.575372657070171e-06,3.4608109673547866e-06,1.6400166452629233e-05,1.6202637490628019e-06,1.3234935910882052e-06
127,2.338628826211632e-06,1.7296130809906816e-06,1.5607382022764049e-06,1.017835145747415e-06,2.4138640937332234e-06,2.515574500433349e-06,1.6572480856585773e-06,1.4015741324079427e-06,3.5793736950894987e-06,3.5949611363962904e-05,6.643211547184451e-07,4.5717343210487985e-06,3.5023170657396574e-06,1.6371399842818367e-05,1.6524871653239164e-06,1.3416180782879587e-06
128,2.3475779966452024e-06,1.7492408381020872e-06,1.5412185669877922e-06,1.0227995040485194e-06,2.380234866752421e-06,2.541895586273193e-06,1.7120614402533238e-06,1.3595071119303705e-06,3.7688955791172245e-06,3.720611758318747e-05,6.465629625671383e-07,4.571795368173704e-06,3.531825665746041e-06,1.625132720739685e-05,1.6821174236277054e-06,1.3609792972561554e-06
129,2.361189782686647e-06,1.7745831606450103e-06,1.520745507923003e-06,1.032006638515433e-06,2.3486516094788127e-06,2.5651193901320355e-06,1.7694846769168165e-06,1.31860190740414e-06,3.9584755498721615e-06,3.8292855923499976e-05,6.338672052998956e-07,4.576799192642174e-06,3.5489475430446397e-06,1.604826916296159e-05,1.7082019194876147e-06,1.3814594391715474e-06
130,2.378945921239246e-06,1.8067432662388117e-06,1.4998552547494794e-06,1.0452563139186013e-06,2.319941643947266e-06,2.585396780991161e-06,1.8283292932767278e-06,1.2796402532471915e-06,4.146804138641107e-06,3.921221306654228e-05,6.271010244043354e-07,4.587357327731303e-06,3.5538243293466514e-06,1.577509708054396e-05,1.7300226663347769e-06,1.402933312764868e-06
131,2.400000056423835e-06,1.8464938711819377e-06,1.4791265505951553e-06,1.0622056423148035e-06,2.2951173247935496e-06,2.6029618105107677e-06,1.887225675390684e-06,1.2432701596928978e-06,4.33254239378307e-06,3.997116069272734e-05,6.272273586341367e-07,4.603587509774552e-06,3.5472273474828235e-06,1.5446376667537124e-05,1.7469799568029274e-06,1.4253708049962898e-06
132,2.4231348153042736e-06,1.8943278359182943e-06,1.4591490803045167e-06,1.0825263592943844e-06,2.275159361492985e-06,2.6183866290397075e-06,1.9447106204700882e-06,1.20998625704539e-06,4.514514913389131e-06,4.058730474475201e-05,6.353742496190473e-07,4.6251946042523765e-06,3.5305086155543843e-06,1.5075843539228597e-05,1.7585271735398297e-06,1.448827727006877e-06
133,2.4468034683696455e-06,1.950458671880597e-06,1.4404809129151638e-06,1.106033766404008e-06,2.26082429254433e-06,2.6327197616010396e-06,1.999428999443418e-06,1.1801051809468017e-06,4.6917470814717215e-06,4.109061833016445e-05,6.528276357119336e-07,4.651361087275779e-06,3.505368716564296e-06,1.467504036386717e-05,1.7642117309931378e-06,1.4733352831124143e-06
134,2.4693093503485816e-06,2.014776377572039e-06,1.4235688961157145e-06,1.1326530400186952e-06,2.2525888879290336e-06,2.647436982881265e-06,2.0503958765981185e-06,1.1537764740627417e-06,4.863442903250751e-06,4.151928287966612e-05,6.809422431856254e-07,4.680617003070978e-06,3.4734630959567804e-06,1.4253224492842304e-05,1.7636898689903467e-06,1.4987560980975165e-06
135,2.48908643429187e-06,2.086816592895948e-06,1.4087044582300072e-06,1.162333145671358e-06,2.250697366671344e-06,2.664298717206539e-06,2.0972051114943293e-06,1.1310360532926286e-06,5.0290757744941584e-06,4.191265494968263e-05,7.210504935412342e-07,4.710977338456803e-06,3.436048338153429e-06,1.3817615816543609e-05,1.7566556114500359e-06,1.5246913371098244e-06
136,2.505009224391069e-06,2.165748854436523e-06,1.3960534156901404e-06,1.195061651337221e-06,2.2552042273010057e-06,2.685138505579227e-06,2.14008397170992e-06,1.1118667890322694e-06,5.188410897161561e-06,4.23050106125615e-05,7.744376881060075e-07,4.74031746351735e-06,3.3938955619602932e-06,1.337355907940798e-05,1.7428525971564478e-06,1.5504720172200111e-06
137,2.5166234280822457e-06,2.2503618899668375e-06,1.3857040184143832e-06,1.2308826266607511e-06,2.2659887480759008e-06,2.7116789173834165e-06,2.179740882879642e-06,1.0961883033545248e-06,5.341207192568156e-06,4.272217739567047e-05,8.423360429773333e-07,4.7667337075132435e-06,3.3474701111760056e-06,1.2925089901140547e-05,1.7222365993387677e-06,1.5752278078519287e-06
138,2.524182112346447e-06,2.3390278769525325e-06,1.3776959215780393e-06,1.2698048050792112e-06,2.282741700466082e-06,2.745490352874875e-06,2.217058279173371e-06,1.0837939753176064e-06,5.486851618130423e-06,4.318091502863156e-05,9.2588158536249e-07,4.78875335629644e-06,3.2971152555857395e-06,1.2475699271624068e-05,1.6951015037648366e-06,1.5980346078301391e-06
139,2.5284504214607466e-06,2.429686379219836e-06,1.3720431721805659e-06,1.3117005593343121e-06,2.304973977709503e-06,2.7879672563578626e-06,2.2527693723912247e-06,1.0743485287488378e-06,5.624465155412439e-06,4.3689325964958125e-05,1.0260665481916908e-06,4.805388900860184e-06,3.2430523364088524e-06,1.2028610971630372e-05,1.6620600075172284e-06,1.6181046634406357e-06
140,2.530357306135582e-06,2.519954437339166e-06,1.3687546006227604e-06,1.356285879688945e-06,2.3321417968636052e-06,2.8402104458083663e-06,2.28724364787824e-06,1.0674455485538005e-06,5.7535214139523654e-06,4.424671827984588e-05,1.143734781393743e-06,4.816061231450386e-06,3.185382210497907e-06,1.1587123477498916e-05,1.6239635728103749e-06,1.6349445554743304e-06
141,2.5306588014153504e-06,2.6073554431868017e-06,1.3678284837596333e-06,1.4031249892666814e-06,2.3638034237272887e-06,2.9029236982050506e-06,2.320447430438224e-06,1.0626222733965118e-06,5.874466341135204e-06,4.484318753361689e-05,1.279626797295518e-06,4.820442873064794e-06,3.124363970403565e-06,1.1155298839326822e-05,1.5818034180729056e-06,1.6484129445677652e-06
142,2.5297467211751796e-06,2.6894981238677686e-06,1.3691975695532952e-06,1.4516171783223306e-06,2.399683765902547e-06,2.9763736253744944e-06,2.3521097885001275e-06,1.0593304586436912e-06,5.98880414077498e-06,4.546086292452738e-05,1.4344364305509862e-06,4.8183215381833065e-06,3.0608136011524203e-06,1.0737733530916637e-05,1.536564908345404e-06,1.658658228064312e-06
143,2.5275916214753974e-06,2.7641417381943224e-06,1.3726431788516952e-06,1.500982552237255e-06,2.4396936765133812e-06,3.060404013323135e-06,2.3820423115126206e-06,1.056933758864748e-06,6.098472906474168e-06,4.6078223441165244e-05,1.6088210342874864e-06,4.809550887856815e-06,2.996141624590321e-06,1.033848652846873e-05,1.4891182883923394e-06,1.6660259631747885e-06
144,2.5237532282153616e-06,2.8293096155838073e-06,1.3777570471464716e-06,1.5502450222397188e-06,2.4839261745345777e-06,3.15456003971843e-06,2.410414006347243e-06,1.0547400254540773e-06,6.204917545016274e-06,4.667587107631078e-05,1.803337010458651e-06,4.794039796019292e-06,2.9319235131177375e-06,9.960580712371764e-06,1.4402476616468043e-06,1.67100258817781e-06
145,2.517437531372682e-06,2.8835560638449333e-06,1.3840243288220863e-06,1.5982427858889622e-06,2.5325956475121984e-06,3.258226163127999e-06,2.4377477468932244e-06,1.052100148677175e-06,6.3085367991086e-06,4.723902090270151e-05,2.0183173421850176e-06,4.771787766764228e-06,2.8694703288986394e-06,9.605949845235304e-06,1.3907131968327792e-06,1.6741075756236408e-06
146,2.5076380811142447e-06,2.9261973138224287e-06,1.3909870488984465e-06,1.6437123105362595e-06,2.586036715164496e-06,3.370579882279168e-06,2.46463534611144e-06,1.0486119415511406e-06,6.408727913878408e-06,4.7754087820792106e-05,2.25375621119833e-06,4.743075905435657e-06,2.8097683628893532e-06,9.275190021162864e-06,1.3412152088858343e-06,1.6757178320690226e-06
147,2.49340911098809e-06,2.957236755149468e-06,1.3983326859212772e-06,1.6854093919377483e-06,2.644850897988702e-06,3.4904142612431087e-06,2.4914710448934243e-06,1.044269438030491e-06,6.504127674418441e-06,4.820371880185737e-05,2.50928703711667e-06,4.708733548844259e-06,2.7536365299899647e-06,8.967617711066607e-06,1.2923738611029533e-06,1.6759609638541144e-06
148,2.4741571529314626e-06,2.9769918920997295e-06,1.4058140959243304e-06,1.7222287240068415e-06,2.709961920107083e-06,3.616032704537484e-06,2.5184727824550704e-06,1.0393777704156395e-06,6.592638248762135e-06,4.856562987698152e-05,2.7842528255763577e-06,4.670216099836176e-06,2.7018228608414896e-06,8.68211126359306e-06,1.2448354550193506e-06,1.6747374109031904e-06
149,2.4497767991827533e-06,2.985674917026269e-06,1.4131109322124368e-06,1.7533337059233292e-06,2.782364312063296e-06,3.7452437246340875e-06,2.545900221424973e-06,1.0343529928415524e-06,6.671499318760684e-06,4.881451012969873e-05,3.077746010038929e-06,4.629416972649672e-06,2.6549564325391415e-06,8.418215276631707e-06,1.199340875998314e-06,1.6718765587253231e-06
150,2.4206124016881484e-06,2.983102520961095e-06,1.419824640943553e-06,1.7782715811691941e-06,2.8627694239386024e-06,3.87546312279724e-06,2.574153929203444e-06,1.0296147049576864e-06,6.737949267155142e-06,4.892452097058586e-05,3.3885256676949345e-06,4.588382952712001e-06,2.613385195218492e-06,8.17664650478524e-06,1.1566173048677481e-06,1.6673973084301385e-06
151,2.387286144275299e-06,2.9685610574210016e-06,1.4256410294074288e-06,1.7970179550255731e-06,2.95139706837771e-06,4.004046801901597e-06,2.6036135275037127e-06,1.0255891529596388e-06,6.790306442341475e-06,4.887243145405231e-05,3.714859120242486e-06,4.549035134035401e-06,2.5769969017667517e-06,7.958953584488462e-06,1.117225853048361e-06,1.6616540922347044e-06
152,2.3504992352901737e-06,2.9409140586841774e-06,1.4304969809381648e-06,1.8099156934059203e-06,3.0478931141169993e-06,4.128719452749822e-06,2.6343910596180245e-06,1.0227543513529557e-06,6.828691590210483e-06,4.86411584825495e-05,4.054368191514531e-06,4.5128506952700765e-06,2.54517269361746e-06,7.766725653849807e-06,1.08150802168349e-06,1.655215102593032e-06
153,2.3109547142369763e-06,2.8990689744367097e-06,1.4345713448305465e-06,1.8175275296989944e-06,3.151314233928694e-06,4.24768063640274e-06,2.6662060530891814e-06,1.0216501413079873e-06,6.854871694266726e-06,4.8222060803073514e-05,4.403900215375167e-06,4.480534100003667e-06,2.5169798960015256e-06,7.6007888424371165e-06,1.0496103106122305e-06,1.6486443734774821e-06
154,2.2693479930202512e-06,2.842640559303286e-06,1.4381024373514874e-06,1.820515276293279e-06,3.2601948424001615e-06,4.359260428290597e-06,2.6983529129732647e-06,1.0228093032618062e-06,6.8713448715359165e-06,4.761432250930553e-05,4.759433037006725e-06,4.451817783014594e-06,2.4915740266762347e-06,7.460604277457869e-06,1.0215429655685967e-06,1.6423717580382973e-06
155,2.2263633991951597e-06,2.7723727755313564e-06,1.441220508373653e-06,1.8196526004519869e-06,3.3727067119373853e-06,4.4615241774513495e-06,2.7296847862920836e-06,1.0266742187946536e-06,6.880254827574452e-06,4.682117991241606e-05,5.115999223204154e-06,4.425479368706791e-06,2.4685955413571012e-06,7.343941600119481e-06,9.972609152698202e-07,1.636648835815169e-06
156,2.182760037003696e-06,2.6900215348443348e-06,1.4439260689056582e-06,1.8159182092775155e-06,3.4868600816892895e-06,4.552308119347521e-06,2.7587066568372747e-06,1.0335499864740058e-06,6.882807840061685e-06,4.5846620533844796e-05,5.4675796026548194e-06,4.399554007685153e-06,2.448282229975923e-06,7.246835411897482e-06,9.767237893349064e-07,1.6315815746435185e-06
157,2.1394659782721865e-06,2.5978409825678925e-06,1.4461643718650233e-06,1.8105181693476287e-06,3.6006598065642245e-06,4.629692776169932e-06,2.7838471033353224e-06,1.0435725768252529e-06,6.879472448766392e-06,4.4697781342847535e-05,5.807016792088109e-06,4.3716392330814305e-06,2.4312410372490643e-06,7.163823708513034e-06,9.598998461671573e-07,1.6272714718370039e-06
158,2.0975568133588053e-06,2.498083754491536e-06,1.4478940708924845e-06,1.8047635315516927e-06,3.7122008747456683e-06,4.69250535342973e-06,2.803762620950542e-06,1.0566876602428025e-06,6.870498259192529e-06,4.339177595333894e-05,6.126123210996022e-06,4.339080960786242e-06,2.418111476789648e-06,7.088487801924787e-06,9.467519104126664e-07,1.623990905480446e-06
159,2.058185689163491e-06,2.3927882200976703e-06,1.4490842825939975e-06,1.7998710640372629e-06,3.819700762520408e-06,4.740572669131222e-06,2.8174694709821255e-06,1.0726508462219278e-06,6.85604723954002e-06,4.195944503530717e-05,6.416139195782904e-06,4.298928009119756e-06,2.409365294833989e-06,7.014252440723678e-06,9.372679632780731e-07,1.6222107100704587e-06
160,2.022496119156449e-06,2.28382560246821e-06,1.4496831615894717e-06,1.7968111559336211e-06,3.921398862645585e-06,4.7747394481790265e-06,2.824253208794261e-06,1.091072857903775e-06,6.836082533926716e-06,4.0442255353588416e-05,6.668568968897275e-06,4.248026742718604e-06,2.4052863261920586e-06,6.935250804193577e-06,9.315184167556862e-07,1.6224687454941604e-06
161,1.991487342401649e-06,2.1729863949914794e-06,1.4496612421489824e-06,1.7962330542689557e-06,4.015432089920386e-06,4.796697560098553e-06,2.8234354262842565e-06,1.1115032587999773e-06,6.810674800191112e-06,3.888583809168251e-05,6.876221590711246e-06,4.1837026919143695e-06,2.4059967495975757e-06,6.846930969164619e-06,9.296482226633599e-07,1.625265239076751e-06
162,1.9659040917959973e-06,2.0619378910021286e-06,1.4490805224491052e-06,1.7984326622479461e-06,4.100031511444789e-06,4.8086127078906226e-06,2.8141375690352392e-06,1.133471651398211e-06,6.78057824280535e-06,3.7335104194686144e-05,7.0340279921809294e-06,4.104687501501222e-06,2.4113835949894754e-06,6.746092304923605e-06,9.317897514093047e-07,1.6310370176657063e-06
163,1.946230091912388e-06,1.9521598545382466e-06,1.4480723218632903e-06,1.803407232630423e-06,4.174063867253196e-06,4.812589309603993e-06,2.795303142116031e-06,1.1564826336052873e-06,6.747439466535878e-06,3.583237715909025e-05,7.13900784685428e-06,4.011396975339955e-06,2.4209728400523665e-06,6.630275409230503e-06,9.379755853344357e-07,1.6401096475144386e-06
164,1.9327693000984044e-06,1.8450042483476211e-06,1.4467390618357375e-06,1.8110406021186244e-06,4.237449179688649e-06,4.810139884462972e-06,2.7661348631065877e-06,1.1800294484444918e-06,6.713542039155841e-06,3.441697824726318e-05,7.189320884172057e-06,3.90532386600649e-06,2.433954052424367e-06,6.49693923551724e-06,9.480807349727656e-07,1.652622088584826e-06
165,1.9257139382128246e-06,1.7417678989555415e-06,1.4450576530866792e-06,1.821296867840454e-06,4.291132054083883e-06,4.801904743605655e-06,2.7266206654566424e-06,1.203611224082324e-06,6.681330579545241e-06,3.3124596277562147e-05,7.1836631375280166e-06,3.7884143610565737e-06,2.449409107378113e-06,6.3431975709426595e-06,9.617806213905321e-07,1.6684941913281812e-06
166,1.925103700776566e-06,1.6436781807382924e-06,1.4428659877324323e-06,1.834230131728102e-06,4.3367540948238135e-06,4.7877623461633365e-06,2.6776515326014905e-06,1.22676539299509e-06,6.652844129755097e-06,3.198613726716191e-05,7.122021063314534e-06,3.6630543979187734e-06,2.466555081077476e-06,6.166386008571776e-06,9.785421400323353e-07,1.6874400612468469e-06
167,1.930747644284967e-06,1.5518761086583945e-06,1.4399749738133311e-06,1.8498030865798762e-06,4.376298529537454e-06,4.7672459006437865e-06,2.6207057907336853e-06,1.2491310601420585e-06,6.6291652288956396e-06,3.1026541523714024e-05,7.0067993781274645e-06,3.5321033790703276e-06,2.4848611128701803e-06,5.964981074229593e-06,9.97654226451962e-07,1.7090511601682827e-06
168,1.942218455178474e-06,1.4674336115447127e-06,1.4363167776020146e-06,1.8677037386859082e-06,4.41178811267627e-06,4.740057922791271e-06,2.5575120544295503e-06,1.2704447623995256e-06,6.610041166101108e-06,3.0263960192418453e-05,6.842951054975164e-06,3.3985034154582045e-06,2.504106606276221e-06,5.739368804369531e-06,1.0182634471722962e-06,1.7329399730191425e-06
169,1.958865110364841e-06,1.3913376980290033e-06,1.4320148590810977e-06,1.887281857554802e-06,4.444971819151768e-06,4.706472302947951e-06,2.4899553328039626e-06,1.2904313361000413e-06,6.593740412995797e-06,2.970947126761712e-05,6.6371744283142125e-06,3.2648975354363214e-06,2.5243814477215976e-06,5.492196365518522e-06,1.0394228535514612e-06,1.7587585407154777e-06
170,1.97981390545286e-06,1.3244138597542135e-06,1.4273644715018955e-06,1.9075749008588895e-06,4.477044884824045e-06,4.667488995807722e-06,2.420054505080451e-06,1.3086979798787444e-06,6.577150372109799e-06,2.9367322269709937e-05,6.396985268012217e-06,3.133593423037104e-06,2.545900196653981e-06,5.228032924116216e-06,1.0602370657973885e-06,1.7860584792086278e-06
171,2.0040446432677336e-06,1.2672397834859906e-06,1.422777324303236e-06,1.9273937656237946e-06,4.508621775757828e-06,4.624733125443281e-06,2.3497691580030913e-06,1.324755853757805e-06,6.55625365788998e-06,2.9235304661217238e-05,6.130067786389432e-06,3.006616959355976e-06,2.5687090737282584e-06,4.952347750196686e-06,1.0800994415216647e-06,1.8142587779087285e-06
172,2.0305092909149408e-06,1.2201030743172444e-06,1.4187416906815071e-06,1.945472836587889e-06,4.539989125329174e-06,4.580161374999088e-06,2.280732414229624e-06,1.3381837668420468e-06,6.526996449100501e-06,2.930492155914455e-05,5.843761220305657e-06,2.8856454173406837e-06,2.5925231856580657e-06,4.6704340585317045e-06,1.0988227614633214e-06,1.842808356910997e-06
173,2.058145480395601e-06,1.18301015690865e-06,1.415779361112842e-06,1.9606966865221155e-06,4.571296073255265e-06,4.53567019561787e-06,2.2141639113533194e-06,1.3487798349404973e-06,6.486115252076507e-06,2.9561578793025376e-05,5.5445781627388546e-06,2.7719261945017413e-06,2.6167916390571907e-06,4.3869279945870065e-06,1.1164987303058107e-06,1.871279340116523e-06
174,2.0858219187214363e-06,1.1557185846716815e-06,1.4143622256310148e-06,1.9724023371091646e-06,4.602457264279055e-06,4.492781905993261e-06,2.15101263517457e-06,1.3565446354872342e-06,6.431450746616603e-06,2.9985266853552878e-05,5.237987711583299e-06,2.6662600927884702e-06,2.640869364748505e-06,4.105879593755348e-06,1.1332362626006953e-06,1.8992407024819819e-06
175,2.1123763148633474e-06,1.1377545683495437e-06,1.414869689634189e-06,1.9806260135305234e-06,4.632976083031915e-06,4.4525782521390225e-06,2.0921720362986573e-06,1.3615708570711443e-06,6.36170212615319e-06,3.055190826314741e-05,4.928570438267266e-06,2.5689983327160734e-06,2.6640611073230123e-06,3.830939492573055e-06,1.1490341899654759e-06,1.9260965170045503e-06
176,2.1366890347719228e-06,1.1284115610921531e-06,1.4176514418138662e-06,1.986103824377325e-06,4.661932665409938e-06,4.415815635523615e-06,2.0385773173742844e-06,1.3640446813028706e-06,6.275862637860026e-06,3.123457362412818e-05,4.620243193354179e-06,2.48006389506003e-06,2.6855669808780587e-06,3.565378420173754e-06,1.1638060068551172e-06,1.951043496582758e-06
177,2.1576464684484073e-06,1.1267822287579385e-06,1.4230731902190996e-06,1.990022607604414e-06,4.688041777276794e-06,4.382980127269511e-06,1.99110940917248e-06,1.3643404093362093e-06,6.172781444699006e-06,3.2003263686265306e-05,4.3162690015477755e-06,2.399081194556499e-06,2.7045824164949845e-06,3.3119262916968517e-06,1.1774943904274274e-06,1.9731148682062347e-06
178,2.174089962052626e-06,1.1318656036183535e-06,1.431441597651091e-06,1.993692323946452e-06,4.70957831829629e-06,4.354227893439386e-06,1.9504215514225626e-06,1.3630015172997696e-06,6.051367591654671e-06,3.282364091452266e-05,4.019149804090129e-06,2.3256109669471903e-06,2.720496500517971e-06,3.0726445515140117e-06,1.1902331608618123e-06,1.9913044943840993e-06
179,2.184972989887391e-06,1.1426874722898148e-06,1.4428985799108715e-06,1.9982862552668723e-06,4.724317145502328e-06,4.3294005567658325e-06,1.9168819696104528e-06,1.3606285806730186e-06,5.911359632313754e-06,3.36562468296978e-05,3.730652854345306e-06,2.259403611708752e-06,2.732902493266809e-06,2.8490488182401936e-06,1.2023932661014649e-06,2.004770406539359e-06
180,2.189745029306197e-06,1.1583225660940633e-06,1.4574260570704532e-06,2.0046918349212244e-06,4.729851117396149e-06,4.308179641045081e-06,1.890687985778099e-06,1.3578336130561714e-06,5.753959776133709e-06,3.445661938676715e-05,3.4520263048154825e-06,2.2006117513769425e-06,2.7414131588122506e-06,2.642415309467022e-06,1.2144398815706123e-06,2.0130047170027737e-06
181,2.1886759082012946e-06,1.1778504570207317e-06,1.4749739536197932e-06,2.013460396009127e-06,4.724258954836945e-06,4.2901533065513285e-06,1.8720214758967475e-06,1.355203230844269e-06,5.58188973747898e-06,3.5176985977970354e-05,3.1842841369256874e-06,2.1499121206721866e-06,2.745605976854329e-06,2.4539680428834973e-06,1.2267559696124238e-06,2.015865479876299e-06
182,2.1827909038762435e-06,1.2004088521778533e-06,1.4955728537499446e-06,2.024857597400315e-06,4.7066175759415515e-06,4.27462240451226e-06,1.861094325315081e-06,1.3531881755735635e-06,5.398959942296817e-06,3.577130051107471e-05,2.9284514480289097e-06,2.1084679641253868e-06,2.7452337054835565e-06,2.2847799428930946e-06,1.23958352232801e-06,2.0134545588216075e-06
183,2.1734603886974e-06,1.2253567771921377e-06,1.5193029203265429e-06,2.039000429390479e-06,4.676947788694702e-06,4.260361791245904e-06,1.8580588465981908e-06,1.352006179133274e-06,5.209390399857815e-06,3.620315315527417e-05,2.6857002928953267e-06,2.0777124716005405e-06,2.740404075290089e-06,2.1355577054958066e-06,1.2530685766724184e-06,2.0058926885009436e-06
184,2.1620249803180653e-06,1.2523402063864527e-06,1.546177094187663e-06,2.0559632980909438e-06,4.635714572417148e-06,4.245685246254541e-06,1.8628644233963773e-06,1.3516175422053816e-06,5.017119280152617e-06,3.645237873057164e-05,2.4573211341057508e-06,2.059037984898467e-06,2.7315378761329657e-06,2.006549372610225e-06,1.2672780076529416e-06,1.9931536108140473e-06
185,2.1496329140972664e-06,1.2811367080500496e-06,1.5760772042563165e-06,2.075732537500354e-06,4.583362872606709e-06,4.228797640322806e-06,1.8751470741246002e-06,1.3517538184339808e-06,4.825339025975523e-06,3.651596775817261e-05,2.2445473680137505e-06,2.053544121215773e-06,2.719246578235412e-06,1.8975845788464684e-06,1.2821452662861058e-06,1.9750933629532693e-06
186,2.137156100571097e-06,1.3114243407400356e-06,1.6087408006153018e-06,2.098074963031183e-06,4.520145289378791e-06,4.208086315929391e-06,1.8942010013086257e-06,1.3519995325016562e-06,4.63636918256625e-06,3.640271685015724e-05,2.0483460990929754e-06,2.061963487272414e-06,2.7042101073729395e-06,1.808124426636286e-06,1.2974581145884232e-06,1.9516001471330395e-06
187,2.1251214899715825e-06,1.3426823173933255e-06,1.6437350950167113e-06,2.1224740565643026e-06,4.446060257628911e-06,4.1821373120556644e-06,1.919046135731764e-06,1.3519254577172813e-06,4.451739217240423e-06,3.612515662381183e-05,1.869290543973843e-06,2.0847576679663005e-06,2.687070995112378e-06,1.7372764407360756e-06,1.3129602835732389e-06,1.9227547874726203e-06
188,2.1137156109635553e-06,1.3742548886364059e-06,1.6804523593146483e-06,2.1481297668155343e-06,4.360797166090453e-06,4.149634225137574e-06,1.94854430233288e-06,1.351237413904602e-06,4.2723490663110835e-06,3.569347602139752e-05,1.7075314729608157e-06,2.1222315144367585e-06,2.6684555692861544e-06,1.6838169751997295e-06,1.328459615752659e-06,1.8889978324523309e-06
189,2.1028670169294006e-06,1.4054629127145213e-06,1.7181390596857876e-06,2.1739308506766903e-06,4.263927644620348e-06,4.109475858209831e-06,1.9814832258877088e-06,1.3498866262534701e-06,4.098708089931994e-06,3.5114253198112775e-05,1.5628274122935115e-06,2.1745154472960773e-06,2.6490651543260884e-06,1.64628428197076e-06,1.34380390205609e-06,1.8512557934711172e-06
190,2.0923172735962457e-06,1.435647013908221e-06,1.7558883732948624e-06,2.198464981766284e-06,4.155415922727075e-06,4.061261189276863e-06,2.016640232418235e-06,1.3480894293728295e-06,3.931124856547935e-06,3.4392925756701954e-05,1.43462499150109e-06,2.241469713110469e-06,2.6296190502535344e-06,1.623181771131217e-06,1.3587838708860724e-06,1.8109253228191222e-06
191,2.081607380786099e-06,1.4641555203471227e-06,1.7926293942006988e-06,2.220178636326284e-06,4.036157415937268e-06,4.005873683511597e-06,2.0529066099377942e-06,1.346250081473891e-06,3.7697193605711022e-06,3.3536108041301504e-05,1.3221793463506797e-06,2.322648909952547e-06,2.6106655363104064e-06,1.6132380146619983e-06,1.3730760521444864e-06,1.7697202129077627e-06
192,2.070038494349623e-06,1.4904028323047835e-06,1.827211891826671e-06,2.23760865629619e-06,3.90826893922018e-06,3.945635021921896e-06,2.0894241553660846e-06,1.3448500168404017e-06,3.6143524833484636e-06,3.255122288102984e-05,1.2246678263947973e-06,2.4173228815630935e-06,2.5924696139313813e-06,1.6155661810466386e-06,1.3862119856704265e-06,1.7294808399594384e-06
193,2.0567322933723674e-06,1.513985378830066e-06,1.8585562475564006e-06,2.249553282327996e-06,3.774975464448038e-06,3.883770064515253e-06,2.125603780542916e-06,1.3443656932912033e-06,3.464552664178585e-06,3.144440687641966e-05,1.1412651993668464e-06,2.5245568876906905e-06,2.575025530451853e-06,1.6296050521147977e-06,1.3975934119963323e-06,1.6919987191695383e-06
194,2.040881201475475e-06,1.5346712229560286e-06,1.8857968852882733e-06,2.2551770697325846e-06,3.640075401123685e-06,3.823527684443769e-06,2.161072101546135e-06,1.3452048364000253e-06,3.3196003850699276e-06,3.021931207090388e-05,1.0711609819823863e-06,2.6434288298795483e-06,2.558113356530727e-06,1.6549349988013147e-06,1.4066231703814981e-06,1.6588552788983302e-06
195,2.0221193526769657e-06,1.5522210465336975e-06,1.908379951498096e-06,2.2540801882795576e-06,3.5072936056102837e-06,3.7675282675420783e-06,2.1957062458078053e-06,1.3476285143795081e-06,3.1789369585185195e-06,2.8878697358352583e-05,1.0135386053262217e-06,2.7732552449157134e-06,2.5413944645274785e-06,1.6911354580880792e-06,1.4129175194049279e-06,1.631305110783117e-06
196,2.000742132296196e-06,1.5662186642497209e-06,1.9260268751746362e-06,2.246322254417055e-06,3.379918464331481e-06,3.717559312491943e-06,2.2297329474372598e-06,1.3516987394599358e-06,3.0425216803123595e-06,2.7428516156194472e-05,9.676058761185274e-07,2.913571641026269e-06,2.5245386061992465e-06,1.7376747011758645e-06,1.4164542623339082e-06,1.6102407991328018e-06
197,1.9775747053637566e-06,1.5760814041068248e-06,1.938538507569235e-06,2.2323960656561177e-06,3.2607244025548254e-06,3.674646142373303e-06,2.2636799520748584e-06,1.357339661855149e-06,2.910709488316818e-06,2.5881712273251307e-05,9.326622669611211e-07,3.063866538415243e-06,2.5073885879940797e-06,1.7937895241130175e-06,1.4175127280851723e-06,1.5962137338274299e-06
198,1.953594886761458e-06,1.5812023423049912e-06,1.9456180235285616e-06,2.213151540867898e-06,3.1519350044583848e-06,3.6391398284364783e-06,2.2981109217623968e-06,1.3645165072256056e-06,2.7840187775301175e-06,2.4258513883858098e-05,9.080769484969756e-07,3.2232832347933917e-06,2.4901637989100557e-06,1.8584080338707646e-06,1.4164472598526574e-06,1.5894542791446271e-06
199,1.929605962043408e-06,1.5810603079693336e-06,1.946900704578051e-06,2.1896513712688913e-06,3.0551781594356524e-06,3.610714482823013e-06,2.333367034957966e-06,1.3734072376189619e-06,2.663261662407784e-06,2.258294613296014e-05,8.93200518313292e-07,3.3904360386252486e-06,2.4734761149552157e-06,1.9301244590115644e-06,1.4135391481826633e-06,1.589883776399391e-06
200,1.9061840489073142e-06,1.5753459541150699e-06,1.9421337861167562e-06,2.162976732785225e-06,2.9715005755928662e-06,3.588380852238123e-06,2.3694902892021323e-06,1.3844521431385115e-06,2.549740395089504e-06,2.0878727614825466e-05,8.87334072875813e-07,3.5633620563602626e-06,2.458037408675957e-06,2.007231244361864e-06,1.409066825627116e-06,1.5971596186594418e-06
201,1.88386479744283e-06,1.5641857065531382e-06,1.9313015526231835e-06,2.134051936429886e-06,2.9014198460621642e-06,3.5706119885456036e-06,2.406238676828793e-06,1.3983044622783805e-06,2.44510111564249e-06,1.916755589710377e-05,8.897423609313786e-07,3.7395976250757755e-06,2.444381588833195e-06,2.0878611720782287e-06,1.403466085475209e-06,1.610770980583802e-06
202,1.863302803123093e-06,1.5482658182693789e-06,1.914590880251942e-06,2.1035279182217173e-06,2.8449833704099617e-06,3.5554539801604793e-06,2.4431343434467744e-06,1.4157573262876256e-06,2.350979269683961e-06,1.7469527227142944e-05,8.996239935970492e-07,3.916285993022163e-06,2.432885252516589e-06,2.170180404580127e-06,1.3974055752181003e-06,1.6301279322066195e-06
203,1.8452059115929183e-06,1.528714250588066e-06,1.8922812623399227e-06,2.0717517758449254e-06,2.8017936974202553e-06,3.5405074146767677e-06,2.479629766498476e-06,1.437647259005551e-06,2.2687564466839312e-06,1.5803599050675182e-05,9.160585692531453e-07,4.090183951466945e-06,2.4239061170011967e-06,2.2524710540070014e-06,1.391725107012804e-06,1.6545502174288476e-06
204,1.8301655603577777e-06,1.5068701984444708e-06,1.8647371397421767e-06,2.038885300485858e-06,2.7709598790812377e-06,3.5229031383354813e-06,2.5153220912045873e-06,1.464728788591236e-06,2.1995624188856508e-06,1.4187173974163016e-05,9.380073842404277e-07,4.257698305563657e-06,2.417768127468092e-06,2.333061340148161e-06,1.3872776910853347e-06,1.6831681405856304e-06
205,1.8185802494680042e-06,1.484081752808259e-06,1.832542606468031e-06,2.0051544897954053e-06,2.7510662909131563e-06,3.49948375888322e-06,2.549981890737943e-06,1.497601887906136e-06,2.144398777602726e-06,1.2635439135085075e-05,9.643680728378255e-07,4.415059663003937e-06,2.414665794173783e-06,2.4102093088729256e-06,1.384771594813903e-06,1.7148877473459513e-06
206,1.8106463288969437e-06,1.4615641752329271e-06,1.7965766471693996e-06,1.971050853122996e-06,2.7403081645987644e-06,3.467300018771893e-06,2.5834099803694363e-06,1.5367425738219004e-06,2.1041448036538615e-06,1.1161156149468563e-05,9.940518111621737e-07,4.558378249939217e-06,2.4146013625882676e-06,2.4820286652356257e-06,1.3847094089910627e-06,1.7485001160134474e-06
207,1.8063679584044468e-06,1.4403135244303022e-06,1.7578634977205065e-06,1.9373136741309893e-06,2.7368085105238e-06,3.424325821110163e-06,2.6153493099605517e-06,1.5825446699846521e-06,2.079441119377149e-06,9.774814167685976e-06,1.026055547050869e-06,4.683642925444046e-06,2.417313098553707e-06,2.546541014515813e-06,1.387414162918635e-06,1.7828343117488597e-06
208,1.805602250421936e-06,1.4210682622321405e-06,1.717343439202035e-06,1.9047547967714726e-06,2.7389668045280346e-06,3.370037981346221e-06,2.645456049201153e-06,1.6352966229021414e-06,2.070657631839777e-06,8.48491762155726e-06,1.0594599917354925e-06,4.7871055529086725e-06,2.4223012397538814e-06,2.6019526807595193e-06,1.3930407673131578e-06,1.8168644274170212e-06
209,1.8080651871720425e-06,1.4043283851919686e-06,1.6757594436579462e-06,1.8741305968104077e-06,2.7456470574313942e-06,3.305427658573501e-06,2.6732880196839543e-06,1.6951556230710442e-06,2.0780153955000877e-06,7.298550852942357e-06,1.0933333632126603e-06,4.865983494760462e-06,2.4290541932143395e-06,2.6470113459995474e-06,1.4015510487372487e-06,1.849803520577446e-06
210,1.8132984261383949e-06,1.3904719779947247e-06,1.633617396391024e-06,1.8460830480058781e-06,2.756104420841588e-06,3.232377957408419e-06,2.6984649195418516e-06,1.7621380880401476e-06,2.101731723499288e-06,6.22212263559011e-06,1.1266518667446813e-06,4.919025697665437e-06,2.437260271347677e-06,2.6810717090256518e-06,1.412707327075148e-06,1.881204114035017e-06
211,1.8206749749681689e-06,1.379931517215845e-06,1.5911640559567776e-06,1.8210296905957675e-06,2.769696303721803e-06,3.1529025789431413e-06,2.720956595376124e-06,1.8360462785482658e-06,2.142030672249886e-06,5.261852898725864e-06,1.1583429765776255e-06,4.946705661267279e-06,2.446750285155803e-06,2.703834761872595e-06,1.4261130559511793e-06,1.911010199364032e-06
212,1.829402388326592e-06,1.3732624975540835e-06,1.548414834802989e-06,1.7990463585714267e-06,2.785570156567949e-06,3.0687577276998646e-06,2.7411926856940848e-06,1.916360574158605e-06,2.1990319657053335e-06,4.423856787969703e-06,1.1873930910458061e-06,4.950924856123404e-06,2.4572297786466175e-06,2.7151837741649907e-06,1.4413355113184135e-06,1.9395313000216517e-06
213,1.8385180270893687e-06,1.371053615103879e-06,1.505199749875583e-06,1.7798895990699649e-06,2.802623399845842e-06,2.9814185918470352e-06,2.759868645575322e-06,2.002233716370808e-06,2.2726723195387116e-06,3.714041567598219e-06,1.2128755318467146e-06,4.934245656565578e-06,2.4680726742780656e-06,2.7153028071562486e-06,1.4580661771226752e-06,1.9673573814093226e-06
214,1.8469210385215723e-06,1.3738363781427472e-06,1.4612541372030173e-06,1.7631639388986212e-06,2.8198624571856522e-06,2.892180291076268e-06,2.7776055849166144e-06,2.092626453106596e-06,2.36271531244299e-06,3.1380069955739838e-06,1.2338908607046273e-06,4.899091885292191e-06,2.4783111778131925e-06,2.70481329389507e-06,1.476142642782295e-06,1.9952164050055397e-06
215,1.8534399295876505e-06,1.3820621356426628e-06,1.41644838732662e-06,1.748481615053895e-06,2.836827161188612e-06,2.8023107175607126e-06,2.7946777774429684e-06,2.186439571268481e-06,2.468777560415961e-06,2.7009759463245287e-06,1.249569631953635e-06,4.8473718801265256e-06,2.486704590117219e-06,2.684816274600371e-06,1.4953951920207214e-06,2.023770693797286e-06
216,1.8570360342065873e-06,1.3960545046306192e-06,1.3710381331384353e-06,1.7354755046173488e-06,2.853602835188502e-06,2.713219785055813e-06,2.8109261588603782e-06,2.2824823632305796e-06,2.5902864398131284e-06,2.4077492710677397e-06,1.2592267406143796e-06,4.780424415780314e-06,2.491824341364686e-06,2.6570259225354315e-06,1.5155370440400488e-06,2.0534093308618474e-06
217,1.8571141332097219e-06,1.4159278743284012e-06,1.325680095406382e-06,1.7237030512041803e-06,2.870409173633207e-06,2.626493457647882e-06,2.825837341117488e-06,2.379381696737098e-06,2.726345632357328e-06,2.2626925884612587e-06,1.2625852016386345e-06,4.698992379183761e-06,2.4923032663923965e-06,2.6239812705826526e-06,1.5362464174792658e-06,2.084150497018071e-06
218,1.8535953186238208e-06,1.441540950370927e-06,1.2811972022976634e-06,1.7126105699130893e-06,2.8871871439103043e-06,2.543697783896124e-06,2.838693353537156e-06,2.475633066259243e-06,2.875599733620157e-06,2.269727469316457e-06,1.2599200160491253e-06,4.603253968867818e-06,2.487240151867747e-06,2.5890024256331507e-06,1.55728957987043e-06,2.1157274616395534e-06
219,1.8466633831004747e-06,1.4724881278348803e-06,1.238342628678321e-06,1.701646164560972e-06,2.9034952011261864e-06,2.4660993968592903e-06,2.848750635951769e-06,2.569741997143056e-06,3.0362271760284935e-06,2.4323379835938872e-06,1.2520011042903394e-06,4.4930785130707185e-06,2.476451439882059e-06,2.555755818927766e-06,1.5784912054306264e-06,2.147808115274553e-06
220,1.836548143864892e-06,1.5081091759522757e-06,1.1977246295884828e-06,1.6904321081639417e-06,2.918695586197748e-06,2.3945364739561e-06,2.855445635168112e-06,2.6602935272419356e-06,3.2061175239891674e-06,2.7536485012992528e-06,1.2398489889125016e-06,4.368465722575794e-06,2.4603756227551884e-06,2.527740522245675e-06,1.5996245717040694e-06,2.1801863919940886e-06
221,1.823547919438313e-06,1.547500429653904e-06,1.1598213568579117e-06,1.6788449092028552e-06,2.932226110564274e-06,2.3295073535256345e-06,2.858524857168306e-06,2.745921603510376e-06,3.383213642507767e-06,3.2365001327606766e-06,1.2245011679370164e-06,4.229929794525806e-06,2.4397525286135666e-06,2.5080205022493127e-06,1.6204192782310816e-06,2.2127879290289892e-06
222,1.8081363138904834e-06,1.589497525687561e-06,1.1250356120308096e-06,1.666929198366911e-06,2.9437548640877046e-06,2.2713814733095257e-06,2.8579342006359504e-06,2.825289758944923e-06,3.5658873483094723e-06,3.8834055002537524e-06,1.2069270132378105e-06,4.078670367174819e-06,2.4153289058733987e-06,2.4991973646841404e-06,1.6406703481363226e-06,2.2454858640013175e-06
223,1.7909677462537175e-06,1.6326697189835794e-06,1.0938176993530454e-06,1.654714255883094e-06,2.9531810100389575e-06,2.2205822617263857e-06,2.8534980484125457e-06,2.897212698577144e-06,3.7531495892111216e-06,4.696441814890234e-06,1.1880273938538215e-06,3.91659832036106e-06,2.3877514109121215e-06,2.5034522532216767e-06,1.6602661346612153e-06,2.2778975555522366e-06
224,1.7727595215930283e-06,1.6754030324825916e-06,1.0667473570886185e-06,1.6421335756094409e-06,2.960576482068966e-06,2.177600672049666e-06,2.844686888987921e-06,2.960852994658851e-06,3.944628328528994e-06,5.677154408909115e-06,1.1686328483703743e-06,3.746322564190035e-06,2.357603792292184e-06,2.5225883921756433e-06,1.679115862141709e-06,2.3093606001293518e-06
225,1.7542231932619952e-06,1.716055058633768e-06,1.0444419857319255e-06,1.6291654066744314e-06,2.9661263493042238e-06,2.1428303723009136e-06,2.8306813200730653e-06,3.015730901244138e-06,4.140430449908507e-06,6.8263965060743104e-06,1.1494689969065907e-06,3.5710478761174524e-06,2.3254693363672114e-06,2.558067379761885e-06,1.6971299731309039e-06,2.3391234877507604e-06
226,1.7361382424806806e-06,1.753114518966741e-06,1.027383518397135e-06,1.6160323800677495e-06,2.9700518227999223e-06,2.116405583116124e-06,2.8105994803172677e-06,3.0614499871175684e-06,4.340976734114628e-06,8.14404409154749e-06,1.1311192539295726e-06,3.394293408709546e-06,2.291938214853317e-06,2.6109831004555248e-06,1.7143037728367821e-06,2.366581196864416e-06
227,1.7193819780418346e-06,1.7853628636578396e-06,1.0158403470275453e-06,1.603241235417145e-06,2.9724696886625425e-06,2.098179792455455e-06,2.78367888251787e-06,3.097435304060796e-06,4.546726474488292e-06,9.628592899336227e-06,1.1140488371804037e-06,3.2195269581481744e-06,2.257526508676205e-06,2.6819867720238323e-06,1.7307674472760393e-06,2.3913737717288853e-06
228,1.7048094878073647e-06,1.812041255234857e-06,1.009918301653606e-06,1.5914748300543561e-06,2.9732095594055067e-06,2.0877696533199803e-06,2.7493833270499627e-06,3.122996161859997e-06,4.757788528850438e-06,1.1276692558585308e-05,1.0986470337391565e-06,3.049897078738589e-06,2.2225992503596474e-06,2.771237783183614e-06,1.746673608444741e-06,2.4133048668823067e-06
229,1.693113424390779e-06,1.832916363652561e-06,1.0096407158591125e-06,1.581479563627987e-06,2.971760421066467e-06,2.0845801445007137e-06,2.707490462846084e-06,3.1376262031561434e-06,4.973632352949371e-06,1.308269080235073e-05,1.0852093045198653e-06,2.8880872583036915e-06,2.1873761227941396e-06,2.878444563291224e-06,1.7620280223631068e-06,2.4321217303229176e-06
230,1.6847493391005272e-06,1.8481341068602166e-06,1.0149473064545224e-06,1.5740099455391776e-06,2.9674428053228355e-06,2.0878333825056273e-06,2.658167073635504e-06,3.141290285230608e-06,5.193029170735331e-06,1.5038181703946922e-05,1.0738992513888274e-06,2.7362255484433524e-06,2.152007595421239e-06,3.003099459935914e-06,1.7766818995013499e-06,2.447292598528881e-06
231,1.679915427142162e-06,1.8579601638662875e-06,1.0256372486142564e-06,1.5697805425630178e-06,2.9596379581042243e-06,2.0965859245466837e-06,2.602028120910599e-06,3.134603688632936e-06,5.414271660545447e-06,1.7131520436682085e-05,1.06473595925172e-06,2.5958532626447717e-06,2.1167322900228623e-06,3.1448848654173698e-06,1.7904801838604182e-06,2.4580315671847386e-06
232,1.6786289026528527e-06,1.8626261334172345e-06,1.041382690033141e-06,1.569377696295599e-06,2.9479136487929416e-06,2.109692629150645e-06,2.5402089657483524e-06,3.118903238914727e-06,5.635766516790141e-06,1.9347333372220525e-05,1.057583475841646e-06,2.4679748051418936e-06,2.0820173243349845e-06,3.3040003076602008e-06,1.8033704765759631e-06,2.4636315278251297e-06
233,1.6809377698701004e-06,1.8623054561418067e-06,1.0618170898375826e-06,1.573180615824261e-06,2.932090713673582e-06,2.1258064171221967e-06,2.4744106719356832e-06,3.0962036869326503e-06,5.856773768315707e-06,2.1666081827112647e-05,1.052151720282966e-06,2.3531710542741786e-06,2.0485373633127454e-06,3.4812206680385987e-06,1.8153561162411374e-06,2.463760170429501e-06
234,1.6871162739569636e-06,1.8570930368748803e-06,1.0865708895251232e-06,1.581333197410245e-06,2.9123388873982183e-06,2.1435313763250046e-06,2.4067737308343014e-06,3.0690289932922003e-06,6.07768344331995e-06,2.406369135855064e-05,1.0480265843219797e-06,2.2517698216964977e-06,2.017030273816029e-06,3.6777329036964457e-06,1.8263612909759407e-06,2.458379186342745e-06
235,1.6976292007048175e-06,1.8470241244957573e-06,1.115228131190464e-06,1.5937195030821391e-06,2.889288594167013e-06,2.161591553084894e-06,2.339541381933249e-06,3.0401332437931404e-06,6.299520125452e-06,2.6511219900576932e-05,1.044738501242833e-06,2.1640448260722673e-06,1.9881375890381253e-06,3.894901239906963e-06,1.8362225488376503e-06,2.447418465419892e-06
236,1.7128963020062304e-06,1.83216535395121e-06,1.1473094076778205e-06,1.6099576090777524e-06,2.8640228527736743e-06,2.178810472011662e-06,2.274719088175701e-06,3.0121671972476483e-06,6.523036973665964e-06,2.8974462366895876e-05,1.0419284859240456e-06,2.090326468925234e-06,1.962302170526431e-06,4.134037333213516e-06,1.8448835421587665e-06,2.4305937003790753e-06
237,1.7330873210006184e-06,1.81262502085658e-06,1.1823137208256031e-06,1.629496556506888e-06,2.8378389021734e-06,2.194100068717586e-06,2.213939288208099e-06,2.987378615135229e-06,6.747968197503423e-06,3.141369966427253e-05,1.039573383922135e-06,2.030936665882303e-06,1.939769636576066e-06,4.396143244431627e-06,1.8525228069514359e-06,2.407501277664198e-06
238,1.7581071844824085e-06,1.7885279942121979e-06,1.2197448741982727e-06,1.6517952642949318e-06,2.8119014803917413e-06,2.206790508955641e-06,2.158481530848015e-06,2.9674432012256962e-06,6.972724089256131e-06,3.378510138488374e-05,1.0380608218574175e-06,1.986029774479175e-06,1.9206420791914122e-06,4.681668930882927e-06,1.8594014565285421e-06,2.3778296388917682e-06
239,1.78774342683467e-06,1.7600960800246589e-06,1.2590738486038334e-06,1.6764799050659822e-06,2.787010179234376e-06,2.2171195314963166e-06,2.1093058602164147e-06,2.9534511833103984e-06,7.194532851674385e-06,3.604542381225944e-05,1.0380186518932518e-06,1.95550848592125e-06,1.9048758777209464e-06,4.990455099343864e-06,1.8656133844899762e-06,2.3415388931246044e-06
240,1.8218226846820299e-06,1.7276928956762283e-06,1.2996567546591209e-06,1.7034445056135268e-06,2.763560387294487e-06,2.2263649401998984e-06,2.06706271233422e-06,2.9459537012822097e-06,7.409922760516839e-06,3.815856887919091e-05,1.0400819746260334e-06,1.9390820089283817e-06,1.8922536479968356e-06,5.321881534278722e-06,1.8709826613657038e-06,2.2989514816549458e-06
241,1.8602603531427973e-06,1.6918358926921064e-06,1.3406526896441217e-06,1.732918189632529e-06,2.741721819969672e-06,2.2364550837603547e-06,2.0320669742372538e-06,2.9449685958578986e-06,7.615389157573769e-06,4.0099750029227483e-05,1.044796346320172e-06,1.93638761398943e-06,1.8824293250473326e-06,5.674992933389164e-06,1.8751565006146584e-06,2.2507153119611555e-06
242,1.9029880626180439e-06,1.6533456121126545e-06,1.3809839423764479e-06,1.7654716738751196e-06,2.7217818509687113e-06,2.249409531647683e-06,2.004251492949927e-06,2.9499773165716443e-06,7.8079976564425e-06,4.1854149311530794e-05,1.0526255687191266e-06,1.947071554873439e-06,1.8750036050356036e-06,6.048439614795042e-06,1.8778135806638747e-06,2.1976733600986112e-06
243,1.9497921966987306e-06,1.6134225028647433e-06,1.4193928307651223e-06,1.8018899560320367e-06,2.704353424854039e-06,2.266998407896298e-06,1.9831855600890893e-06,2.9600347768579203e-06,7.985552911561136e-06,4.3410966592290995e-05,1.0639528494740768e-06,1.9707857276319305e-06,1.8696008781882917e-06,6.440355662751795e-06,1.878777315071613e-06,2.140757542199322e-06
244,2.0001568134236815e-06,1.5734195397259071e-06,1.4546215457778879e-06,1.8429348390078306e-06,2.690216384193085e-06,2.2906800905517085e-06,1.968196096832037e-06,2.9740036407867436e-06,8.146130479018065e-06,4.475789321716906e-05,1.079101479721196e-06,2.007098131304932e-06,1.8660431024796293e-06,6.848315906275135e-06,1.877915052247049e-06,2.080985853715898e-06
245,2.053201934444233e-06,1.5345306201253056e-06,1.4856410939449289e-06,1.8891643005033524e-06,2.679984932867924e-06,2.321671281772719e-06,1.9585154817169436e-06,2.990700597412046e-06,8.287476604326286e-06,4.588163744557471e-05,1.0983932572235902e-06,2.0553774440611945e-06,1.8645899657876289e-06,7.26922063812923e-06,1.875064108169847e-06,2.0195214163153703e-06
246,2.1076991426558375e-06,1.4976593726965678e-06,1.5118114056232346e-06,1.940888742589296e-06,2.673921328539942e-06,2.3610009815706546e-06,1.9533608830120896e-06,3.008801301617321e-06,8.407259224415517e-06,4.677441780211553e-05,1.1221298925331512e-06,2.114759979819773e-06,1.8660213118393376e-06,7.698970315322524e-06,1.8701936314176156e-06,1.9576663484610144e-06
247,2.1621458402397263e-06,1.4634245593817172e-06,1.5329123161815005e-06,1.998143193252481e-06,2.671973432953915e-06,2.4094858464871423e-06,1.9519499879043797e-06,3.0267274598945222e-06,8.504275667732502e-06,4.743918043268049e-05,1.1504816733141776e-06,2.1841959020583334e-06,1.8714258173248445e-06,8.132171959033043e-06,1.86355378221401e-06,1.8967137420464914e-06
248,2.214984615268944e-06,1.4321659394735988e-06,1.5490433863858711e-06,2.0606078681579246e-06,2.6739394501192628e-06,2.4676628356103335e-06,1.9535182222705972e-06,3.04274606214498e-06,8.579424783012544e-06,4.788703264113313e-05,1.1834228820685478e-06,2.262451568441363e-06,1.88185331683633e-06,8.562170672376751e-06,1.8555267149971107e-06,1.8377519650368895e-06
249,2.2649636571516715e-06,1.4039658355738831e-06,1.5604251584036094e-06,2.127568473917291e-06,2.67958072872404e-06,2.5358062589645405e-06,1.9573403622385558e-06,3.0551009504158475e-06,8.635494767022363e-06,4.8128804386341516e-05,1.2207594641791133e-06,2.3480655410713645e-06,1.8980982375295901e-06,8.981255214187688e-06,1.8463258300661767e-06,1.7815978792194745e-06
250,2.311380805143001e-06,1.3787756700073348e-06,1.5672013135439972e-06,2.198014408623432e-06,2.6885097919417463e-06,2.6140880341765082e-06,1.9627252039628163e-06,3.061959202418298e-06,8.676102301717639e-06,4.816807803263761e-05,1.2621599517703282e-06,2.4394360840794516e-06,1.9206845612279216e-06,9.380729991073184e-06,1.835840647228887e-06,1.728903192040235e-06
251,2.3539699115831657e-06,1.3566094959990712e-06,1.569399466026824e-06,2.2708941295385583e-06,2.6999693506895564e-06,2.70270413874259e-06,1.9690237306075657e-06,3.06132489038186e-06,8.704622247088853e-06,4.800010270021645e-05,1.3071407355895885e-06,2.53511969991623e-06,1.9499454358414547e-06,9.751234884258362e-06,1.823734477141773e-06,1.680276124819243e-06
252,2.392541363272823e-06,1.3376336180336188e-06,1.5671033346275477e-06,2.345410836141943e-06,2.7128553864460374e-06,2.8018317546406117e-06,1.9757292435987675e-06,3.051248755664318e-06,8.723527223702854e-06,4.7615561810193735e-05,1.355029749369831e-06,2.634095211512441e-06,1.9861195083655904e-06,1.0083895206817554e-05,1.8097291220777267e-06,1.6362575223249205e-06
253,2.4267290848853036e-06,1.3220624843812621e-06,1.5606763948199995e-06,2.421120867850107e-06,2.7260710747277063e-06,2.911549907623844e-06,1.982631675964715e-06,3.03035112976305e-06,8.734154620652587e-06,4.700600604419242e-05,1.4049671600962634e-06,2.7356714424620623e-06,2.0294378711420723e-06,1.0371826799460144e-05,1.7938510438320666e-06,1.5972180344465396e-06
254,2.4559914252068975e-06,1.3100036631206757e-06,1.5508403495298947e-06,2.497726057083149e-06,2.7388371781237997e-06,3.0318480707627854e-06,1.989851927707819e-06,2.9982571792494075e-06,8.736789368394936e-06,4.6167778276844955e-05,1.4560156728012773e-06,2.839109183399028e-06,2.080125808226094e-06,1.0611029251176955e-05,1.776411650160921e-06,1.5633413773250286e-06
255,2.479663632566542e-06,1.3014615735335693e-06,1.5385718908923088e-06,2.5747683944277557e-06,2.7506164689110043e-06,3.162631905695936e-06,1.9977307800268173e-06,2.955630292904296e-06,8.730909736574014e-06,4.5101846396770854e-05,1.50731005612332e-06,2.943301061539823e-06,2.138282563173056e-06,1.0800286141359508e-05,1.7577825204371487e-06,1.534687199176779e-06
256,2.4969341353110996e-06,1.2964764447279777e-06,1.5249034547858317e-06,2.651471275126839e-06,2.7608540619122136e-06,3.303592759641999e-06,2.006820829809696e-06,2.903888255769336e-06,8.715524492272471e-06,4.381098334896128e-05,1.558065371040566e-06,3.0466789350307506e-06,2.203772089733163e-06,1.0940180514533399e-05,1.7382245126218038e-06,1.5112174932468881e-06
257,2.5069106015644915e-06,1.2951806743750697e-06,1.510733132612434e-06,2.7267482190121704e-06,2.7689648404205947e-06,3.4539638577309813e-06,2.018014623658638e-06,2.844854641681841e-06,8.689523961176861e-06,4.2300659104991395e-05,1.607459122145058e-06,3.1473663849735324e-06,2.276210160254756e-06,1.1031606694036147e-05,1.717898573296e-06,1.4927729360727824e-06
258,2.508895920731469e-06,1.2977066421697878e-06,1.4967445489912507e-06,2.7993686619919658e-06,2.774620192245153e-06,3.6123408582763893e-06,2.0324846695504213e-06,2.7804727702852858e-06,8.651801396364926e-06,4.0585883037586823e-05,1.654598134014694e-06,3.2435267426600443e-06,2.3549603686564015e-06,1.10743498156065e-05,1.6969321641253645e-06,1.479067673911714e-06
259,2.502765256427839e-06,1.3041084718443204e-06,1.4834620564870904e-06,2.8682358236433312e-06,2.7780813762736034e-06,3.7767941540983166e-06,2.0514056816902735e-06,2.7125608832192542e-06,8.600957882300965e-06,3.8696852557049755e-05,1.6986640425749225e-06,3.3336922026856217e-06,2.439099449448635e-06,1.1066311551454088e-05,1.6753783153575268e-06,1.4696998134002412e-06
260,2.489211694315369e-06,1.314384926388642e-06,1.471334899402561e-06,2.9325704660434167e-06,2.7803470212901847e-06,3.945378073071043e-06,2.0757640324174213e-06,2.6426527093637926e-06,8.534785402834752e-06,3.6676517773300234e-05,1.7390881958551292e-06,3.4168033099297505e-06,2.5273646453677725e-06,1.1003828805342597e-05,1.653112279045144e-06,1.4641454203416176e-06
261,2.469638307792844e-06,1.3284870421946516e-06,1.4607892021483248e-06,2.9919215516651153e-06,2.782973555474831e-06,4.116810082659713e-06,2.1063102965536145e-06,2.5720032879237723e-06,8.450181099755772e-06,3.457242124761003e-05,1.77555326238512e-06,3.491964045527766e-06,2.6180835518537975e-06,1.0883205657881247e-05,1.6297888631693462e-06,1.4617609653927074e-06
262,2.4457267068118754e-06,1.3462358842173828e-06,1.4523105080463177e-06,3.046169387440376e-06,2.7876693383805765e-06,4.2907996640240355e-06,2.1435082547509425e-06,2.501652625430468e-06,8.344015034916922e-06,3.243036544482782e-05,1.8078430098252199e-06,3.5583674008218888e-06,2.7091258445925285e-06,1.0702974240979425e-05,1.6049104944890733e-06,1.4618157513531153e-06
263,2.4189965767888637e-06,1.3672639795990032e-06,1.44650555861935e-06,3.0956120585082176e-06,2.7960148251405235e-06,4.467713295388064e-06,2.187482840295785e-06,2.432406985665802e-06,8.214517832619158e-06,3.029290728211529e-05,1.8358035679861695e-06,3.6156797755708244e-06,2.797898479384986e-06,1.046575964468009e-05,1.5779825029754908e-06,1.4636110165674585e-06
264,2.390579272415239e-06,1.3910858313232302e-06,1.4440224521667513e-06,3.1410146789681343e-06,2.8094309578796426e-06,4.647916263267306e-06,2.238063901683148e-06,2.3647809593342374e-06,8.062207255964637e-06,2.8199491808916904e-05,1.8595409677694547e-06,3.66446367878483e-06,2.881429892069536e-06,1.0178701315576018e-05,1.5486481974055942e-06,1.4666818256734887e-06
265,2.3611493085006743e-06,1.4172160850812465e-06,1.445436510506036e-06,3.1834843058934857e-06,2.829184564062898e-06,4.831372497923374e-06,2.2949230078950804e-06,2.299014142574049e-06,7.889958052640715e-06,2.6185778151807707e-05,1.8796289625985253e-06,3.7061825463011196e-06,2.9565985072056198e-06,9.85238793659451e-06,1.516768771544967e-06,1.47085462236946e-06
266,2.3309179630784522e-06,1.445180487323383e-06,1.451249592580394e-06,3.224170647345631e-06,2.8563587020417306e-06,5.017584202026865e-06,2.357708072776287e-06,2.2352096374779387e-06,7.702524896257769e-06,2.428281605424783e-05,1.8970679863436499e-06,3.742845476292255e-06,3.020407779098085e-06,9.499139089692826e-06,1.4824851701503246e-06,1.4760532292608732e-06
267,2.2996981305023807e-06,1.4744106823297175e-06,1.4619061694952313e-06,3.263913703280897e-06,2.89180562226396e-06,5.2055913781037866e-06,2.426108021634162e-06,2.173542671344518e-06,7.505841228229379e-06,2.2516717131730734e-05,1.9130413019815777e-06,3.7765211311272572e-06,3.07018302291633e-06,9.131451699141537e-06,1.4461759958087044e-06,1.4820689580641757e-06
268,2.267089670146518e-06,1.5041894889747305e-06,1.4777317812068523e-06,3.30300735050987e-06,2.9360040878649486e-06,5.393944099583725e-06,2.4998633673444055e-06,2.114393446696695e-06,7.306151102027518e-06,2.0908601202685495e-05,1.9287806555615217e-06,3.808923529449379e-06,3.1037623256800652e-06,8.760979422123359e-06,1.408258842518057e-06,1.4884797277874553e-06
269,2.232790923200529e-06,1.5337471107896859e-06,1.4988668613886165e-06,3.34115876234444e-06,2.988895935921669e-06,5.5807540283503825e-06,2.578769353082933e-06,2.058270528647227e-06,7.109081440631858e-06,1.9474624241610423e-05,1.9457098356676014e-06,3.841277484959399e-06,3.1197902801774276e-06,8.398044897559691e-06,1.3689939307990718e-06,1.4947246025250653e-06
270,2.196861005867792e-06,1.5623749605921422e-06,1.5252405351802867e-06,3.377558769039227e-06,3.0498612353098894e-06,5.763911206914484e-06,2.6626581461756945e-06,2.0055629675149587e-06,6.918960655086663e-06,1.8226139790773786e-05,1.9656770080640095e-06,3.8744742900281e-06,3.1179636090032476e-06,8.051441297839628e-06,1.3284567561173262e-06,1.5002628367766233e-06
271,2.159679968736404e-06,1.5894681857151424e-06,1.5565863173122435e-06,3.4109673894318926e-06,3.1178687978359805e-06,5.941498652754817e-06,2.7512950837969583e-06,1.9563328025639207e-06,6.738569183320114e-06,1.7170073042706276e-05,1.991059843653323e-06,3.909261937381991e-06,3.098917301773055e-06,7.728296682892219e-06,1.286677104206314e-06,1.5046809246934047e-06
272,2.1216564805457332e-06,1.614672055480471e-06,1.5925044273881444e-06,3.439842993475063e-06,3.191758523038514e-06,6.112320344406108e-06,2.8441942499351655e-06,1.9103430550391966e-06,6.569216891483996e-06,1.6309425337720136e-05,2.024698152641906e-06,3.946287546876225e-06,3.0637806905985396e-06,7.434019369577195e-06,1.2438251801173693e-06,1.5076395154843568e-06
273,2.0830076562926974e-06,1.6381599376168586e-06,1.6324926911171568e-06,3.4625772733260794e-06,3.2704587196644704e-06,6.27627813641771e-06,2.940494911630269e-06,1.8673271653352182e-06,6.410927960034332e-06,1.564369847522485e-05,2.069683384427798e-06,3.986069324223286e-06,3.013923992455018e-06,7.17238192673358e-06,1.2003144560707398e-06,1.5087230813007012e-06
274,2.043731984059687e-06,1.6607060739668817e-06,1.6758986347318655e-06,3.4777836493856302e-06,3.352989092609086e-06,6.434329630042773e-06,3.0390183073372907e-06,1.827304802179023e-06,6.262568870090448e-06,1.5169067506921578e-05,2.129093190307873e-06,4.028996979534782e-06,2.9511475948952817e-06,6.945694899711538e-06,1.1567697560938973e-06,1.5073681785723441e-06
275,2.003633246597549e-06,1.6834266831688096e-06,1.7218582221545e-06,3.484494486130344e-06,3.4385501787707855e-06,6.5880175678066745e-06,3.138402866844807e-06,1.7906873450939307e-06,6.122002977303826e-06,1.4878362196587144e-05,2.2057891900884003e-06,4.075338963728034e-06,2.877817808987089e-06,6.755015005165744e-06,1.1139026819622963e-06,1.5029411294834193e-06
276,1.9623690455826688e-06,1.707481630292586e-06,1.7692512383034922e-06,3.4822213745933645e-06,3.526914987978024e-06,6.738799655103372e-06,3.2371178952736574e-06,1.7580913104446135e-06,5.986513788364116e-06,1.4761138329132108e-05,2.3023388071648337e-06,4.125274152374549e-06,2.796551007860672e-06,6.600367445577631e-06,1.0723739073637447e-06,1.49484910170387e-06
277,1.9195818334283144e-06,1.733906842061712e-06,1.816689683646783e-06,3.4709925187391333e-06,3.6186378893973564e-06,6.887417477471076e-06,3.3333276008552175e-06,1.7300479451525982e-06,5.853391058950726e-06,1.4804023745952198e-05,2.4210188537726934e-06,4.1790269389787e-06,2.7097752593326015e-06,6.481087239596278e-06,1.0327114794819098e-06,1.4826011105087274e-06
278,1.8750392002775036e-06,1.7635072027588448e-06,1.862608180966729e-06,3.4514535866851475e-06,3.714696668369884e-06,7.0334837509555745e-06,3.4247609237435535e-06,1.7068320027891145e-06,5.7203101519648e-06,1.4991183873523276e-05,2.563799398926e-06,4.237074678124697e-06,2.6195685238369576e-06,6.396190980081688e-06,9.953180411863779e-07,1.4659110442468363e-06
279,1.828705906715431e-06,1.7967968081262462e-06,1.9054611008796163e-06,3.4249484664466683e-06,3.8159970600798535e-06,7.175423018138658e-06,3.5087592082204674e-06,1.6884592438515587e-06,5.585512601585304e-06,1.530457046555079e-05,2.732270482948313e-06,4.300299635227951e-06,2.527755642298089e-06,6.344334762808933e-06,9.605418675498424e-07,1.444854949345739e-06
280,1.7807258313562114e-06,1.8339856446437052e-06,1.943948017245086e-06,3.3934219010202315e-06,3.923179138002443e-06,7.310728227583146e-06,3.5825875649211394e-06,1.674762880923185e-06,5.448024933477974e-06,1.5723875222758215e-05,2.9275504599477406e-06,4.369977489309064e-06,2.4360918123657215e-06,6.323329677433585e-06,9.287173934769424e-07,1.4199235076946373e-06
281,1.731304134992889e-06,1.8749583440281117e-06,1.9771743722672818e-06,3.3590983506788227e-06,4.036544562068753e-06,7.4363598706266e-06,3.6439658723001957e-06,1.665423200991554e-06,5.307785011239821e-06,1.622651936253776e-05,3.150205924796262e-06,4.447578817791281e-06,2.346386452336145e-06,6.329782981634587e-06,9.001261963697886e-07,1.3919303715861524e-06
282,1.6806074811833803e-06,1.919259818412892e-06,2.004640340738344e-06,3.324063620482418e-06,4.155903732065685e-06,7.549214242976103e-06,3.6915979790532325e-06,1.6599439620961044e-06,5.1654561927984804e-06,1.67878127276332e-05,3.400204627271356e-06,4.534502345613301e-06,2.2605091745051787e-06,6.35930537067333e-06,8.749553787702606e-07,1.3618640967332699e-06
283,1.6288363630080185e-06,1.9661476150309287e-06,2.0260224632029377e-06,3.289953089502786e-06,4.28044719698815e-06,7.64662102864355e-06,3.7253475775573827e-06,1.657675175803644e-06,5.022132031406258e-06,1.7381030477376565e-05,3.676882612414408e-06,4.631893115333285e-06,2.180332354654374e-06,6.407222827049581e-06,8.532949521900339e-07,1.330716191919739e-06
284,1.5763646570286427e-06,2.0147451674836105e-06,2.040913134144086e-06,3.2578836184817714e-06,4.40871458662542e-06,7.72669052189905e-06,3.745884734113297e-06,1.6578732521489452e-06,4.879187542091479e-06,1.7977884954490592e-05,3.978874471585524e-06,4.740546583257041e-06,2.1076830001727332e-06,6.4693800558965645e-06,8.351276490628633e-07,1.2993297520346355e-06
285,1.5237226147219846e-06,2.0642929690672757e-06,2.048736443066673e-06,3.2285717376347624e-06,4.5386494386300435e-06,7.788356297997458e-06,3.7541416852226414e-06,1.6597520287213437e-06,4.738135179951288e-06,1.855032039545572e-05,4.304035799800352e-06,4.8608023861440575e-06,2.044312469796757e-06,6.542663462247145e-06,8.203192833792933e-07,1.268338449968215e-06
286,1.4714783726334584e-06,2.1143884037816344e-06,2.0488594383994353e-06,3.2024140594808694e-06,4.667670621185541e-06,7.83118284892367e-06,3.7510912891383315e-06,1.6626364443904994e-06,4.600291010135637e-06,1.907312588209878e-05,4.649399250732192e-06,4.992379125158654e-06,1.99182257482894e-06,6.62508851237849e-06,8.086702731167292e-07,1.2381955441016027e-06
287,1.4202042023389607e-06,2.165005376635573e-06,2.0407798781680883e-06,3.179426843383785e-06,4.792657760669815e-06,7.855146407045608e-06,3.7377772123478213e-06,1.6662283700983194e-06,4.466433779664313e-06,1.9525953994787054e-05,5.011125067533182e-06,5.1341696048315375e-06,1.9515326700305855e-06,6.715418840520064e-06,7.999968922400787e-07,1.2092612127805927e-06
288,1.370480649532234e-06,2.216247357090306e-06,2.0243049814032707e-06,3.1592395147473102e-06,4.910025901156193e-06,7.860543344674662e-06,3.7151434855375787e-06,1.6706901473296653e-06,4.336773737769339e-06,1.9894175398074882e-05,5.384409809694835e-06,5.284093468282987e-06,1.9243719402643387e-06,6.8124855214614634e-06,7.941417998555031e-07,1.1818920831784413e-06
289,1.3228479055315332e-06,2.2681178623596796e-06,1.99968321484113e-06,3.1412854911916004e-06,5.016183916023109e-06,7.847979498199295e-06,3.6837063054552513e-06,1.6764163803436913e-06,4.211273210988144e-06,2.0168469599792104e-05,5.763366608948867e-06,5.439089856082449e-06,1.910866974671423e-06,6.914601660296507e-06,7.909440082702982e-07,1.1564405079713896e-06
290,1.277794247163977e-06,2.320514937097647e-06,1.967667676302943e-06,3.1249635144173727e-06,5.108215785765013e-06,7.818147489735491e-06,3.643542861188745e-06,1.6837809034206081e-06,4.090093970095382e-06,2.0342991973854525e-05,6.140901153713234e-06,5.59514426566636e-06,1.9111965658573694e-06,7.019364196747592e-06,7.902441370869368e-07,1.1331891536831091e-06
291,1.2358161269878644e-06,2.373260530898511e-06,1.92947165493471e-06,3.1095569165066543e-06,5.184353110792938e-06,7.77128549122383e-06,3.5947078840056974e-06,1.693058063838969e-06,3.9738317419366175e-06,2.0413397948819397e-05,6.508599992440498e-06,5.747192813107532e-06,1.9252313204267592e-06,7.123782063894128e-06,7.918681998643651e-07,1.1123759216187567e-06
292,1.197429987175346e-06,2.426001451044196e-06,1.886569477205674e-06,3.0941351567910066e-06,5.244034949234179e-06,7.706886466224872e-06,3.5376648413581716e-06,1.7044201436229007e-06,3.863319362166794e-06,2.037758146576155e-05,6.856717678115998e-06,5.889012404374528e-06,1.9525266115764593e-06,7.224494924672738e-06,7.955937701081065e-07,1.0943244887961e-06
293,1.163086633922635e-06,2.4781198716998002e-06,1.8404008151279796e-06,3.077751015959634e-06,5.287514885219018e-06,7.624149207723907e-06,3.473415343968634e-06,1.7179428746236136e-06,3.759195334057661e-06,2.023941680589435e-05,7.1745176238548965e-06,6.013466227758971e-06,1.992306346605607e-06,7.317940255619082e-06,8.012097077204298e-07,1.0795078871808376e-06
294,1.1330911175734401e-06,2.5287618530216763e-06,1.7921420370337372e-06,3.0598102586786547e-06,5.315174765255397e-06,7.52272358757562e-06,3.4034656705219416e-06,1.733612179082981e-06,3.6616647861541426e-06,2.001155240591869e-05,7.451251944599469e-06,6.113410306983539e-06,2.043458026982385e-06,7.400437010021952e-06,8.08614414104395e-07,1.068460946817333e-06
295,1.1076232107788687e-06,2.576883874268769e-06,1.742637408712916e-06,3.0402288319647042e-06,5.327069593252868e-06,7.403097003743411e-06,3.3298045525162592e-06,1.751318268787307e-06,3.5706534361147412e-06,1.9714172653626772e-05,7.677689461533351e-06,6.183106650967719e-06,2.1045114930891994e-06,7.468206015283271e-06,8.178003028318578e-07,1.061634491884353e-06
296,1.0868135413036827e-06,2.621281544547187e-06,1.6924563423124503e-06,3.0192438844926477e-06,5.3229983860087985e-06,7.266534193071709e-06,3.254761809987103e-06,1.7708676732245427e-06,3.4862518994275476e-06,1.9370954643755163e-05,7.847425269601504e-06,6.219331826437757e-06,2.173580497581494e-06,7.517380884012606e-06,8.287585269267404e-07,1.0592949087018205e-06
297,1.070759205778552e-06,2.6607359049693322e-06,1.6419828398414163e-06,2.997093921121533e-06,5.3027912346828225e-06,7.114792893678535e-06,3.1806510124365964e-06,1.791964426603368e-06,3.409175166940206e-06,1.9005114177068704e-05,7.956939648337614e-06,6.221279559193442e-06,2.248298490429046e-06,7.543937464650232e-06,8.414282671830629e-07,1.0614958946493383e-06
298,1.0594490893351835e-06,2.694236060145049e-06,1.5914513804334458e-06,2.973846944878694e-06,5.266593214354122e-06,6.9498552679927935e-06,3.109386043294315e-06,1.8140904722940795e-06,3.3409005007760518e-06,1.8637086557785778e-05,8.004524453755863e-06,6.18953467473728e-06,2.3258353448412093e-06,7.5435911554589736e-06,8.557182499095408e-07,1.06810398029319e-06
299,1.0526762223334079e-06,2.7210053376234777e-06,1.5409772424525205e-06,2.9494575359191435e-06,5.215228848367158e-06,6.773853521793019e-06,3.042272361799486e-06,1.8363771072335835e-06,3.2833592010098695e-06,1.828406790284419e-05,7.989775279174627e-06,6.125548339376353e-06,2.4031028869529756e-06,7.5123498696601085e-06,8.715561786886446e-07,1.0788659878819209e-06
300,1.050003583957987e-06,2.740258058144154e-06,1.4906831967144556e-06,2.9239350724151302e-06,5.150492709489491e-06,6.589212176300144e-06,2.979974568863635e-06,1.8576065513663345e-06,3.2384664210993515e-06,1.796103591169527e-05,7.91445540505791e-06,6.032098181288412e-06,2.477163100622238e-06,7.4479858262561425e-06,8.889040368498004e-07,1.0935100258963966e-06
301,1.0507925658045684e-06,2.7509461096098473e-06,1.4408527226315707e-06,2.897489577688302e-06,5.0750138694804014e-06,6.398814219095878e-06,2.9225642321942323e-06,1.876378400089413e-06,3.207860910613047e-06,1.7682007216308468e-05,7.783287816553732e-06,5.913579027943398e-06,2.5456548663764574e-06,7.351045579948936e-06,9.077640167786431e-07,1.1118249929184521e-06
302,1.0542885536786988e-06,2.7517913104641093e-06,1.391962963481591e-06,2.8706116203462153e-06,4.991666331460501e-06,6.205902914968816e-06,2.8695595508985114e-06,1.8913894157928926e-06,3.1928346039650153e-06,1.7460098268433005e-05,7.603473847807519e-06,5.775346438399343e-06,2.607000256596337e-06,7.224182937712819e-06,9.282261579897327e-07,1.1336740126433868e-06
303,1.0597159470463703e-06,2.741650416134307e-06,1.3445703717621022e-06,2.8440839429279534e-06,4.902930108358653e-06,6.013632145821715e-06,2.8199348733314864e-06,1.9017622468043706e-06,3.194216599458775e-06,1.730636433680028e-05,7.383446381301001e-06,5.6226589058317625e-06,2.660333997930374e-06,7.0707240609787656e-06,9.504696750384799e-07,1.158990532744939e-06
304,1.0663414103263412e-06,2.7199916368773016e-06,1.2991467427626123e-06,2.8189081422059534e-06,4.810576683658976e-06,5.824484080576928e-06,2.7721781422333847e-06,1.9073289121652593e-06,3.2122369525818186e-06,1.722857404797108e-05,7.131705566998856e-06,5.45992690147225e-06,2.7052707212725156e-06,6.893825333860362e-06,9.74664175543466e-07,1.1877927948552869e-06
305,1.0735769674030735e-06,2.6872196877482636e-06,1.256024723315925e-06,2.796148457073241e-06,4.715626702681628e-06,5.639859263063744e-06,2.7244590599600095e-06,1.908675343307953e-06,3.2464888272139038e-06,1.7230616508887082e-05,6.856034799439784e-06,5.290385210328598e-06,2.7416935075896368e-06,6.696234025430934e-06,1.0008703620494552e-06,1.2201416785956801e-06
306,1.0811226587870602e-06,2.6446796524249714e-06,1.2155150262131539e-06,2.776768182051332e-06,4.6183227117759536e-06,5.460043950409624e-06,2.674873949402133e-06,1.9068351542692635e-06,3.2959319495054557e-06,1.731250679257995e-05,6.563070008821672e-06,5.1160028121086805e-06,2.7696891315021817e-06,6.480434903072451e-06,1.029014945440164e-06,1.2560227022123477e-06
307,1.0889655042360133e-06,2.5942979212531102e-06,1.1780365269388277e-06,2.7615506799042156e-06,4.518119758819371e-06,5.284565876533142e-06,2.6217557830907476e-06,1.9028449817574364e-06,3.3589175573804035e-06,1.7470978451210293e-05,6.258104012264546e-06,4.937508866275203e-06,2.7894982049862974e-06,6.249221199774773e-06,1.0589292415762118e-06,1.295286983809094e-06
308,1.0971937905199628e-06,2.5380618634133183e-06,1.1440821627673556e-06,2.751068860305512e-06,4.413930067005395e-06,5.112707864051218e-06,2.5640638518965793e-06,1.8974630652967857e-06,3.4332547866606017e-06,1.770055383627367e-05,5.945064782515881e-06,4.754572695922499e-06,2.8013199295310057e-06,6.006132733926677e-06,1.0903993143814948e-06,1.337729523332557e-06
309,1.1058451374641806e-06,2.4776559303162423e-06,1.1140901072988415e-06,2.745610325205585e-06,4.304637468295643e-06,4.943928819192249e-06,2.5016973233637827e-06,1.8910972415735064e-06,3.5162146138508982e-06,1.7994566165965243e-05,5.626719962908527e-06,4.566256094459286e-06,2.805123453025713e-06,5.755295983129567e-06,1.1231772993991245e-06,1.3832083436241257e-06
310,1.1149186640277582e-06,2.4143664503033756e-06,1.0884004136335941e-06,2.745120763291816e-06,4.189553686491476e-06,4.778158453843846e-06,2.4354640902557465e-06,1.8838638646117156e-06,3.6044396562678873e-06,1.8345615514913443e-05,5.305108524767724e-06,4.371725982895851e-06,2.800682583800295e-06,5.500966314690824e-06,1.1569572786220927e-06,1.4316607066978867e-06
311,1.1244267627178594e-06,2.349193631349642e-06,1.0673081536365323e-06,2.7492420082645786e-06,4.068553976388235e-06,4.616016034829982e-06,2.366685114033318e-06,1.8757049837832408e-06,3.693897797577919e-06,1.8745406841178396e-05,4.982047749324125e-06,4.170948181407472e-06,2.7878600205939893e-06,5.247101720074693e-06,1.1913463077504325e-06,1.482989590530157e-06
312,1.1343727801735838e-06,2.283076363627357e-06,1.051089355519081e-06,2.757370274130106e-06,3.942009525803038e-06,4.458875405399704e-06,2.296731704042032e-06,1.8664338191516092e-06,3.780059874707043e-06,1.918414468550372e-05,4.659512849391111e-06,3.964989497680235e-06,2.767002203907338e-06,4.997044946264192e-06,1.2258896386347814e-06,1.536937920887144e-06
313,1.144726574571465e-06,2.217032982562749e-06,1.0399463442756336e-06,2.76870972069396e-06,3.8107879510447628e-06,4.308640064282811e-06,2.226790599669605e-06,1.8556813182874153e-06,3.8584868789060504e-06,1.964979457067347e-05,4.339717970449043e-06,3.7557561333572964e-06,2.739160748175902e-06,4.753487380636116e-06,1.2601782297454762e-06,1.5930322885320047e-06
314,1.1554515957555145e-06,2.1520546769940317e-06,1.033945896725683e-06,2.782352379523881e-06,3.6763182162370353e-06,4.1672586052725316e-06,2.1579321688655062e-06,1.842864490662415e-06,3.925748080689265e-06,2.012838369087063e-05,4.024884106995951e-06,3.545400552152125e-06,2.705922660354692e-06,4.5187500542726355e-06,1.2939158864397836e-06,1.6505729718518037e-06
315,1.1665402831337525e-06,2.0888647673875915e-06,1.0330161578424864e-06,2.7973276248922617e-06,3.540443771474217e-06,4.0362521994157065e-06,2.0913083099568835e-06,1.8272794007458602e-06,3.9801375739048676e-06,2.060637549690541e-05,3.717018850758893e-06,3.33598063456466e-06,2.6689597921738125e-06,4.2950196462238275e-06,1.3268427459201146e-06,1.7086349844248039e-06
316,1.1780701061457608e-06,2.027794997805427e-06,1.0369642176133676e-06,2.812633855630368e-06,3.40500683757986e-06,3.916543235453114e-06,2.028194180101769e-06,1.8083460979568533e-06,4.021729251276509e-06,2.1073818603595144e-05,3.418047485910613e-06,3.1296115770362962e-06,2.6296273842264157e-06,4.08425492372765e-06,1.3586287784408461e-06,1.7660584469459424e-06
317,1.1902832123483719e-06,1.9688900359256057e-06,1.0454841778432946e-06,2.827382720832845e-06,3.2715499843592593e-06,3.8085726590544433e-06,1.969802467598604e-06,1.78590369482741e-06,4.0518401718981955e-06,2.152570570061297e-05,3.130074763114593e-06,2.9286283004327626e-06,2.5888287455083664e-06,3.887892321277239e-06,1.3888809468226046e-06,1.821482307646412e-06
318,1.2036196897775777e-06,1.9121581012425865e-06,1.0582046988828722e-06,2.841057509869961e-06,3.141410775422027e-06,3.712447637295509e-06,1.9170898480286905e-06,1.7603913141390457e-06,4.072246372841348e-06,2.196053319504835e-05,2.8553402379192766e-06,2.7354167299697038e-06,2.5471073543628777e-06,3.7066612247404885e-06,1.4172248911045278e-06,1.8735120191303624e-06
319,1.2186651168604603e-06,1.8577716575695685e-06,1.0747622400814862e-06,2.853707738789009e-06,3.015928134471667e-06,3.6279789294226118e-06,1.8707016355538933e-06,1.732823615155233e-06,4.084481431499051e-06,2.237746464835971e-05,2.5959426508010745e-06,2.552176845852498e-06,2.5047866431478353e-06,3.5406675276178465e-06,1.4433607765113894e-06,1.9209765346773503e-06
320,1.2360292217685773e-06,1.806050747719045e-06,1.0948109147332818e-06,2.865942350338448e-06,2.8964026027561084e-06,3.554654051300364e-06,1.830959073015414e-06,1.7045529467944457e-06,4.0895407594060665e-06,2.277466402890533e-05,2.353658101768239e-06,2.380847825739271e-06,2.4620585755889372e-06,3.389624882135934e-06,1.4670979523758729e-06,1.9631187801540556e-06
321,1.2562354130200787e-06,1.7572661178224939e-06,1.118003352825099e-06,2.878741335975793e-06,2.7838985997471706e-06,3.4915657202726357e-06,1.7978303755642331e-06,1.6769311124017378e-06,4.08813814921259e-06,2.314968076367724e-05,2.129865826436022e-06,2.2231065353490593e-06,2.4191244166036007e-06,3.2530261896406547e-06,1.4884129887135104e-06,1.9996096190262586e-06
322,1.2796809802032223e-06,1.7114882223718054e-06,1.1440308445037786e-06,2.89318389406653e-06,2.6791836602331515e-06,3.4373085856821557e-06,1.7709578044378888e-06,1.6510605211369155e-06,4.081238604151675e-06,2.350007259646621e-05,1.9254936415133254e-06,2.080335274288388e-06,2.376460545443888e-06,3.1301515018873494e-06,1.5074786192485724e-06,2.0304100603529046e-06
323,1.3066142754698614e-06,1.6686087179718998e-06,1.1726492998952908e-06,2.9101804623681863e-06,2.582886735915003e-06,3.3900109153809086e-06,1.7497273895407224e-06,1.627717337465316e-06,4.070383949928991e-06,2.3823359200037294e-05,1.7410394960009737e-06,1.9535810304181656e-06,2.3349687996990416e-06,3.0199886781217226e-06,1.5245727116032704e-06,2.0556179310252494e-06
324,1.3370947720874184e-06,1.628418485504105e-06,1.2036153335113009e-06,2.9302655999818937e-06,2.4957290865313924e-06,3.3476583610581405e-06,1.7332963275566007e-06,1.6073779901870025e-06,4.057592961773569e-06,2.4117959675081115e-05,1.5766614843854963e-06,1.8435401832198563e-06,2.2957864864070845e-06,2.9213336703181933e-06,1.5399431764920111e-06,2.0754041389743065e-06
325,1.370972695441716e-06,1.5906639226585894e-06,1.2366372499000162e-06,2.953475164495055e-06,2.4186580736850223e-06,3.3086230190660175e-06,1.7206432484750814e-06,1.590246455992415e-06,4.04503566821444e-06,2.4385182220970095e-05,1.4322293098138919e-06,1.750552091019312e-06,2.259974916430411e-06,2.8331874427740507e-06,1.5537674872487697e-06,2.0899932762457603e-06
326,1.407904275899597e-06,1.5551625675837635e-06,1.2714470926907776e-06,2.9793048718355213e-06,2.3528054599100087e-06,3.2721453266927784e-06,1.710757580523636e-06,1.5762415845985333e-06,4.034781724217359e-06,2.4629778162843452e-05,1.307333103429879e-06,1.6746195627331433e-06,2.228372801065036e-06,2.7551707216709385e-06,1.5661554902722578e-06,2.099570492858636e-06
327,1.4473778645493005e-06,1.5219392978581807e-06,1.3079394367434916e-06,3.0067400167143624e-06,2.2992951407989108e-06,3.2384822348390015e-06,1.7028861150951366e-06,1.564985951133771e-06,4.028670879320518e-06,2.4858268173715468e-05,1.2013631418686739e-06,1.6155392627761345e-06,2.2015850867791845e-06,2.6876677434906325e-06,1.5771245596060239e-06,2.1041100084730334e-06
328,1.4886961221995478e-06,1.491226349379707e-06,1.3462468918097716e-06,3.0343034858592676e-06,2.259022366695258e-06,3.2085603017271528e-06,1.6966696037994754e-06,1.555854533370241e-06,4.028247267661915e-06,2.507667570179342e-05,1.1136920886185142e-06,1.5731261932335116e-06,2.179979856608287e-06,2.6317232933963744e-06,1.5866256426547758e-06,2.1032827251041166e-06
