,EMG1,EMG2,EMG3,EMG4,EMG5,EMG6,EMG7,EMG8,EMG9,EMG10,EMG11,EMG12,EMG13,EMG14,EMG15,EMG16
0,3.748905671905006e-08,4.503445773254996e-07,2.871724646168009e-07,2.3164739375407953e-07,-2.1516106573503555e-07,-3.2275051047772575e-08,1.2480268915384405e-07,2.2887580324651903e-07,3.0011856076489847e-07,3.698994440927289e-08,3.255369878948095e-07,5.070581732832557e-07,-1.5583514194061085e-07,-2.65209757705891e-07,2.5931060347945685e-08,8.07967443834791e-08
1,2.454612153221182e-07,5.349266592031652e-07,3.9178305098402134e-07,2.8133597185870437e-07,1.2653940376258548e-07,1.3752643364947037e-07,3.0413836059787996e-07,3.499071943054896e-07,4.6749359885980455e-07,2.5896713074982365e-07,3.9589615379031696e-07,9.276319439191851e-07,2.9567182575542054e-08,1.3662508415887608e-06,2.5094229633694204e-07,3.295648462916719e-07
2,4.4776876475017664e-07,6.225630012038528e-07,4.926126037792172e-07,3.3121258351928436e-07,4.550254395080076e-07,3.03997359908669e-07,4.801643948947862e-07,4.7211229857416767e-07,6.287182739516582e-07,4.760652513022216e-07,4.703919948868654e-07,1.3377636662284317e-06,2.0865330297814295e-07,2.987025492234611e-06,4.65054186927735e-07,5.665543588587464e-07
3,6.423105634400432e-07,7.121030899943152e-07,5.89221570893894e-07,3.8087390904344605e-07,7.676951826325879e-07,4.6605139478944884e-07,6.505924204976683e-07,5.932943175894691e-07,7.813199187799811e-07,6.842013447274464e-07,5.483613847226324e-07,1.7338231157328132e-06,3.7955949798600836e-07,4.588464826757918e-06,6.650063515526113e-07,7.89185823319093e-07
4,8.272630553713616e-07,8.024039640471466e-07,6.812048138487911e-07,4.2992016015903025e-07,1.0622177845059689e-06,6.228006238434802e-07,8.133215368000897e-07,7.117146962599158e-07,9.23608765346888e-07,8.803130627889618e-07,6.291263100189323e-07,2.112518894717055e-06,5.407286891583174e-07,6.1629039200953816e-06,8.479975762038558e-07,9.949988839864743e-07
5,1.001089850189146e-06,8.923140908687589e-07,7.682786305943124e-07,4.7797078264925e-07,1.3365435824175736e-06,7.735770649042361e-07,9.666394871004526e-07,8.262571152093456e-07,1.0546148331219483e-06,1.0626093416109874e-06,7.119913060995962e-07,2.4708924544161925e-06,6.90839691599071e-07,7.70353171455233e-06,1.0118529527983286e-06,1.181800118902282e-06
6,1.1624643734218242e-06,9.80749714177014e-07,8.503325300857949e-07,5.247183604023522e-07,1.5890407707710795e-06,9.178623602379428e-07,1.1094043844224532e-06,9.364063885828747e-07,1.1737948070535833e-06,1.2304570384984775e-06,7.96270723267733e-07,2.8061873593265756e-06,8.287101459580499e-07,9.205099032605032e-06,1.155113865701091e-06,1.3479205164007035e-06
7,1.310195664182817e-06,1.0668743422760669e-06,9.273451317291735e-07,5.699522047327449e-07,1.8185356442091044e-06,1.0551627701133378e-06,1.240987349094982e-06,1.0421074071440143e-06,1.2808382656902926e-06,1.3840023023632066e-06,8.813142327828403e-07,3.115606565363797e-06,9.532832666632502e-07,1.0664384207937185e-05,1.2770160092961373e-06,1.4924171451420675e-06
8,1.4432520648121792e-06,1.1502304525778024e-06,9.992457931835814e-07,6.135118967455204e-07,2.0241819771009657e-06,1.1849506952272817e-06,1.3610924234708598e-06,1.1436382177840613e-06,1.3756210866694547e-06,1.5238431418390827e-06,9.664868798479451e-07,3.396145444174141e-06,1.0637798050725774e-06,1.2079412455738735e-05,1.3774127909416414e-06,1.615081770232013e-06
9,1.5608783743760215e-06,1.2306844580893153e-06,1.0659169167701556e-06,6.552284172192328e-07,2.2054978647749117e-06,1.3067572687758637e-06,1.469715698469548e-06,1.2415090565925535e-06,1.458123035744801e-06,1.6509278109673381e-06,1.0511205293242216e-06,3.6447399684983228e-06,1.1598892683038878e-06,1.3448808854134388e-05,1.4567517906021892e-06,1.7163599677951271e-06
10,1.6626933952164627e-06,1.3082221266037954e-06,1.1273548910228235e-06,6.949104795990802e-07,2.3626479642860472e-06,1.4203476143278298e-06,1.5671776185914314e-06,1.3363188122727961e-06,1.5283962662067907e-06,1.766502050191857e-06,1.1344589586029988e-06,3.858655118298344e-06,1.2418472592665057e-06,1.477243440389309e-05,1.516088137353761e-06,1.7973378677532558e-06
11,1.7487007730579976e-06,1.382776762869991e-06,1.1837694051467483e-06,7.323523846662127e-07,2.4965535084954214e-06,1.52586519243561e-06,1.6540269304928417e-06,1.428579389812173e-06,1.5867319530251312e-06,1.871908205543694e-06,1.2156401214523349e-06,4.035850347280304e-06,1.3104538999033555e-06,1.6051839469311064e-05,1.557015456721904e-06,1.8596898917610864e-06
12,1.8192988515471162e-06,1.4542183375593718e-06,1.2354777976087631e-06,7.673239619573983e-07,2.6085960117428487e-06,1.6239018594869075e-06,1.7308770887864812e-06,1.5185898249618763e-06,1.6337923188872835e-06,1.968344511340798e-06,1.2937719796325431e-06,4.175232805327446e-06,1.3670779566376827e-06,1.728920606355685e-05,1.5814703262536418e-06,1.90541127437523e-06
13,1.8753362838966041e-06,1.5224441819046152e-06,1.2827279583065145e-06,7.995426635283235e-07,2.70015222233585e-06,1.7154732289205442e-06,1.7982830172375287e-06,1.6063903775917287e-06,1.6705004723831962e-06,2.056770247831232e-06,1.3680392613396114e-06,4.276814882253794e-06,1.4135215311774663e-06,1.848610880509778e-05,1.5914880871713893e-06,1.936483092953147e-06
14,1.918062961823963e-06,1.5874518128104112e-06,1.32562976438728e-06,8.286474966711199e-07,2.7722664927027427e-06,1.801876247830903e-06,1.8566772460262495e-06,1.691765974843895e-06,1.6978727821915406e-06,2.137937598153429e-06,1.4377110747765036e-06,4.3417347617025e-06,1.4517273385100825e-06,1.9643473386387373e-05,1.5890658373252907e-06,1.9547218247962314e-06
15,1.948881050398403e-06,1.6493604039171013e-06,1.364193711561716e-06,8.54224766640505e-07,2.8255894537050383e-06,1.8844584082917802e-06,1.9064412606163315e-06,1.7743303041244098e-06,1.7169772813058218e-06,2.212422739043151e-06,1.5020344159464939e-06,4.372127824992908e-06,1.4835337659700863e-06,2.0761520132504633e-05,1.576165394674738e-06,1.9617972104460694e-06
16,1.969065063790203e-06,1.7083838454365167e-06,1.3984017850661302e-06,8.759297837854084e-07,2.8605761035158316e-06,1.964416776677695e-06,1.9480691405344667e-06,1.8537211765291293e-06,1.7289454561275488e-06,2.280610556674116e-06,1.5601309201962887e-06,4.3709079780173336e-06,1.5106057752591356e-06,2.1838382412824517e-05,1.5546801861944966e-06,1.9592643792785126e-06
17,1.9796616089972025e-06,1.764743842441408e-06,1.4282959187947805e-06,8.936465284504065e-07,2.8778363203029166e-06,2.0427762151641787e-06,1.98219536009565e-06,1.9297399517939952e-06,1.7349165951438654e-06,2.342684179269913e-06,1.6110171228284672e-06,4.3415128450053225e-06,1.5344474811201347e-06,2.2868443045826756e-05,1.5263068233514384e-06,1.948520345261377e-06
18,1.9815975352917396e-06,1.8185918149710026e-06,1.4540774931905212e-06,9.075465278393363e-07,2.8784616570714877e-06,2.1205723692645298e-06,2.009410528288706e-06,2.0022452583929743e-06,1.7359229142141537e-06,2.3986654318201736e-06,1.6537733278066444e-06,4.287617113256273e-06,1.5563945567973754e-06,2.3841788007640684e-05,1.4924800160358003e-06,1.9307389022686868e-06
19,1.9758627013196577e-06,1.8700882395712703e-06,1.4761603850719437e-06,9.179984509998825e-07,2.8640957846169582e-06,2.199053934399952e-06,2.0300953927269775e-06,2.0708901921316128e-06,1.7328397346458689e-06,2.4484758167652992e-06,1.6877810337264134e-06,4.212795432058789e-06,1.5775891982689668e-06,2.4744731748344758e-05,1.4544588991551812e-06,1.9069157058579171e-06
20,1.963577184538975e-06,1.91962542249215e-06,1.4951202839705088e-06,9.254501988772833e-07,2.8366726326309702e-06,2.2796664899581415e-06,2.0445024108249234e-06,2.1349409592589927e-06,1.7264408033329312e-06,2.4919815949826564e-06,1.7128735410561485e-06,4.120239592738919e-06,1.5989610552893023e-06,2.5560786975758292e-05,1.4134601320765912e-06,1.8779823996600124e-06
21,1.9459255937810595e-06,1.9679433351611057e-06,1.5115530796506395e-06,9.303754473936089e-07,2.798204507385483e-06,2.363804234248626e-06,2.0529776320558362e-06,2.1932917572530853e-06,1.7174144615521282e-06,2.5291438801456617e-06,1.7293073248515574e-06,4.012692530497431e-06,1.6212498572282207e-06,2.6271706192264788e-05,1.3706812950736132e-06,1.8448246889505896e-06
22,1.924169708986636e-06,2.0159689469422658e-06,1.525935371639294e-06,9.332585140870095e-07,2.7509349691163212e-06,2.4525535008603423e-06,2.0560400917817476e-06,2.2446379278942242e-06,1.7062871340117894e-06,2.5603013886490816e-06,1.7376405718361342e-06,3.8925326779631996e-06,1.6450448460268348e-06,2.68586699163183e-05,1.3271973234890253e-06,1.8082315557591896e-06
23,1.8997837480684343e-06,2.0645288879249906e-06,1.5385990372553474e-06,9.346220215005001e-07,2.6974917766299395e-06,2.546578611896207e-06,2.0543174245063598e-06,2.287684594442022e-06,1.6934133056231615e-06,2.5862717774862055e-06,1.7386183207271718e-06,3.761852070829064e-06,1.6707622608417266e-06,2.730413153742495e-05,1.283853791212113e-06,1.7689459015711984e-06
24,1.8744602450049559e-06,2.1142145359503438e-06,1.549803470684408e-06,9.350682283532992e-07,2.6406630253066386e-06,2.64610715790531e-06,2.048594481297685e-06,2.3212435753252514e-06,1.6791309168050943e-06,2.608110398146437e-06,1.7330376722451367e-06,3.622549964212681e-06,1.6986424812773569e-06,2.7594399103801125e-05,1.2412355016053645e-06,1.727790261485478e-06
25,1.8498851156445423e-06,2.165484065464708e-06,1.559753954264448e-06,9.352476698272604e-07,2.583034846697316e-06,2.750951409357757e-06,2.03996299935044e-06,2.3441695498127827e-06,1.6639764177337548e-06,2.626752974866326e-06,1.7216141666948466e-06,3.476484390319089e-06,1.7288883332628343e-06,2.772172512070867e-05,1.1996781250949806e-06,1.685670809703001e-06
26,1.8274955247201992e-06,2.2188233626096046e-06,1.5685148645869045e-06,9.357994097267566e-07,2.5268550272282927e-06,2.8605126194634364e-06,2.0297699240472125e-06,2.355280365689718e-06,1.6487519900468963e-06,2.6427599475601603e-06,1.7049666692509577e-06,3.325614418675383e-06,1.7618059658246774e-06,2.76841556933996e-05,1.1592874353791236e-06,1.6434323972614824e-06
27,1.8084030192140388e-06,2.2747308943381983e-06,1.5759308905147593e-06,9.373378597214979e-07,2.474135325910329e-06,2.9737615277541262e-06,2.01931821923784e-06,2.353486902205367e-06,1.6343709971462842e-06,2.6562067711178525e-06,1.6837087396862673e-06,3.1720729393305104e-06,1.7977642977569742e-06,2.7482632780131938e-05,1.119995153657458e-06,1.6017530285381149e-06
28,1.7934314332595259e-06,2.3335078465273086e-06,1.5816708775154057e-06,9.404292441643753e-07,2.4267637761960023e-06,3.0893690083188904e-06,2.0095996051396426e-06,2.3381636689247273e-06,1.621670785783621e-06,2.666672784227171e-06,1.6585131610605301e-06,3.018174384350299e-06,1.8371146872146193e-06,2.7117141029116528e-05,1.0816864168742068e-06,1.5611818077608375e-06
29,1.7831382415647584e-06,2.3950684575650544e-06,1.5853994927376636e-06,9.455255677287327e-07,2.3864717835587264e-06,3.2061198977226133e-06,2.001268730882703e-06,2.309477278298831e-06,1.6113519865080957e-06,2.6733005460768703e-06,1.6301104329641613e-06,2.8663703698779503e-06,1.8802551140878196e-06,2.6585318831538065e-05,1.0443337366789129e-06,1.522197638143574e-06
30,1.7777899931179823e-06,2.4589155066739998e-06,1.5869237387671507e-06,9.52924724857954e-07,2.3547631908639994e-06,3.3233961863875063e-06,1.994825333727878e-06,2.268341333583046e-06,1.6039803843343326e-06,2.674976526763815e-06,1.5992631855629182e-06,2.719123292680162e-06,1.9276797071893868e-06,2.5885387611677266e-05,1.0080444647933614e-06,1.485199113344063e-06
31,1.7773419535529939e-06,2.524181985960253e-06,1.5861563253661647e-06,9.627758310317813e-07,2.3329240695407692e-06,3.441386039104921e-06,1.990804486024062e-06,2.216069575867866e-06,1.6000059011838365e-06,2.6706577435360887e-06,1.5667112434609424e-06,2.5786959284746896e-06,1.9798584813657386e-06,2.5021322158604518e-05,9.730374195736867e-07,1.450522529356355e-06
32,1.7814562596343174e-06,2.589615717550711e-06,1.5829944436341212e-06,9.750779401198526e-07,2.3220111743786776e-06,3.560923751605574e-06,1.989782462778964e-06,2.154170498861993e-06,1.5998030168932372e-06,2.6597592500375673e-06,1.5330676301270997e-06,2.4469780114310335e-06,2.0370947340865737e-06,2.4006427128035286e-05,9.39587438620022e-07,1.418507064437123e-06
33,1.7895614969453924e-06,2.653593607872643e-06,1.5773423816512436e-06,9.896732195324008e-07,2.3227771361251357e-06,3.683094160834716e-06,1.9921927682556047e-06,2.084436248111216e-06,1.6036565228500033e-06,2.6424368223449625e-06,1.498737878898838e-06,2.325439195992949e-06,2.0994915185725777e-06,2.286311843072212e-05,9.079584827203377e-07,1.3894748292033881e-06
34,1.8009229116412916e-06,2.7143249701465474e-06,1.5692892067513544e-06,1.0062731577915454e-06,2.335658579714378e-06,3.808803679730516e-06,1.998118435844493e-06,2.009010151328613e-06,1.6116930096003089e-06,2.619630612854355e-06,1.4639705904269418e-06,2.215129075747138e-06,2.1669779731601678e-06,2.1619449622363132e-05,8.783560435343018e-07,1.3636200667951722e-06
35,1.8146931473622512e-06,2.7702103996274726e-06,1.559244332558535e-06,1.0244923952708309e-06,2.360884451970883e-06,3.938594256770088e-06,2.0072217418797407e-06,1.9302514906235865e-06,1.6238715730108142e-06,2.5929062654826393e-06,1.4290031926318012e-06,2.116673426406129e-06,2.2393437137305286e-06,2.0304764044691133e-05,8.50881067381878e-07,1.3409325051542744e-06
36,1.8299619444432552e-06,2.820141331970651e-06,1.5478795173607475e-06,1.0438515220810005e-06,2.398596128537014e-06,4.072856132872237e-06,2.0188838360431005e-06,1.8505316388739814e-06,1.6400711559344671e-06,2.564193675499622e-06,1.3941487868372146e-06,2.03031731035881e-06,2.316262830659918e-06,1.8946621097632328e-05,8.254862470111376e-07,1.3212132929766922e-06
37,1.8458472308344905e-06,2.863537983032305e-06,1.5359066241688783e-06,1.0637969444435598e-06,2.448815972763289e-06,4.2121729543916986e-06,2.0324946107686093e-06,1.7720686444755689e-06,1.6602207989984607e-06,2.53545833870646e-06,1.3597771807409117e-06,1.9560173000473962e-06,2.397299437407331e-06,1.756947802695162e-05,8.019846399315771e-07,1.3041948344410279e-06
38,1.861634959429683e-06,2.9000941537104013e-06,1.5238577942209233e-06,1.0838112400095325e-06,2.5112783541677774e-06,4.357376026565379e-06,2.0476419037845682e-06,1.6968068969228596e-06,1.6844085376912497e-06,2.5084248266891973e-06,1.3262862300241505e-06,1.8935406944321932e-06,2.4819713532199824e-06,1.6194371373216502e-05,7.801229484514322e-07,1.2897289886674575e-06
39,1.8768965622560542e-06,2.9294599492020516e-06,1.5119990962905922e-06,1.1035571185824245e-06,2.5853221542713785e-06,4.509241472513449e-06,2.064022192107799e-06,1.6263574751551993e-06,1.7128940303683006e-06,2.484463558473119e-06,1.2941079979681647e-06,1.8425173071449313e-06,2.5699452948555655e-06,1.4838945579116673e-05,7.596793119152018e-07,1.2779070477971238e-06
40,1.8915046081105315e-06,2.951173170424835e-06,1.5003908100549216e-06,1.1229028432072513e-06,2.669984098329965e-06,4.66813547476452e-06,2.0812925420358377e-06,1.5620153104606655e-06,1.7459885082239239e-06,2.4645558483130105e-06,1.2636813291086265e-06,1.8023952333835925e-06,2.6612001362659934e-06,1.3517814848418122e-05,7.405087004028433e-07,1.2690167798393123e-06
41,1.9055599602617455e-06,2.9648438654193166e-06,1.4890285574298724e-06,1.1418355033763149e-06,2.76426825778816e-06,4.833868247007162e-06,2.099147569787295e-06,1.504807393138249e-06,1.7838874211932552e-06,2.4492656013417296e-06,1.2353607878781004e-06,1.7723643531553411e-06,2.7559409411397485e-06,1.2243160661894094e-05,7.225270117887434e-07,1.2633868148019878e-06
42,1.9192642720585664e-06,2.9703283525637433e-06,1.4779292970608756e-06,1.1604368985418164e-06,2.8674476848676536e-06,5.00568423901137e-06,2.11751980246407e-06,1.4554959180175462e-06,1.8265590588477435e-06,2.438746413020421e-06,1.2093302303050138e-06,1.751396037944558e-06,2.8544185537980626e-06,1.1025093700534818e-05,7.056880929798131e-07,1.261228895105606e-06
43,1.9327418191932848e-06,2.967755372062368e-06,1.4670690162431844e-06,1.1789484591691571e-06,2.979219958483521e-06,5.182302842196737e-06,2.136667448634984e-06,1.4145476881183652e-06,1.8736919019438945e-06,2.4327895663181836e-06,1.1855700596220771e-06,1.7384038648197777e-06,2.9568645266630793e-06,9.871723417129993e-06,6.899349338280152e-07,1.2625686658696343e-06
44,1.9458960070465338e-06,2.9574722353948777e-06,1.4562625875180007e-06,1.1977637915258428e-06,3.099633004654036e-06,5.362293404121123e-06,2.157106486702782e-06,1.382146056341309e-06,1.9246868989032184e-06,2.430903044609422e-06,1.1638610157992837e-06,1.7323454439474268e-06,3.0634258761071984e-06,8.789329452986429e-06,6.751480735463342e-07,1.267284015375511e-06
45,1.958403251563174e-06,2.940008246064795e-06,1.445180249244368e-06,1.2173036205905778e-06,3.228860922809627e-06,5.544869730149545e-06,2.179434764221325e-06,1.3582677047694061e-06,1.9786841344266234e-06,2.432375037839194e-06,1.143837806476176e-06,1.7321813822273971e-06,3.174095200239976e-06,7.782681520230217e-06,6.611902201345915e-07,1.2751993951524773e-06
46,1.9697717490968376e-06,2.9160988826783924e-06,1.4335707230843045e-06,1.237912495168298e-06,3.3669900943978962e-06,5.730453798038257e-06,2.2041242127918466e-06,1.3427614193212807e-06,2.0346180440726316e-06,2.4362674477463254e-06,1.125123146900624e-06,1.7368226204292536e-06,3.2888197882402655e-06,6.855255232013627e-06,6.480255281171021e-07,1.2861903554018251e-06
47,1.9793310683931146e-06,2.886713181988598e-06,1.4215094486163857e-06,1.2598586295093173e-06,3.513904820129244e-06,5.920454167728459e-06,2.231418256103218e-06,1.3353486440596472e-06,2.0913320103369146e-06,2.4414484354952065e-06,1.1074607489809915e-06,1.7451932687335392e-06,3.407705925841078e-06,6.009293443637656e-06,6.358071364191613e-07,1.300239144191723e-06
48,1.9862011960848213e-06,2.8529507917073267e-06,1.4094239837828408e-06,1.2833496785192262e-06,3.6692417980932073e-06,6.116550372086956e-06,2.2613791077281885e-06,1.335574506140186e-06,2.147685044491308e-06,2.4467738962229117e-06,1.090720263473643e-06,1.7563268566699135e-06,3.531038478667029e-06,5.245807416365022e-06,6.248773534507954e-07,1.317382685142722e-06
49,1.9893955029205846e-06,2.815823155290487e-06,1.3978859394263442e-06,1.3084800498643552e-06,3.832325296767554e-06,6.320002519125148e-06,2.2939692940593124e-06,1.3428240017981469e-06,2.2025866155553658e-06,2.4512494020730564e-06,1.0747806521696528e-06,1.7693453747472239e-06,3.6590236957467338e-06,4.564611322394472e-06,6.15681734174627e-07,1.3376555536167954e-06
50,1.9880498292652984e-06,2.7761310372309e-06,1.3873881983757544e-06,1.3351666712542355e-06,4.002098906950685e-06,6.531139255902163e-06,2.3290705323111716e-06,1.356452993696048e-06,2.2550100369316253e-06,2.4540227005853102e-06,1.0594386405874844e-06,1.7834129617037074e-06,3.7914188577832864e-06,3.964453405891288e-06,6.086641019789368e-07,1.3611413103755328e-06
51,1.9815995720857074e-06,2.7344906462440755e-06,1.3782688058022908e-06,1.3631935688801616e-06,4.1772843918353325e-06,6.7490846175938335e-06,2.3664494693435177e-06,1.3759509433028821e-06,2.30393611784927e-06,2.454329547627354e-06,1.0444789252081984e-06,1.7978421070917721e-06,3.9272657489835614e-06,3.4431860346524876e-06,6.042064821306448e-07,1.388013216455043e-06
52,1.9698108505328557e-06,2.6913122735842464e-06,1.3707388916009343e-06,1.392375882906389e-06,4.356809911673657e-06,6.971802707705847e-06,2.405747474806205e-06,1.4009802548268307e-06,2.3482396368372205e-06,2.451506048458119e-06,1.0298575780391333e-06,1.8122523467851224e-06,4.06484851125577e-06,2.997931110717135e-06,6.025931456801067e-07,1.4184676537360705e-06
53,1.952752860541472e-06,2.646690160804382e-06,1.3649121454327432e-06,1.4226735305132914e-06,4.5400236233883675e-06,7.196321112462174e-06,2.4465997996914434e-06,1.4312619761156673e-06,2.386703958011575e-06,2.445039890565931e-06,1.0157965100904266e-06,1.8265969000739974e-06,4.201871784142589e-06,2.6253063517676595e-06,6.039789611164802e-07,1.452631257605934e-06
54,1.9308099714281723e-06,2.600417482638782e-06,1.3608253823727465e-06,1.4541456879745072e-06,4.726324852042641e-06,7.418921877035062e-06,2.4888669000028102e-06,1.46644131027164e-06,2.418174284190431e-06,2.4346357978728104e-06,1.0027026936037501e-06,1.8410895052968196e-06,4.335695775278165e-06,2.3217232295757978e-06,6.083811846352561e-07,1.4904787707741504e-06
55,1.9046943296571813e-06,2.552225164353973e-06,1.3584589325795998e-06,1.4869060674096876e-06,4.91453500328416e-06,7.635270877047427e-06,2.5327351888707953e-06,1.5060067441709386e-06,2.441715044351176e-06,2.420272667123124e-06,9.910337433727005e-07,1.8561266811371336e-06,4.463388500766982e-06,2.0837086684731286e-06,6.157005940161951e-07,1.5317592058895864e-06
56,1.8753400199630005e-06,2.502058746330551e-06,1.3577247173250488e-06,1.5211916998380322e-06,5.1025075923912355e-06,7.84054186553667e-06,2.5785035570532204e-06,1.5492253863851443e-06,2.456716908389843e-06,2.40218932605313e-06,9.812213102580893e-07,1.8721909956822995e-06,4.581592003226257e-06,1.9081667294827826e-06,6.257565630792446e-07,1.5759913963514074e-06
57,1.8436879575607808e-06,2.450155386828531e-06,1.3584754361959516e-06,1.5573794969569218e-06,5.2870641348991385e-06,8.02954812234841e-06,2.626238605485009e-06,1.595096499414157e-06,2.462940940972372e-06,2.380784761583597e-06,9.736223665314995e-07,1.889717997394641e-06,4.686547072940333e-06,1.792428481867293e-06,6.383105167369172e-07,1.6225176494496257e-06
58,1.8105621485503126e-06,2.396875220365199e-06,1.3606121415594075e-06,1.5958668432764967e-06,5.464133684666027e-06,8.196939685059081e-06,2.6755898838373345e-06,1.6423553719566165e-06,2.460505286955518e-06,2.356483925829015e-06,9.684517120510846e-07,1.908993050306224e-06,4.774558684704727e-06,1.7341112483925352e-06,6.530877166885289e-07,1.6705084407587578e-06
59,1.7767619445056364e-06,2.3424839537523585e-06,1.3642053008216706e-06,1.6369778401066555e-06,5.629125599369317e-06,8.33760781244271e-06,2.7258166177131694e-06,1.6895053252558925e-06,2.449789354673681e-06,2.329588583167884e-06,9.657352004860107e-07,1.9301070605977886e-06,4.842777904380445e-06,1.7311203892751326e-06,6.698130129418748e-07,1.7189162816546926e-06
60,1.7432266797256775e-06,2.287125344514132e-06,1.3695114863593617e-06,1.6809624214625336e-06,5.777584945379322e-06,8.447307188235057e-06,2.7759049548033984e-06,1.7348666540846237e-06,2.431236115054082e-06,2.300122567223623e-06,9.653423976159556e-07,1.9529080001449042e-06,4.889906144836853e-06,1.782028559867334e-06,6.882105212426187e-07,1.7664511638799933e-06
61,1.711048919127764e-06,2.2309472246902364e-06,1.3768832535969954e-06,1.7279893460930998e-06,5.905937594114297e-06,8.523204027546913e-06,2.824665506184885e-06,1.7766810424660654e-06,2.405264715460639e-06,2.2677669055019994e-06,9.670824716436574e-07,1.97695795311013e-06,4.91641748543774e-06,1.886567662258232e-06,7.079442109646118e-07,1.8115968657941505e-06
62,1.681291204104621e-06,2.174138951220053e-06,1.386635854836575e-06,1.7781371535682295e-06,6.01194262847726e-06,8.563924661997838e-06,2.8708122611119972e-06,1.813286394322789e-06,2.3724864123332964e-06,2.23199115253764e-06,9.707858131427466e-07,2.001599522419155e-06,4.924134274780731e-06,2.045760406025081e-06,7.285766269087422e-07,1.8527254462444923e-06
63,1.6547839602439083e-06,2.1168198140460963e-06,1.3989500545106185e-06,1.8314599352842268e-06,6.0945378891011005e-06,8.568878229221314e-06,2.913018590882418e-06,1.843335051944044e-06,2.333936959964806e-06,2.1923280461859314e-06,9.763260200366234e-07,2.0261286147084374e-06,4.915401642059454e-06,2.2615669432606093e-06,7.496280439276255e-07,1.8883501951275668e-06
64,1.6320766983195163e-06,2.0589721910847297e-06,1.4138336358381716e-06,1.8880417668630995e-06,6.153118035037072e-06,8.537192690549661e-06,2.9498708294145183e-06,1.8660235408826402e-06,2.2909617874033433e-06,2.1485981749465564e-06,9.835944494327282e-07,2.0499574128404116e-06,4.892314675317017e-06,2.536337871382879e-06,7.707023799426693e-07,1.9174051572258326e-06
65,1.6134833922267482e-06,2.0005735571854533e-06,1.4311168268078196e-06,1.947918714941789e-06,6.186770713199284e-06,8.4672255513757e-06,2.9798490493126697e-06,1.8812834958170622e-06,2.2448857840618376e-06,2.1009430442123227e-06,9.92458775091676e-07,2.0727124102675087e-06,4.85631308743193e-06,2.872482263276679e-06,7.915586869446179e-07,1.9394130944434534e-06
66,1.599086306311438e-06,1.941832608861017e-06,1.450489435809802e-06,2.0109854878825498e-06,6.194079898836433e-06,8.357250976101685e-06,3.0015716767286774e-06,1.88982856524285e-06,2.1968119190605552e-06,2.0497116225272933e-06,1.0027386254383577e-06,2.0942756302833477e-06,4.808203829886407e-06,3.272506162372901e-06,8.121140022517785e-07,1.954471274956309e-06
67,1.588727524138479e-06,1.8833023397632783e-06,1.4715650432653326e-06,2.077033172688624e-06,6.173547201504237e-06,8.206716319562876e-06,3.01417452822519e-06,1.8929586214922458e-06,2.1476695972003465e-06,1.995385457887444e-06,1.0141925858358043e-06,2.1147550748422023e-06,4.7483974470873315e-06,3.739115246563759e-06,8.324373932599569e-07,1.9630278014817958e-06
68,1.5820867952855976e-06,1.8257709892234446e-06,1.493919653165449e-06,2.1457898297109123e-06,6.124209610380571e-06,8.017077773099548e-06,3.0174902626140306e-06,1.892174584358784e-06,2.0983609764013365e-06,1.9386492364996248e-06,1.0264903370328653e-06,2.134394247929962e-06,4.677083348882677e-06,4.275052411179668e-06,8.526887223681597e-07,1.965541109694192e-06
69,1.5788230003422939e-06,1.7700360843170351e-06,1.5171211594280877e-06,2.216817562031483e-06,6.046152980518424e-06,7.79188870377695e-06,3.011921777134116e-06,1.8888125133637714e-06,2.0497740054663106e-06,1.8804880958817631e-06,1.0391873884899056e-06,2.15349303380887e-06,4.594433342539266e-06,4.882794688763244e-06,8.729904462564856e-07,1.96224003705401e-06
70,1.5786587957858246e-06,1.716739904570449e-06,1.54079311756876e-06,2.289364625320436e-06,5.9408418864297265e-06,7.536404132076328e-06,2.9981357181654144e-06,1.8838466682571964e-06,2.002673985207504e-06,1.8221390412613136e-06,1.0517356877342664e-06,2.17241045660916e-06,4.501040524721478e-06,5.564313448263553e-06,8.93338258335768e-07,1.9531429251051343e-06
71,1.5813472679735249e-06,1.6663514760852092e-06,1.5646511635247943e-06,2.36230531327409e-06,5.8111661883711335e-06,7.257044743046815e-06,2.9767985176304014e-06,1.8778493872963516e-06,1.957617424792106e-06,1.7649181693755136e-06,1.0635758778963215e-06,2.191616460159181e-06,4.3983277055838606e-06,6.32084621621596e-06,9.135955727545593e-07,1.9382563398529603e-06
72,1.5866257244624375e-06,1.619222391430302e-06,1.588434608871993e-06,2.4342076736992974e-06,5.661126102907625e-06,6.960843766059514e-06,2.9485326186988417e-06,1.8710823847929927e-06,1.914880392165568e-06,1.7101380671728198e-06,1.0742892457324996e-06,2.2116659991142253e-06,4.288517869882927e-06,7.1526639093628625e-06,9.335525433170711e-07,1.917698137696913e-06
73,1.5943046897803144e-06,1.5756362458250659e-06,1.6117999233348597e-06,2.503521739277948e-06,5.4952979445982355e-06,6.654862750749988e-06,2.9140548176465712e-06,1.8637216379797116e-06,1.874407116293701e-06,1.659256026458584e-06,1.083647135296028e-06,2.233123047621211e-06,4.174227739371576e-06,8.058937077386192e-06,9.530269445661267e-07,1.891646779061372e-06
74,1.6044122798020263e-06,1.5358642857451331e-06,1.6342767192330644e-06,2.5687760359035396e-06,5.318358457655743e-06,6.345629845041021e-06,2.87427701231607e-06,1.8560832200612314e-06,1.835886068406742e-06,1.6140407802348154e-06,1.0915205662565418e-06,2.256595438330775e-06,4.057992525605029e-06,9.03774258967616e-06,9.719301054176739e-07,1.8603126565421665e-06
75,1.6171593076947676e-06,1.500180398033431e-06,1.6552529517323582e-06,2.6286454832986257e-06,5.134759498053869e-06,6.038700190911434e-06,2.8302237552269903e-06,1.8486372117759982e-06,1.7990036341979915e-06,1.5764664965174443e-06,1.0978035095415512e-06,2.2827947465417896e-06,3.9419431746083116e-06,1.0086189937073835e-05,9.902604365184302e-07,1.8240716652007591e-06
76,1.6327142757552807e-06,1.4687754625927676e-06,1.6739463566161413e-06,2.681855061523468e-06,4.948423172113309e-06,5.738397071195249e-06,2.782847468239692e-06,1.8418151358072872e-06,1.7637424478337981e-06,1.54847419450927e-06,1.1024056738046419e-06,2.312425447190335e-06,3.827808047873572e-06,1.1200631075900578e-05,1.0081067390009666e-06,1.7835679364872503e-06
77,1.651000102292121e-06,1.4416891396575214e-06,1.6894664080985497e-06,2.727034858994477e-06,4.762433982003917e-06,5.447748969478862e-06,2.73288866293644e-06,1.8358248122982482e-06,1.7304597602700527e-06,1.5319280883715037e-06,1.1052733697336238e-06,2.3459744802998952e-06,3.717157872845245e-06,1.2376871722748334e-05,1.0256742153357354e-06,1.7395856907331172e-06
78,1.6716248035220604e-06,1.4188633136867704e-06,1.7010478400912862e-06,2.7627896153605008e-06,4.578913581197483e-06,5.168577568573928e-06,2.6807983777013155e-06,1.8305801333051526e-06,1.6997143219959021e-06,1.528768669208791e-06,1.1064338935578054e-06,2.3835654320499914e-06,3.611486913488123e-06,1.3610226112417147e-05,1.0432421941283068e-06,1.6928495156541204e-06
79,1.6938928233611809e-06,1.4002044573096254e-06,1.7083157770067879e-06,2.7880728975968273e-06,4.399184093501443e-06,4.901666564744654e-06,2.6267227586148836e-06,1.8256907138935376e-06,1.6721177509463754e-06,1.5411266000550183e-06,1.1060513726995009e-06,2.4249139032452846e-06,3.511955053106896e-06,1.4895289660553104e-05,1.0610685588387671e-06,1.643977087499659e-06
80,1.716847122539754e-06,1.3855566487814463e-06,1.7113713141468306e-06,2.8025720506506506e-06,4.224070231467719e-06,4.646991789833432e-06,2.5706513539387584e-06,1.8204953845769446e-06,1.6483316280439082e-06,1.5712511329408894e-06,1.1044448740345372e-06,2.4693370276796067e-06,3.419089033979615e-06,1.6225494287165307e-05,1.0793415388361281e-06,1.5935154246613143e-06
81,1.7393705825495432e-06,1.3746919563917112e-06,1.7106733177409631e-06,2.8067746214194127e-06,4.0541209103723046e-06,4.404007182694935e-06,2.5127234138051385e-06,1.8141987109941023e-06,1.6290531676391772e-06,1.6213352010851287e-06,1.10202228403291e-06,2.515743225168014e-06,3.3327614905460126e-06,1.7592543632277954e-05,1.0981878552955067e-06,1.5419140432769953e-06
82,1.7603543911882255e-06,1.367403962007236e-06,1.7068731856863893e-06,2.8016805209709927e-06,3.8897043158173824e-06,4.17194085839706e-06,2.453467140122445e-06,1.806081798798162e-06,1.614910814470664e-06,1.6934068970154368e-06,1.0991501393188453e-06,2.5626356679210816e-06,3.252489300170504e-06,1.898569181531202e-05,1.117683187436797e-06,1.4894760547571764e-06
83,1.7788727573612437e-06,1.3635952445635912e-06,1.7006944329812036e-06,2.7883512237892277e-06,3.731048326979407e-06,3.950041002475806e-06,2.393755078962658e-06,1.7956122809628968e-06,1.6063823881257794e-06,1.7893214265913732e-06,1.0960657318369264e-06,2.6082591318267446e-06,3.1778634081357514e-06,2.039107464084437e-05,1.1378715710829576e-06,1.4363704463143683e-06
84,1.7943076543247231e-06,1.3632446505634555e-06,1.692793364049257e-06,2.7675369527940345e-06,3.5782181833640517e-06,3.7377397857459858e-06,2.33449422605239e-06,1.7823534121069149e-06,1.6038025861841831e-06,1.910857561004397e-06,1.092887897393518e-06,2.6508643131764115e-06,3.1088244849333546e-06,2.1791660890531417e-05,1.1588006550762967e-06,1.3826752160605821e-06
85,1.806387148886282e-06,1.3662847090521652e-06,1.6836091798947501e-06,2.7395493925442964e-06,3.4310071516329213e-06,3.5347580269563485e-06,2.2763213932870884e-06,1.7658599260316517e-06,1.6073846884884598e-06,2.059921307615778e-06,1.089637797327686e-06,2.6889154287809752e-06,3.045622484252936e-06,2.3168045328490377e-05,1.1805523287275465e-06,1.3284221734411753e-06
86,1.815127132556492e-06,1.3725001736970089e-06,1.673363984982486e-06,2.7043828698293083e-06,3.288866974504224e-06,3.3411944968187906e-06,2.219555981971438e-06,1.7457566608098613e-06,1.6172006739305205e-06,2.2386378888146554e-06,1.0861906040905682e-06,2.7211679330658445e-06,2.9885365082831476e-06,2.4499708578189837e-05,1.2032750980889021e-06,1.2736409618868266e-06
87,1.8207269896291208e-06,1.3815282469791125e-06,1.6622559421098235e-06,2.6619404776577965e-06,3.1510375715279993e-06,3.157568452500029e-06,2.1643368260029885e-06,1.721838750923878e-06,1.6331410706843014e-06,2.4491638502876026e-06,1.0822129013760762e-06,2.7466597476881555e-06,2.9375556575809062e-06,2.576629174156647e-05,1.2271667038572879e-06,1.218409277342065e-06
88,1.8234657746886938e-06,1.3929307739793841e-06,1.6506444786217818e-06,2.612225134004944e-06,3.016852659924862e-06,2.984685539543307e-06,2.1106997138752274e-06,1.6939993854078345e-06,1.6548846339523e-06,2.6934397189791233e-06,1.0771733748546918e-06,2.76465836956935e-06,2.8921905300538e-06,2.694856033851208e-05,1.2523722519100512e-06,1.1629682061011813e-06
89,1.8235758410965665e-06,1.4062413291141604e-06,1.6390391600068473e-06,2.555457026706993e-06,2.8860637401628132e-06,2.8233128376904365e-06,2.0585641884299435e-06,1.6621487788622192e-06,1.681916007577725e-06,2.9731002763039973e-06,1.0704440815675261e-06,2.774616263221115e-06,2.851482440169596e-06,2.8028869869015235e-05,1.2788970995498022e-06,1.1078532957163657e-06
90,1.821093589957124e-06,1.4209305294683282e-06,1.6279738837501327e-06,2.492132163355115e-06,2.7590533356832496e-06,2.6739243437494952e-06,2.007798265772645e-06,1.626278711438669e-06,1.7135847054945142e-06,3.2894523507398305e-06,1.0614563972389336e-06,2.776173372906224e-06,2.8141721000988573e-06,2.8991321102459947e-05,1.3066122425499756e-06,1.0538907304035426e-06
91,1.8157833236455384e-06,1.4363284862871142e-06,1.6179596574579504e-06,2.4230090710370152e-06,2.6368255409931997e-06,2.5366886381774948e-06,1.9584248796010426e-06,1.5865276718972852e-06,1.7491128230677732e-06,3.643474369297476e-06,1.0498629302358956e-06,2.769183099445918e-06,2.7789321122088396e-06,2.9822038066520002e-05,1.3353056694341928e-06,1.00205525291651e-06
92,1.8072157837161412e-06,1.4516127771054724e-06,1.6095076551908172e-06,2.34901134358662e-06,2.5207126684756514e-06,2.411525774568146e-06,1.910811566761237e-06,1.5431680552586186e-06,1.787549317094032e-06,4.035957728858554e-06,1.035647734528332e-06,2.7537483795524673e-06,2.7445805928642843e-06,3.05096423844141e-05,1.3646889452374499e-06,9.533067531213723e-07
93,1.794983072876099e-06,1.4659080660421141e-06,1.6031073343236382e-06,2.2711275260312228e-06,2.4119767834244047e-06,2.298092381342354e-06,1.8656421755034122e-06,1.496631323889784e-06,1.827832119881082e-06,4.467678759996137e-06,1.019139271184925e-06,2.730258839483203e-06,2.710180093631177e-06,3.104533123635026e-05,1.3943634235100717e-06,9.084820590166263e-07
94,1.7789605366201224e-06,1.4784170904003775e-06,1.5991667190780496e-06,2.190414575724148e-06,2.3115845925916737e-06,2.195759479066903e-06,1.8236716407719916e-06,1.4475727128206759e-06,1.8690205730245608e-06,4.939278785470547e-06,1.0009255630824062e-06,2.699323828809246e-06,2.6749139632395536e-06,3.142161123818567e-05,1.4238518124708872e-06,8.6824934694332e-07
95,1.759443239835377e-06,1.4885060373067714e-06,1.5979507505031533e-06,2.1080618719875316e-06,2.220199623559421e-06,2.103681157286014e-06,1.785478606108341e-06,1.3968369006981408e-06,1.9104771202101236e-06,5.450853874400948e-06,9.817052132751002e-07,2.6615574761707004e-06,2.637837885631036e-06,3.162966566429868e-05,1.4526845805681415e-06,8.330979555936711e-07
96,1.7370356042065484e-06,1.4957631016218537e-06,1.5995022426531268e-06,2.025370935923237e-06,2.1382774861802e-06,2.0210042183196097e-06,1.7513811774391219e-06,1.3453151407992736e-06,1.9518046937564776e-06,6.0015831923360835e-06,9.621302819269748e-07,2.6174475607151023e-06,2.5977938636701786e-06,3.165755080462617e-05,1.4804120526814547e-06,8.033537042466138e-07
97,1.7124838269806798e-06,1.5000611880043807e-06,1.6035728586384403e-06,1.9436197082684275e-06,2.0661618368060144e-06,1.9471007774641746e-06,1.7214634939106466e-06,1.2938394748371858e-06,1.9927616097162915e-06,6.5895948070402695e-06,9.427029979127294e-07,2.5675189908053242e-06,2.553564363874706e-06,3.149177830987579e-05,1.5065828062644682e-06,7.792123205540894e-07
98,1.6866983379391638e-06,1.5015811525310293e-06,1.6096106775258828e-06,1.8639144687146614e-06,2.004085803702391e-06,1.8816072107016465e-06,1.695619245930326e-06,1.2431563575789582e-06,2.033368028807218e-06,7.2120322392376405e-06,9.237480866014071e-07,2.512649367405952e-06,2.504103904100736e-06,3.1122170184461004e-05,1.5308448211331573e-06,7.607573346012522e-07
99,1.6608170973909086e-06,1.5007322560702277e-06,1.61682807762682e-06,1.7871001145103081e-06,1.9520900131707762e-06,1.8242516357987403e-06,1.6736313438165097e-06,1.1938946071449622e-06,2.0739438537856623e-06,7.865092762276107e-06,9.054325934651251e-07,2.454258043930851e-06,2.448774647480741e-06,3.054760990749117e-05,1.5531201081472822e-06,7.479630214009694e-07
100,1.6360670120185287e-06,1.4979821942431938e-06,1.6243754947339887e-06,1.7137305899732827e-06,1.9099676212782894e-06,1.7746613726842455e-06,1.6552917406508954e-06,1.1465269918388916e-06,2.1149512603314714e-06,8.543810097276992e-06,8.877912671684915e-07,2.3942108094239743e-06,2.3875549413885265e-06,2.9779756355663624e-05,1.5736306927463546e-06,7.407093667446988e-07
101,1.6135412776399808e-06,1.493679849946718e-06,1.6315756152136792e-06,1.6441046549874117e-06,1.8772912481544594e-06,1.7322847867372789e-06,1.64051925209422e-06,1.1014135625950718e-06,2.1569296110671778e-06,9.241696881494522e-06,8.707331782180852e-07,2.3344748836932146e-06,2.3210408099079562e-06,2.884246152422748e-05,1.5926882396643796e-06,7.387913410344288e-07
102,1.5941078910189198e-06,1.4879662342854483e-06,1.638103666731188e-06,1.5783501436059685e-06,1.853478365500247e-06,1.6963777168066062e-06,1.6294742030096138e-06,1.0589419832115887e-06,2.200547262294643e-06,9.950459383613074e-06,8.540407603573367e-07,2.276757212453631e-06,2.250165155676242e-06,2.7767099563523096e-05,1.6104335461252698e-06,7.418990248394676e-07
103,1.578445635133714e-06,1.4808115845430084e-06,1.6440528117771958e-06,1.516514668650085e-06,1.8378072279739243e-06,1.6659729672505283e-06,1.6226028996786394e-06,1.019635079206399e-06,2.2465502232095506e-06,1.0659755364869248e-05,8.373827252193153e-07,2.2223284051754213e-06,2.175921738169796e-06,2.6586530053771802e-05,1.6267470139309858e-06,7.496007407713147e-07
104,1.5670842130256922e-06,1.4721236576787281e-06,1.6498712975095732e-06,1.458664840965308e-06,1.829421657548289e-06,1.639866357595025e-06,1.6204979278707685e-06,9.841050499095817e-07,2.2956364218007565e-06,1.1356986841723062e-05,8.203263255108509e-07,2.1720168524675654e-06,2.0993650056346206e-06,2.5330559865508246e-05,1.6412953830106529e-06,7.613932571776496e-07
105,1.560364724476678e-06,1.4618711486815133e-06,1.6561672869553143e-06,1.4049931700448725e-06,1.827412125468732e-06,1.6166865698640786e-06,1.6236489507651197e-06,9.529283601450656e-07,2.3483697592693712e-06,1.2027390304920489e-05,8.02344368833308e-07,2.1262986466658753e-06,2.021720587780102e-06,2.4024042269591817e-05,1.6535502514169577e-06,7.768133670898877e-07
106,1.558359694046635e-06,1.4502152653369934e-06,1.6634518090795932e-06,1.355852252838517e-06,1.8308894776354341e-06,1.5950610872326028e-06,1.6322783151302716e-06,9.265744225083527e-07,2.4052151714699397e-06,1.2654828664252744e-05,7.828848429496302e-07,2.0854586679046573e-06,1.9443188270235936e-06,2.2686960583349557e-05,1.6627695234920762e-06,7.955039517901113e-07
107,1.5608458841489575e-06,1.4375705775765144e-06,1.6719508606947918e-06,1.3116573407248011e-06,1.8390744286175184e-06,1.5738322120273088e-06,1.6463033963172465e-06,9.054020200684629e-07,2.4667240231224255e-06,1.3223413192415558e-05,7.61539581630743e-07,2.0497249451141544e-06,1.8683916096425725e-06,2.1335259724779716e-05,1.668064609684926e-06,8.171909600740374e-07
108,1.5673482709125315e-06,1.4245028545296267e-06,1.6815416855880169e-06,1.272749197506268e-06,1.8515587619484048e-06,1.5522102225401217e-06,1.6653343607132291e-06,8.896883131371592e-07,2.5336190465163958e-06,1.3719492087481191e-05,7.381957368438202e-07,2.0192488480992103e-06,1.7949702379250425e-06,1.99818145132057e-05,1.6686005035938637e-06,8.416628911463327e-07
109,1.5772106572568326e-06,1.4115848970868778e-06,1.691770036995239e-06,1.2393418310078668e-06,1.8685348446866155e-06,1.529776193045749e-06,1.6886831475255352e-06,8.796518354222294e-07,2.606586086371418e-06,1.4133216345051727e-05,7.130227427434588e-07,1.9939711123623684e-06,1.7249286183599253e-06,1.863748003070209e-05,1.6638514566168659e-06,8.688144472669868e-07
110,1.5896854509045767e-06,1.3993605565203484e-06,1.701943745840932e-06,1.2115244658809343e-06,1.8906446145287629e-06,1.506382853196656e-06,1.7154780225951925e-06,8.754282006833667e-07,2.6860111058227703e-06,1.4459023111177844e-05,6.863141178220827e-07,1.973562682303477e-06,1.6590028615285554e-06,1.7312113288998147e-05,1.653782936131456e-06,8.986877154332154e-07
111,1.6040967524584724e-06,1.3883660419034556e-06,1.7113518917369836e-06,1.1892313666531904e-06,1.918555563304941e-06,1.4820416021190495e-06,1.7449183596697903e-06,8.770213435834269e-07,2.7718847270847735e-06,1.4694595903685094e-05,6.58330256353752e-07,1.95755112054566e-06,1.5977375139063464e-06,1.601534543361797e-05,1.6388265470418152e-06,9.31419737648064e-07
112,1.6200141788933294e-06,1.379155165283461e-06,1.719532895173606e-06,1.1722092622351045e-06,1.952650197331558e-06,1.456811734597674e-06,1.7764835490257803e-06,8.842860646924554e-07,2.8637760472324047e-06,1.4838806621879686e-05,6.292340225686005e-07,1.94554457683469e-06,1.541449348825148e-06,1.475687445365487e-05,1.6196481549285045e-06,9.671201962658987e-07
113,1.6372610706538008e-06,1.3722985008542497e-06,1.726384206218869e-06,1.160024685533101e-06,1.9929847398595797e-06,1.4307359640888274e-06,1.809881516875922e-06,8.96941970353572e-07,2.960824842971939e-06,1.489089124609812e-05,5.991210362977147e-07,1.9373766090145826e-06,1.490222724476248e-06,1.3546060382429764e-05,1.5969376687225021e-06,1.0057819846673127e-06
114,1.6557835654453882e-06,1.3682834812483844e-06,1.7320429184951693e-06,1.1520573694378754e-06,2.039386507258059e-06,1.4038856152540515e-06,1.8447828975415493e-06,9.145957253497229e-07,3.0618616060579118e-06,1.4852197474059705e-05,5.680989136515892e-07,1.933068912348326e-06,1.4439248452841002e-06,1.2390979101936258e-05,1.5713782479232196e-06,1.0472624901185243e-06
115,1.675592700952796e-06,1.367388303479707e-06,1.73669742958658e-06,1.147467165300633e-06,2.0915014154243757e-06,1.3764214440455076e-06,1.8805799813539195e-06,9.367732008904266e-07,3.1655792335359815e-06,1.4728365577665869e-05,5.363433832249338e-07,1.9326532276723434e-06,1.402307770954799e-06,1.1297705855456387e-05,1.5436577013722504e-06,1.0913089481938235e-06
116,1.696826682074942e-06,1.3696981062087e-06,1.740504520414303e-06,1.1452254825249338e-06,2.1487398052253965e-06,1.348571071025771e-06,1.916330136692357e-06,9.629443226831812e-07,3.2705636747403087e-06,1.4529529985747421e-05,5.041438503814664e-07,1.9359830692576963e-06,1.3652085778564091e-06,1.0270418033564875e-05,1.5144146080225284e-06,1.1376031523024504e-06
117,1.7197587922903733e-06,1.3752605378204686e-06,1.7436126434344035e-06,1.1442659989318227e-06,2.2102342852597894e-06,1.3206021517325414e-06,1.950898918430652e-06,9.925111000025962e-07,3.3753329820412608e-06,1.4268872507702141e-05,4.7199242604373686e-07,1.942652024811479e-06,1.3326633247413915e-06,9.311918781883046e-06,1.4841874770534902e-06,1.1857858141193886e-06
118,1.744641335208931e-06,1.384199296130953e-06,1.7461581455995888e-06,1.143700277357174e-06,2.2748726684799212e-06,1.292822555611752e-06,1.9832621189026095e-06,1.0247691665996056e-06,3.4786587534297557e-06,1.3960863050647809e-05,4.4063320441275537e-07,1.9520525820658543e-06,1.3048009593936494e-06,8.423834618930581e-06,1.4533748987948595e-06,1.2354305832008342e-06
119,1.771503029283786e-06,1.3966638672410266e-06,1.7481733483550977e-06,1.1429659796932387e-06,2.34130866239417e-06,1.265561845057681e-06,2.012822513889435e-06,1.0588827675590775e-06,3.5799341041401503e-06,1.361974028115373e-05,4.1098729870620207e-07,1.9635162204253167e-06,1.281684975315947e-06,7.606429533731193e-06,1.4222016999464738e-06,1.2860198749612445e-06
120,1.8000664425025145e-06,1.412689272558119e-06,1.7495177295052393e-06,1.1417801173827085e-06,2.4079446188352153e-06,1.2391985630826684e-06,2.039492621284786e-06,1.0939198592075e-06,3.6791037359598947e-06,1.3258336795897312e-05,3.8403576741962233e-07,1.9764769775915473e-06,1.2632811829148781e-06,6.85858552520271e-06,1.3907670547796564e-06,1.3370012418890987e-06
121,1.8298112241821848e-06,1.4320967264302978e-06,1.7499082227391183e-06,1.1399509591080337e-06,2.4730476661111034e-06,1.2142577371783043e-06,2.063455128198711e-06,1.1289483361320437e-06,3.776200952560198e-06,1.2887356207628856e-05,3.607576927170436e-07,1.9906438855655206e-06,1.2494734941833662e-06,6.17821843160113e-06,1.3591834615797761e-06,1.3878822947146862e-06
122,1.860078352314335e-06,1.4544637483057804e-06,1.7489629511426434e-06,1.1372951577771042e-06,2.535038834238444e-06,1.1914447321488768e-06,2.084837540083797e-06,1.1631077485192493e-06,3.871023176731543e-06,1.2515002161702535e-05,3.4211773393516776e-07,2.0060993212263633e-06,1.2400362225700041e-06,5.56282738520578e-06,1.32772264832887e-06,1.438224838162561e-06
123,1.890090181430879e-06,1.4791310054632498e-06,1.7462109799860345e-06,1.1337655720224372e-06,2.5927886659259987e-06,1.1715499713999218e-06,2.103577576739352e-06,1.1955852911022487e-06,3.963183553996536e-06,1.2146778918954617e-05,3.2908268329949346e-07,2.0231884374615053e-06,1.2346460781301897e-06,5.009896395429696e-06,1.2968627717126319e-06,1.4875212599904882e-06
124,1.9189191732563553e-06,1.5052490974575457e-06,1.7411300742679245e-06,1.129577404546698e-06,2.6457157081240337e-06,1.155363179258111e-06,2.119477036150849e-06,1.225562820395742e-06,4.0522341093126465e-06,1.1785669545290102e-05,3.226608818574909e-07,2.0422521002918077e-06,1.2329632317304823e-06,4.517073395972715e-06,1.2671785980134805e-06,1.5351270990165725e-06
125,1.9455772271944294e-06,1.531846126986928e-06,1.7332384083686725e-06,1.1251417145220554e-06,2.6935997496122034e-06,1.1436849862963359e-06,2.132294581738077e-06,1.2522815989579674e-06,4.137565786165878e-06,1.1432919255488487e-05,3.23944786010274e-07,2.0634956800928e-06,1.2346563925180282e-06,4.082018425443008e-06,1.2391562050652611e-06,1.580394878935656e-06
126,1.96921406046069e-06,1.557853939450946e-06,1.7222110413638944e-06,1.120930382724253e-06,2.7362867519652333e-06,1.1373287622217323e-06,2.1418216520605444e-06,1.2752373239336627e-06,4.218150864370793e-06,1.1088962658302314e-05,3.3416327148103465e-07,2.087182592721814e-06,1.2393600446940114e-06,3.702020612494092e-06,1.2130855223853804e-06,1.6229245237543204e-06
127,1.9891892021341712e-06,1.5821674143014919e-06,1.7079878221050688e-06,1.1174460935628167e-06,2.7736120889007647e-06,1.1370649537352425e-06,2.147951225571287e-06,1.2943186042977763e-06,4.29241284138474e-06,1.0753691392953635e-05,3.5471752652479796e-07,2.1139802424406876e-06,1.2466900999507767e-06,3.373808894852228e-06,1.1890843773273007e-06,1.6626960751851282e-06
128,2.0049501767815916e-06,1.603835684765453e-06,1.6908088320112156e-06,1.1152246896682931e-06,2.805596028121613e-06,1.1435685706797379e-06,2.150720199954378e-06,1.3097371162989212e-06,4.3583407110765364e-06,1.0425921614584074e-05,3.871354589570136e-07,2.1451200664538883e-06,1.256301714204052e-06,3.0937687747740513e-06,1.167166241342557e-06,1.6999561797637203e-06
129,2.015921732245537e-06,1.622218420898882e-06,1.6711029835639879e-06,1.114759009497001e-06,2.8326369749836347e-06,1.157389213048849e-06,2.1503083875142142e-06,1.32183379614953e-06,4.4136257840554535e-06,1.010274026088991e-05,4.329775684503744e-07,2.18224445360513e-06,1.2679042539802166e-06,2.8583164980150693e-06,1.1472608178013587e-06,1.7349630094467204e-06
130,2.0215308374141597e-06,1.6369136785437674e-06,1.649275419695735e-06,1.1164048188429474e-06,2.855484158255089e-06,1.1789260786401894e-06,2.147023473686432e-06,1.330998687778246e-06,4.455807026419777e-06,9.77932285389433e-06,4.937703968553234e-07,2.227131018152402e-06,1.281268708860715e-06,2.664197954541199e-06,1.1292318069191026e-06,1.7677874573003576e-06
131,2.0212856131346785e-06,1.6475939957910297e-06,1.6255755327179298e-06,1.1203421788638173e-06,2.875021578547501e-06,1.2083921098652567e-06,2.1412799038817357e-06,1.3378025434810562e-06,4.482730681846375e-06,9.449352816912442e-06,5.709903336068655e-07,2.281527496563852e-06,1.2962354415523414e-06,2.508757664471356e-06,1.112980765496671e-06,1.7982447241632974e-06
132,2.0148509553707582e-06,1.653991170860492e-06,1.6001312126198526e-06,1.1265737128249701e-06,2.8920289356239783e-06,1.2457981942477898e-06,2.1335103937910867e-06,1.3431177166793331e-06,4.493131505256687e-06,9.106282280908518e-06,6.661143018652492e-07,2.3471338629443153e-06,1.312693545385202e-06,2.3901587748983116e-06,1.0985986927433805e-06,1.8259213461403814e-06
133,2.0021446962067144e-06,1.6559752605636438e-06,1.5730471073471729e-06,1.134962686910933e-06,2.907026068646178e-06,1.2909981317937939e-06,2.1240132430567387e-06,1.348010452718025e-06,4.486668448425619e-06,8.745400207962107e-06,7.807032211507163e-07,2.4256209223193526e-06,1.3305620524225329e-06,2.307356592925633e-06,1.0864186965155055e-06,1.8502441623859726e-06
134,1.9833912914794514e-06,1.6535112736770826e-06,1.5445041923359205e-06,1.145323778708346e-06,2.9201766140358317e-06,1.3437514988055582e-06,2.1128776245886763e-06,1.3535338339049207e-06,4.46331266411731e-06,8.365634431350217e-06,9.164193847395362e-07,2.518570200501691e-06,1.3498164755595944e-06,2.259800703139711e-06,1.0769043399285831e-06,1.8705217133704024e-06
135,1.959025623615398e-06,1.6465195124758604e-06,1.5148876242802945e-06,1.1574838251252125e-06,2.93126393603826e-06,1.4037211048926991e-06,2.1000687623999393e-06,1.3606123056324945e-06,4.422802925321316e-06,7.969929504156755e-06,1.0749834819717257e-06,2.627326872510632e-06,1.3705824210864708e-06,2.247121277251596e-06,1.0704876000823306e-06,1.8860267894003543e-06
136,1.9295326291206425e-06,1.6348617608668944e-06,1.4848762565214617e-06,1.1712663133207595e-06,2.9398918481607983e-06,1.470399020286161e-06,2.0856008249594076e-06,1.3700132205971173e-06,4.364700366511179e-06,7.5640912870677546e-06,1.2581452249871381e-06,2.752878900423073e-06,1.3932083427670189e-06,2.2690342345018146e-06,1.0674733881809357e-06,1.896236541535812e-06
137,1.8953831026463348e-06,1.6185031010031922e-06,1.4553794118887985e-06,1.1864917031526504e-06,2.945935835070322e-06,1.5430667099023856e-06,2.069726737857365e-06,1.3823624953401622e-06,4.288799295937941e-06,7.154922307587872e-06,1.4676519230500265e-06,2.895825310607152e-06,1.4182181289170573e-06,2.325436874727679e-06,1.0679933571390137e-06,1.9010716002474986e-06
138,1.8570007815911362e-06,1.5976743861930742e-06,1.4273488350693033e-06,1.2030240337397715e-06,2.9499595409192e-06,1.6208750418804575e-06,2.0530835110381058e-06,1.3981563629733888e-06,4.195539395067568e-06,6.748816577637292e-06,1.7052437477742766e-06,3.056359219574971e-06,1.4462006928909702e-06,2.416446653582259e-06,1.0719804148702306e-06,1.9009439527901037e-06
139,1.814688851409006e-06,1.5728959995752872e-06,1.4016026914017466e-06,1.2207760089593254e-06,2.953293384055644e-06,1.7029479872718848e-06,2.036672103946698e-06,1.4177239475318062e-06,4.086343685833575e-06,6.351344008515789e-06,1.972738082685201e-06,3.2342765402956214e-06,1.4777241180333116e-06,2.54223254624577e-06,1.0791726019531065e-06,1.8966811886757141e-06
140,1.7686734298726525e-06,1.5448676548789466e-06,1.3787447118710985e-06,1.2396591613856106e-06,2.9577452875453276e-06,1.7883733326418142e-06,2.0216281615061727e-06,1.4412032991416498e-06,3.9637371994725485e-06,5.967313317140157e-06,2.2720893936445834e-06,3.429069233054994e-06,1.5132840325386044e-06,2.702826213806985e-06,1.0891240969998398e-06,1.8893969453867426e-06
141,1.7193183232053497e-06,1.514298140032255e-06,1.3591592587617633e-06,1.2595464360245062e-06,2.965129969156369e-06,1.8761584916963473e-06,2.0089371252974905e-06,1.468574008653344e-06,3.831058483468513e-06,5.600796733629093e-06,2.60528926625475e-06,3.639960211720176e-06,1.5532641499754661e-06,2.898078293370828e-06,1.1012328895203602e-06,1.8802740999779738e-06
142,1.6672805224940904e-06,1.481795951662681e-06,1.3430213993223368e-06,1.280247874082582e-06,2.976853723795689e-06,1.9652770379232956e-06,1.999308043736227e-06,1.4996842574282884e-06,3.691882751171318e-06,5.255213768565813e-06,2.974161850811106e-06,3.865838153161913e-06,1.5979012788010496e-06,3.1275962105663537e-06,1.1148512819032953e-06,1.8703351359976068e-06
143,1.6134289207297928e-06,1.4479201877038795e-06,1.3303096717930257e-06,1.3014669422091186e-06,2.993693374852401e-06,2.054762336963911e-06,1.9932587779251657e-06,1.5342654926732936e-06,3.549496810217174e-06,4.933575609391801e-06,3.3801803733789423e-06,4.105361853664801e-06,1.6473003010928026e-06,3.390584056240672e-06,1.1294456012456921e-06,1.8603376814991665e-06
144,1.558648353632207e-06,1.4133262026500074e-06,1.3208572779992158e-06,1.3227821024643629e-06,3.0157760992866027e-06,2.143804422700777e-06,1.991269374540439e-06,1.5719435388512993e-06,3.4065974595824304e-06,4.638649502261014e-06,3.824354811484344e-06,4.35734250477395e-06,1.7015448678745257e-06,3.685770067306508e-06,1.144656156202686e-06,1.8507875469854289e-06
145,1.5037442588513299e-06,1.3788434165628553e-06,1.3144225383346645e-06,1.3436807383686444e-06,3.042778062842708e-06,2.2318728294084124e-06,1.9938295738856846e-06,1.6121840416508468e-06,3.265171207060001e-06,4.372839851321744e-06,4.307197582177408e-06,4.6211276102415955e-06,1.760848145829422e-06,4.011488679290119e-06,1.1602403922240422e-06,1.8419821608596556e-06
146,1.449461457954644e-06,1.3454309096187788e-06,1.3107034158043114e-06,1.36360846720286e-06,3.074313625707721e-06,2.3188078362208894e-06,2.0013399610972557e-06,1.6542116685273563e-06,3.1264988740730778e-06,4.137954976790055e-06,4.828756974414437e-06,4.896699347992498e-06,1.8256348850209424e-06,4.365736484353821e-06,1.1760378799142608e-06,1.8340666864105014e-06
147,1.3965143403274647e-06,1.3140727949958865e-06,1.3092799729109715e-06,1.382065645842915e-06,3.110211436925124e-06,2.4047750440906414e-06,2.013967457416978e-06,1.6970243324592276e-06,2.991264354014657e-06,3.9352072336490664e-06,5.388630246791485e-06,5.184475444693262e-06,1.896510888078423e-06,4.746055634001209e-06,1.1919703152818964e-06,1.8271021676810922e-06
148,1.3456261857254834e-06,1.2856654224220036e-06,1.3095850369093225e-06,1.3987671460884896e-06,3.150392797405155e-06,2.490089364711178e-06,2.0315676270517602e-06,1.7394818883952342e-06,2.8597826066303576e-06,3.7654893974202687e-06,5.985849090409065e-06,5.484972788784236e-06,1.974212473614383e-06,5.149347411300044e-06,1.207996617819728e-06,1.8211017095321416e-06
149,1.297601652073743e-06,1.2609113106275862e-06,1.3110231029145846e-06,1.4137476176467193e-06,3.194571762601791e-06,2.5750340131575303e-06,2.053704464092786e-06,1.7803377323658958e-06,2.732345320427821e-06,3.6296134762647856e-06,6.618669223024867e-06,5.7984656134509884e-06,2.0596346745157714e-06,5.57188194312241e-06,1.2240506848330225e-06,1.816014918730481e-06
150,1.2533596807347676e-06,1.240241297692712e-06,1.3131884332991408e-06,1.4273087003863085e-06,3.242168755903101e-06,2.6597556732888386e-06,2.0797500619854267e-06,1.8182049905596534e-06,2.609536349999246e-06,3.528335352929522e-06,7.28440144983179e-06,6.124727912079688e-06,2.1538037066799067e-06,6.009703864546413e-06,1.2400049257429224e-06,1.811708162883715e-06
151,1.213862483250867e-06,1.223800985461786e-06,1.3159577043958592e-06,1.4398391285237732e-06,3.292428088343478e-06,2.7441856855862992e-06,2.109023913614412e-06,1.8516222354359654e-06,2.492301544550646e-06,3.462277102179911e-06,7.979348673787702e-06,6.462944152721e-06,2.2576527595310357e-06,6.459206978554952e-06,1.255692781005461e-06,1.8079715548393286e-06
152,1.1800086527086741e-06,1.2115400661553355e-06,1.3193647977280285e-06,1.4516450781755968e-06,3.344514955207567e-06,2.8279612318889144e-06,2.1408588414361498e-06,1.8793139611145952e-06,2.381747808831825e-06,3.431815963298168e-06,8.698781905154422e-06,6.811758971733412e-06,2.371771916759939e-06,6.917306554923109e-06,1.2710266881925473e-06,1.8045058050511833e-06
153,1.1525823591280915e-06,1.2033860609453794e-06,1.3234744584066328e-06,1.4628813260058325e-06,3.3975400986855034e-06,2.9104307974300936e-06,2.174517304414258e-06,1.9004920232330493e-06,2.278858942795299e-06,3.436968673411766e-06,9.436847402228287e-06,7.16931838696433e-06,2.4963300300699853e-06,7.381198078437603e-06,1.286093431688605e-06,1.8008910279098768e-06
154,1.1322254130280615e-06,1.199370493329274e-06,1.3284106988117766e-06,1.4735296682983729e-06,3.4505733591122895e-06,2.990706847688014e-06,2.209123763720949e-06,1.914944178704501e-06,2.184298801307191e-06,3.477343779590374e-06,1.0186400116634493e-05,7.533208167082587e-06,2.631131229868822e-06,7.84836662544082e-06,1.3010680018528101e-06,1.796658492605729e-06
155,1.1193936860833485e-06,1.1995924785567583e-06,1.3343783758013176e-06,1.4833852212320046e-06,3.502607870069851e-06,3.0676000424424888e-06,2.2437952393835194e-06,1.922869763595654e-06,2.0983594848782094e-06,3.5521276781267645e-06,1.0938851941724585e-05,7.900255783510079e-06,2.7757195481931635e-06,8.317045649272353e-06,1.3160186668495835e-06,1.7914958685366906e-06
156,1.1143680315372409e-06,1.2040748039710663e-06,1.3415735898607128e-06,1.492073886285164e-06,3.5523955695814542e-06,3.1395278121510174e-06,2.2778249331850845e-06,1.9246989656333485e-06,2.0210726130688927e-06,3.660079812390126e-06,1.1683987013066384e-05,8.266175001772295e-06,2.9295040386782876e-06,8.786574248540673e-06,1.3307949312931348e-06,1.785429921430149e-06
157,1.1173272584552674e-06,1.212643882383959e-06,1.3501156897306782e-06,1.4991124338094885e-06,3.5982850389762267e-06,3.2047111672383178e-06,2.310666339580025e-06,1.9210668939840937e-06,1.9524160957986417e-06,3.7995481688104026e-06,1.240965314252669e-05,8.62519956974296e-06,3.0918838510738367e-06,9.257278814839924e-06,1.3450352100762995e-06,1.7788514324553325e-06
158,1.1283693230483229e-06,1.2248890031851474e-06,1.3600693589242488e-06,1.5040613058938161e-06,3.638289922438993e-06,3.261706758277619e-06,2.3417030503862748e-06,1.9128083136246378e-06,1.8924256369080825e-06,3.9684011845435335e-06,1.3101671314320999e-05,8.970081730020869e-06,3.2623596378798223e-06,9.730070450786857e-06,1.3582488247756463e-06,1.7724047796876868e-06
159,1.1474463445445018e-06,1.2402060354621522e-06,1.3714677536011271e-06,1.5067452326834729e-06,3.6703888798763962e-06,3.3099569415419144e-06,2.3700050022632416e-06,1.9008213628989125e-06,1.8411510597582172e-06,4.163859274031512e-06,1.3744546440075046e-05,9.292762897023915e-06,3.440541916454163e-06,1.0206080028013435e-05,1.370017414415242e-06,1.766845531357798e-06
160,1.1742905491328783e-06,1.2579431881642245e-06,1.3842662861002477e-06,1.5073418140624774e-06,3.6929288377201166e-06,3.3500271592977648e-06,2.394286950254444e-06,1.8859612577532414e-06,1.7986128432824649e-06,4.382357351875344e-06,1.4323000957645079e-05,9.585595675124366e-06,3.6259204147227923e-06,1.0686431499234637e-05,1.380267069107933e-06,1.7629148607769151e-06
161,1.2083798024931027e-06,1.277596693144682e-06,1.3982705054053814e-06,1.5062311171454442e-06,3.7050521550672405e-06,3.3834319598862837e-06,2.413150215349133e-06,1.8691357992452018e-06,1.7647865608783274e-06,4.6194870929102315e-06,1.4823733061635942e-05,9.842599007296091e-06,3.817519732495549e-06,1.117199940584996e-05,1.3893544069850176e-06,1.7612080628940202e-06
162,1.248966671728431e-06,1.298891634877178e-06,1.4131355885248206e-06,1.503777875502199e-06,3.706996028478293e-06,3.412154031346824e-06,2.4255213820017e-06,1.8514232607763557e-06,1.7395082963046003e-06,4.869980900420566e-06,1.523683553698732e-05,1.0060215799766696e-05,4.013805344234386e-06,1.1662968599883838e-05,1.3978657586132125e-06,1.76204545860377e-06
163,1.2952198815736648e-06,1.3216990123746425e-06,1.428441316101955e-06,1.5002301537853908e-06,3.7000380523817934e-06,3.4380702328973676e-06,2.431072178039958e-06,1.8340234861191839e-06,1.7223931471514402e-06,5.127687991546134e-06,1.5556608610206758e-05,1.023730086513424e-05,4.212976266908493e-06,1.2158494809007455e-05,1.4063594654119551e-06,1.7653972950127151e-06
164,1.3464531010403975e-06,1.3459871498903102e-06,1.4437304893380193e-06,1.4956968036562776e-06,3.6860440128122097e-06,3.4625453865913903e-06,2.430380108476071e-06,1.8181612374046087e-06,1.7129307176154189e-06,5.385592579714922e-06,1.578150786162239e-05,1.0374270619692965e-05,4.413382716388999e-06,1.2657156452294497e-05,1.4152472010153269e-06,1.7708856106977668e-06
165,1.402260233911747e-06,1.3719053863035224e-06,1.4584905487505164e-06,1.4901469329529029e-06,3.6668701904497466e-06,3.4863471795699533e-06,2.4247058387396407e-06,1.8050864156231715e-06,1.7106897468013925e-06,5.636143717217973e-06,1.591288668179074e-05,1.0471709832250611e-05,4.613721001672702e-06,1.3158157902997628e-05,1.424792917678759e-06,1.7778618759425722e-06
166,1.4624074010531253e-06,1.3998040847707444e-06,1.4722157208459355e-06,1.4834614639498116e-06,3.643923427721247e-06,3.5097532197464216e-06,2.415505718186324e-06,1.7960866707749737e-06,1.7154406859135456e-06,5.872016490844116e-06,1.595275928854941e-05,1.0529376147134203e-05,4.812859120539417e-06,1.3662331194099824e-05,1.4351630057890264e-06,1.7855388815351525e-06
167,1.5265926890646534e-06,1.4300962572453835e-06,1.484577426706539e-06,1.475487655043872e-06,3.617957558500357e-06,3.532577532634047e-06,2.403997485985542e-06,1.7923782436938677e-06,1.7271233360661203e-06,6.086899551496028e-06,1.5901868012036044e-05,1.0546324451417554e-05,5.009401810756857e-06,1.4172353024827948e-05,1.4464574190009902e-06,1.7931183263350786e-06
168,1.5943025551429372e-06,1.4631301174021095e-06,1.4955185271792424e-06,1.4660447740501323e-06,3.5890337300483148e-06,3.554058658243856e-06,2.3909803046286545e-06,1.7949319018897267e-06,1.745733690188422e-06,6.2758153446276835e-06,1.5759347314960394e-05,1.0521710207456138e-05,5.2013130601736375e-06,1.4692382992641839e-05,1.4586681148485719e-06,1.7998955865019795e-06
169,1.664820719893849e-06,1.499146105250265e-06,1.5051432387394855e-06,1.4549473724879068e-06,3.556618291944922e-06,3.5727988077068256e-06,2.3768661939608447e-06,1.8043847612532911e-06,1.7712171915314046e-06,6.434993390034042e-06,1.5523937500611285e-05,1.0455514267150073e-05,5.385822598188539e-06,1.5227401347106816e-05,1.4716352269659063e-06,1.8053727961939812e-06
170,1.7372913186662907e-06,1.5382166511902414e-06,1.513505120171402e-06,1.4420694627512828e-06,3.5198508262939514e-06,3.5869130833602173e-06,2.3618620529131792e-06,1.82107402774288e-06,1.8033679294667262e-06,6.561687711087151e-06,1.5195808819856588e-05,1.0349035592917633e-05,5.559506430520776e-06,1.5782258164677836e-05,1.4850661453492597e-06,1.8093610687187668e-06
171,1.8107736840694952e-06,1.5801588247468845e-06,1.5204952773183895e-06,1.4273537378090157e-06,3.478000435188423e-06,3.5943980946405872e-06,2.3462405603796074e-06,1.845112642639905e-06,1.8417118612527572e-06,6.654040604398055e-06,1.4778222803951398e-05,1.020522555076933e-05,5.718393733138916e-06,1.6360447665471935e-05,1.4985519205260822e-06,1.8120224617153759e-06
172,1.8842662001519688e-06,1.6245063459674811e-06,1.5258908929880202e-06,1.410751793784415e-06,3.4309613809928407e-06,3.5935962570690273e-06,2.3304998151709302e-06,1.8764118209255775e-06,1.8854405300942865e-06,6.710756678754762e-06,1.4278502354840212e-05,1.0028775461703009e-05,5.858138056862989e-06,1.696292442016333e-05,1.5115425758358007e-06,1.8138473355960564e-06
173,1.956698077011175e-06,1.670552504087502e-06,1.5294178013291248e-06,1.3922380843080897e-06,3.3794107351582125e-06,3.5835191443974097e-06,2.3152625128104306e-06,1.9146261236290014e-06,1.933495112679944e-06,6.730865864193047e-06,1.3707932746928412e-05,9.825860013480022e-06,5.974314162871778e-06,1.7587537027536504e-05,1.5233341479899776e-06,1.8156034689905319e-06
174,2.0269943823214655e-06,1.7173969154312725e-06,1.5307053046599973e-06,1.371944198652634e-06,3.3244294602464883e-06,3.56386368507995e-06,2.3010521000017688e-06,1.9590913503969685e-06,1.9847603358371818e-06,6.714197057867185e-06,1.3080633983515554e-05,9.603578960512003e-06,6.062830030052504e-06,1.8229620975760885e-05,1.5331422516750059e-06,1.8183038085615653e-06
175,2.094212142567667e-06,1.7639706660106132e-06,1.5292179816942545e-06,1.3502703817829444e-06,3.2669239077600207e-06,3.53482059375145e-06,2.2881800658442762e-06,2.0088374772835308e-06,2.038184514452632e-06,6.662085401819484e-06,1.2411917610771549e-05,9.36920572067478e-06,6.120388052275751e-06,1.8883614285183693e-05,1.5402670730020795e-06,1.823171154629958e-06
176,2.1575746118397063e-06,1.8090918689085986e-06,1.5243279401531335e-06,1.327878608090058e-06,3.2073573698514035e-06,3.496924276365655e-06,2.2767614787380357e-06,2.06265468477386e-06,2.0927834311039668e-06,6.5771172226504325e-06,1.1716739487978343e-05,9.129379661716166e-06,6.14491840180729e-06,1.9544527956550766e-05,1.5442435749007512e-06,1.8315054126971955e-06
177,2.2164957954011755e-06,1.851554629556538e-06,1.515536655093834e-06,1.305596445281577e-06,3.1459749973838375e-06,3.4510569584720055e-06,2.266741274671603e-06,2.1191106457686097e-06,2.1477250197278372e-06,6.462026852734334e-06,1.1008569342971115e-05,8.889414951386908e-06,6.135886719109035e-06,2.0208193712689563e-05,1.5449450867514987e-06,1.844468127820766e-06
178,2.270737789934083e-06,1.8902110007996893e-06,1.5026367058418469e-06,1.2842777445357817e-06,3.083278354582933e-06,3.3984879004432463e-06,2.257938581838273e-06,2.176528713213619e-06,2.20252325894775e-06,6.319162328866283e-06,1.0298739800598232e-05,8.65282694279171e-06,6.094209770532341e-06,2.087036418192077e-05,1.5426402427518846e-06,1.8629227238034789e-06
179,2.3204305736058447e-06,1.9241002093454045e-06,1.485652335147141e-06,1.2646875429095417e-06,3.0202432306454656e-06,3.34074970664962e-06,2.250197006034407e-06,2.2330722909917404e-06,2.257073809651342e-06,6.151133477990536e-06,9.596304120869351e-06,8.42111238716362e-06,6.021608651389273e-06,2.1525326590348323e-05,1.5378953785248122e-06,1.8873851839202696e-06
180,2.365776995753053e-06,1.952664245835791e-06,1.4647389092759417e-06,1.2474720655086851e-06,2.958043088355032e-06,3.279321774469192e-06,2.243579776872212e-06,2.2869526247308894e-06,2.311474144584853e-06,5.961599258409887e-06,8.908332547889382e-06,8.193801619561669e-06,5.919974039182402e-06,2.216495618993977e-05,1.5313802600269575e-06,1.918026760385113e-06
181,2.4067317587224716e-06,1.9758950756845365e-06,1.4402379496737075e-06,1.2331678302517787e-06,2.8976543808189677e-06,3.215375497334446e-06,2.2384049935238922e-06,2.3365855923305445e-06,2.3658655282650434e-06,5.75508741368649e-06,8.240402368258355e-06,7.968677199573096e-06,5.791471380129957e-06,2.2779609038063027e-05,1.523754365026958e-06,1.95467726214882e-06
182,2.442903095622898e-06,1.9942179321210314e-06,1.4127248433352085e-06,1.2221907661150524e-06,2.839754856364295e-06,3.149836713906254e-06,2.2350507782943647e-06,2.3806212079366555e-06,2.420457331919455e-06,5.536208707544573e-06,7.59704985674134e-06,7.742146496419516e-06,5.639068097792723e-06,2.3361026647907465e-05,1.5156130536443875e-06,1.99683911785781e-06
183,2.4735832999773663e-06,2.008153851131546e-06,1.3829139485981e-06,1.2148459902521723e-06,2.7848296480322423e-06,3.0836485194867394e-06,2.2337052215406345e-06,2.417949325509719e-06,2.4757236604199942e-06,5.309306130155372e-06,6.9820643235225845e-06,7.510068542138604e-06,5.4667292480681225e-06,2.3904872364377974e-05,1.5074597474531124e-06,2.0437493256886006e-06
184,2.497825508536063e-06,2.017993820789951e-06,1.3515658678637649e-06,1.2113732928903683e-06,2.73326463003221e-06,3.017902999507883e-06,2.234235516430543e-06,2.447732047658387e-06,2.5325470323773695e-06,5.078693651580582e-06,6.398593042532529e-06,7.269034751469683e-06,5.279179174729154e-06,2.4410661312583313e-05,1.499737520878045e-06,2.0944391931943487e-06
185,2.5146669080605206e-06,2.0236349454094972e-06,1.3194705069538105e-06,1.2119564263519906e-06,2.6854032147347157e-06,2.9537295233830353e-06,2.2362180403009564e-06,2.4694111640510052e-06,2.5920714861259147e-06,4.848828943068416e-06,5.849105744674816e-06,7.017399669948955e-06,5.081479819301569e-06,2.4879814497119117e-05,1.492834860698614e-06,2.1476827476811957e-06
186,2.523448691024461e-06,2.024591110130565e-06,1.2874085631637499e-06,1.216677597471739e-06,2.6415460817780406e-06,2.892121096634638e-06,2.2391414356301243e-06,2.4826482966132455e-06,2.655398240471896e-06,4.624039286329503e-06,5.3352966668802036e-06,6.755461310731955e-06,4.878580121432307e-06,2.53141532879765e-05,1.4870011705429283e-06,2.2018747868899155e-06
187,2.5239926908135297e-06,2.020166749456641e-06,1.25605935822143e-06,1.2254855513634525e-06,2.601805290036334e-06,2.8339057647601e-06,2.2426956065402347e-06,2.487182341598082e-06,2.7234140974288763e-06,4.408052181002389e-06,4.858003117460179e-06,6.4849637559798525e-06,4.674951259364862e-06,2.5715856459005323e-05,1.482247266373203e-06,2.2550104171427106e-06
188,2.5165818874543652e-06,2.0097720253818427e-06,1.2259443929564525e-06,1.238198408337871e-06,2.565909747718025e-06,2.7798747243576877e-06,2.246921352100633e-06,2.4827106816944388e-06,2.796801477914666e-06,4.203740195178559e-06,4.417194619690131e-06,6.2084323660619465e-06,4.474363577709708e-06,2.6088074534080342e-05,1.478314155607653e-06,2.30484228398003e-06
189,2.50193419543274e-06,1.9932818814582608e-06,1.1974518137632588e-06,1.25448979129252e-06,2.533249002392792e-06,2.7308885308801084e-06,2.25212063361482e-06,2.469011806536339e-06,2.876077499269292e-06,4.013215837972575e-06,4.012024884051531e-06,5.928647346062774e-06,4.279785602767466e-06,2.6435093243643526e-05,1.474746537688289e-06,2.3491404546330573e-06
190,2.48125241459142e-06,1.9712478755735065e-06,1.1708643654448815e-06,1.2738592620158124e-06,2.503225858273316e-06,2.6877953860983993e-06,2.258650768978155e-06,2.4462914927137775e-06,2.9615473294351843e-06,3.838082521884355e-06,3.640957276186984e-06,5.648365419924009e-06,4.09337250693638e-06,2.676173488899535e-05,1.4710449330006715e-06,2.385940263928083e-06
191,2.4561704697832173e-06,1.9447958044885597e-06,1.1463365254480408e-06,1.2956263659638127e-06,2.4756409406002867e-06,2.6512404375296397e-06,2.2667235786978014e-06,2.4154390278870646e-06,3.053196987568109e-06,3.6795420496202658e-06,3.3020322811330147e-06,5.370263264339591e-06,3.916507599951227e-06,2.7072164219665645e-05,1.466770858731837e-06,2.4137174888951734e-06
192,2.42846301739934e-06,1.9152747695969397e-06,1.1238648604308405e-06,1.318923685032704e-06,2.4508448705922122e-06,2.6215694307186053e-06,2.276239077680846e-06,2.3779948438501246e-06,3.1505947467894853e-06,3.5383431233886533e-06,2.9932357390158824e-06,5.096927223000698e-06,3.7499652391113703e-06,2.7368217102610333e-05,1.4615124253502888e-06,2.4314937191925866e-06
193,2.3997159516483783e-06,1.8839620357226842e-06,1.1033049064388458e-06,1.3426671820321011e-06,2.4296435272789123e-06,2.598829484750095e-06,2.286725684365905e-06,2.3359090377677147e-06,3.2528664374823394e-06,3.414826580714524e-06,2.7127469599489387e-06,4.830738628565182e-06,3.594258028255582e-06,2.7647789916556222e-05,1.4548341411051576e-06,2.438894164799262e-06
194,2.371237699565542e-06,1.8520120223411739e-06,1.084452291530732e-06,1.3655547650105011e-06,2.413064604113701e-06,2.5827328649600035e-06,2.2974790252355633e-06,2.2912332557919697e-06,3.3588046396487132e-06,3.309098680539995e-06,2.4589016436006467e-06,4.573691386380608e-06,3.4499206761231923e-06,2.7904623770332386e-05,1.4463977767636167e-06,2.4361413349403943e-06
195,2.3442106140761683e-06,1.8204992505935797e-06,1.0671549415469536e-06,1.3861714415454911e-06,2.402082300359773e-06,2.5726037399393683e-06,2.3078208519534195e-06,2.2458376708917523e-06,3.4670178368333245e-06,3.221077355162412e-06,2.229979777725721e-06,4.327269084327778e-06,3.3174551413899183e-06,2.813028433394766e-05,1.4361618793048137e-06,2.4239494839357218e-06
196,2.3198477754604564e-06,1.7903573876008606e-06,1.0513943025011071e-06,1.4031950433624154e-06,2.397410658932818e-06,2.5675002458849694e-06,2.3172723681586886e-06,2.2012318388136487e-06,3.575946986344632e-06,3.1503529527558473e-06,2.024074625778156e-06,4.0923973184253425e-06,3.1971048386805883e-06,2.8317308591648606e-05,1.4243773646590777e-06,2.4033503210884944e-06
197,2.299352550124255e-06,1.7622414004191535e-06,1.0373053420756484e-06,1.4155285548025003e-06,2.3994382073864288e-06,2.566560953232099e-06,2.325563654568292e-06,2.1585189402151987e-06,3.6838377833860252e-06,3.0960595093216987e-06,1.8391560560574766e-06,3.86944084246594e-06,3.088807705587258e-06,2.8461488288774862e-05,1.4113476577839317e-06,2.375496330840626e-06
198,2.28371339864698e-06,1.7364447057340208e-06,1.0251420874913262e-06,1.4222594761673302e-06,2.408223441363146e-06,2.569271914524491e-06,2.3325769632545854e-06,2.118430267389859e-06,3.788898994199737e-06,3.056836224436802e-06,1.6732461566044076e-06,3.658346702517033e-06,2.992306943071859e-06,2.8561841933401062e-05,1.3972117109333226e-06,2.3414901266205e-06
199,2.2735266232941974e-06,1.712907516595398e-06,1.0152275410078006e-06,1.422628141648554e-06,2.4234485606963944e-06,2.57535756540439e-06,2.3383001266895834e-06,2.0813651948765663e-06,3.889597191127864e-06,3.030878652061692e-06,1.524583980026722e-06,3.4589500512289475e-06,2.9071954412371186e-06,2.8618336602494246e-05,1.3818971830614204e-06,2.3023845812028966e-06
200,2.268951316587445e-06,1.6912715195595332e-06,1.0079299633388893e-06,1.4161401964344603e-06,2.4443618807603875e-06,2.584418413286807e-06,2.3427391563939345e-06,2.0474303064907363e-06,3.984860246341697e-06,3.016120904477489e-06,1.3917015660351918e-06,3.2711908185930345e-06,2.832973523038945e-06,2.862907581202538e-05,1.3651839296156103e-06,2.259347635131078e-06
201,2.2698240902941764e-06,1.6710212109277874e-06,1.0036397008859186e-06,1.4027156600668148e-06,2.4697576611985484e-06,2.5956639946888106e-06,2.3457843947640525e-06,2.016533914954844e-06,4.074148610444968e-06,3.01047042335904e-06,1.2733751753413208e-06,3.0950578971848034e-06,2.7692140624780036e-06,2.8589286844624744e-05,1.3468581657887678e-06,2.213694266307001e-06
202,2.275916140333128e-06,1.6517334484483595e-06,1.0026968690499626e-06,1.3827743894762045e-06,2.498023506024835e-06,2.607918613112808e-06,2.3471957044288026e-06,1.988497763707929e-06,4.1574648678334535e-06,3.011928982314254e-06,1.1684775340087475e-06,2.9304221579464167e-06,2.715606631418796e-06,2.8493083479210543e-05,1.3269119659567915e-06,2.166693103485069e-06
203,2.287135138101903e-06,1.6332251824452826e-06,1.0053088520730126e-06,1.3572193551486305e-06,2.5273247134109026e-06,2.619833225988477e-06,2.3467606876056907e-06,1.9630631861087713e-06,4.235241485525462e-06,3.0185235147270477e-06,1.0758396791051839e-06,2.777051048713439e-06,2.671841238271404e-06,2.8336496669701366e-05,1.305585963817614e-06,2.119411278543708e-06
204,2.3034715467695904e-06,1.6154622247059444e-06,1.0115187480701754e-06,1.3272689152739876e-06,2.5558949729042893e-06,2.6301427944327284e-06,2.344387311392591e-06,1.9397856973459873e-06,4.308005421845146e-06,3.028203768432065e-06,9.942228909960076e-07,2.634868614479423e-06,2.6375684562447187e-06,2.8119128100583526e-05,1.2832072817526266e-06,2.0727063229870966e-06
205,2.324761891555532e-06,1.598409366575112e-06,1.0212174671577684e-06,1.2942014488435724e-06,2.5823001408336637e-06,2.637844299010022e-06,2.339959120500833e-06,1.9179493462900727e-06,4.375919410691743e-06,3.0389671394642032e-06,9.223664980278645e-07,2.5042209607599443e-06,2.6123763371243264e-06,2.7843117012486845e-05,1.2600657354399177e-06,2.0272107108659984e-06
206,2.3505030689016152e-06,1.5819502442844605e-06,1.0341899222892281e-06,1.2591995694658886e-06,2.6056640724800847e-06,2.6422600232347997e-06,2.3331119516600877e-06,1.8966693951808352e-06,4.438469526119928e-06,3.0491708093643536e-06,8.590423089585037e-07,2.385868059592407e-06,2.5956014591754447e-06,2.7510231176848314e-05,1.2364698653028289e-06,1.9832591018867714e-06
207,2.3798916195988134e-06,1.565820009184213e-06,1.0501714781074724e-06,1.2233805694514768e-06,2.625895987962678e-06,2.643038978810502e-06,2.323221033519733e-06,1.8752201915717724e-06,4.494412186771574e-06,3.057754253872095e-06,8.031574604147052e-07,2.280691727416831e-06,2.586122277363354e-06,2.7119084144484687e-05,1.2128251750195241e-06,1.940847691165836e-06
208,2.4120896590214588e-06,1.549586387514788e-06,1.0688573166386137e-06,1.1878747871212843e-06,2.6438016208234447e-06,2.640157158550152e-06,2.3097320557552497e-06,1.8533417238133079e-06,4.541902398914616e-06,3.064265604995489e-06,7.539048261809886e-07,2.1893980250631515e-06,2.5823522288058413e-06,2.666459952445152e-05,1.1895870014775957e-06,1.8996717436284284e-06
209,2.446511067202807e-06,1.5327752033210493e-06,1.0898678970211625e-06,1.153792921021198e-06,2.6609725646454095e-06,2.6338692217223386e-06,2.292669646421798e-06,1.8312618280027564e-06,4.578753255899667e-06,3.0688023899878397e-06,7.10811035339312e-07,2.112440119847308e-06,2.5824411771508653e-06,2.6140711935171708e-05,1.167178102843718e-06,1.8592280274740393e-06
210,2.482873501812934e-06,1.5150355924605433e-06,1.1127108740272226e-06,1.1221224259972948e-06,2.679536433961551e-06,2.62452021071717e-06,2.2729293686004452e-06,1.8094740095491622e-06,4.602728725941337e-06,3.0719337616592946e-06,6.736143770971139e-07,2.0500683818130725e-06,2.584499811194349e-06,2.5545177752069523e-05,1.145984870489201e-06,1.8189369237871099e-06
211,2.5209636283344e-06,1.4961336918072036e-06,1.1367643376157845e-06,1.0936623207444699e-06,2.701868589325386e-06,2.6123080757343747e-06,2.2520893996040575e-06,1.7884728273563077e-06,4.611746035239033e-06,3.0745119819886807e-06,6.42119300892494e-07,2.0023266988463472e-06,2.586644549529337e-06,2.488375080488589e-05,1.1263670616748993e-06,1.7782774577688476e-06
212,2.5603091518121315e-06,1.4758372860984069e-06,1.161287896890867e-06,1.0689986297015267e-06,2.7302905595222514e-06,2.5972172093536582e-06,2.2319302415003746e-06,1.768622261850558e-06,4.603913096980637e-06,3.0773322271745136e-06,6.16159489241528e-07,1.9690124303174727e-06,2.5870435102367385e-06,2.4171134028745848e-05,1.1086277669525663e-06,1.7369503663427659e-06
213,2.60001069857445e-06,1.4539309264650996e-06,1.1854320819892874e-06,1.04849424097115e-06,2.7668066258367027e-06,2.579157628120467e-06,2.214069635227502e-06,1.750228282189766e-06,4.577394779193735e-06,3.0807924766404543e-06,5.956128144218015e-07,1.9496675699010115e-06,2.5842875917458853e-06,2.3428269201733916e-05,1.093018513668084e-06,1.6949969276105636e-06
214,2.6387948902962887e-06,1.4303414108244154e-06,1.2082754637879827e-06,1.0322961890063213e-06,2.812958704457095e-06,2.5581570212198107e-06,2.1998296171684887e-06,1.733686077300001e-06,4.5304867127577e-06,3.084704856448652e-06,5.8037732917979e-07,1.9435741630240992e-06,2.577874512178065e-06,2.2677917653636777e-05,1.079792389518357e-06,1.6527936349519158e-06
215,2.6751348434466827e-06,1.4051709016113646e-06,1.228974255755032e-06,1.0203505729254818e-06,2.869815666113052e-06,2.534508127311475e-06,2.1901836219108175e-06,1.7194964639820123e-06,4.4622220759607335e-06,3.0882805730630827e-06,5.703218518446743e-07,1.9497469502698287e-06,2.568336885430628e-06,2.194087322767722e-05,1.0692304801824343e-06,1.6109536588596014e-06
216,2.707406000838112e-06,1.3786251189140693e-06,1.246951663565777e-06,1.0124405410445986e-06,2.93799997774463e-06,2.508855697645355e-06,2.185703182494776e-06,1.708128719642323e-06,4.373076297124118e-06,3.0902657205738475e-06,5.652532679251872e-07,1.96697092481383e-06,2.5569329372569203e-06,2.1233907657705318e-05,1.061613965002096e-06,1.5702077966166708e-06
217,2.73423305390497e-06,1.3509933516738424e-06,1.2619366934498488e-06,1.0082945658929453e-06,3.0176379899309114e-06,2.4821963851345677e-06,2.186528041201772e-06,1.6999121694075675e-06,4.26520753586424e-06,3.089167650371635e-06,5.649051275062979e-07,1.9939122807867023e-06,2.545134884185057e-06,2.0569242675020154e-05,1.0571677898907802e-06,1.5312740919451763e-06
218,2.754919058979572e-06,1.3226847241363906e-06,1.2738705509602333e-06,1.007745585316559e-06,3.1082807534959525e-06,2.4557575325956767e-06,2.192401814963658e-06,1.6950628141999384e-06,4.142166187217143e-06,3.0834803134344324e-06,5.689367574847913e-07,2.029264083402598e-06,2.5341832100687737e-06,1.995464389767948e-05,1.0559980250405295e-06,1.4947151212830415e-06
219,2.7695527128781984e-06,1.294181137160061e-06,1.282881770488933e-06,1.0108203277902998e-06,3.2089645157892338e-06,2.4307684019191346e-06,2.2027845900387815e-06,1.6937156379795888e-06,4.00828030205278e-06,3.0719014160207043e-06,5.769344827758764e-07,2.07182224110145e-06,2.524879221866638e-06,1.939345454887536e-05,1.0580309736028457e-06,1.4608575361826402e-06
220,2.7786574032166235e-06,1.2659189330354447e-06,1.2893180012337873e-06,1.0176751229825785e-06,3.3184109035574126e-06,2.4082208163327355e-06,2.2169609570725046e-06,1.695858112382083e-06,3.868055354342271e-06,3.0535912500044076e-06,5.884127118315655e-07,2.1204338200166136e-06,2.5176236006013636e-06,1.8884559384447004e-05,1.0629738965460195e-06,1.429825415588751e-06
221,2.782714157775602e-06,1.238213489106073e-06,1.2936707414772212e-06,1.0284711551294597e-06,3.4351153006762317e-06,2.3887836946283644e-06,2.2340604888067863e-06,1.7012464681937153e-06,3.7258464880097083e-06,3.028406152431332e-06,6.028280339122251e-07,2.1739131484985597e-06,2.512585353672584e-06,1.8422454505738388e-05,1.0703300093960206e-06,1.4016160000429893e-06
222,2.7819243750415914e-06,1.2112542406174537e-06,1.2964429182335412e-06,1.0433133871309153e-06,3.5571795690249963e-06,2.3729831292571974e-06,2.2530249988401e-06,1.7093843699750095e-06,3.58573064423163e-06,2.9969321173741654e-06,6.196226870492543e-07,2.231042897332136e-06,2.5098520685594823e-06,1.799759918777981e-05,1.079485751633873e-06,1.376147494503773e-06
223,2.7762406477603666e-06,1.1851832935608258e-06,1.2980717077264606e-06,1.0622318855775385e-06,3.682083173665635e-06,2.361507119835997e-06,2.272626764716967e-06,1.7195921742987415e-06,3.451383350206896e-06,2.960263115510137e-06,6.382706990457144e-07,2.290585760158886e-06,2.5094797715038625e-06,1.7597407846482875e-05,1.0898257696603466e-06,1.3532961864926424e-06
224,2.7655036981481877e-06,1.1602316681253274e-06,1.2988836077775956e-06,1.085159684506051e-06,3.8066601385217223e-06,2.3552964980859602e-06,2.2915834034871386e-06,1.731169232635314e-06,3.3259189836509683e-06,2.919660841160337e-06,6.582933696198412e-07,2.3511847176398804e-06,2.5114529865427426e-06,1.7208026342186497e-05,1.1007791847373767e-06,1.3329186176359812e-06
225,2.7495638620797993e-06,1.1367634381504796e-06,1.299063802896221e-06,1.1119171734515025e-06,3.927323724111051e-06,2.3553238281365656e-06,2.30866386524899e-06,1.7435026851179502e-06,3.2117557791644155e-06,2.8762547106132893e-06,6.792814109036307e-07,2.411272424931907e-06,2.5155729942570755e-06,1.681650635887658e-05,1.1117862979804062e-06,1.314839220111381e-06
226,2.7283194434779313e-06,1.1151690093258231e-06,1.2986499213855206e-06,1.1422070210602793e-06,4.0403967974503696e-06,2.362351343595628e-06,2.3226513508700563e-06,1.7559904726183766e-06,3.1105519658370384e-06,2.830896932672127e-06,7.009270164621461e-07,2.469143286297359e-06,2.5213056103664655e-06,1.641269833364203e-05,1.1222779935373536e-06,1.2988490627421483e-06
227,2.7016864245831354e-06,1.095736619458368e-06,1.2975894816843818e-06,1.1756369602632348e-06,4.1424447959516545e-06,2.376893939559816e-06,2.3322727570014042e-06,1.7679458536145949e-06,3.023235497958668e-06,2.7842450875213832e-06,7.229833589031887e-07,2.523088827511869e-06,2.5277157370907818e-06,1.5990233800485775e-05,1.1317006054449448e-06,1.2847140734844138e-06
228,2.6695999832716234e-06,1.0785860947156985e-06,1.2958856509751636e-06,1.2117853654318017e-06,4.23063572369408e-06,2.399311389258291e-06,2.3363339096786234e-06,1.7786998728820804e-06,2.950123481952137e-06,2.7369726893658256e-06,7.451606571959809e-07,2.5715178923893132e-06,2.5336277458796445e-06,1.554638512356387e-05,1.1395475213021366e-06,1.2721211921205767e-06
229,2.6321090752751703e-06,1.063660107957433e-06,1.2936828824578634e-06,1.2502623926197112e-06,4.30313665266409e-06,2.429907847468368e-06,2.334021188753444e-06,1.7878057760806139e-06,2.8910534984880047e-06,2.6899169362232778e-06,7.670671119772409e-07,2.6131606716061185e-06,2.537942904648053e-06,1.508107086782923e-05,1.1454046692420837e-06,1.2606096358499698e-06
230,2.589509370583215e-06,1.0508047000036379e-06,1.2911627370046867e-06,1.2906945768961395e-06,4.3593824859039095e-06,2.4689645159037834e-06,2.325096076737225e-06,1.7951178553605924e-06,2.845443552681941e-06,2.6440903771548477e-06,7.882205982425876e-07,2.6473298152572552e-06,2.5398907332428856e-06,1.4595312067452264e-05,1.149050680572773e-06,1.2496368694345e-06
231,2.54240286774406e-06,1.039899379322267e-06,1.2883752688691071e-06,1.3326329184457616e-06,4.399962488208872e-06,2.516639746428028e-06,2.309834434615381e-06,1.8007051643590554e-06,2.812335668218847e-06,2.6005372130780724e-06,8.080726200033856e-07,2.6740287619880302e-06,2.5391845255411036e-06,1.40895322820864e-05,1.1505721987717031e-06,1.23876207014367e-06
232,2.491594723046365e-06,1.030889682917873e-06,1.285158706502159e-06,1.3754801031689148e-06,4.426065677026767e-06,2.5728019731096743e-06,2.288793849904386e-06,1.8047255701615034e-06,2.7904642635387226e-06,2.560077622192512e-06,8.260606023205675e-07,2.6938130332123826e-06,2.536207879309559e-06,1.3562685241069704e-05,1.1503586907312032e-06,1.2277264664171957e-06
233,2.437866854509102e-06,1.0237220650559287e-06,1.2811503598857224e-06,1.4184887404934726e-06,4.438808276353007e-06,2.6369492133139034e-06,2.262614592308611e-06,1.8073558771557016e-06,2.7782874708650585e-06,2.523107245510715e-06,8.417662239288488e-07,2.707557141583646e-06,2.532113955760615e-06,1.3012863216349978e-05,1.1489388711947286e-06,1.2163482237740905e-06
234,2.3818787189752162e-06,1.018305009254917e-06,1.2758730270911725e-06,1.4607916694817701e-06,4.438895654786429e-06,2.7082127343341257e-06,2.2319947614045115e-06,1.808743647095434e-06,2.774080106362013e-06,2.4895330307969595e-06,8.551030104516966e-07,2.7163419174546535e-06,2.5285796616202742e-06,1.2438631290234606e-05,1.1468406474607761e-06,1.2044408838713003e-06
235,2.3243417257455046e-06,1.014506471631125e-06,1.2688905245398486e-06,1.501469830093952e-06,4.4266411260089646e-06,2.7853193685123645e-06,2.1977794105144662e-06,1.8089112945175946e-06,2.776259863264091e-06,2.458804886338307e-06,8.66332186734344e-07,2.721502510823933e-06,2.5272971574207726e-06,1.1840094572321738e-05,1.1446014215105072e-06,1.1919249993288804e-06
236,2.2661929990362375e-06,1.0121931477016824e-06,1.2599775113471705e-06,1.5396528335300789e-06,4.4019782972265465e-06,2.866559096535722e-06,2.161008327259166e-06,1.807650634106698e-06,2.783816711253086e-06,2.4300579519326983e-06,8.758756077783485e-07,2.7246808650632025e-06,2.529560159855621e-06,1.1219546461367372e-05,1.1428147058350425e-06,1.1789865935181707e-06
237,2.2084820358570638e-06,1.0113627878664319e-06,1.249221922422435e-06,1.5745683270676323e-06,4.364393056458586e-06,2.949992948554281e-06,2.122868673611239e-06,1.8044868356329458e-06,2.7964881178683615e-06,2.402365801372918e-06,8.841176855696933e-07,2.7277446393559647e-06,2.5361251056382076e-06,1.058175838194265e-05,1.142116912671392e-06,1.1660431006288942e-06
238,2.1520879865767968e-06,1.0122698336452659e-06,1.2369931970142665e-06,1.6055202628241342e-06,4.313051947028697e-06,3.0339714362840337e-06,2.0845996738927925e-06,1.798742199137394e-06,2.8145511145428346e-06,2.374973303118501e-06,8.913637903268111e-07,2.7326234778415e-06,2.5473043024348073e-06,9.933761566648968e-06,1.1431256185530023e-06,1.1535387702604667e-06
239,2.097547507656188e-06,1.0153923917808372e-06,1.2237922095518115e-06,1.6318369307511206e-06,4.247229322203723e-06,3.1176605336974072e-06,2.047372611615932e-06,1.7897267233315751e-06,2.8384969350713735e-06,2.347373532876711e-06,8.979054733231313e-07,2.7411884333535414e-06,2.563186420002484e-06,9.284069740213192e-06,1.1463531678807247e-06,1.141785139388928e-06
240,2.0451625958384502e-06,1.0212733396754023e-06,1.2100805672846132e-06,1.652849233315469e-06,4.16684547448898e-06,3.201151354932717e-06,2.0121590117288406e-06,1.7769968971943993e-06,2.8688427361198026e-06,2.319208453647185e-06,9.040334999298456e-07,2.755168210001366e-06,2.5837974779675926e-06,8.641581344630183e-06,1.152173279251335e-06,1.1309462120944604e-06
241,1.99533845375783e-06,1.0304021354349143e-06,1.1961753076704429e-06,1.6680177715422728e-06,4.0728461949467625e-06,3.2850652769677215e-06,1.9796475248717702e-06,1.7604784585862467e-06,2.906054293479254e-06,2.29009745055531e-06,9.099630016137607e-07,2.776016776954136e-06,2.6091210459914395e-06,8.014535927910072e-06,1.160858930254611e-06,1.1210784723934788e-06
242,1.9488125299487416e-06,1.043195833423406e-06,1.1822568848106135e-06,1.6771768205899049e-06,3.967210540697485e-06,3.370050276981246e-06,1.9502551107889114e-06,1.7403471866331317e-06,2.9504829901478736e-06,2.2596458354068967e-06,9.157635526251724e-07,2.804771538928001e-06,2.6391469158719767e-06,7.40980258503375e-06,1.172587628426414e-06,1.1121269936419134e-06
243,1.9065258187561058e-06,1.0599750829962023e-06,1.1684843605590118e-06,1.680616524682851e-06,3.8525935506410615e-06,3.4565847354516696e-06,1.924241233047855e-06,1.7168671974627349e-06,3.0022693217332667e-06,2.227764868596435e-06,9.213761402092739e-07,2.842020148841351e-06,2.6739975491265366e-06,6.8326065706546814e-06,1.1873758035225309e-06,1.103912954547747e-06
244,1.8693405660972627e-06,1.0809031530543988e-06,1.155127085724372e-06,1.6788711586953072e-06,3.731866500733847e-06,3.5450021549516783e-06,1.9018409107308055e-06,1.6904285898362462e-06,3.0612164972996693e-06,2.1949577122676993e-06,9.267137914972721e-07,2.8879658209126634e-06,2.713927692611712e-06,6.286670160508406e-06,1.2050167983518728e-06,1.0961846215693662e-06
245,1.8378840126736538e-06,1.105997686328905e-06,1.1426230545061107e-06,1.6724530228627722e-06,3.6077650662422456e-06,3.635390353120167e-06,1.883246532839421e-06,1.6616911454704403e-06,3.1267181878777316e-06,2.1621556319222257e-06,9.317578546580973e-07,2.942455730285479e-06,2.7591168583659343e-06,5.774629790141684e-06,1.2250766781455917e-06,1.0887217156784399e-06
246,1.8125384972540332e-06,1.1352488699132755e-06,1.1315485856921562e-06,1.661775295394986e-06,3.4826488554838585e-06,3.727326020558293e-06,1.868470174889304e-06,1.6315711838485205e-06,3.197794755407312e-06,2.1302772598370417e-06,9.365854306925665e-07,3.004916438773313e-06,2.8094061823765285e-06,5.298457195181332e-06,1.2469261416642114e-06,1.0814641741869296e-06
247,1.7935030828381912e-06,1.1687219973328367e-06,1.1225176479747687e-06,1.6472183599760997e-06,3.358374290383786e-06,3.819730158797005e-06,1.8572892960869171e-06,1.6010352392786351e-06,3.2732361792427227e-06,2.1000169211561e-06,9.413652588807328e-07,3.0743488209651547e-06,2.864142604773924e-06,4.859610695717545e-06,1.2697935600337693e-06,1.0746181315362926e-06
248,1.7808576331313715e-06,1.2065344072348395e-06,1.1160472564561422e-06,1.629222346773061e-06,3.236261403447052e-06,3.911089411660293e-06,1.8493168032384793e-06,1.5708788389639948e-06,3.3518464270116397e-06,2.0719728760479066e-06,9.463621600093197e-07,3.149549385178612e-06,2.922210431960123e-06,4.458885967448594e-06,1.2928575975825983e-06,1.0686360419238984e-06
249,1.7745964343792826e-06,1.248735472505235e-06,1.1124561467978886e-06,1.6083892407265837e-06,3.1170498522013566e-06,3.999972721547767e-06,1.844118510489923e-06,1.5416281142716696e-06,3.4326763298213846e-06,2.0467843535630613e-06,9.519195057780977e-07,3.229423092302397e-06,2.9822037938340218e-06,4.096188338239039e-06,1.3153210436456285e-06,1.06406176863141e-06
250,1.7746294061045036e-06,1.2951921117857437e-06,1.1118461370202602e-06,1.585541274592981e-06,3.000904972517434e-06,4.0854517921945835e-06,1.8413194822383822e-06,1.5135947412304193e-06,3.515038581128643e-06,2.025088743807501e-06,9.584031047963292e-07,3.31307386933529e-06,3.0425627898604613e-06,3.7704679662632123e-06,1.3364068309413437e-06,1.061384997857406e-06
251,1.7807283441532713e-06,1.3455494635538226e-06,1.1141417161763884e-06,1.5616412569711438e-06,2.8876834236798663e-06,4.167070796147731e-06,1.8406252729866202e-06,1.4870552817252739e-06,3.5982484001558447e-06,2.007458247176898e-06,9.661594992596767e-07,3.3996107264786733e-06,3.1016626483932794e-06,3.479890269419207e-06,1.3553637077270346e-06,1.0610199095763411e-06
252,1.7924744510446505e-06,1.399251967749158e-06,1.1191178551239394e-06,1.5376393547147155e-06,2.7774594374953455e-06,4.244462817781869e-06,1.8417301641221962e-06,1.4624115553099229e-06,3.6813172319626247e-06,1.9943987482773677e-06,9.755135076697021e-07,3.487913555328802e-06,3.15804956286731e-06,3.2220806684721817e-06,1.3715134785025265e-06,1.0633837162243658e-06
253,1.8093187213725927e-06,1.4555600528129069e-06,1.1263940131595623e-06,1.5144400858714157e-06,2.6709831560380494e-06,4.317079830529013e-06,1.8442084915021398e-06,1.440172601914295e-06,3.7629108300944214e-06,1.9862804845119123e-06,9.867467782610654e-07,3.5765863742181475e-06,3.210703964154666e-06,2.9942418401374987e-06,1.3842657878324262e-06,1.0689603100512634e-06
254,1.8307321879559212e-06,1.5135499969809655e-06,1.1354525000632224e-06,1.4930205244713233e-06,2.569696469704814e-06,4.384347347028426e-06,1.8475085025484433e-06,1.4208308936379678e-06,3.8416552099178555e-06,1.983202240355977e-06,1.000033733447306e-06,3.6641160075582874e-06,3.2589761789861164e-06,2.7932399391374865e-06,1.3931842347887014e-06,1.078262618122956e-06
255,1.8563051712496089e-06,1.5721483925221144e-06,1.145729166984798e-06,1.4745114383002853e-06,2.4753022242129304e-06,4.4460604491243034e-06,1.8510523341703274e-06,1.404809821311317e-06,3.916602530439227e-06,1.9849307147971402e-06,1.0153868352767103e-06,3.749092546749084e-06,3.3022787290312076e-06,2.615848167137975e-06,1.3981727290453595e-06,1.091737184573354e-06
256,1.8856963344832378e-06,1.630262013598897e-06,1.156734736418991e-06,1.4601041677188885e-06,2.3892773541415214e-06,4.502524953735914e-06,1.8543665732235135e-06,1.3924644878131784e-06,3.9875025198221605e-06,1.9909243348544625e-06,1.0326460360403797e-06,3.830305894321008e-06,3.3399216932527028e-06,2.459036679963062e-06,1.3995874726056893e-06,1.1096974335558877e-06
257,1.918463492516054e-06,1.686964776790491e-06,1.168111421014817e-06,1.4508613381982922e-06,2.3126712229575817e-06,4.5542123327408555e-06,1.8571896648886396e-06,1.3840453376983114e-06,4.054579673043374e-06,2.0003654467134857e-06,1.0515078269657684e-06,3.90663359145986e-06,3.37115287696988e-06,2.320123630977774e-06,1.3981321141843517e-06,1.1322899712462402e-06
258,1.953930884472665e-06,1.7415657733330025e-06,1.179575514828542e-06,1.4476034675416664e-06,2.2461875911749794e-06,4.601328248195971e-06,1.859501712569452e-06,1.3796810453455548e-06,4.118015210162077e-06,2.0122366563203245e-06,1.0715880683425816e-06,3.976851215373953e-06,3.3952339138255562e-06,2.1967420451880083e-06,1.3946682101526148e-06,1.159478961243723e-06
259,1.991262922233472e-06,1.7934985989191128e-06,1.1908232957004029e-06,1.450926302735697e-06,2.1903220050841024e-06,4.643769036226926e-06,1.8614171969558835e-06,1.379435497277204e-06,4.177710630240171e-06,2.025514528412187e-06,1.0925127521413478e-06,4.039611583551218e-06,3.411503720843313e-06,2.086657611273688e-06,1.390085327906352e-06,1.1910640711950504e-06
260,2.029732146904634e-06,1.8421831907922694e-06,1.2015224921288141e-06,1.4612403420999381e-06,2.14539738116563e-06,4.681368372699312e-06,1.862979599173255e-06,1.3833537784277641e-06,4.23345392181889e-06,2.0394045904907364e-06,1.1139725505573146e-06,4.093683891610895e-06,3.419440071075311e-06,1.987620694334213e-06,1.3852060606691391e-06,1.2267167276782905e-06
261,2.0689402642211736e-06,1.8869403372487852e-06,1.2113577316345923e-06,1.4787355208220406e-06,2.1116043544981224e-06,4.714124222976226e-06,1.86399417430123e-06,1.3914587495050569e-06,4.285023684697767e-06,2.053457042180619e-06,1.1356733084957925e-06,4.138280368923579e-06,3.4186827607321187e-06,1.8974683668930369e-06,1.3806752943641934e-06,1.2660019159873972e-06
262,2.108805164720844e-06,1.9269156109926657e-06,1.220022131422733e-06,1.5033188484101724e-06,2.089152759798696e-06,4.742344350446295e-06,1.8639947253847769e-06,1.4037556093419125e-06,4.3320154582526294e-06,2.06748857541024e-06,1.1572356631869732e-06,4.173218502538967e-06,3.408941522262728e-06,1.814430144507603e-06,1.3768826592206559e-06,1.3083734191036039e-06
263,2.1493630316492223e-06,1.961083472807435e-06,1.2272237726404212e-06,1.5346142664641336e-06,2.078374788241802e-06,4.766760089884393e-06,1.8623508552149252e-06,1.4202233635218427e-06,4.37379617153277e-06,2.0813617868560485e-06,1.178139156240527e-06,4.198864173291409e-06,3.389793460090828e-06,1.7373500115557912e-06,1.373995286433029e-06,1.3531674758688585e-06
264,2.1905294501024176e-06,1.988445744039701e-06,1.2328128688465202e-06,1.5720117120404404e-06,2.0796427594991253e-06,4.7886048055116525e-06,1.8584975988664896e-06,1.4407904430562703e-06,4.409931869471558e-06,2.094801390943756e-06,1.1977573149181741e-06,4.216007214709862e-06,3.360612035035002e-06,1.6656007520664124e-06,1.3720600315732392e-06,1.3996753699375433e-06
265,2.2319122526108583e-06,2.008324616087334e-06,1.236926596848445e-06,1.614689408095495e-06,2.0931977268343488e-06,4.809572138070838e-06,1.8521972787328575e-06,1.4653601699613362e-06,4.440704852344133e-06,2.1074833735987336e-06,1.2154569338051044e-06,4.225770564444699e-06,3.320866303434228e-06,1.5987559029476143e-06,1.3710366310143048e-06,1.4473194283332177e-06
266,2.2727172109346397e-06,2.0205373031493364e-06,1.239990654952928e-06,1.6616085267229046e-06,2.119051012130681e-06,4.831522084834748e-06,1.8436259048038471e-06,1.4938178228061493e-06,4.467087176456548e-06,2.1193567382721042e-06,1.2306531271246882e-06,4.229532589373121e-06,3.2706713209972183e-06,1.5363244792839496e-06,1.3707385816541578e-06,1.4958296429306797e-06
267,2.3118180430583893e-06,2.025375961272484e-06,1.2425681470683426e-06,1.7115544431487268e-06,2.1570137114176556e-06,4.855957197095173e-06,1.8332446497118005e-06,1.525940457774825e-06,4.490211619491576e-06,2.1307953373250535e-06,1.2428049914118842e-06,4.228876699181624e-06,3.2112079058372472e-06,1.4777544840543007e-06,1.3708232497925406e-06,1.545294818196672e-06
268,2.3480508278284686e-06,2.02347418613662e-06,1.2451946053152813e-06,1.7632450866750168e-06,2.2067456152077784e-06,4.883574950322413e-06,1.8216977004058217e-06,1.561305935061355e-06,4.510919404683002e-06,2.1424002725698297e-06,1.2514734554849943e-06,4.225575979756638e-06,3.144686729488697e-06,1.4225465727476284e-06,1.3709596326075168e-06,1.59603681020895e-06
269,2.3806113691081303e-06,2.015655983252677e-06,1.2483196765977293e-06,1.8154733144338395e-06,2.2677330919551188e-06,4.914230248711729e-06,1.8098426135376727e-06,1.599286873537301e-06,4.529658364519889e-06,2.154739439100888e-06,1.2564600945518223e-06,4.221467605800944e-06,3.073858519433169e-06,1.3702470256085475e-06,1.3711148361264651e-06,1.6484035698500072e-06
270,2.4093060655893035e-06,2.0027924304895935e-06,1.2523114672226058e-06,1.8672763797910045e-06,2.339270140722607e-06,4.947329382468722e-06,1.7987600257833083e-06,1.639129078081662e-06,4.546504793439893e-06,2.168269176583197e-06,1.2578917285618561e-06,4.218152186566653e-06,3.0014115521842053e-06,1.3204340672270359e-06,1.3717156798919443e-06,1.7026630042130954e-06
271,2.4345257376701676e-06,1.985692008671828e-06,1.2574395149274543e-06,1.918095353304566e-06,2.4204564963870044e-06,4.9823041907609014e-06,1.7896383150839875e-06,1.6801190993021358e-06,4.561066299757919e-06,2.1834115187053127e-06,1.2561679378951823e-06,4.216737983126851e-06,2.9295673833977614e-06,1.27291094203651e-06,1.37352533294174e-06,1.7590363502928715e-06
272,2.456991253788556e-06,1.9650637698388864e-06,1.263859300115592e-06,1.967804748908051e-06,2.51011211346577e-06,5.018712043409076e-06,1.7835776536402609e-06,1.721735160255523e-06,4.572361239728297e-06,2.200671763093281e-06,1.2518360997239824e-06,4.217755222826097e-06,2.859934368121595e-06,1.2279787810230725e-06,1.3773550675477128e-06,1.8177282001722647e-06
273,2.4774428771252497e-06,1.9415065370219884e-06,1.271649461784827e-06,2.0165264475307843e-06,2.60667237150214e-06,5.055898000931587e-06,1.781441740072152e-06,1.763595848582904e-06,4.5789408134846825e-06,2.2206689352398342e-06,1.2454782638325641e-06,4.22111658314244e-06,2.7935980517014653e-06,1.1864913978717697e-06,1.3838383472870305e-06,1.8788598981536318e-06
274,2.496513430440806e-06,1.9154834072988876e-06,1.2808877937485863e-06,2.064315793429612e-06,2.708229412219674e-06,5.092652861696679e-06,1.7838902155786018e-06,1.805239297770052e-06,4.579272645236388e-06,2.2440886313062738e-06,1.2376147864801161e-06,4.226137691369643e-06,2.7314101130277526e-06,1.1496619212590483e-06,1.3933463440695626e-06,1.9423862070939735e-06
275,2.5148153376290046e-06,1.8873819310811349e-06,1.2916986447541552e-06,2.110911815356597e-06,2.8127021323308603e-06,5.127261348114913e-06,1.791558096790851e-06,1.845973835623587e-06,4.572140045461991e-06,2.2717364784080037e-06,1.228631091075154e-06,4.23173247742428e-06,2.6742620921431643e-06,1.118886026492805e-06,1.4059814132677467e-06,2.008102840544523e-06
276,2.5329725791797623e-06,1.85767511336416e-06,1.3042093009912793e-06,2.1556385732570917e-06,2.9179878185631324e-06,5.157843348352344e-06,1.8051667728701869e-06,1.88498716859492e-06,4.556853252518048e-06,2.304634015719216e-06,1.2187635454606528e-06,4.236689274754017e-06,2.6230966752008898e-06,1.095721681244858e-06,1.4215887119731552e-06,2.075704572315464e-06
277,2.5514902258560425e-06,1.8269658087995206e-06,1.3184261694195446e-06,2.197417970946889e-06,3.022010313946469e-06,5.182542596829371e-06,1.8254948325758831e-06,1.9216860844818043e-06,4.533197842016932e-06,2.343889314382088e-06,1.2081130388631621e-06,4.239848415010211e-06,2.578762688558781e-06,1.0818864430886283e-06,1.4397753295622418e-06,2.1447755754756092e-06
278,2.570639670039858e-06,1.795806042584368e-06,1.3341269593610382e-06,2.2348319172588747e-06,3.122658657706335e-06,5.1993252635063455e-06,1.8533671889814006e-06,1.9559857256755945e-06,4.501232061498766e-06,2.3904204452649053e-06,1.1966316487079636e-06,4.2401254339757715e-06,2.541980474503609e-06,1.0792360670737546e-06,1.4599508268812594e-06,2.2147419255650964e-06
279,2.590423526262722e-06,1.7644926861430195e-06,1.3508724150370872e-06,2.2662211026407712e-06,3.217652324342489e-06,5.205746797074604e-06,1.8896654045635051e-06,1.988255345482357e-06,4.461224882394236e-06,2.444842437482835e-06,1.1841241884342042e-06,4.236453515467384e-06,2.5133500214034175e-06,1.0898165673344577e-06,1.481392280022751e-06,2.2849153411755717e-06
280,2.610598663349518e-06,1.7330789552940248e-06,1.3681571464535987e-06,2.289913113112731e-06,3.3045022042499965e-06,5.199207585880878e-06,1.9352145517323956e-06,2.0189631237873775e-06,4.413819993003322e-06,2.507528126135634e-06,1.1703084060327845e-06,4.2278125354632294e-06,2.4932180145574074e-06,1.1159221055007142e-06,1.5033194542013458e-06,2.3546068109595365e-06
281,2.6308438754720225e-06,1.701585709971573e-06,1.3855968231817632e-06,2.3045807449418756e-06,3.3808096808392757e-06,5.1776287855761864e-06,1.990635284161306e-06,2.048360750132215e-06,4.360182008002814e-06,2.578618510143417e-06,1.1548754114758843e-06,4.213444039826629e-06,2.4815301528427884e-06,1.1600908100049202e-06,1.5249749946984792e-06,2.423188211457274e-06
282,2.651018652892728e-06,1.670155639010756e-06,1.4029969850346887e-06,2.309481106984003e-06,3.4448074881512116e-06,5.139988039776283e-06,2.056331958186436e-06,2.076456929525728e-06,4.301923928294961e-06,2.6579223713572357e-06,1.1375150289818493e-06,4.193097120589484e-06,2.4778762305410897e-06,1.225058980120888e-06,1.545711967076429e-06,2.4900724071354622e-06
283,2.6712392359679766e-06,1.6389797316361388e-06,1.4202730622844765e-06,2.304412397454358e-06,3.495632724436526e-06,5.086350586088106e-06,2.132564074177226e-06,2.103178957818839e-06,4.240812982549459e-06,2.74486545698694e-06,1.1179694013813806e-06,4.167063655360284e-06,2.481637384458735e-06,1.3136711598193243e-06,1.5650690096749165e-06,2.55468196944558e-06
284,2.6916410091123265e-06,1.6081298515087327e-06,1.4373563124162482e-06,2.289557980101594e-06,3.5330407535943302e-06,5.017543330754232e-06,2.2194883348448407e-06,2.1284403525931027e-06,4.178426696552101e-06,2.8385662862272705e-06,1.0961592971898322e-06,4.135981848085274e-06,2.492044678828673e-06,1.4288154513044745e-06,1.5827732004056078e-06,2.616510017379886e-06
285,2.7120530205326957e-06,1.5774831242348362e-06,1.4541765931494593e-06,2.2654572102223556e-06,3.556947595925509e-06,4.934901266439409e-06,2.317149275324458e-06,2.1520382319611547e-06,4.116030113640343e-06,2.937880908327131e-06,1.0723058248486614e-06,4.100621535645772e-06,2.508217677064341e-06,1.5734693660170869e-06,1.598675139551715e-06,2.6752872451546655e-06
286,2.7319189369509026e-06,1.5467650165784726e-06,1.4706512088787806e-06,2.2331132417966666e-06,3.567380591300499e-06,4.840334530737346e-06,2.4254064631992026e-06,2.173613125046596e-06,4.054702499583216e-06,3.0413103134578595e-06,1.0469225370616481e-06,4.061863384327371e-06,2.5292941269786383e-06,1.7509088674980265e-06,1.6127229713675749e-06,2.7311021501820765e-06
287,2.7505511599552557e-06,1.5156953714837411e-06,1.486631276134768e-06,2.194031047722372e-06,3.564836538439494e-06,4.7365556324259946e-06,2.5437979614559907e-06,2.192851893837411e-06,3.995459692663672e-06,3.1469749197674418e-06,1.0206796040859789e-06,4.020804808444933e-06,2.554547715117171e-06,1.965020790358167e-06,1.6249743294026831e-06,2.7843567220091885e-06
288,2.7674740066975216e-06,1.4841694712630616e-06,1.5018932480713427e-06,2.1500340756881933e-06,3.5505450509461924e-06,4.627101422550773e-06,2.671403416051886e-06,2.209761321788259e-06,3.939256843079725e-06,3.2528807768130055e-06,9.942698407102645e-07,3.978719605134009e-06,2.5834366567948702e-06,2.2203551738393714e-06,1.63555850321393e-06,2.8356401570515922e-06
289,2.782499160399803e-06,1.4523379733949707e-06,1.5162130079292227e-06,2.1030122621167214e-06,3.5262868504857234e-06,4.51596307522569e-06,2.8067814215090704e-06,2.224730840007301e-06,3.886988660563548e-06,3.3572709099504297e-06,9.683589648711608e-07,3.936812006546987e-06,2.615636255784942e-06,2.5217385900836847e-06,1.6445970141449113e-06,2.8856004969319714e-06
290,2.79545264258295e-06,1.4205563166591305e-06,1.5294367021839316e-06,2.054842351361514e-06,3.493883113536406e-06,4.407074751785712e-06,2.9479654790486182e-06,2.2383985236286847e-06,3.839505542862137e-06,3.458683957974023e-06,9.435836331124115e-07,3.895996244808096e-06,2.6509697037072784e-06,2.873817858697314e-06,1.6520989561894673e-06,2.9347676031439555e-06
291,2.8058436022443634e-06,1.3892816526882133e-06,1.5414898075515137e-06,2.007402862057e-06,3.4547825165001162e-06,4.304071563953706e-06,3.0924725388816297e-06,2.2515473352403086e-06,3.7974843306736523e-06,3.555761173305186e-06,9.205293222214978e-07,3.856899750667462e-06,2.6891568496238005e-06,3.2808697815524736e-06,1.6578645231850358e-06,2.9833699470020143e-06
292,2.8128045310486574e-06,1.358964213061093e-06,1.5523159816062386e-06,1.9624744514935555e-06,3.410050315223025e-06,4.2102824654543124e-06,3.2374382131008216e-06,2.2650691941125025e-06,3.7611344073507604e-06,3.647046166153057e-06,8.996696808161096e-07,3.820054292051176e-06,2.7295471996395595e-06,3.7468328932127353e-06,1.66151158161802e-06,3.031295585979739e-06
293,2.8153924855768857e-06,1.3299744776468234e-06,1.561778823753885e-06,1.92158529333872e-06,3.3606454642187e-06,4.128678458067316e-06,3.380016177531515e-06,2.2798607357431557e-06,3.72998373786078e-06,3.7308160088225198e-06,8.813085755909624e-07,3.7860686238285886e-06,2.771001446878383e-06,4.275368406604259e-06,1.6626686536186854e-06,3.078181273551205e-06
294,2.813046054125377e-06,1.3026166847245585e-06,1.569643518183631e-06,1.8859538136416716e-06,3.3076528757140974e-06,4.06186825974494e-06,3.51790293765163e-06,2.2966859750806304e-06,3.702987985489705e-06,3.80506162250505e-06,8.655877411842833e-07,3.7556070114172508e-06,2.8119108920814065e-06,4.869791991004695e-06,1.6612262678419577e-06,3.12343053829456e-06
295,2.805861680387966e-06,1.2771786836332506e-06,1.5756921244264165e-06,1.8564889363959011e-06,3.2522524557635674e-06,4.0122599314901645e-06,3.6497137741327955e-06,2.3161455010030276e-06,3.6789856433778114e-06,3.8678088719517814e-06,8.525722983066021e-07,3.7291737339151006e-06,2.8503784828997124e-06,5.532858970651235e-06,1.6574518159073769e-06,3.166074870465153e-06
296,2.794524212417007e-06,1.2539149125769206e-06,1.5798389303044438e-06,1.8337619272791956e-06,3.1954866979487464e-06,3.982112996105345e-06,3.7750332018437883e-06,2.3386936714211488e-06,3.6572695277009128e-06,3.9175801237125576e-06,8.423402963867212e-07,3.706830010443507e-06,2.8845186896164003e-06,6.266575609435296e-06,1.651862929303729e-06,3.2046533104428536e-06
297,2.7800011167640465e-06,1.2329744907767376e-06,1.5821257919438333e-06,1.8179930871866624e-06,3.1381298976080032e-06,3.9733119096668085e-06,3.894066333018261e-06,2.364569029657988e-06,3.637925377939701e-06,3.9535839427498056e-06,8.349932215321405e-07,3.687960150444431e-06,2.912598946872331e-06,7.07221047421897e-06,1.645006239023558e-06,3.237307006693442e-06
298,2.7632292563703384e-06,1.2143962186375403e-06,1.582656428681475e-06,1.809142394242432e-06,3.080762021379152e-06,3.987093687199975e-06,4.007049432779263e-06,2.393687043919134e-06,3.62175558018452e-06,3.975518926646962e-06,8.305938041361955e-07,3.671155353840838e-06,2.932987908028877e-06,7.950490157054939e-06,1.6373494701844711e-06,3.262061780775966e-06
299,2.7449569040598043e-06,1.1981880401549736e-06,1.581558421734272e-06,1.80708816606957e-06,3.0238439832905075e-06,4.023952763686366e-06,4.113770565939998e-06,2.4256331806713352e-06,3.6098867026559345e-06,3.98324480607198e-06,8.291000927011049e-07,3.6542775131155653e-06,2.9443488783235115e-06,8.901850267340115e-06,1.6292710969725029e-06,3.2771514795314903e-06
300,2.72575043820044e-06,1.184350380111045e-06,1.5790292248178401e-06,1.8117438113792598e-06,2.9678329926383524e-06,4.0836648971977225e-06,4.2133360542362516e-06,2.4598056295114954e-06,3.6032799027397884e-06,3.9766632348507334e-06,8.303395512541884e-07,3.6347585258175407e-06,2.946235325020772e-06,9.92651176813971e-06,1.6210472863273113e-06,3.2812681090297347e-06
301,2.7060571556114154e-06,1.1728230245491326e-06,1.5755084091410868e-06,1.8230050105186073e-06,2.9134397667563627e-06,4.165283183214112e-06,4.3040772181966634e-06,2.495611706654368e-06,3.6023719046794184e-06,3.9558723612551734e-06,8.340200616182136e-07,3.6100956236230515e-06,2.9395165607023774e-06,1.1024087863869836e-05,1.6128491464619087e-06,3.2736758069711637e-06
302,2.686206167021388e-06,1.1634815696566834e-06,1.571813520483254e-06,1.84064237191813e-06,2.861708587200007e-06,4.267094836066644e-06,4.383596514173571e-06,2.5325213306711618e-06,3.6070455928862897e-06,3.921318402146006e-06,8.397571765192674e-07,3.5783348690530068e-06,2.926111821223078e-06,1.2192782383942536e-05,1.60474101538371e-06,3.2541909690945016e-06
303,2.666336238337185e-06,1.1561915950900152e-06,1.5690298902597176e-06,1.8643163047247495e-06,2.813716943258539e-06,4.3866430250976995e-06,4.449051458463632e-06,2.5699140732481072e-06,3.616946593001627e-06,3.873757554811103e-06,8.471001689932697e-07,3.5383008805790972e-06,2.9083128758160802e-06,1.3428617525269495e-05,1.5966397681014444e-06,3.2230983385460595e-06
304,2.646374847062912e-06,1.1508364064353734e-06,1.5682761420710148e-06,1.893682036211395e-06,2.770185908514467e-06,4.520903656523031e-06,4.497633232026426e-06,2.6069171993317644e-06,3.63184544669733e-06,3.8141822615536417e-06,8.555376635819939e-07,3.489551026530664e-06,2.8882822675656906e-06,1.472491317805724e-05,1.5883064009336148e-06,3.1810811307657257e-06
305,2.6261525610948653e-06,1.147289684138207e-06,1.5705549388803932e-06,1.928442758989688e-06,2.731283519224492e-06,4.666602567083095e-06,4.527056779462038e-06,2.642431181438848e-06,3.651699379960007e-06,3.743770014485464e-06,8.64479659389654e-07,3.4322594905492377e-06,2.8678548691464962e-06,1.6071956418293805e-05,1.5794217875607945e-06,3.1291641057134755e-06
306,2.60552150198841e-06,1.1453694020238104e-06,1.5767097916532324e-06,1.968317849931174e-06,2.696628820727531e-06,4.820543225028175e-06,4.535940168517846e-06,2.6752609177094723e-06,3.676521745448297e-06,3.663677755569597e-06,8.732501524325234e-07,3.367171086856921e-06,2.8484714215766396e-06,1.745679816491025e-05,1.569664632025346e-06,3.0686195273773747e-06
307,2.5842925164032617e-06,1.1448369516026143e-06,1.5874470632269817e-06,2.012954653487813e-06,2.6654149525583564e-06,4.9797884369376665e-06,4.5240113240429685e-06,2.7041486323512183e-06,3.706431856870969e-06,3.574860279966345e-06,8.811354137412723e-07,3.295526837228986e-06,2.831174663301715e-06,1.8863062819026337e-05,1.558709013050135e-06,3.0008509065605824e-06
308,2.562034159450962e-06,1.1454438358557476e-06,1.6033520075762436e-06,2.0618168996242047e-06,2.636534744923363e-06,5.141669453406466e-06,4.492035753802968e-06,2.7277112924782586e-06,3.7418199865611176e-06,3.4782858720981633e-06,8.875095804291598e-07,3.2188436966911815e-06,2.816651140882622e-06,2.0270713326355016e-05,1.5461600149294204e-06,2.9272674825603736e-06
309,2.537975403322896e-06,1.1469399906468505e-06,1.6248498888263986e-06,2.114141233568495e-06,2.608660668357499e-06,5.303780204374073e-06,4.441476945275644e-06,2.7444741174880233e-06,3.7832511110401456e-06,3.375387492536941e-06,8.919651927779896e-07,3.1386462248956517e-06,2.80526128618674e-06,2.165616767438723e-05,1.5315634623734368e-06,2.849100812189987e-06
310,2.51115157983975e-06,1.149006695669321e-06,1.652144854289605e-06,2.168981475433357e-06,2.5804665996968305e-06,5.464103006356047e-06,4.37411193727573e-06,2.753101510039367e-06,3.831124569162402e-06,3.2682799895688405e-06,8.943133615141287e-07,3.056305373912965e-06,2.7970839519331747e-06,2.2993488255897232e-05,1.5145712197262602e-06,2.7672332493669116e-06
311,2.480655359298063e-06,1.1512204092477005e-06,1.6851595076968379e-06,2.2252011458051155e-06,2.551061133127167e-06,5.6211724384599014e-06,4.291753270164265e-06,2.7526910059144057e-06,3.8854326971658165e-06,3.159578839581075e-06,8.94472283442767e-07,2.9729869996867406e-06,2.792043330222694e-06,2.425658394736197e-05,1.4950797825628888e-06,2.682186956265246e-06
312,2.4457825236311422e-06,1.1531642650770924e-06,1.7234795387156278e-06,2.281355335291683e-06,2.520263760938248e-06,5.774037992812036e-06,4.196011319289255e-06,2.7428713669203014e-06,3.945740251048275e-06,3.0520573875477826e-06,8.924049315197728e-07,2.889657775236364e-06,2.789986255383372e-06,2.542117138465191e-05,1.473216339191801e-06,2.5942525977648845e-06
313,2.4060917024270887e-06,1.1546306662165768e-06,1.766342971898532e-06,2.3355777019908253e-06,2.4884397621142586e-06,5.921921102639846e-06,4.088136763753831e-06,2.72359045290383e-06,4.011263926166206e-06,2.9484422226459906e-06,8.881507025302784e-07,2.807130354609216e-06,2.7905768887319004e-06,2.6465626533664293e-05,1.4493493356550048e-06,2.503677078245887e-06
314,2.3615476954538797e-06,1.1557151303302895e-06,1.81272657267465e-06,2.3855910202842373e-06,2.4561411145144767e-06,6.063715118007354e-06,3.969193516477638e-06,2.6948204283186568e-06,4.080984180625013e-06,2.8513219919923943e-06,8.818518753168439e-07,2.726074948032684e-06,2.7931927077588277e-06,2.7371274329462164e-05,1.4241353791301826e-06,2.4108970611538317e-06
315,2.3127084349336414e-06,1.1567054812679855e-06,1.8614722428263312e-06,2.4288985098716915e-06,2.4239138840497778e-06,6.1977164352441975e-06,3.8405162105267444e-06,2.6565402944062537e-06,4.153803584136811e-06,2.7630003240029824e-06,8.737186077052082e-07,2.646931102817861e-06,2.797052035459167e-06,2.8122695408817488e-05,1.3983762670985205e-06,2.3167072677086853e-06
316,2.2606914350591968e-06,1.1579293627022021e-06,1.9113200785321125e-06,2.4631197300995255e-06,2.3922771750855307e-06,6.32198365988973e-06,3.703988819920597e-06,2.60900084265896e-06,4.228720192815845e-06,2.6853666082152295e-06,8.639700340380537e-07,2.5698321007711573e-06,2.801477696447645e-06,2.870731045041683e-05,1.3727450196027492e-06,2.22224094462958e-06
317,2.2068837233731027e-06,1.1597360825098631e-06,1.9609183159230323e-06,2.486326606980054e-06,2.361666192057509e-06,6.435212715668199e-06,3.5619152316688892e-06,2.5529299439572993e-06,4.304943542261728e-06,2.6199012900424833e-06,8.527911300797544e-07,2.4946510020490783e-06,2.8059721696547387e-06,2.911348471933861e-05,1.3476356105660126e-06,2.128819476931783e-06
318,2.1526970752030904e-06,1.1625407601435032e-06,2.008962212797386e-06,2.497289230309264e-06,2.3322806734669487e-06,6.537438679940479e-06,3.416703104728764e-06,2.489498582781649e-06,4.3818535439082e-06,2.567698496471729e-06,8.403295970746496e-07,2.4210743467055144e-06,2.810006135871846e-06,2.932877499355118e-05,1.3231914748438603e-06,2.037746686357238e-06
319,2.09951742488198e-06,1.166791030119114e-06,2.0543291899948494e-06,2.4956713852410473e-06,2.304002840718574e-06,6.629975679163837e-06,3.270570247252466e-06,2.4201553416553793e-06,4.458737422937089e-06,2.529404031213936e-06,8.267519168351813e-07,2.348631967621967e-06,2.812837794952058e-06,2.9341101820858777e-05,1.2994290108055813e-06,1.950096243090731e-06
320,2.048669873710935e-06,1.1728593795878872e-06,2.096008944099854e-06,2.4821895015066947e-06,2.276521751576505e-06,6.714625492510979e-06,3.1253344104016915e-06,2.346441163329993e-06,4.534504948438819e-06,2.505181785438706e-06,8.123239454017189e-07,2.276743576042384e-06,2.8136148018030303e-06,2.914267685422279e-05,1.2763591292278377e-06,1.8666295069599267e-06
321,2.0013005317676593e-06,1.180939807177093e-06,2.13292245976071e-06,2.4586211403435897e-06,2.249584375823325e-06,6.792699628568504e-06,2.9823305402855205e-06,2.269801875943366e-06,4.607675351316269e-06,2.494818151708705e-06,7.974333638420206e-07,2.204853134049054e-06,2.811640021204944e-06,2.8733832021667333e-05,1.254018182140453e-06,1.7878872062017023e-06
322,1.958308629458984e-06,1.1910167179046971e-06,2.1639001281566297e-06,2.42753352991459e-06,2.2232144047594606e-06,6.864482747945142e-06,2.842476070669844e-06,2.191436846333917e-06,4.676552064164108e-06,2.4978943199307686e-06,7.825332696381768e-07,2.132668671836853e-06,2.8066356717560754e-06,2.8125030350450705e-05,1.2324288380658401e-06,1.7143155469670233e-06
323,1.920378462901546e-06,1.2029637276623474e-06,2.187933405294603e-06,2.391790142612273e-06,2.1978236476679616e-06,6.92929860752869e-06,2.7065066125821227e-06,2.112282333960569e-06,4.739298180016522e-06,2.5138923755309416e-06,7.680916111458132e-07,2.06039425466148e-06,2.7989296941472896e-06,2.733666581272016e-05,1.2116088671143362e-06,1.64633849913707e-06
324,1.8879828797411327e-06,1.2167727535023503e-06,2.2045341167752002e-06,2.3541056617887263e-06,2.1742101648418448e-06,6.985792765275634e-06,2.5753145337273326e-06,2.033140911446435e-06,4.793923314176679e-06,2.54219258444257e-06,7.545845015844753e-07,1.98877560916548e-06,2.789463980219359e-06,2.639606833757069e-05,1.1916285007718952e-06,1.584390629581011e-06
325,1.8613238183943983e-06,1.2327669350224253e-06,2.2139250121034746e-06,2.3168339459447e-06,2.153458680352976e-06,7.032147844486018e-06,2.4501690736605093e-06,1.9548268710122134e-06,4.838451721427136e-06,2.5820239088632167e-06,7.424744630660132e-07,1.918938863992595e-06,2.779587717732057e-06,2.533244631581811e-05,1.1726038429586268e-06,1.5288856398305723e-06
326,1.8403323706575626e-06,1.2516022088981725e-06,2.216905449678789e-06,2.281899925236335e-06,2.136750077487334e-06,7.066387356025482e-06,2.3326758381106783e-06,1.8782367043548753e-06,4.871379398495464e-06,2.6324470100968485e-06,7.321629858219963e-07,1.8521769524629987e-06,2.7707233159818535e-06,2.4172801327221e-05,1.1546511763496913e-06,1.480102013520718e-06
327,1.8247714226455166e-06,1.2740620554194426e-06,2.2144749254840778e-06,2.2507487945595424e-06,2.125112347044281e-06,7.086926345563328e-06,2.224536973715224e-06,1.8043574033775205e-06,4.892187189138427e-06,2.692349405496187e-06,7.23952297439615e-07,1.789805365076529e-06,2.764043708814819e-06,2.294084005442658e-05,1.1378840499002167e-06,1.438077865401149e-06
328,1.8143196656676424e-06,1.3008438065546922e-06,2.207470258773601e-06,2.2243283827215406e-06,2.1192205553701205e-06,7.0931308190307575e-06,2.127276751591436e-06,1.734224069594133e-06,4.901609608324277e-06,2.760402900712821e-06,7.180222480230615e-07,1.7330733125119395e-06,2.760311974324464e-06,2.165768535125986e-05,1.1224254449572696e-06,1.402599318961588e-06
