,EMG1,EMG2,EMG3,EMG4,EMG5,EMG6,EMG7,EMG8,EMG9,EMG10,EMG11,EMG12,EMG13,EMG14,EMG15,EMG16
0,2.5768592836932026e-07,-1.228746754033877e-09,2.5643965849062913e-07,3.6811530164677794e-07,9.01122440666016e-07,1.6111045148911127e-06,8.215268467222133e-07,4.386485087152794e-07,4.5148354531584547e-07,1.3284941695376108e-07,6.390482170388397e-08,-7.315094802509371e-08,5.452815578927307e-07,4.359462616270998e-06,3.1376511478618734e-07,8.444866201705903e-07
1,4.778687034680486e-07,1.7910065643136334e-07,3.856891104163049e-07,6.07389187834366e-07,1.001516663484282e-06,1.694389216815953e-06,1.0105158069460226e-06,5.925783727167607e-07,6.031516343386301e-07,3.2694491209747334e-07,2.491218802392487e-07,1.4354892459140343e-07,7.628822474429105e-07,7.64769065570134e-06,4.084970441984596e-07,8.907309365791865e-07
2,6.946649083051411e-07,3.558473911089676e-07,5.113956206697675e-07,8.408678390326203e-07,1.101640401732311e-06,1.7819268527165768e-06,1.1936525944884368e-06,7.485251931659043e-07,7.527116383482392e-07,5.194746717311462e-07,4.2681295258158273e-07,3.5228481812298673e-07,9.836462243085042e-07,1.0780854501334346e-05,5.031664758086411e-07,9.396394695325366e-07
3,9.047362849448287e-07,5.268699475476311e-07,6.323212370720584e-07,1.0657349322188779e-06,1.2000342104302334e-06,1.8724770848013984e-06,1.3678439004704015e-06,9.038187535879576e-07,8.982971157507298e-07,7.073676142705512e-07,5.954012329948793e-07,5.518349281047228e-07,1.2041836304298622e-06,1.3713346962344644e-05,5.960033969512758e-07,9.907185452645188e-07
4,1.1054324699077965e-06,6.905330088809465e-07,7.474484741005243e-07,1.2798378837706423e-06,1.2958271943506125e-06,1.964998762036088e-06,1.5309498799423564e-06,1.0563277800658548e-06,1.0386139632077344e-06,8.880493340252799e-07,7.533759243641994e-07,7.412290629453592e-07,1.4217905401524846e-06,1.6407294989488857e-05,6.853614554560866e-07,1.0433124872691965e-06
5,1.2949695266017238e-06,8.457064397931444e-07,8.558603575743412e-07,1.4819052045879518e-06,1.3886771642945639e-06,2.0588676758690707e-06,1.6818817921943921e-06,1.2044128791984317e-06,1.1727923902463127e-06,1.0596054753538665e-06,8.993167237382932e-07,9.195749896534463e-07,1.6345676769256065e-06,1.8834567416506782e-05,7.697505060041768e-07,1.0966953546036428e-06
6,1.4723585971238793e-06,9.915220820610253e-07,9.566032139261016e-07,1.6714453835198461e-06,1.4785038450832936e-06,2.153825409347513e-06,1.8202829731295216e-06,1.3468479586034007e-06,1.3002397779264127e-06,1.2207899566996854e-06,1.031915854581022e-06,1.0859228779836284e-06,1.841231451113613e-06,2.0977305401594448e-05,8.479021563467255e-07,1.1502118372382635e-06
7,1.6370899291485604e-06,1.127145106760889e-06,1.0486721673978556e-06,1.848364854936345e-06,1.5652237675518007e-06,2.2496974364364624e-06,1.9460496732783216e-06,1.482790832413771e-06,1.4206191301606588e-06,1.3709644332179013e-06,1.1500768539330815e-06,1.2392240970564249e-06,2.040859074919723e-06,2.2826628216296225e-05,9.188977666726987e-07,1.2033358210653537e-06
8,1.7888439623758507e-06,1.2517796707144327e-06,1.1311329258074009e-06,2.0126412595849443e-06,1.6486125218931801e-06,2.3461082492451754e-06,2.0589918665255814e-06,1.6116702120671785e-06,1.5337707357268126e-06,1.5099718512656742e-06,1.2530517569722164e-06,1.3783395182929383e-06,2.232707603891327e-06,2.4379190001846543e-05,9.823054753887436e-07,1.2555896176670929e-06
9,1.9274286843142613e-06,1.3648321174035947e-06,1.2032546718885562e-06,2.1643147307906206e-06,1.7283136523966503e-06,2.4423270403456895e-06,2.1587725150737824e-06,1.7329498999486202e-06,1.6395609919454427e-06,1.6379506913710553e-06,1.3405154687374782e-06,1.5021180162830804e-06,2.4160508873909145e-06,2.5634067409570505e-05,1.0381313937383585e-06,1.3064097460414312e-06
10,2.0527938600570873e-06,1.4659837689775974e-06,1.2645538279763294e-06,2.303684772999012e-06,1.8038985365176498e-06,2.5372264375726744e-06,2.245054444287275e-06,1.8459183807464731e-06,1.7378409213692814e-06,1.7551628097005844e-06,1.4125997287436385e-06,1.609641808505193e-06,2.590061696144911e-06,2.6593506811045928e-05,1.0865768936042577e-06,1.3550772133194364e-06
11,2.164943287332437e-06,1.5550669021654172e-06,1.3147646373379094e-06,2.431499973886265e-06,1.874866739799589e-06,2.6292814282341893e-06,2.31764733290587e-06,1.949619386589879e-06,1.8285141410106056e-06,1.861848011452681e-06,1.4699107886194823e-06,1.7005907618965074e-06,2.7538703440960527e-06,2.7266458586672633e-05,1.127833509119721e-06,1.400764560514852e-06
12,2.2637781531179473e-06,1.6319191114398415e-06,1.3537839346778943e-06,2.5490192000026858e-06,1.9406447259041404e-06,2.7166567971459388e-06,2.376503012117049e-06,2.0429342039026543e-06,1.9115565558241102e-06,1.9581332515924974e-06,1.5134727702814338e-06,1.7754556270967029e-06,2.9067024821581507e-06,2.7670351497486293e-05,1.1620487352222105e-06,1.4426804126762775e-06
13,2.348975247005181e-06,1.6963897658607642e-06,1.3816471943641949e-06,2.6578460315966987e-06,2.0007203300656654e-06,2.7974627281512752e-06,2.4215997258480473e-06,2.1248171546047266e-06,1.986955254720361e-06,2.0441006438565887e-06,1.5445931692828e-06,1.8354327250767571e-06,3.0478393106541758e-06,2.782883693567291e-05,1.1894188575946928e-06,1.4802123957689352e-06
14,2.4199491718475844e-06,1.7484017617862067e-06,1.3986227747244902e-06,2.7595728976414547e-06,2.054812443528327e-06,2.8700382180009694e-06,2.4528493591796265e-06,2.1946353399676827e-06,2.054648881955487e-06,2.1199498191987624e-06,1.5647099172627086e-06,1.88214232531078e-06,3.1764870881333176e-06,2.7767017454955992e-05,1.2102681978462533e-06,1.5129425024565797e-06
15,2.475988148332436e-06,1.7880122631006211e-06,1.405423378908917e-06,2.8554507392685642e-06,2.1028215158650657e-06,2.9330842445911527e-06,2.4700578583802772e-06,2.2524219501703845e-06,2.1144705604723545e-06,2.18599636775497e-06,1.5752404195384363e-06,1.917389912110404e-06,3.291801014242464e-06,2.7507274995655048e-05,1.2249904596154998e-06,1.5405122414585505e-06
16,2.5166250071531943e-06,1.815641243387091e-06,1.403352620531478e-06,2.9462473155619556e-06,2.144621906526432e-06,2.9856610512595795e-06,2.472955390427605e-06,2.2988281953386605e-06,2.166065831600379e-06,2.242462887982958e-06,1.5774505221617886e-06,1.9430203584839123e-06,3.3929164708885354e-06,2.7067839422781075e-05,1.2339417973807975e-06,1.5624694717850062e-06
17,2.5420118307936325e-06,1.8323923573810174e-06,1.3941935734431922e-06,3.0322383162363985e-06,2.1800030481249216e-06,3.027111498623556e-06,2.4614237802296824e-06,2.3347838584913403e-06,2.2089290164218833e-06,2.289313267531477e-06,1.5723933124270629e-06,1.9607934780819345e-06,3.478767245495608e-06,2.6463975855044962e-05,1.2374350913266497e-06,1.5782957224652794e-06
18,2.552987914042252e-06,1.8400679449793835e-06,1.3798939112884128e-06,3.113228807770115e-06,2.208766638948687e-06,3.0569346095909643e-06,2.4358688024346058e-06,2.361156798568416e-06,2.2426702767336295e-06,2.3262768578594986e-06,1.560902286765703e-06,1.972249743590425e-06,3.5479178160204205e-06,2.571038127709652e-05,1.235796194629883e-06,1.5876786773276399e-06
19,2.550851553924058e-06,1.8407806197930838e-06,1.3623015634699084e-06,3.188645606448735e-06,2.2307225570533487e-06,3.074697135665336e-06,2.3974346982379176e-06,2.378660564905324e-06,2.267303464428991e-06,2.3529910356523115e-06,1.5435877869296135e-06,1.978614387107041e-06,3.59872957076894e-06,2.4823547784265274e-05,1.2294263958679675e-06,1.590834624184897e-06
20,2.5370968784823244e-06,1.8365255578772737e-06,1.343073660301592e-06,3.25772116492955e-06,2.2455666336646394e-06,3.080109830746817e-06,2.3479426802352374e-06,2.38796254285021e-06,2.283339374707435e-06,2.369213673201315e-06,1.520881314301676e-06,1.9807730303679722e-06,3.629803328763899e-06,2.3823277728694154e-05,1.2188560743049022e-06,1.5885940467576328e-06
21,2.5133136109623224e-06,1.8290135385881947e-06,1.3236548777986267e-06,3.3196431029884678e-06,2.252830151994167e-06,3.0732636799377747e-06,2.289690163924203e-06,2.3898419299152677e-06,2.291788665092352e-06,2.3751249284814884e-06,1.4931996607664598e-06,1.9792886522258467e-06,3.640458519083521e-06,2.2732925589856654e-05,1.2047154749361166e-06,1.5821716020463073e-06
22,2.4811801178243628e-06,1.819724151447939e-06,1.3052517504951159e-06,3.3736025911994233e-06,2.2520029705853592e-06,3.0548531820884196e-06,2.225192920571823e-06,2.385296268800939e-06,2.2942244517789415e-06,2.3715886438878107e-06,1.461166123565635e-06,1.974411409789428e-06,3.6310385749065883e-06,2.157841078521478e-05,1.1876695645110715e-06,1.5728241174045227e-06
23,2.442353686060855e-06,1.8099851982989384e-06,1.2888551540918457e-06,3.418844914813683e-06,2.2428553291868222e-06,3.0262026382643717e-06,2.156884829244729e-06,2.3754989685690313e-06,2.2928221047191213e-06,2.3600862775635024e-06,1.4257180776216826e-06,1.9660694970596653e-06,3.6027978063208217e-06,2.038626430385029e-05,1.1684457808825996e-06,1.5616282764911697e-06
24,2.398280857257534e-06,1.8009591713793067e-06,1.275302956174652e-06,3.4548354303301594e-06,2.225729553695345e-06,2.9890277701834638e-06,2.086887683647297e-06,2.361646493931267e-06,2.2901986089595784e-06,2.34229863984784e-06,1.3880195434606387e-06,1.9539128863891773e-06,3.557367821180104e-06,1.9181379220597823e-05,1.1478756655365867e-06,1.549416904366002e-06
25,2.3501219115038323e-06,1.7936039636026743e-06,1.2652957635286796e-06,3.4815027576634934e-06,2.201450277398845e-06,2.9450322049460237e-06,2.0169997970713976e-06,2.344905303828761e-06,2.2890818957521037e-06,2.319720313830811e-06,1.3492746444937369e-06,1.9374583951917713e-06,3.49632182866264e-06,1.798573608974854e-05,1.1268362322086948e-06,1.5367994799182533e-06
26,2.2988219019917795e-06,1.788699983381201e-06,1.2593763366374184e-06,3.4993886653911558e-06,2.171070298019977e-06,2.8955837619087157e-06,1.948866624998847e-06,2.326528609334251e-06,2.292081384395653e-06,2.2935681326063777e-06,1.3105692294720088e-06,1.9162269234555092e-06,3.4212494162520474e-06,1.681851326796748e-05,1.1061902137650057e-06,1.5241975617273293e-06
27,2.245210782910533e-06,1.7868613718710999e-06,1.2579385218335564e-06,3.5095811946454006e-06,2.135899255941972e-06,2.8416207965073876e-06,1.8840985703970429e-06,2.3079323323664484e-06,2.3016697864401054e-06,2.2648600877659675e-06,1.2727786068891294e-06,1.8897692333332833e-06,3.334109493967099e-06,1.569643031828841e-05,1.0867839134031334e-06,1.5118494152174542e-06
28,2.1900786900826374e-06,1.7884560912811548e-06,1.2612356708496864e-06,3.5134547864630484e-06,2.0976546909297224e-06,2.7837184757293516e-06,1.8242108754102613e-06,2.290551495376901e-06,2.320164020224856e-06,2.2345139743907876e-06,1.2365362780160515e-06,1.8576401846829115e-06,3.237473967968539e-06,1.4633591481520348e-05,1.0694071274567305e-06,1.4998017423618334e-06
29,2.1342425644717377e-06,1.7935285761013955e-06,1.2693525704365694e-06,3.5123113245766446e-06,2.058366075837356e-06,2.722279494205006e-06,1.7705242156874794e-06,2.2755822806456186e-06,2.3495914804204844e-06,2.2034182610625407e-06,1.2022640766141612e-06,1.8194376490577954e-06,3.134461099809942e-06,1.3641362596612897e-05,1.0547145501347596e-06,1.4879841107606908e-06
30,2.0785713237118284e-06,1.8018308856972684e-06,1.2822140951672483e-06,3.507061480560919e-06,2.020072071066396e-06,2.657879641822373e-06,1.724138176326402e-06,2.263815416976522e-06,2.3915752723040986e-06,2.1724064364240838e-06,1.1702456198446786e-06,1.7749572151318081e-06,3.0283552967837233e-06,1.2728636350320688e-05,1.0431819435725143e-06,1.4763737283663987e-06
31,2.023902683501941e-06,1.8129243443656254e-06,1.2996923517566568e-06,3.4981423877788334e-06,1.9845533842542877e-06,2.5916090724245225e-06,1.685900124298437e-06,2.255642471742774e-06,2.4473005635289e-06,2.142147772753893e-06,1.140685612519329e-06,1.7243948631692417e-06,2.922234685362722e-06,1.1902123165337342e-05,1.035093337702367e-06,1.4650866371024762e-06
32,1.9709193288282236e-06,1.8262296879663352e-06,1.3217202072053904e-06,3.4857780539109247e-06,1.953218096907925e-06,2.52518398207171e-06,1.6563373400508455e-06,2.2512108228037477e-06,2.5175044411795714e-06,2.113088739127361e-06,1.1137409739787405e-06,1.668433828977924e-06,2.818828765152705e-06,1.1166379257466614e-05,1.0305412206655377e-06,1.4543049591978026e-06
33,1.9201289025949115e-06,1.8410318239721513e-06,1.348270585458772e-06,3.4704580741899436e-06,1.927113894496031e-06,2.4608338917904046e-06,1.635635505842634e-06,2.250601089078144e-06,2.602477529269773e-06,2.085485514612715e-06,1.0895622452623238e-06,1.6081343967690241e-06,2.7204285612563655e-06,1.0523721372452806e-05,1.0294454504533964e-06,1.4441399338997478e-06
34,1.8719096011491312e-06,1.8565535370193588e-06,1.3792211693665231e-06,3.4533242556431204e-06,1.9069788249341854e-06,2.401101823023153e-06,1.6236779639800629e-06,2.253857702268623e-06,2.7021034702661268e-06,2.0594575942844596e-06,1.0682963913060696e-06,1.5447334270446914e-06,2.6287832429916296e-06,9.974294397773396e-06,1.0315780266846757e-06,1.4345644668923895e-06
35,1.8265163395411093e-06,1.8720523432867264e-06,1.4142802286256067e-06,3.4361847946063417e-06,1.8932707365257905e-06,2.3486012763261338e-06,1.6200910713144693e-06,2.260912597594074e-06,2.8159653144190467e-06,2.035035774721422e-06,1.0500038010361059e-06,1.4794736001713426e-06,2.545140679685016e-06,9.51638515233363e-06,1.0365699158381084e-06,1.4254415372895537e-06
36,1.7841378121236405e-06,1.8867826158604083e-06,1.4530828633999235e-06,3.4211644628659375e-06,1.8862315195189224e-06,2.305738238076882e-06,1.624289118710662e-06,2.2716027497712367e-06,2.943473542344225e-06,2.012177467905107e-06,1.03457605476238e-06,1.4134816443780935e-06,2.470397174193891e-06,9.146825879558291e-06,1.0439271446195744e-06,1.4165608571558768e-06
37,1.7450657520767927e-06,1.899857324953886e-06,1.495353241108499e-06,3.410272605479148e-06,1.8860271702245676e-06,2.274492235080687e-06,1.6355319921148954e-06,2.2857688165431084e-06,3.0838625903920685e-06,1.99074209662215e-06,1.0217130873205743e-06,1.3477447355280801e-06,2.4051627260209005e-06,8.861231233974307e-06,1.0531131946413983e-06,1.407667187127375e-06
38,1.7098049628827794e-06,1.9102178494470244e-06,1.5409590417797257e-06,3.4051402701769553e-06,1.892824939379933e-06,2.2563555892162922e-06,1.6530326528948977e-06,2.3032517271855412e-06,3.236060444667892e-06,1.97051147908955e-06,1.010931697258791e-06,1.2832138750237827e-06,2.3496957807844458e-06,8.653988809686414e-06,1.0636515798873147e-06,1.3985647503405361e-06
39,1.6790307230986966e-06,1.9167844837838665e-06,1.58983803575758e-06,3.4069656092312885e-06,1.9066827587522205e-06,2.252411175772936e-06,1.676142977450098e-06,2.3238216288537124e-06,3.398648028243253e-06,1.9512499744842194e-06,1.0016313938796966e-06,1.2208865207347378e-06,2.3038356408951978e-06,8.518136136772532e-06,1.07512726121556e-06,1.3892687747285623e-06
40,1.6535194009323264e-06,1.918637727153104e-06,1.6419038450241044e-06,3.4165691970834785e-06,1.927378238894048e-06,2.2634295222715117e-06,1.704464687473052e-06,2.3472705403077176e-06,3.569926328959762e-06,1.932681957258851e-06,9.932633445584585e-07,1.1617408272241186e-06,2.2670562854220807e-06,8.445327706026204e-06,1.0871013747416894e-06,1.3800569988028017e-06
41,1.6341191837291276e-06,1.9151116837424327e-06,1.6969959247133979e-06,3.434438440587959e-06,1.954399112893052e-06,2.289881449275491e-06,1.737760700055519e-06,2.373700558888097e-06,3.7478825233978945e-06,1.914409480897248e-06,9.855028959231312e-07,1.1066140528336791e-06,2.2386337368771374e-06,8.42602231180719e-06,1.0991043004599835e-06,1.3713592396806015e-06
42,1.6216757058094574e-06,1.905852674581904e-06,1.754836984572505e-06,3.4606935950201995e-06,1.987130251691872e-06,2.3318730188038417e-06,1.7758277056408046e-06,2.4037130652790205e-06,3.930095441257114e-06,1.8959250755270855e-06,9.782499234178686e-07,1.0561653689754612e-06,2.217785203322629e-06,8.449798776589204e-06,1.110784072976349e-06,1.363604807687478e-06
43,1.616875810527159e-06,1.8908770490844486e-06,1.814955669536217e-06,3.4950165834261585e-06,2.025063288323975e-06,2.389086455966423e-06,1.8184389108851968e-06,2.438240162461495e-06,4.11383182936429e-06,1.8767407494399854e-06,9.714577751594173e-07,1.0109341775887397e-06,2.203664177659592e-06,8.505610689590813e-06,1.1220864760087739e-06,1.3571679790739137e-06
44,1.6201012370754294e-06,1.8705226846357302e-06,1.8766471414056178e-06,3.5366184436140686e-06,2.0678317468544187e-06,2.4607881973143408e-06,1.865251633540552e-06,2.478148666173539e-06,4.296338232168264e-06,1.8565265195382578e-06,9.649761614944238e-07,9.71404647318322e-07,2.1952896125902994e-06,8.582036625244758e-06,1.1332912489807782e-06,1.3523584460476509e-06
45,1.6313657643789757e-06,1.8453012006739067e-06,1.939052663078309e-06,3.5842224175683966e-06,2.115060117761991e-06,2.545939400950246e-06,1.9156588205502214e-06,2.523981476928527e-06,4.4751650266814845e-06,1.8351850163964854e-06,9.585517544758978e-07,9.379936074139574e-07,2.191538291365917e-06,8.667754915436134e-06,1.1448625731446632e-06,1.3493449570132299e-06
46,1.650318542734534e-06,1.8158987638760397e-06,2.0012925319920402e-06,3.6360498086616473e-06,2.1662421304326643e-06,2.643354552201694e-06,1.9686814520591614e-06,2.5760220112730664e-06,4.648495269450916e-06,1.812816929109151e-06,9.519720195648949e-07,9.109907747995693e-07,2.1911566948236626e-06,8.752239778726573e-06,1.1572355722908116e-06,1.3480737616109313e-06
47,1.6763086774026333e-06,1.7833811184142845e-06,2.0625588945847565e-06,3.689968697899256e-06,2.220864954061224e-06,2.7517347679121103e-06,2.0229634472430222e-06,2.634504632536238e-06,4.815472499574093e-06,1.789578556526856e-06,9.452038951663773e-07,8.905316346841486e-07,2.1927515425742233e-06,8.826426150646778e-06,1.1706871488223225e-06,1.3482968857401942e-06
48,1.7085463570395752e-06,1.7492702190621292e-06,2.1221580069301693e-06,3.7438977881224885e-06,2.2786896712878707e-06,2.8695809225908055e-06,2.0768918673668997e-06,2.699657677631343e-06,4.976366120313991e-06,1.765561566689654e-06,9.383726785675686e-07,8.765998869761219e-07,2.19490483547047e-06,8.883099876931567e-06,1.1853108225689488e-06,1.3496865197850057e-06
49,1.7463055941993484e-06,1.7152997638728075e-06,2.1795223091581745e-06,3.796246956217714e-06,2.3398381461333756e-06,2.995242628259903e-06,2.1288114578584194e-06,2.771553120693895e-06,5.1323799098226935e-06,1.7408374450321872e-06,9.316198439522027e-07,8.690227026758871e-07,2.1964653920209e-06,8.916762929468252e-06,1.2010218378208665e-06,1.3519431224297052e-06
50,1.7889913172799667e-06,1.6830658235033172e-06,2.2342346647745003e-06,3.846124794895034e-06,2.404557765465482e-06,3.1271926782985484e-06,2.177212733397695e-06,2.849994397631688e-06,5.285102409073046e-06,1.715570277983649e-06,9.250251713832985e-07,8.674753309729738e-07,2.1967886516983146e-06,8.922814378694114e-06,1.2175776110167621e-06,1.3548947174397475e-06
51,1.836019099633785e-06,1.653821038586336e-06,2.2860978194766604e-06,3.893270912605659e-06,2.472923203311018e-06,3.264309303738789e-06,2.220770885297363e-06,2.9345099421704627e-06,5.435921429094359e-06,1.6899792143336614e-06,9.186540282517725e-07,8.715181872650459e-07,2.195702899525242e-06,8.896572275733113e-06,1.234626479415164e-06,1.3586273287039418e-06
52,1.8867405785185723e-06,1.6284394205048632e-06,2.3351720806524513e-06,3.937818280208282e-06,2.5447052632122987e-06,3.405933985942173e-06,2.258267555437604e-06,3.0243612365902255e-06,5.5858598724728505e-06,1.6642443968836783e-06,9.126142212135791e-07,8.806461596887333e-07,2.193254208192047e-06,8.833223236593102e-06,1.251732634920971e-06,1.3635430510375983e-06
53,1.940567305005731e-06,1.6074777968862186e-06,2.3816430595910153e-06,3.979996102144701e-06,2.6194221119456552e-06,3.551638989934116e-06,2.2885871958122273e-06,3.1185801911272658e-06,5.735812502230518e-06,1.638629659985515e-06,9.070144637919937e-07,8.943534536016473e-07,2.189457873245913e-06,8.729028926954804e-06,1.2683539011885014e-06,1.3702212523468319e-06
54,1.9970687772530884e-06,1.5912774411930044e-06,2.425536924154776e-06,4.019873298045021e-06,2.696487315688331e-06,3.7008368724388064e-06,2.310904662869311e-06,3.216086312615068e-06,5.8866254699548285e-06,1.6137554899517945e-06,9.018681284459094e-07,9.122370879582823e-07,2.1841904319879685e-06,8.582923825619792e-06,1.2838182590891296e-06,1.3792090265432937e-06
55,2.055863982459435e-06,1.5800691207525927e-06,2.4665036049620473e-06,4.057244809792585e-06,2.7752904748804762e-06,3.85248234135918e-06,2.3249062337892674e-06,3.3158244278589552e-06,6.038821044659216e-06,1.5907032381115286e-06,8.970672654137202e-07,9.34046943538487e-07,2.177172983700314e-06,8.397485282941216e-06,1.2973362323064715e-06,1.390916828166608e-06
56,2.1164855002070186e-06,1.5740573500781796e-06,2.503850084372488e-06,4.09170476449294e-06,2.8551425654153694e-06,4.004975048904641e-06,2.3307737673656154e-06,3.4168421739680037e-06,6.192326175313221e-06,1.5708284693211482e-06,8.92453780085066e-07,9.595933216586686e-07,2.1680271280712863e-06,8.178804822651823e-06,1.3081266270169302e-06,1.405593304523475e-06
57,2.1783468216835864e-06,1.5734537640345512e-06,2.5367671104626e-06,4.122798330023561e-06,2.935180314683756e-06,4.156273729667392e-06,2.3289729597554034e-06,3.5183301046724813e-06,6.346458365404339e-06,1.5554765749509037e-06,8.879047783065101e-07,9.886361889291057e-07,2.156522059373904e-06,7.935377265339705e-06,1.315684693002297e-06,1.4233066164412085e-06
58,2.2406749321628528e-06,1.5784375629502552e-06,2.5645375301890173e-06,4.150030991636409e-06,3.014281677335623e-06,4.304301696325625e-06,2.3202272288746097e-06,3.619710731147475e-06,6.500242831029875e-06,1.5458258026177658e-06,8.833331987858792e-07,1.0208980339630623e-06,2.142918960731791e-06,7.676561654175089e-06,1.3199503178500418e-06,1.4439234375006694e-06
59,2.302351102279631e-06,1.5890991811342823e-06,2.5866112096723877e-06,4.172630192041742e-06,3.0910635546249893e-06,4.447505867338548e-06,2.3057870737199835e-06,3.7207733925871387e-06,6.652919624636973e-06,1.5428565037366338e-06,8.786018090632492e-07,1.0561158397312509e-06,2.1280385514903266e-06,7.411248684607036e-06,1.3211819451172073e-06,1.467116880631252e-06
60,2.3618171400032495e-06,1.6054531522237986e-06,2.6026310090820635e-06,4.189228916574654e-06,3.164125762611567e-06,4.585116678154826e-06,2.287590306382434e-06,3.821716561260183e-06,6.804115961322537e-06,1.5473606367405915e-06,8.734851203593102e-07,1.093993478646753e-06,2.1129993929909712e-06,7.147212266854657e-06,1.3197866567577882e-06,1.4924091637956136e-06
61,2.4171967659389923e-06,1.6274809453802779e-06,2.6125085538140304e-06,4.197744307645612e-06,3.23248397613137e-06,4.716848636671779e-06,2.2680163158214874e-06,3.923011389699586e-06,6.9534153789094185e-06,1.5599562319103989e-06,8.677249929905898e-07,1.134092800280455e-06,2.098978422931082e-06,6.891173628076477e-06,1.3163546686512763e-06,1.519168460230748e-06
62,2.4666227635392664e-06,1.6550918231610645e-06,2.616499023782509e-06,4.195543787494539e-06,3.2958231248455463e-06,4.842391673617334e-06,2.249449816314034e-06,4.025221642610207e-06,7.099797528574073e-06,1.5810521886121842e-06,8.61074172073026e-07,1.1757608667351805e-06,2.0871325942463966e-06,6.649010596062216e-06,1.311710071550106e-06,1.5465610638300148e-06
63,2.5086043428024272e-06,1.6880233734446114e-06,2.615152895897982e-06,4.179820117156647e-06,3.354313136443796e-06,4.961238017797336e-06,2.2339799749096678e-06,4.128945244687975e-06,7.241522364932271e-06,1.6107864756266628e-06,8.533503067571414e-07,1.2181182999838675e-06,2.078560401154363e-06,6.425633653772155e-06,1.3067786915336107e-06,1.5736407253522597e-06
64,2.5422638728555444e-06,1.725783632818271e-06,2.609098332310762e-06,4.148114952811491e-06,3.4081759797511624e-06,5.07284028927712e-06,2.2232685259207697e-06,4.2347760601573496e-06,7.3763748903982465e-06,1.6490832961943072e-06,8.445789665868001e-07,1.2601428388246075e-06,2.0742542850222552e-06,6.224692057973958e-06,1.302415527372834e-06,1.5996589570287104e-06
65,2.5674136317009953e-06,1.7676599695250772e-06,2.598752004456582e-06,4.098924922843049e-06,3.457433893795149e-06,5.176748292013487e-06,2.218499112591287e-06,4.3430777910381796e-06,7.501838472284692e-06,1.6958438629472198e-06,8.350816704300075e-07,1.300843068091132e-06,2.0750231146669053e-06,6.048479211179856e-06,1.299350050114165e-06,1.6243928278969784e-06
66,2.5845139326844773e-06,1.8128017288540455e-06,2.584133947828024e-06,4.03219614812544e-06,3.5019619836509634e-06,5.272659340671202e-06,2.220435851775307e-06,4.453623885987743e-06,7.6152044927109725e-06,1.7510746795036748e-06,8.253728242101589e-07,1.339398903186856e-06,2.081379632703133e-06,5.898170105858733e-06,1.2981801544424923e-06,1.6482326647585547e-06
67,2.594513430696598e-06,1.8603599631676172e-06,2.564913466896564e-06,3.949478429731582e-06,3.5416007445826666e-06,5.360522266546274e-06,2.229609702349761e-06,4.565350398737939e-06,7.713921308193414e-06,1.8148438535041675e-06,8.159928422421856e-07,1.3751903848665706e-06,2.093461685943446e-06,5.7742969714084495e-06,1.2993344427681642e-06,1.6719837853578759e-06
68,2.5985952228105028e-06,1.9095893433091805e-06,2.5406961633938397e-06,3.853671644893369e-06,3.5762290828390365e-06,5.440697866541302e-06,2.2464860889016335e-06,4.676396378761612e-06,7.79606632383424e-06,1.8871558148376867e-06,8.074194315062027e-07,1.40778531620886e-06,2.1110274171468256e-06,5.677196623976451e-06,1.3030380753388958e-06,1.6965377035577276e-06
69,2.5979253842713545e-06,1.9598640485450027e-06,2.5113670486510576e-06,3.7484910457376173e-06,3.6059261054193794e-06,5.514075306591662e-06,2.2714463768541904e-06,4.784437865176538e-06,7.860472597029693e-06,1.9678285599955246e-06,8.000359339071735e-07,1.4369566632226627e-06,2.133530670550452e-06,5.6071971265502955e-06,1.309298030287315e-06,1.7226033715188107e-06
70,2.5934665185200796e-06,2.0106114256946434e-06,2.4771751156524714e-06,3.6378441558432792e-06,3.6311893470991304e-06,5.582109658480937e-06,2.304638324073447e-06,4.887091185839552e-06,7.906336293340216e-06,2.0564119602929244e-06,7.941147181075036e-07,1.4626682812651614e-06,2.1602411441621495e-06,5.564524745879439e-06,1.3178885471306997e-06,1.7506041521232584e-06
71,2.5858751397821e-06,2.061176064469592e-06,2.438513321337975e-06,3.525306714200915e-06,3.652984359941156e-06,5.646792793308309e-06,2.345902055539972e-06,4.982050167217625e-06,7.932546502552086e-06,2.1521576413288477e-06,7.898093555686976e-07,1.4849638728624638e-06,2.1903103056261255e-06,5.5490018994709935e-06,1.328374797638636e-06,1.780739255315934e-06
72,2.575546792040497e-06,2.110766989764454e-06,2.395770648208511e-06,3.413881890268329e-06,3.6725497714059416e-06,5.7105242656336645e-06,2.3948210367406346e-06,5.0668468161957924e-06,7.937145123086217e-06,2.2539765922069748e-06,7.871609171172896e-07,1.5038944314059564e-06,2.2228114662584543e-06,5.559643785871146e-06,1.3402073457880335e-06,1.8131074237429372e-06
73,2.5627922340603154e-06,2.158620653741665e-06,2.3494676212407847e-06,3.306068649887632e-06,3.691153140586779e-06,5.775850582905263e-06,2.45074939421501e-06,5.138522204749358e-06,7.91738693777667e-06,2.360371158490367e-06,7.861380354781003e-07,1.5196339837974228e-06,2.2568805751236802e-06,5.5943533924299265e-06,1.3528112206945419e-06,1.847770826350363e-06
74,2.5479804171048114e-06,2.204202200842436e-06,2.300358896306228e-06,3.203996381431793e-06,3.7099695512466084e-06,5.845112382131524e-06,2.5127558027812954e-06,5.1936222424296555e-06,7.870505582549854e-06,2.469436388353162e-06,7.866933906005831e-07,1.5326253699730538e-06,2.2918673785418326e-06,5.6498913946296816e-06,1.365570298996871e-06,1.8847230981822307e-06
75,2.5315735200670915e-06,2.247200023394194e-06,2.249237162524686e-06,3.1093908335504087e-06,3.729987450664183e-06,5.920074157788323e-06,2.5796168898119366e-06,5.228598383628322e-06,7.794661838998516e-06,2.578990695696673e-06,7.887815495417353e-07,1.5435224852102957e-06,2.3273249176177693e-06,5.722085505352685e-06,1.3777518453121703e-06,1.923787653706174e-06
76,2.5141260686160385e-06,2.287329209151541e-06,2.1966328298210975e-06,3.0234289292761365e-06,3.751818826703518e-06,6.001617284343256e-06,2.649923694342708e-06,5.2403776188982155e-06,7.689565261974352e-06,2.6867920806275476e-06,7.923270539330071e-07,1.5530074346908774e-06,2.3629001626024647e-06,5.806026885231313e-06,1.388496757068488e-06,1.964494815964635e-06
77,2.4962834582549176e-06,2.3241034191469654e-06,2.142704833675286e-06,2.946690492653028e-06,3.7755351205364565e-06,6.089539072440158e-06,2.7221877378260323e-06,5.226921916297604e-06,7.556739377833265e-06,2.7908034771967406e-06,7.971864751394589e-07,1.561673752544668e-06,2.3982274652092893e-06,5.896165359250619e-06,1.3968769588503694e-06,2.006000195675403e-06
78,2.478763445414181e-06,2.3566790545105668e-06,2.0873669002152937e-06,2.8792582592487787e-06,3.8006326615855737e-06,6.182451699863879e-06,2.7948927519566816e-06,5.187681802186999e-06,7.39957984632892e-06,2.8894952708906967e-06,8.031308077625606e-07,1.569964121422789e-06,2.432792385804601e-06,5.986607645341576e-06,1.4019762685118529e-06,2.0471063640131024e-06
79,2.462313958466027e-06,2.3838334363338683e-06,2.0305096391938488e-06,2.8208207637072566e-06,3.826034949503022e-06,6.2778547681139055e-06,2.8665633026371673e-06,5.1237980714591345e-06,7.223205379219961e-06,2.98201224668268e-06,8.098453754548411e-07,1.5781108895597486e-06,2.4658391356935734e-06,6.0717335303494605e-06,1.4030094461754213e-06,2.086472362834344e-06
80,2.4476231460152576e-06,2.404138422052582e-06,1.972206558468625e-06,2.770701373622032e-06,3.850151288191237e-06,6.372421607347415e-06,2.9358484526414046e-06,5.037949132825142e-06,7.0339428056409006e-06,3.0679877674860185e-06,8.169363060704276e-07,1.5861366254357444e-06,2.496481913609933e-06,6.146708728802434e-06,1.3994218097726115e-06,2.1230043157611937e-06
81,2.43517520531093e-06,2.416293748057977e-06,1.9128624700536485e-06,2.7279445840341576e-06,3.8711418708625825e-06,6.462285170759758e-06,3.001516347454326e-06,4.933901721599715e-06,6.838422044872146e-06,3.1471668486183206e-06,8.239516557145966e-07,1.593921787989796e-06,2.523927963631118e-06,6.207608548754157e-06,1.3909665458577189e-06,2.1561781036498916e-06
82,2.425141405486011e-06,2.419462413463085e-06,1.8532357742787783e-06,2.691507014496004e-06,3.8873491095979665e-06,6.5431562138199285e-06,3.062365959080136e-06,4.815952084301524e-06,6.642619461612476e-06,3.2192632063508546e-06,8.304805490387453e-07,1.601279045403123e-06,2.547547493539422e-06,6.251369892838051e-06,1.3778379267295079e-06,2.1860031787814847e-06
83,2.417426063207139e-06,2.4134737616317047e-06,1.7942849083020075e-06,2.6603384226192798e-06,3.8976584232205145e-06,6.610461629044682e-06,3.1172471304708153e-06,4.6884554993363675e-06,6.45127182405784e-06,3.2841122104069066e-06,8.362990626028934e-07,1.6080190070987936e-06,2.5667527421699208e-06,6.275737328591573e-06,1.3606907131531593e-06,2.212657392976361e-06
84,2.411852564315017e-06,2.398819297903599e-06,1.7369655891058798e-06,2.6332492307168136e-06,3.9015784072500596e-06,6.659749613918997e-06,3.1652803836899398e-06,4.555514570505921e-06,6.267789700603811e-06,3.3417834574136756e-06,8.413844991166727e-07,1.6139999555141436e-06,2.5809128459141553e-06,6.279016312222557e-06,1.3403883412168596e-06,2.236122197916336e-06
85,2.408314454737412e-06,2.376394561264059e-06,1.6821415941638827e-06,2.608821155252759e-06,3.899024513497447e-06,6.687324067685527e-06,3.206050269319827e-06,4.420753647786085e-06,6.094518274260272e-06,3.3925046263358805e-06,8.457982499001309e-07,1.619140828508085e-06,2.5894561288772136e-06,6.259525957261208e-06,1.3177195671542574e-06,2.256029848234347e-06
86,2.4067582606328e-06,2.347106972045016e-06,1.6305543674918977e-06,2.585597054609762e-06,3.8900422168610275e-06,6.690878948454342e-06,3.239509313581858e-06,4.2871053963440534e-06,5.933011772876435e-06,3.436534541220414e-06,8.496545235324454e-07,1.6234551260862674e-06,2.592016526402086e-06,6.21508409285339e-06,1.2933190757380105e-06,2.2716844081548795e-06
87,2.4070687484671754e-06,2.3116309468826573e-06,1.5827563106742516e-06,2.5624375795787584e-06,3.874744750659619e-06,6.669896436233004e-06,3.2656235788687135e-06,4.156631252369482e-06,5.784033434027107e-06,3.4740449262225814e-06,8.532090598192402e-07,1.627161622266163e-06,2.5883877696346187e-06,6.1430895603376484e-06,1.2677209270300438e-06,2.2822226202679456e-06
88,2.4090016800915942e-06,2.270447135374046e-06,1.5390843236436908e-06,2.5387890983036306e-06,3.853441390301495e-06,6.625576672611812e-06,3.2840045338030034e-06,4.030428096120359e-06,5.647426596438564e-06,3.5050484337843154e-06,8.568795351346698e-07,1.6307423518444394e-06,2.5783418528595078e-06,6.041395241747677e-06,1.241412516841119e-06,2.2868781427965906e-06
89,2.4121878030525904e-06,2.224063727401197e-06,1.4997206920597727e-06,2.514718148879304e-06,3.8266765626956025e-06,6.560172894930592e-06,3.293798088875435e-06,3.908625069169488e-06,5.522172888854819e-06,3.5295296350067427e-06,8.611248568955322e-07,1.634815053621217e-06,2.561618549267053e-06,5.9094222163039474e-06,1.2148433801089352e-06,2.285204204443785e-06
90,2.4161538527605167e-06,2.1732651507929516e-06,1.4647388321331506e-06,2.4907175123998933e-06,3.7950046843872073e-06,6.475987038905296e-06,3.293977041013675e-06,3.7904988932676354e-06,5.40663389311066e-06,3.5476691300781477e-06,8.663046619305341e-07,1.6399442596697116e-06,2.5381585393895464e-06,5.748707141739626e-06,1.1884021295766885e-06,2.277128496396107e-06
91,2.4203555810386627e-06,2.1192504466707063e-06,1.4340825292036867e-06,2.4674063151994276e-06,3.7586283814630715e-06,6.374644394593008e-06,3.283899683801197e-06,3.6748129449736113e-06,5.298879505842437e-06,3.559785175409144e-06,8.726234142566085e-07,1.646585580824419e-06,2.508317267779632e-06,5.5626235764663525e-06,1.1624184468570003e-06,2.262807429710678e-06
92,2.4242278296134535e-06,2.0635533365727397e-06,1.4075536406505281e-06,2.4452845046201025e-06,3.7172315247861755e-06,6.257007279110944e-06,3.2637780932380354e-06,3.5603602182045607e-06,5.197116682034419e-06,3.5660424615023947e-06,8.801577565758931e-07,1.6551459704222003e-06,2.472893717418212e-06,5.355610556993391e-06,1.1372139122927225e-06,2.242350635853482e-06
93,2.4271706024560604e-06,2.007768082360722e-06,1.3848386376097031e-06,2.4246718484756384e-06,3.670162701520918e-06,6.123464934488981e-06,3.2347658297010824e-06,3.446429317758647e-06,5.100141949855035e-06,3.566386359400109e-06,8.889427341224323e-07,1.6660007223667823e-06,2.4330707108198765e-06,5.132354308342369e-06,1.1131325230704097e-06,2.2155950355706384e-06
94,2.428424291626082e-06,1.953264395274871e-06,1.3655232252319822e-06,2.405879991462344e-06,3.616711408343164e-06,5.974266745402378e-06,3.1986806821430588e-06,3.3329197436726225e-06,5.0076480201300884e-06,3.5608620159251896e-06,8.990646768111517e-07,1.679432945034026e-06,2.390354971757986e-06,4.897321937023581e-06,1.090500401001993e-06,2.18210109658128e-06
95,2.4270163328534744e-06,1.90108811046715e-06,1.3491380819895038e-06,2.389506547069483e-06,3.556172054994189e-06,5.809877598381307e-06,3.157610478773627e-06,3.2201311020109964e-06,4.9202803134454735e-06,3.550029841803094e-06,9.106691243531596e-07,1.6955890260431336e-06,2.346478056002524e-06,4.654783534400345e-06,1.069610661884984e-06,2.1413784001345007e-06
96,2.421972940637394e-06,1.852068012454614e-06,1.335320105961369e-06,2.376617582257748e-06,3.487752634190541e-06,5.631339628972385e-06,3.113564482317093e-06,3.108463315829242e-06,4.839421795027511e-06,3.5350821068746627e-06,9.23866458846803e-07,1.714490379686544e-06,2.303232074173824e-06,4.408903323400957e-06,1.050828528776535e-06,2.0931649136612916e-06
97,2.4126674190259983e-06,1.8069427822342808e-06,1.3239575345738556e-06,2.3686739920559634e-06,3.410620454270972e-06,5.440489517727726e-06,3.0681845487212557e-06,2.9982134504356356e-06,4.7667300566009625e-06,3.5175052619475433e-06,9.386234134061114e-07,1.7360799853246793e-06,2.2622757969625265e-06,4.163501487689074e-06,1.03470620926297e-06,2.037587231261786e-06
98,2.3990337527127993e-06,1.7663320046372047e-06,1.3151219461554334e-06,2.3672715126837197e-06,3.3242380051808297e-06,5.239931008117939e-06,3.0225660455572834e-06,2.8894967060884478e-06,4.703549370833863e-06,3.4985560199991966e-06,9.547292849651086e-07,1.7602407951316757e-06,2.2249736542349494e-06,3.921712750304369e-06,1.0219480551671457e-06,1.975191957406414e-06
99,2.381544784227345e-06,1.7306187925261487e-06,1.3088691125551238e-06,2.373860645008038e-06,3.2288017040466357e-06,5.032803620412396e-06,2.977227195646375e-06,2.782269437723268e-06,4.650446410842173e-06,3.478985038226609e-06,9.71861890960795e-07,1.7867546396768774e-06,2.1923421408593388e-06,3.685883730583621e-06,1.0132582734005532e-06,1.9069388871004243e-06
100,2.361031452716416e-06,1.6999513153047696e-06,1.3051100819104347e-06,2.389549852255062e-06,3.125397896436141e-06,4.822461881247194e-06,2.9321785342256e-06,2.676495389907359e-06,4.607117035771413e-06,3.4591262136538634e-06,9.897219800130262e-07,1.8152657136399313e-06,2.1651018483784426e-06,3.4577336401504877e-06,1.009211524096089e-06,1.8341731500580645e-06
101,2.338478145136997e-06,1.6743921990122604e-06,1.303585246455736e-06,2.4149962067003554e-06,3.0156880722511814e-06,4.612126106043452e-06,2.8870662009506078e-06,2.5724557695885273e-06,4.572719822632176e-06,3.439059662923568e-06,1.0081598860836819e-06,1.8452972388077635e-06,2.143730603758337e-06,3.2386836703949247e-06,1.0102034726006986e-06,1.7584916961832265e-06
102,2.3148910670610346e-06,1.6540178297523653e-06,1.3038791052738216e-06,2.4503400519005622e-06,2.9013954498004578e-06,4.404540043142268e-06,2.841311593726974e-06,2.4709969967815283e-06,4.5463762039054e-06,3.418631075671767e-06,1.027205442600828e-06,1.876305856719832e-06,2.1284464302421497e-06,3.0301408027008736e-06,1.0164501549772602e-06,1.6815182859979677e-06
103,2.2912591276991135e-06,1.6388428308387437e-06,1.3054546156581828e-06,2.4951639752985047e-06,2.784034070335419e-06,4.201819419121583e-06,2.7941032826600516e-06,2.373444162492115e-06,4.52740869035635e-06,3.3975338082168742e-06,1.0469764808316255e-06,1.9077106368314916e-06,2.119169796684564e-06,2.833513422668193e-06,1.0280106218018556e-06,1.604739375367484e-06
104,2.2685350314953407e-06,1.6286838365939503e-06,1.307756146029382e-06,2.5485097582849557e-06,2.6649622299080723e-06,4.005630714567498e-06,2.7443172833381455e-06,2.2811994922353233e-06,4.51517867410887e-06,3.3755692909909944e-06,1.0675394904894314e-06,1.938861854086294e-06,2.1155311199354024e-06,2.6500289102156394e-06,1.0448204125640694e-06,1.5294412746294136e-06
105,2.2475407427868253e-06,1.6230819509873623e-06,1.3103696971558812e-06,2.6090062832010496e-06,2.54551601087538e-06,3.81747435063899e-06,2.6906385941409117e-06,2.1953530937879636e-06,4.508835335022017e-06,3.3527146614875414e-06,1.0888196568027058e-06,1.969021797303233e-06,2.1168928173981585e-06,2.4805685208575495e-06,1.0667043607005956e-06,1.4566606912450494e-06
106,2.22882862192151e-06,1.6212824107409088e-06,1.3130737545103082e-06,2.675100922604185e-06,2.427074415189251e-06,3.6387654822741762e-06,2.631943891844293e-06,2.11652740790631e-06,4.507267822930682e-06,3.328803694770852e-06,1.1105934429345108e-06,1.9973875634436903e-06,2.122390029526e-06,2.325650651831661e-06,1.0933610722629275e-06,1.3871557383023234e-06
107,2.2126227563134684e-06,1.6223173872287234e-06,1.315728495246692e-06,2.7452793046888242e-06,2.311083804364237e-06,3.4707183247930944e-06,2.56768208284818e-06,2.0448812963165523e-06,4.509154685198787e-06,3.3032116211263757e-06,1.1325240493461695e-06,2.0230870295145933e-06,2.1310947662615008e-06,2.185563143857039e-06,1.1243547947904455e-06,1.3214869574123805e-06
108,2.1989485139003185e-06,1.625230225489366e-06,1.3181683164239012e-06,2.818145950461068e-06,2.1990661107820553e-06,3.31423470235312e-06,2.4979799548842147e-06,1.9801628143164847e-06,4.512864046266049e-06,3.2748884209471197e-06,1.1542091787004051e-06,2.045239539764145e-06,2.142263615563203e-06,2.060530724142988e-06,1.1591355446515331e-06,1.2601695601361734e-06
109,2.187936747093707e-06,1.6293181303956581e-06,1.320165794822994e-06,2.892354889979328e-06,2.0925713678355214e-06,3.169901519003454e-06,2.423418939865004e-06,1.921824079164395e-06,4.516277465370547e-06,3.2426447631903765e-06,1.1752740454164405e-06,2.0632726640725752e-06,2.1554219470895825e-06,1.9508137172119926e-06,1.197074447542619e-06,1.2037334436266598e-06
110,2.18003902340191e-06,1.6342459933337664e-06,1.3214016498786323e-06,2.966478861249881e-06,1.9930526686735727e-06,3.0380261079765645e-06,2.344660328428423e-06,1.869202846996686e-06,4.51691109060875e-06,3.205499188377141e-06,1.195467571613005e-06,2.0773230160494634e-06,2.170153412094163e-06,1.856673352821847e-06,1.237511412307412e-06,1.1526652250203624e-06
111,2.1759273198676373e-06,1.6399895137385659e-06,1.321436617634828e-06,3.038920969732346e-06,1.9017462004724064e-06,2.918623148074363e-06,2.2622497263331833e-06,1.8216564991789886e-06,4.5124924908443056e-06,3.163010651545435e-06,1.2146386375617837e-06,2.0882977986301174e-06,2.1858386803973343e-06,1.7782594451967022e-06,1.279821437344689e-06,1.1073366347750865e-06
112,2.176229791153535e-06,1.6466409461324888e-06,1.319714994509866e-06,3.1079369532339294e-06,1.8196322976652208e-06,2.8114011903236324e-06,2.1767269251517104e-06,1.7785250522165546e-06,4.501639832273899e-06,3.11546777693969e-06,1.2326306831929072e-06,2.0975214414285237e-06,2.2017263938315457e-06,1.7156348850591593e-06,1.3234409253023372e-06,1.067951358109629e-06
113,2.181341953667141e-06,1.6541892766701575e-06,1.3156465100717048e-06,3.171762720887388e-06,1.7474232417106246e-06,2.7158331315111983e-06,2.0887645372637853e-06,1.738975686594023e-06,4.4840985821572035e-06,3.063735333948911e-06,1.2492235950570925e-06,2.106295274850995e-06,2.2172902344369698e-06,1.6689590884554374e-06,1.3677871774830955e-06,1.0345228095887436e-06
114,2.191333433569515e-06,1.662398463958414e-06,1.3087944135016026e-06,3.2287900801001154e-06,1.6855450700818621e-06,2.6312575225376275e-06,1.99910920108599e-06,1.701921874664977e-06,4.4604102897917616e-06,3.0087863520010075e-06,1.2641317852057192e-06,2.11566508511075e-06,2.2323960315994678e-06,1.6385669388133778e-06,1.4121508419057409e-06,1.0069005638590312e-06
115,2.2059246298057344e-06,1.670790629255539e-06,1.2990508749696804e-06,3.2777438724270176e-06,1.6341454479790847e-06,2.5568711767273113e-06,1.9084542959402438e-06,1.6661375569763837e-06,4.431527842601544e-06,2.951283010252126e-06,1.2770143465930452e-06,2.126385534302914e-06,2.247102959077367e-06,1.6248092273410777e-06,1.4556768872561921e-06,9.848285415436744e-07
116,2.2245395018994623e-06,1.6786900265613128e-06,1.2866465388537035e-06,3.317800606486311e-06,1.5931063443575946e-06,2.491623510628942e-06,1.8174522613026918e-06,1.6305139816727245e-06,4.398841547670742e-06,2.8914635465260438e-06,1.2874706615932912e-06,2.138912092176491e-06,2.2614378832918727e-06,1.6278240949804214e-06,1.4973886367952237e-06,9.68016149339199e-07
117,2.2463588013916644e-06,1.6853395034882033e-06,1.271996906805482e-06,3.3485286937073183e-06,1.5620668717340238e-06,2.434224508279801e-06,1.7268495401332998e-06,1.5942921912566729e-06,4.36435165054772e-06,2.8292268873465887e-06,1.2950524962210707e-06,2.1533996960832195e-06,2.2753482752537473e-06,1.647457942752828e-06,1.5361893548756512e-06,9.561749083805648e-07
118,2.2703310763889255e-06,1.6900994216491004e-06,1.2555534218334391e-06,3.3696131584642723e-06,1.5404992519612844e-06,2.3833749251930404e-06,1.637528691896195e-06,1.5571249347791739e-06,4.330477372762613e-06,2.764268319560851e-06,1.2993802124308651e-06,2.169779114216345e-06,2.2886872978175026e-06,1.6833794014263549e-06,1.5709200089431577e-06,9.489995615479345e-07
119,2.295231115522161e-06,1.6926770281928235e-06,1.2378345044224692e-06,3.3806243841755326e-06,1.5278052808980858e-06,2.3380359565544854e-06,1.5503785865059284e-06,1.5189775904640798e-06,4.299498668432888e-06,2.696259023302124e-06,1.300322349072473e-06,2.187859807436461e-06,2.301227535435324e-06,1.735274135236724e-06,1.6004745479117252e-06,9.461466601096602e-07
120,2.3198565848181424e-06,1.6932675157263267e-06,1.2195924132329106e-06,3.3811637442629945e-06,1.5233643870015378e-06,2.2975215746620678e-06,1.4661736840944015e-06,1.4800116340930206e-06,4.273018917122363e-06,2.6250834502615875e-06,1.2980609521800105e-06,2.2073559776879514e-06,2.312809841669834e-06,1.802958739338491e-06,1.623828394342016e-06,9.472315411658383e-07
121,2.3433269578630617e-06,1.6924653671173593e-06,1.2018908142236906e-06,3.3712870635351266e-06,1.526520276270637e-06,2.26141698335392e-06,1.3855889786782567e-06,1.4405458027558045e-06,4.251707115804427e-06,2.551084292446348e-06,1.2929992313902374e-06,2.2278401339230934e-06,2.323474072278836e-06,1.8863122330596403e-06,1.6400815286262427e-06,9.518035083653703e-07
122,2.365295813451634e-06,1.6909556068225375e-06,1.185978390034326e-06,3.3517527276388593e-06,1.536597077507442e-06,2.2294817202017046e-06,1.3092564754937648e-06,1.4010266345695433e-06,4.235282703601637e-06,2.475184096798194e-06,1.2856434576756737e-06,2.248786288691995e-06,2.3334337297097296e-06,1.9850793784662063e-06,1.648733818492986e-06,9.59322368263026e-07
123,2.385883781771507e-06,1.6892045347483343e-06,1.1730695984285393e-06,3.3238506653517716e-06,1.5530367517381219e-06,2.201663851528744e-06,1.2377402288522702e-06,1.361911566552931e-06,4.222613997293633e-06,2.3988012706189096e-06,1.2765217231492145e-06,2.269775497572807e-06,2.342963630463302e-06,2.0986925892406277e-06,1.6499575543396556e-06,9.69264842406535e-07
124,2.4053784230053813e-06,1.6873362678380142e-06,1.1642077694656497e-06,3.2889859095185186e-06,1.5755326841075067e-06,2.1781997352578603e-06,1.1714538252890432e-06,1.3235329895904318e-06,4.2118811609723105e-06,2.3236459164410147e-06,1.2660897330360164e-06,2.2906179588920602e-06,2.3522545961227312e-06,2.226193341215041e-06,1.6444925611996123e-06,9.813581489881838e-07
125,2.423950082736352e-06,1.6852082511592138e-06,1.1602800866998698e-06,3.2483645530936282e-06,1.6039455245379542e-06,2.1596371746555095e-06,1.110644754070589e-06,1.286075279501136e-06,4.200813221225199e-06,2.251519015232389e-06,1.2546407489291886e-06,2.311184915719216e-06,2.3612933228644694e-06,2.366270099620314e-06,1.6333064780411182e-06,9.956950376882832e-07
126,2.4415585400668648e-06,1.6826124589587842e-06,1.1621359649189711e-06,3.2029800589221114e-06,1.638057844266223e-06,2.1466761681056895e-06,1.0554945096809052e-06,1.249659518777972e-06,4.186975476858194e-06,2.1841237499193285e-06,1.242299788539887e-06,2.3311104809026164e-06,2.3698330067299144e-06,2.517386907763038e-06,1.6173910822939537e-06,1.0126118827386828e-06
127,2.458064397506177e-06,1.6794592471997366e-06,1.170704385062989e-06,3.153770064505178e-06,1.677400695055443e-06,2.139980172995077e-06,1.0062250062499773e-06,1.2144348659029624e-06,4.167984960886657e-06,2.1228944107097063e-06,1.2290876857557267e-06,2.3496345146535143e-06,2.3773962954438e-06,2.6778774756398766e-06,1.5977056875011383e-06,1.0325188463789683e-06
128,2.4734698405497756e-06,1.67582064002723e-06,1.1870104921153601e-06,3.101646248795891e-06,1.7212325379242069e-06,2.140179307192488e-06,9.631003842291328e-07,1.1805924524638324e-06,4.141482674001696e-06,2.0689490453416975e-06,1.2149713010749973e-06,2.3656644625789408e-06,2.3832601190893166e-06,2.845985319674186e-06,1.5750801028959726e-06,1.0558162365953106e-06
129,2.4881115871753487e-06,1.6718957985412308e-06,1.2120763447915423e-06,3.0473424277998065e-06,1.7686249951537524e-06,2.1479719171354085e-06,9.263773691001093e-07,1.1482874669056067e-06,4.10489478321564e-06,2.0231893376455743e-06,1.1999204653937858e-06,2.3779683401008446e-06,2.3864736452848677e-06,3.0200140504903874e-06,1.5501023255655877e-06,1.082844249714629e-06
130,2.5026028710561184e-06,1.6680159709318058e-06,1.2468019198593847e-06,2.991325604640524e-06,1.8186229544112937e-06,2.164083099641965e-06,8.96277594079461e-07,1.1175343655582664e-06,4.05541440040179e-06,1.9863790888067173e-06,1.184032009051866e-06,2.385402669547924e-06,2.3859904318657e-06,3.198501115988332e-06,1.5231446209764525e-06,1.1138444044386387e-06
131,2.5175280097549447e-06,1.664642545620471e-06,1.2919070304692505e-06,2.9338859501182717e-06,1.8704227833320628e-06,2.189133739072229e-06,8.729499230016715e-07,1.0881495562744105e-06,3.990629930887781e-06,1.959082958504387e-06,1.1676151335498258e-06,2.387114589804351e-06,2.3810028985498674e-06,3.3800943294782095e-06,1.494543133727776e-06,1.1489347673673446e-06
132,2.533133947962935e-06,1.6622595436076236e-06,1.347904289822976e-06,2.8752669602969247e-06,1.9234574421196467e-06,2.223580328245231e-06,8.564183934700411e-07,1.0597933233719737e-06,3.909545919120128e-06,1.941576707857007e-06,1.1511127708070378e-06,2.3826316812727792e-06,2.371309919875711e-06,3.5631877043446326e-06,1.4647909346056208e-06,1.1880831836657097e-06
133,2.5492384813295714e-06,1.6612183905072665e-06,1.4150645006426286e-06,2.8157344889068108e-06,1.9773294809609728e-06,2.267671285179112e-06,8.465628708508305e-07,1.0321396189870705e-06,3.813190445713882e-06,1.933885501993627e-06,1.1349519504528866e-06,2.3717413636500985e-06,2.3573125257529927e-06,3.7457392042917278e-06,1.4345880742215003e-06,1.2311048089105956e-06
134,2.565365475395632e-06,1.6616843295174439e-06,1.4933898395258894e-06,2.7556004941316207e-06,2.0317059868429336e-06,2.321423595724231e-06,8.431617333936619e-07,1.005095349631112e-06,3.7043627973757753e-06,1.935913144378205e-06,1.1194883482254523e-06,2.3542119406405873e-06,2.3396449677763516e-06,3.925454351914556e-06,1.4047124111812918e-06,1.2776659328236334e-06
135,2.5809786134174146e-06,1.6636888699004297e-06,1.582607857277418e-06,2.695254974677211e-06,2.0863732011216917e-06,2.3847466651515054e-06,8.460104495806096e-07,9.788921956308985e-07,3.5868985011668704e-06,1.9475193700381984e-06,1.105036860848593e-06,2.32959299127352e-06,2.3188339674937895e-06,4.1000365468421845e-06,1.3758362274611337e-06,1.327248517024254e-06
136,2.5956991772932727e-06,1.6671404138458245e-06,1.6821720641073166e-06,2.635241329431636e-06,2.14146912404981e-06,2.4576627462194857e-06,8.550774135106771e-07,9.53986781637601e-07,3.465006810077437e-06,1.9685994211224378e-06,1.0918820063088835e-06,2.297248815951521e-06,2.295180619582625e-06,4.267115386003421e-06,1.3484419377730847e-06,1.379158063972554e-06
137,2.609492135911973e-06,1.6717601654067933e-06,1.791235070121857e-06,2.5762694658159205e-06,2.1976339657759036e-06,2.540486412345334e-06,8.705943085304095e-07,9.309190407038923e-07,3.3428117563553835e-06,1.999233255611776e-06,1.0802459885125367e-06,2.25655392906733e-06,2.268886794154613e-06,4.4239770013919656e-06,1.3228603185847656e-06,1.432701193403648e-06
138,2.6227887226660026e-06,1.6770791222617623e-06,1.908604060890486e-06,2.5190581350716645e-06,2.2558585704754194e-06,2.6338945241367043e-06,8.930135681532244e-07,9.102735376664585e-07,3.224121709000641e-06,2.0396749842990768e-06,1.0702431398083172e-06,2.2071265580876476e-06,2.2403721993609366e-06,4.5676263228999205e-06,1.299360407141492e-06,1.4874697931835164e-06
139,2.6363850217982515e-06,1.6825519041875414e-06,2.0327679215974935e-06,2.4642090304509074e-06,2.3172129786881638e-06,2.7388421088123213e-06,9.228988682380742e-07,8.926868019663753e-07,3.112474656398267e-06,2.0901693968206088e-06,1.0618543744163576e-06,2.1490078346833065e-06,2.210538126293964e-06,4.695377991903355e-06,1.2782203363373721e-06,1.5434793805879278e-06
140,2.651067936032082e-06,1.6876860372327249e-06,2.1620636701160792e-06,2.41234008042645e-06,2.3827339181481004e-06,2.8563731315368985e-06,9.608473122807216e-07,8.787914177976197e-07,3.0112592957789024e-06,2.1509892108994802e-06,1.0549682138502272e-06,2.0827140485114187e-06,2.1807447517342555e-06,4.805635852254622e-06,1.2597143164259126e-06,1.6010124361496915e-06
141,2.667238909425041e-06,1.6920961796877536e-06,2.2949391960901083e-06,2.364272977532179e-06,2.4533780503316734e-06,2.9874460960936364e-06,1.0074328207075968e-06,8.69130444969587e-07,2.923701024738512e-06,2.2226867823848986e-06,1.0494689021203004e-06,2.009176294017757e-06,2.152539721558026e-06,4.898430105782219e-06,1.2440316307773895e-06,1.6603167148505455e-06
142,2.684833281092618e-06,1.695483094340391e-06,2.430180749954341e-06,2.320975348443414e-06,2.529856394029853e-06,3.1327899150313684e-06,1.063167241026058e-06,8.641214001108595e-07,2.852787741382989e-06,2.3060971121430714e-06,1.0452734540641513e-06,1.9296659750537377e-06,2.1273980795937494e-06,4.975518456538071e-06,1.2312318582299594e-06,1.7214051932964412e-06
143,2.703500562569292e-06,1.6975491164854061e-06,2.5669528561219145e-06,2.283338849305345e-06,2.612457326605102e-06,3.2927797893516507e-06,1.1285323615828618e-06,8.640676328790998e-07,2.8012517828532218e-06,2.4020311721819207e-06,1.0422767699652672e-06,1.8457677812826774e-06,2.1066494083881456e-06,5.040025728356827e-06,1.2212571870695277e-06,1.7840439925822724e-06
144,2.7227631717046153e-06,1.6978767330510628e-06,2.7045854651319635e-06,2.2520291335103474e-06,2.7010971218385214e-06,3.4674386494050155e-06,1.2040391551153778e-06,8.691925071827149e-07,2.771520877326712e-06,2.5110000614212476e-06,1.0402898784301334e-06,1.7593592164394211e-06,2.091480436873947e-06,5.095681588399839e-06,1.213949509166503e-06,1.847830247664254e-06
145,2.741978386220456e-06,1.6959032142253717e-06,2.842235227897302e-06,2.227434586661645e-06,2.7956705470971265e-06,3.656584958719468e-06,1.2902286701179097e-06,8.796655886689256e-07,2.7655889775833245e-06,2.6330993910377483e-06,1.0390376838152253e-06,1.6725107625704703e-06,2.0828527190608666e-06,5.1459333128421505e-06,1.209082384918301e-06,1.9122222960205665e-06
146,2.760215814149847e-06,1.6910804830298533e-06,2.9786355997777052e-06,2.209665600749556e-06,2.896442296524109e-06,3.859925720009225e-06,1.387639236086978e-06,8.955748875938131e-07,2.784923863005171e-06,2.7679993370219865e-06,1.0381629982848736e-06,1.5873169389697202e-06,2.081405893890356e-06,5.193329732153046e-06,1.206422872702414e-06,1.976556625952422e-06
147,2.7762660536413246e-06,1.6830794193462533e-06,3.112030064091438e-06,2.19861978929292e-06,3.0040885302812796e-06,4.076939774744903e-06,1.4968038646309265e-06,9.168649603733299e-07,2.8304469477907376e-06,2.914975130432738e-06,1.0371987320019482e-06,1.5058078009970687e-06,2.0874656054344622e-06,5.23930143075487e-06,1.2057782462383204e-06,2.0401097282020198e-06
148,2.788818656001778e-06,1.6718798650967989e-06,3.240234966514333e-06,2.1940504798413484e-06,3.119408412122702e-06,4.306709658895255e-06,1.6182643130830133e-06,9.432966160639895e-07,2.902557941251783e-06,3.072887415131637e-06,1.0355588869328563e-06,1.4299726850329155e-06,2.1011026334725036e-06,5.2841312940635005e-06,1.207000900732213e-06,2.10210568868802e-06
149,2.796678675109066e-06,1.6577758603368253e-06,3.360716472007245e-06,2.1955908737968086e-06,3.2431317049033646e-06,4.547990085527785e-06,1.7525487310440828e-06,9.744370530896055e-07,3.001190453129949e-06,3.2401668301708987e-06,1.0325868708150823e-06,1.3617427830992035e-06,2.1222247743102314e-06,5.326921999969114e-06,1.2099592291884965e-06,2.1617328018407834e-06
150,2.798875144440564e-06,1.641377459353027e-06,3.470653299590443e-06,2.202806017088504e-06,3.375956566567744e-06,4.799457959984083e-06,1.900111322326865e-06,1.0096833177256861e-06,3.125824739725927e-06,3.414934983923546e-06,1.0276451233120211e-06,1.3029164123732252e-06,2.1507537129498145e-06,5.365602243538036e-06,1.214496642061562e-06,2.2183080965227334e-06
151,2.7945765713439866e-06,1.623594549006132e-06,3.567129807275436e-06,2.2152507928369876e-06,3.518534734456504e-06,5.059757955523362e-06,2.061290739907244e-06,1.0483214823380328e-06,3.2754953960523492e-06,3.595191381175375e-06,1.020196643550767e-06,1.2551337387783763e-06,2.1867178498098766e-06,5.397180448091821e-06,1.2204650237008783e-06,2.2714136129761765e-06
152,2.782938029234008e-06,1.6055264681826385e-06,3.6475548814658323e-06,2.2324148802895313e-06,3.6713649962445623e-06,5.327283408515182e-06,2.236330013645584e-06,1.089570212178774e-06,3.448914340646652e-06,3.7788698284482873e-06,1.0098126467505658e-06,1.2199229987825072e-06,2.2300834333349265e-06,5.418404710488444e-06,1.2278528802788535e-06,2.3208510998293078e-06
153,2.763124579037515e-06,1.5882569268994845e-06,3.710127539891587e-06,2.2536246693909196e-06,3.834901261176786e-06,5.600135539334978e-06,2.425414510850954e-06,1.132588895165761e-06,3.6446330690548892e-06,3.963670450521431e-06,9.961234266869538e-07,1.1987898929923288e-06,2.2804819708629907e-06,5.426706416219921e-06,1.2368449513653084e-06,2.366568349501756e-06
154,2.734496670797694e-06,1.5726752529753407e-06,3.7540492502888197e-06,2.2781197534106554e-06,4.00987907248987e-06,5.876468459320794e-06,2.6286260023217986e-06,1.1765483122932201e-06,3.8610699273762e-06,4.146754822556832e-06,9.788363112820886e-07,1.193303672179612e-06,2.337070602732898e-06,5.421005047560775e-06,1.2477188847305024e-06,2.408663759457969e-06
155,2.6967716337581306e-06,1.5594155862319164e-06,3.7793284830998957e-06,2.3053225267171434e-06,4.197465066941278e-06,6.154872775719614e-06,2.8458112141982334e-06,1.220796590854849e-06,4.0963480631244245e-06,4.324486515566649e-06,9.578538082948144e-07,1.2051960469072462e-06,2.398556351842651e-06,5.4019534578576625e-06,1.2606886998664146e-06,2.4473591694240853e-06
156,2.6501426697284474e-06,1.548869218574035e-06,3.7862909407446388e-06,2.3351027604859785e-06,4.3990391595153755e-06,6.434486745604771e-06,3.0764823496841675e-06,1.2649386728232623e-06,4.348071062080937e-06,4.492360602194879e-06,9.333922508599333e-07,1.2365161952964301e-06,2.4633085339199812e-06,5.37152439385491e-06,1.2758155260705849e-06,2.4828607868591568e-06
157,2.5953889153095942e-06,1.541198183629372e-06,3.7752061327732463e-06,2.3679002710630405e-06,4.615796895239114e-06,6.714863062796691e-06,3.3197584357355326e-06,1.308701555528409e-06,4.613229829077644e-06,4.645265407536963e-06,9.060431560358524e-07,1.2896940226690351e-06,2.529598483102925e-06,5.332177282007475e-06,1.2930058018104895e-06,2.5151915650449057e-06
158,2.533883158393682e-06,1.5363613646184072e-06,3.746397225118502e-06,2.4046898485695437e-06,4.848394762479514e-06,6.995718971953497e-06,3.5742417139861963e-06,1.3517356849043307e-06,4.888223413622528e-06,4.778134744933906e-06,8.767445874919076e-07,1.3673577177931319e-06,2.596064164344218e-06,5.286037623048369e-06,1.312030381107348e-06,2.5440812364250687e-06
159,2.4674236840955345e-06,1.5341843016889433e-06,3.700652994714859e-06,2.446774054211577e-06,5.096742752358713e-06,7.276666666776281e-06,3.837860749627948e-06,1.3935316340195782e-06,5.168844365149039e-06,4.886697549577798e-06,8.466252360248846e-07,1.4720653395640238e-06,2.662154798697326e-06,5.234493570800247e-06,1.3324908045160096e-06,2.568924259073027e-06
160,2.397971734516419e-06,1.5344652072156971e-06,3.6394484130617292e-06,2.495459260162457e-06,5.359949999004208e-06,7.556967045687353e-06,4.10784331027998e-06,1.4334776439940802e-06,5.4502780458571025e-06,4.967889416279563e-06,8.168094044169243e-07,1.6061902585943863e-06,2.7280822631550044e-06,5.178251302323176e-06,1.3537667899070465e-06,2.5888235274894224e-06
161,2.327428401332967e-06,1.5370998791652622e-06,3.564838802836473e-06,2.5518146902991924e-06,5.636338246461689e-06,7.835255232065475e-06,4.380887816147285e-06,1.4710163501560264e-06,5.727297194008974e-06,5.019816015142848e-06,7.883156195361914e-07,1.7719439485939432e-06,2.794288195924625e-06,5.117520828813938e-06,1.3750353191664389e-06,2.6026948240198383e-06
162,2.257483842183054e-06,1.542158081255545e-06,3.4793021589619896e-06,2.616594740582813e-06,5.923446384136657e-06,8.109161765551314e-06,4.6534482092820764e-06,1.5057554977129735e-06,5.994708560028777e-06,5.041431221159065e-06,7.620495053107778e-07,1.9713763495642183e-06,2.860934997775547e-06,5.052128449411836e-06,1.3953832375923326e-06,2.609344249331018e-06
163,2.1895176147246495e-06,1.5498126892327076e-06,3.385724762332031e-06,2.6901897273561555e-06,6.218002901150457e-06,8.374918147031089e-06,4.922020204143237e-06,1.537426220278013e-06,6.247944424618028e-06,5.0320303260630425e-06,7.388312422047361e-07,2.20629531878272e-06,2.92775844466898e-06,4.9817537444608454e-06,1.4139740684779276e-06,2.607528721980242e-06
164,2.124605387703265e-06,1.5601584251120567e-06,3.287388020646966e-06,2.7725937126326586e-06,6.515843879418526e-06,8.627286558631916e-06,5.183376516993256e-06,1.5658847603446627e-06,6.48356437126787e-06,4.990720293097213e-06,7.194477161842274e-07,2.478181514755145e-06,2.9942002270742612e-06,4.906439351620775e-06,1.4302000181326089e-06,2.596120956755243e-06
165,2.0636153624123077e-06,1.5730704675261857e-06,3.187751990581392e-06,2.8635224323877906e-06,6.811896902841337e-06,8.860113373538573e-06,5.434746127702542e-06,1.5913289847411454e-06,6.699368019111333e-06,4.916444156717625e-06,7.047184399201182e-07,2.788160240070023e-06,3.0595316936834008e-06,4.827024778265021e-06,1.4437541288480878e-06,2.574400833686457e-06
166,2.007211775409247e-06,1.5881724274540026e-06,3.090119736668094e-06,2.962628871853529e-06,7.100494281510194e-06,9.067396041066378e-06,5.673963584003411e-06,1.614514841989629e-06,6.89402032450546e-06,4.808976792448193e-06,6.95532618053741e-07,3.136983012490077e-06,3.1227606827190677e-06,4.745027141592144e-06,1.4545945394759588e-06,2.5423044060851055e-06
167,1.955766161280679e-06,1.6048788425927947e-06,2.997445824926995e-06,3.0695993505807853e-06,7.375992802151574e-06,9.244405765435527e-06,5.899594691956896e-06,1.6367250770996953e-06,7.066519115808148e-06,4.670204001604279e-06,6.928583191041846e-07,3.5249603597145536e-06,3.182409594272488e-06,4.662025759655384e-06,1.462807432918007e-06,2.500460087686601e-06
168,1.9093876422317683e-06,1.6224635922633531e-06,2.9123686175676017e-06,3.1840298802860565e-06,7.633343228448417e-06,9.388347936026206e-06,6.110945471953561e-06,1.6595388170819782e-06,7.215896231708502e-06,4.504490695606307e-06,6.977459216565538e-07,3.951842090028748e-06,3.236438801791558e-06,4.579155168342774e-06,1.4684716012955095e-06,2.450029324798137e-06
169,1.8680501751856766e-06,1.640186859742155e-06,2.8372873729266967e-06,3.3051721371436383e-06,7.868395110400545e-06,9.498255496565461e-06,6.307840710163986e-06,1.684572413961986e-06,7.3410436702319065e-06,4.317839484831344e-06,7.11315833022793e-07,4.416671857739831e-06,3.2824679086524567e-06,4.497141109142975e-06,1.4716353917785175e-06,2.392515001943846e-06
170,1.8316394859911615e-06,1.65753004446633e-06,2.7743016914230927e-06,3.4316885227252603e-06,8.077989752203814e-06,9.574304801791922e-06,6.490232829510463e-06,1.7133201544168323e-06,7.440456229096151e-06,4.116584039239586e-06,7.347457818591399e-07,4.91767159887281e-06,3.3182311849759017e-06,4.416706784520124e-06,1.472376102963792e-06,2.3296518288995457e-06
171,1.7999250319416166e-06,1.6743690811476215e-06,2.725053375963783e-06,3.561495580845393e-06,8.259944397831098e-06,9.617135049147629e-06,6.6578023963725605e-06,1.7471161220481646e-06,7.512294300253721e-06,3.9064769197050546e-06,7.692670097338838e-07,5.452229852035903e-06,3.3421295323175528e-06,4.3389737822768505e-06,1.4708968329733276e-06,2.263321160688895e-06
172,1.7725431514544816e-06,1.6908606174931425e-06,2.690667512108921e-06,3.6917359709857892e-06,8.412994280673482e-06,9.627575850459127e-06,6.809579099014106e-06,1.7871196174637873e-06,7.5550896112083485e-06,3.692413921301761e-06,8.161467158654649e-07,6.017069449474067e-06,3.353740917376712e-06,4.265683110831454e-06,1.4676224280403511e-06,2.1953845278720065e-06
173,1.7490726352752117e-06,1.7071400460006117e-06,2.6718685113870297e-06,3.818952079450687e-06,8.5366867186012e-06,9.60668262431519e-06,6.943622142169009e-06,1.834311564345639e-06,7.568530502543381e-06,3.4784843862503797e-06,8.766772194757189e-07,6.608549908341296e-06,3.354068612924291e-06,4.199239184671967e-06,1.463169232672324e-06,2.1274670146030523e-06
174,1.729189492992006e-06,1.7231160750569937e-06,2.669106441707018e-06,3.939535427653013e-06,8.631127039345138e-06,9.555694692315386e-06,7.056988559610225e-06,1.889566809152506e-06,7.553715341780188e-06,3.2680386482747244e-06,9.521722893517492e-07,7.222878821253799e-06,3.3452972705181004e-06,4.142625065968049e-06,1.4581572597616888e-06,2.060819283787541e-06
175,1.7127015343789591e-06,1.7384646554499024e-06,2.6825248687656082e-06,4.05034992291308e-06,8.6964871803832e-06,9.47562371480916e-06,7.146102784120206e-06,1.953700899581487e-06,7.512975221208316e-06,3.063716844693146e-06,1.043909083984816e-06,7.856116623586118e-06,3.3301155410034458e-06,4.0992041973535375e-06,1.4530383410160023e-06,1.9962978219115873e-06
176,1.699445816921065e-06,1.7527009162433296e-06,2.7118533893692094e-06,4.149188960532133e-06,8.73233290356178e-06,9.36667540457544e-06,7.207338629720195e-06,2.0273736388924095e-06,7.449639179010791e-06,2.867484683185361e-06,1.153026979169416e-06,8.504118539262965e-06,3.3110269402155958e-06,4.072426157175635e-06,1.4480803789608989e-06,1.9343955622342553e-06
177,1.689222231894163e-06,1.7651858670157814e-06,2.7564260807177297e-06,4.234803031514625e-06,8.737071172992307e-06,9.22821200368062e-06,7.237592514067138e-06,2.1109456717283566e-06,7.3679104059238865e-06,2.68071047711726e-06,1.28047766801232e-06,9.162538053994852e-06,3.2900466935781785e-06,4.06548026940094e-06,1.4434411824370848e-06,1.8752953359457506e-06
178,1.6817556684613279e-06,1.7750958309787604e-06,2.815320287591719e-06,4.306671360518275e-06,8.707956305325042e-06,9.059516405526304e-06,7.234762719074101e-06,2.2044187536065063e-06,7.272759002374848e-06,2.504314070254662e-06,1.4270728963069764e-06,9.826825886522957e-06,3.2687911298593876e-06,4.080985105873587e-06,1.4391986467020134e-06,1.8189502705924446e-06
179,1.6767309870662063e-06,1.7815232125146413e-06,2.8874149894316964e-06,4.364926487321813e-06,8.641754562811423e-06,8.860660990601217e-06,7.198136595345908e-06,2.3074569877860464e-06,7.169603776168943e-06,2.3389788014305465e-06,1.5935866684554168e-06,1.0492061062115863e-05,3.24867759189458e-06,4.12091824763208e-06,1.4353019670376981e-06,1.765172518902437e-06
180,1.6740353153139567e-06,1.7837543344178931e-06,2.971289531253315e-06,4.410507059143842e-06,8.53567005918127e-06,8.632830651005659e-06,7.128712584236905e-06,2.419404873759419e-06,7.0636849047199154e-06,2.185285146424956e-06,1.7808180332094912e-06,1.115247556764837e-05,3.2310201695235526e-06,4.186934255402039e-06,1.4315299270252708e-06,1.7137576441134703e-06
181,1.6739972793175704e-06,1.7815245803624598e-06,3.0651140729768233e-06,4.445179008641595e-06,8.388151202240002e-06,8.378232591886655e-06,7.029393736696776e-06,2.5392451627558667e-06,6.959344903475475e-06,2.043637328581477e-06,1.9895405078203745e-06,1.180080955119474e-05,3.217042816866464e-06,4.280879110356897e-06,1.427579597418064e-06,1.6646593672879095e-06
182,1.6773122179707393e-06,1.7750126446999714e-06,3.166706336509773e-06,4.47113669270106e-06,8.19949456181494e-06,8.100038438527008e-06,6.9048512396278754e-06,2.665587648432203e-06,6.8595487058200085e-06,1.9141303361646585e-06,2.220378993297319e-06,1.2428058733755339e-05,3.2078824291615837e-06,4.405098828285956e-06,1.4232570800309416e-06,1.6181185011997104e-06
183,1.6847605566385722e-06,1.7645850866048543e-06,3.2737619522883007e-06,4.490388261540322e-06,7.97220616332989e-06,7.802535314193781e-06,6.760926039825778e-06,2.796825544586557e-06,6.765771571496743e-06,1.7966014339785057e-06,2.473763743774233e-06,1.3024003050684918e-05,3.2045590373472646e-06,4.562305869114784e-06,1.4185667631838638e-06,1.5746508362513307e-06
184,1.6970110770621397e-06,1.750585257274319e-06,3.3841016258543905e-06,4.504414332712992e-06,7.710981084146922e-06,7.491290811377851e-06,6.6037564141636695e-06,2.931391609528945e-06,6.678221409358891e-06,1.6908148322158039e-06,2.7500471118818628e-06,1.357820742793379e-05,3.2079381896205492e-06,4.755127961395953e-06,1.4136337660117161e-06,1.534932396232146e-06
185,1.7145813655567682e-06,1.7333610648860608e-06,3.4957670367806238e-06,4.514289757841515e-06,7.4222272018646256e-06,7.173058701217714e-06,6.439029440350178e-06,3.06791380247607e-06,6.5962292273274255e-06,1.5965284273388608e-06,3.0497160831880297e-06,1.4081055063453459e-05,3.218739294207437e-06,4.985749136680717e-06,1.4086528183203717e-06,1.4996841962042614e-06
186,1.7378582058490178e-06,1.713346647839384e-06,3.606951568517762e-06,4.521022509679718e-06,7.113260691814063e-06,6.855409020295843e-06,6.27155005317068e-06,3.205220381810459e-06,6.518511251272011e-06,1.513438626804429e-06,3.3735970997806547e-06,1.4524739517909849e-05,3.2375085729440285e-06,5.255987641496246e-06,1.4039229044063457e-06,1.4695821149931883e-06
187,1.7670671043341648e-06,1.6909765197205612e-06,3.7158889248852213e-06,4.5258358172867915e-06,6.791404482607797e-06,6.546252033605139e-06,6.105063335530863e-06,3.3423077317308915e-06,6.4432815011047106e-06,1.441228373813645e-06,3.7229923427918785e-06,1.4904199272426937e-05,3.264477993831413e-06,5.5677065327400565e-06,1.3997767965298852e-06,1.4451731756940274e-06
188,1.8021915538391736e-06,1.6665395059499814e-06,3.82077215834321e-06,4.530290837161376e-06,6.463248155097654e-06,6.253318350798657e-06,5.9423996147425545e-06,3.4783458572131576e-06,6.368506748921948e-06,1.3797148943915055e-06,4.099731104590551e-06,1.5217739094749986e-05,3.2993960302918434e-06,5.923111014387695e-06,1.3963928946242772e-06,1.4268239136283456e-06
189,1.8429347442151504e-06,1.64021288595883e-06,3.919635573936963e-06,4.5361993582213546e-06,6.134363366525389e-06,5.983616856780226e-06,5.785992958260847e-06,3.6127134778616835e-06,6.292361045095867e-06,1.3288689092632077e-06,4.506164725288854e-06,1.5466818400233467e-05,3.3414794334406536e-06,6.324679350579446e-06,1.393677100456876e-06,1.4147361398435323e-06
190,1.888754954854501e-06,1.6122732814389407e-06,4.010145001831853e-06,4.545316886262172e-06,5.809490336563615e-06,5.743085988405333e-06,5.6383274945364885e-06,3.745033533779449e-06,6.21367665767325e-06,1.2886741370057153e-06,4.945096539172195e-06,1.5654642929011566e-05,3.3895370371575463e-06,6.774822139310092e-06,1.391269627399022e-06,1.409009146547942e-06
191,1.9389770144860887e-06,1.5832144327901807e-06,4.089442570441271e-06,4.558933117660645e-06,5.492791428998518e-06,5.536599942275453e-06,5.501844071218943e-06,3.8751360282285365e-06,6.13227794388391e-06,1.259001821238471e-06,5.41954270270799e-06,1.578436123755516e-05,3.442112599649211e-06,7.275403807244708e-06,1.3886192414749622e-06,1.4096609120351816e-06
192,1.9929445128737985e-06,1.5536004661302582e-06,4.15426530559719e-06,4.577578401978915e-06,5.187920300565075e-06,5.36813135361752e-06,5.3785079449794524e-06,4.00287447000016e-06,6.0490828280763755e-06,1.2395700074725695e-06,5.932260708624304e-06,1.5858648241264337e-05,3.497499870932805e-06,7.827218102066306e-06,1.3850818611554446e-06,1.4165645254578671e-06
193,2.0500549384891936e-06,1.5238121409712246e-06,4.201324181727419e-06,4.601000998024122e-06,4.898074400456448e-06,5.240792735184051e-06,5.269526998298893e-06,4.127829829916467e-06,5.965738171578815e-06,1.22992549737242e-06,6.485184567361352e-06,1.588116302140093e-05,3.553797940153879e-06,8.429604933338966e-06,1.3800536642802743e-06,1.4293763937453776e-06
194,2.1095977090782457e-06,1.4939227678714295e-06,4.227753890511373e-06,4.628345110823463e-06,4.626141255243481e-06,5.1567529537996425e-06,5.175441888386769e-06,4.249016393824346e-06,5.883817544469771e-06,1.2294120675406851e-06,7.078994928849344e-06,1.585820770976608e-05,3.6091604237450055e-06,9.08036531603661e-06,1.3731457417832599e-06,1.4475166809283793e-06
195,2.17055258943679e-06,1.4637601374932163e-06,4.2315408023267316e-06,4.658271025034295e-06,4.374770305176052e-06,5.117223402917509e-06,5.0965630639144085e-06,4.3647182859294036e-06,5.8040697289826196e-06,1.237148775301579e-06,7.712895048168134e-06,1.5798932854282895e-05,3.661982420703669e-06,9.775801179694806e-06,1.3642529501372717e-06,1.4701847481230168e-06
196,2.2315434070269053e-06,1.433097537509634e-06,4.21190365342503e-06,4.688907502047842e-06,4.146252691483925e-06,5.12259238638379e-06,5.033457322138011e-06,4.472560128311918e-06,5.726120398661103e-06,1.2520526694029732e-06,8.384532429226633e-06,1.5714036436876644e-05,3.7107960842174544e-06,1.0510580602414971e-05,1.3534085315171015e-06,1.496419712837689e-06
197,2.2910092515277498e-06,1.4018293543551326e-06,4.169536857265631e-06,4.717952083486726e-06,3.942330028013111e-06,5.1725304789414075e-06,4.987059202034826e-06,4.569830611857814e-06,5.648635302869204e-06,1.272925559935054e-06,9.090003116791887e-06,1.5613897592088903e-05,3.754200944850545e-06,1.1277588508217514e-05,1.3406127865934943e-06,1.5252278803831784e-06
198,2.34752371441594e-06,1.3699662031468869e-06,4.106611490590533e-06,4.7432148819693266e-06,3.7640640375637893e-06,5.265942273130973e-06,4.958376956527865e-06,4.654000871607755e-06,5.569901970143431e-06,1.298591710962037e-06,9.823861653861106e-06,1.5507031985887638e-05,3.7912272516332788e-06,1.2068149188745783e-05,1.3258315323820446e-06,1.5557207872590327e-06
199,2.4000845145017747e-06,1.3375213464866906e-06,4.02647981189856e-06,4.763328600337018e-06,3.6117656708816614e-06,5.400918006053534e-06,4.94816745379752e-06,4.723317144662134e-06,5.488697383905726e-06,1.3279789297296168e-06,1.0579081223328322e-05,1.539918359640495e-05,3.8218264923162266e-06,1.2872464439431827e-05,1.309089962162461e-06,1.5871658259094204e-06
200,2.4482304311380233e-06,1.304466648875959e-06,3.933131470448291e-06,4.778137068561033e-06,3.4849914726774286e-06,5.574778354297049e-06,4.956830036414346e-06,4.777283674107262e-06,5.404965823246693e-06,1.3600344906091997e-06,1.134691603157957e-05,1.529293256962692e-05,3.846886662797754e-06,1.367972474440879e-05,1.2905148549162705e-06,1.618904549481705e-06
201,2.4919730776911874e-06,1.2707735316896985e-06,3.830586935417712e-06,4.788612937187546e-06,3.3826086446910383e-06,5.784075804522493e-06,4.984447787599671e-06,4.816867644568307e-06,5.319841869257063e-06,1.3935753720359518e-06,1.2116605483995153e-05,1.5187679540731217e-05,3.867732036461947e-06,1.4477735339242048e-05,1.2703112242887014e-06,1.6502247864489074e-06
202,2.5315722384490743e-06,1.2364918119484406e-06,3.7224338583143084e-06,4.796445672083222e-06,3.302862428549978e-06,6.024497350995108e-06,5.0308581619078115e-06,4.844327678406947e-06,5.2350388004837735e-06,1.4272802485860246e-06,1.2875050909129297e-05,1.5079987089644044e-05,3.885522985633544e-06,1.5252494734564775e-05,1.2487236543498507e-06,1.680399628680024e-06
203,2.5672556756250906e-06,1.201788133729205e-06,3.6115816397492767e-06,4.80348697427541e-06,3.243506640584046e-06,6.290734979476154e-06,5.09572356282587e-06,4.862642489700859e-06,5.152086797235888e-06,1.4598563625258659e-06,1.360687054789727e-05,1.4964312681793985e-05,3.90088205189472e-06,1.5988391324418873e-05,1.2259924116490082e-06,1.7089622574305344e-06
204,2.599072240577203e-06,1.1668925939741623e-06,3.5001830955451696e-06,4.811203223544162e-06,3.2020897158122058e-06,6.57638247990142e-06,5.178515953075472e-06,4.874716279885882e-06,5.071956041188044e-06,1.4901906045547318e-06,1.4295205871290006e-05,1.4834094285576065e-05,3.913787862265303e-06,1.6669498297009584e-05,1.202346527338585e-06,1.7359558340193245e-06
205,2.626903886702425e-06,1.1320812624238328e-06,3.3896381701877655e-06,4.8202796526656965e-06,3.176229983354533e-06,6.874012582723241e-06,5.278325942123623e-06,4.882760612234712e-06,4.995177890781387e-06,1.5173478116965901e-06,1.4923276869076159e-05,1.4682960375363466e-05,3.923573088200486e-06,1.7281882407683617e-05,1.1780678327634742e-06,1.7619117255317795e-06
206,2.650489368173153e-06,1.0977646301392811e-06,3.280623660827435e-06,4.830444489349949e-06,3.1636910948344973e-06,7.175542809583606e-06,5.393609997289521e-06,4.888090997908896e-06,4.922153802045319e-06,1.5406001297876376e-06,1.5476286995253855e-05,1.4505784222351826e-05,3.928931937819452e-06,1.7815935117991048e-05,1.153520894918197e-06,1.7876076036732912e-06
207,2.669431867623794e-06,1.0645211000907295e-06,3.173126313299889e-06,4.840426437172888e-06,3.162345618618158e-06,7.472698171028254e-06,5.522080300720475e-06,4.891212178275053e-06,4.85336117883068e-06,1.5596360747176062e-06,1.5943110497713555e-05,1.4299424531086554e-05,3.92806146171449e-06,1.8267139468081015e-05,1.129104894786452e-06,1.8137938010263126e-06
208,2.6832483518103714e-06,1.0329752545251055e-06,3.066505975769388e-06,4.847987620571458e-06,3.1701910540481277e-06,7.757302958108301e-06,5.660736081229799e-06,4.89200358454117e-06,4.789367948735447e-06,1.5746743957292373e-06,1.6317237828171524e-05,1.4062923532332669e-05,3.918988640356486e-06,1.8634369316647686e-05,1.105225228928076e-06,1.8410341245679675e-06
209,2.691428095384271e-06,1.0036414374013224e-06,2.9596926544298604e-06,4.8501194803457604e-06,3.1854207487088276e-06,8.021390957383976e-06,5.8058768153223435e-06,4.889851433798723e-06,4.730705668947899e-06,1.5862671247578522e-06,1.6596543766999362e-05,1.3796736846765627e-05,3.899924789995993e-06,1.8916780220833033e-05,1.0823110462158298e-06,1.8696707893601759e-06
210,2.6934983461546706e-06,9.768649164360626e-07,2.8515561727728885e-06,4.843462281394883e-06,3.2064746665775883e-06,8.257371098476827e-06,5.953119025783472e-06,4.8836198844941e-06,4.677759042980096e-06,1.5950432356688464e-06,1.6781623488459487e-05,1.3501185251816137e-05,3.869570938228214e-06,1.9111705777966778e-05,1.060835464683245e-06,1.8998384894626106e-06
211,2.6892093457241085e-06,9.528471627964151e-07,2.7412913091363363e-06,4.82489266016338e-06,3.2320471282442614e-06,8.458483116558227e-06,6.097663411879445e-06,4.871700019241698e-06,4.630765643078259e-06,1.6016818959849692e-06,1.6873231113578605e-05,1.31755207260109e-05,3.827367334041727e-06,1.9214813852406382e-05,1.0412968332980107e-06,1.9315236647900657e-06
212,2.6788567762699725e-06,9.317021266199137e-07,2.6286639273978065e-06,4.7921553431707076e-06,3.261045599154761e-06,8.61948524005141e-06,6.23489041209369e-06,4.8524854837973745e-06,4.589842231611446e-06,1.6070285107580148e-06,1.6870449890396722e-05,1.2818520468494959e-05,3.7734860184577373e-06,1.9221983959153865e-05,1.0241701124648325e-06,1.9646271308692377e-06
213,2.6635218430665414e-06,9.135512656862334e-07,2.514125505036132e-06,4.7443531342749455e-06,3.2924679957664313e-06,8.737189765403747e-06,6.360943136024832e-06,4.825074028578724e-06,4.5549452828195534e-06,1.6121200783582308e-06,1.6770815238529763e-05,1.242977501566754e-05,3.7085002416322212e-06,1.9132361168777437e-05,1.0098879192988298e-06,1.9989224656704106e-06
214,2.6449761617986745e-06,8.986084273703278e-07,2.3987834419726934e-06,4.682080868118219e-06,3.3251919364272264e-06,8.810459386450108e-06,6.472828556518102e-06,4.7896415031249985e-06,4.525737022204994e-06,1.6181022094495e-06,1.6571885164832326e-05,1.2010729783595883e-05,3.6330682272699672e-06,1.8951913368438105e-05,9.98829758707652e-07,2.0340003744439404e-06
215,2.625267152288059e-06,8.871611906751129e-07,2.2841428491258528e-06,4.607059982817649e-06,3.3577515970627985e-06,8.839585289597998e-06,6.567899605352851e-06,4.747293207467998e-06,4.501392889623904e-06,1.626135192925838e-06,1.6273124191922735e-05,1.156543353994322e-05,3.5478108211278155e-06,1.8695467342240295e-05,9.91275578786857e-07,2.0693735450744886e-06
216,2.60626569532388e-06,8.795207339431559e-07,2.1717197919075295e-06,4.521398235842539e-06,3.3882115136709273e-06,8.825240370231206e-06,6.643089685197236e-06,4.6996318703722266e-06,4.480589348346885e-06,1.6373241725282368e-06,1.587745839146997e-05,1.1100954638525623e-05,3.453267882406645e-06,1.8385294897292286e-05,9.873504450700202e-07,2.1046689778588774e-06
217,2.589410160401342e-06,8.760471048483662e-07,2.062773941122478e-06,4.426958201892007e-06,3.4141648250664295e-06,8.76742854127423e-06,6.694561659074152e-06,4.648320504559988e-06,4.461781359672335e-06,1.6526925526551761e-06,1.539207884414693e-05,1.0627221662335341e-05,3.3499345975605045e-06,1.8046883269406884e-05,9.869854270283098e-07,2.139728071568771e-06
218,2.575646794411301e-06,8.771600612186735e-07,1.9582338817555353e-06,4.325209193644055e-06,3.432897592879292e-06,8.665160284092133e-06,6.71812592857005e-06,4.594715349022132e-06,4.4434127743219314e-06,1.673155934179894e-06,1.4828183269089511e-05,1.0156269095966685e-05,3.2384845500818137e-06,1.7704748116023258e-05,9.89901303468684e-07,2.174596073151653e-06
219,2.565479769934151e-06,8.832514501430259e-07,1.8587599295834656e-06,4.217394673634017e-06,3.4419065603524162e-06,8.51727807424531e-06,6.710129618332978e-06,4.539561223166467e-06,4.42388577644929e-06,1.699435333702581e-06,1.4199764689158328e-05,9.701100528998894e-06,3.1201732254121726e-06,1.7380381234980375e-05,9.956160541298767e-07,2.209485653193945e-06
220,2.559044138466901e-06,8.945902528083938e-07,1.764931509310705e-06,4.10471041360245e-06,3.439714273270088e-06,8.323799221347885e-06,6.668253708265619e-06,4.48289777425566e-06,4.4016436856841615e-06,1.7319760507130383e-06,1.3521949703992382e-05,9.27444275977073e-06,2.9970477390064695e-06,1.7092076847607367e-05,1.0034780775221327e-06,2.2447697120388618e-06
221,2.55611005115087e-06,9.112982115377816e-07,1.6774447440999951e-06,3.988469208430924e-06,3.426424594809587e-06,8.086759200179684e-06,6.591885417626126e-06,4.424303091593353e-06,4.375550545579255e-06,1.770952896116455e-06,1.2809381413435517e-05,8.887740844157192e-06,2.871620408124799e-06,1.6855458146313754e-05,1.0127209532134645e-06,2.280994814312621e-06
222,2.5560518051800495e-06,9.333740367243966e-07,1.5971137909971045e-06,3.870277238654169e-06,3.4035567373406288e-06,7.810251531229042e-06,6.482088760901152e-06,4.363271510060588e-06,4.345260919756504e-06,1.816319970145069e-06,1.2074970169215743e-05,8.550708892806953e-06,2.7463737760260143e-06,1.6684060435560024e-05,1.022510648635906e-06,2.3188290311247655e-06
223,2.55788319886408e-06,9.607802614496515e-07,1.5246852103808808e-06,3.752087784584047e-06,3.3733147922539403e-06,7.499983102779212e-06,6.341381318269845e-06,4.299429214515179e-06,4.311259852920713e-06,1.8678231252656832e-06,1.1329342095641446e-05,8.271329728855206e-06,2.623590942648534e-06,1.6589806604912548e-05,1.0320172393171234e-06,2.3588693744197155e-06
224,2.5603973651995764e-06,9.935938863224027e-07,1.460703444762778e-06,3.6360105172004964e-06,3.3378354307083622e-06,7.1626616265482365e-06,6.173460954657767e-06,4.232556065404417e-06,4.274606583302965e-06,1.924968491896757e-06,1.058107687242441e-05,8.055906634353577e-06,2.505412145719235e-06,1.6583306025542767e-05,1.040561851352267e-06,2.4013929805754593e-06
225,2.5624596862686197e-06,1.0320813108607737e-06,1.4055509775426225e-06,3.5239501580045442e-06,3.298789689752919e-06,6.805370554987697e-06,5.9828909487234455e-06,4.162567911865878e-06,4.236586432194297e-06,1.9869730322969378e-06,9.837294760497817e-06,7.909079770858545e-06,2.3938395424993525e-06,1.6673880195176474e-05,1.0477462853048309e-06,2.446211260169904e-06
226,2.5633801290939755e-06,1.076609244966777e-06,1.359528074793804e-06,3.4172801809962158e-06,3.257311545890307e-06,6.435054756455318e-06,5.774672330888466e-06,4.08955492972286e-06,4.198335601042617e-06,2.052744846701634e-06,9.104113584026404e-06,7.833979409384423e-06,2.2906849262719773e-06,1.6869278925429534e-05,1.0534372140051822e-06,2.4926568005660457e-06
227,2.5630306124083355e-06,1.1275222470591268e-06,1.3228190241487488e-06,3.3167051496424795e-06,3.214105472703748e-06,6.058206105044823e-06,5.553672878963595e-06,4.013870003498358e-06,4.160458393696273e-06,2.121035046712638e-06,8.386867477464631e-06,7.832460279400616e-06,2.197580452599872e-06,1.717514396452555e-05,1.0576181277529236e-06,2.539644223355466e-06
228,2.561531194521709e-06,1.1851244732554434e-06,1.2953922710683472e-06,3.2223100801942778e-06,3.1696543948617843e-06,5.680709333856912e-06,5.324092697388643e-06,3.936242216483912e-06,4.122829731844171e-06,2.1907244437102468e-06,7.690172333300036e-06,7.9051657560424e-06,2.116066341226014e-06,1.759434532724798e-05,1.06025134866941e-06,2.5858425517923195e-06
229,2.5588231453864672e-06,1.2497030867760762e-06,1.27695202372552e-06,3.1337067869030273e-06,3.1244018332120317e-06,5.3077031788744975e-06,5.0892609578358575e-06,3.857853868212688e-06,4.0847216863239665e-06,2.260943282771338e-06,7.017961725166325e-06,8.051403323636512e-06,2.0476276110292197e-06,1.812661874985477e-05,1.0612736497244922e-06,2.629989759941418e-06
230,2.5545187894411315e-06,1.3214744262531465e-06,1.2669469478433344e-06,3.0502269385141813e-06,3.0788154470266306e-06,4.943411458812184e-06,4.851797869208863e-06,3.7802817505650236e-06,4.045026321138032e-06,2.3310131327914807e-06,6.3735681850908514e-06,8.269117521744674e-06,1.9935948447351426e-06,1.8768950772185385e-05,1.0606813839724677e-06,2.6711803781246025e-06
231,2.548057652810172e-06,1.4004932591354164e-06,1.264578655288563e-06,2.9711627275134337e-06,3.033400391017803e-06,4.591077557601152e-06,4.6138858275525835e-06,3.70529324499325e-06,4.002337554044597e-06,2.4004648578403927e-06,5.759822493467947e-06,8.555108252312042e-06,1.9550265672607776e-06,1.95164440616223e-05,1.0585680417316297e-06,2.7089761942123593e-06
232,2.5390193972912215e-06,1.4866501129938307e-06,1.26879082582305e-06,2.8960569747518697e-06,2.9886871354176515e-06,4.253054424025824e-06,4.377490063064461e-06,3.634586162687404e-06,3.955121084723919e-06,2.4690817330095214e-06,5.179124335025761e-06,8.905330565025533e-06,1.9326914848698827e-06,2.0362944295988967e-05,1.0550848996555313e-06,2.743385236048578e-06
233,2.5274966304932643e-06,1.5797898122341756e-06,1.2782826185627026e-06,2.8250035207303877e-06,2.9451115679615888e-06,3.930914432106242e-06,4.144562961460322e-06,3.5695504210269498e-06,3.902194746246361e-06,2.536808106225615e-06,4.633469984659984e-06,9.31517716212731e-06,1.927085763379946e-06,2.1301035976166658e-05,1.0504260704995642e-06,2.774742980705268e-06
234,2.5143926623460247e-06,1.6798968990580574e-06,1.2915775988321636e-06,2.7588232025448097e-06,2.902886151332132e-06,3.6255305095350617e-06,3.917219513582832e-06,3.5111581208432192e-06,3.843221210534153e-06,2.6035872216584026e-06,4.124448384943038e-06,9.77987309053777e-06,1.9384069500970013e-06,2.232147720971439e-05,1.044870871505574e-06,2.8034797196290153e-06
235,2.5014090736418473e-06,1.7872743388023008e-06,1.3070943864820716e-06,2.6989304989558907e-06,2.861989958788151e-06,3.337271427916433e-06,3.697772106459112e-06,3.4600740297243117e-06,3.77889544255293e-06,2.669239773661939e-06,3.6532248087638863e-06,1.0295065286962176e-05,1.9665323522165243e-06,2.3412355765170543e-05,1.0387865508101153e-06,2.8298737489012764e-06
236,2.4906604378686125e-06,1.9026300540349485e-06,1.3232006984740063e-06,2.6469189949678915e-06,2.822152023406029e-06,3.066374998995832e-06,3.4885850537058586e-06,3.4168556039476556e-06,3.7108353309851507e-06,2.733472111503138e-06,3.220495718277097e-06,1.0857500920951279e-05,2.011038146340081e-06,2.4558157665078846e-05,1.0325506114472458e-06,2.8539383654151576e-06
237,2.484241448112688e-06,2.027007188394692e-06,1.3383359775480194e-06,2.604231049008852e-06,2.782827572284729e-06,2.8132817180354693e-06,3.2918394128361577e-06,3.3820200319552756e-06,3.6412267255118097e-06,2.7960277493259376e-06,2.8263944090618123e-06,1.14656812090087e-05,2.0712148105340842e-06,2.5738934477793964e-05,1.0264579463714838e-06,2.875476772783515e-06
238,2.4840478584792902e-06,2.1615862681265238e-06,1.3511954772445332e-06,2.572153643303604e-06,2.7432896933046276e-06,2.5786522722026302e-06,3.1093272860415767e-06,3.35595384612139e-06,3.5723739089863988e-06,2.856863561824857e-06,2.470407724002634e-06,1.2120461244644793e-05,2.1461044131244722e-06,2.6930246707964165e-05,1.0206985289724453e-06,2.8942527863604684e-06
239,2.491743563975569e-06,2.3074665875079885e-06,1.3608538627374585e-06,2.5519381743629056e-06,2.702701115036192e-06,2.36311265390355e-06,2.942388633718789e-06,3.3387750294167974e-06,3.5064737416705877e-06,2.9162667711861573e-06,2.151406343345525e-06,1.2825528610415116e-05,2.2345749715897684e-06,2.8104500876972596e-05,1.0154308029486354e-06,2.910181584920779e-06
240,2.5087088927928604e-06,2.4655085580273412e-06,1.3668246324714774e-06,2.5448231486573474e-06,2.6601669192223456e-06,2.167041609068737e-06,2.792017990782191e-06,3.3302158682254584e-06,3.4456179917669306e-06,2.974836490053023e-06,1.8678076214009508e-06,1.3587659637252022e-05,2.3353366569012124e-06,2.9233311205103e-05,1.0108467626433068e-06,2.9234147666127134e-06
241,2.5360368390318864e-06,2.6362424385103177e-06,1.3691278642497945e-06,2.551986514945164e-06,2.6149991312102957e-06,1.990545832832345e-06,2.6589608581362562e-06,3.3295292991552676e-06,3.391743224158802e-06,3.0332701165947847e-06,1.6177644462729492e-06,1.44167186273381e-05,2.4469346593684202e-06,3.0290207646612056e-05,1.0071259059450956e-06,2.9343144698853043e-06
242,2.574634575908494e-06,2.819814194442105e-06,1.3683128656842972e-06,2.574474395827641e-06,2.5670617408014063e-06,1.8334935377575639e-06,2.543634343402959e-06,3.335439837563748e-06,3.3465754786302497e-06,3.092185359143903e-06,1.39926676030448e-06,1.5325408085753245e-05,2.567803257666054e-06,3.1253296005560856e-05,1.0043536174223324e-06,2.9434344865683506e-06
243,2.6253203728417634e-06,3.0159408562210084e-06,1.3653546821784517e-06,2.6130817725068386e-06,2.5168390116483096e-06,1.695561095382442e-06,2.445983182898311e-06,3.346245130330152e-06,3.311726716738074e-06,3.152139183092179e-06,1.2101832976476797e-06,1.6328846671704602e-05,2.6962699936221413e-06,3.210722302004331e-05,1.0025350646056242e-06,2.9514691872900907e-06
244,2.688777615952983e-06,3.2238711882518105e-06,1.3614645298555759e-06,2.668190131295696e-06,2.4651896232796093e-06,1.5763510201100343e-06,2.3654582036134146e-06,3.360121173721701e-06,3.2887673284272983e-06,3.2136022339575915e-06,1.0483319422285069e-06,1.7444196166084655e-05,2.8304712999419756e-06,3.284369549726395e-05,1.001678716534904e-06,2.9590533673101336e-06
245,2.7653634290171702e-06,3.442393649500555e-06,1.357887306396029e-06,2.7396386127067e-06,2.413054385314552e-06,1.475477435457392e-06,2.3010875678874497e-06,3.375502600272635e-06,3.2791229155301536e-06,3.2768694092848134e-06,9.115485107348134e-07,1.8690481871651792e-05,2.9683115240414177e-06,3.3460320390082786e-05,1.0018667410914555e-06,2.9666020854371985e-06
246,2.854923633060828e-06,3.6699262155627176e-06,1.3557336675621479e-06,2.826723604084123e-06,2.361318930240436e-06,1.3925464453091436e-06,2.251495361982809e-06,3.391359959021337e-06,3.283904686292608e-06,3.3420730455870896e-06,7.976776147949433e-07,2.008839020986586e-05,3.1074398733826554e-06,3.3957946423429346e-05,1.0032996398806437e-06,2.9743919192906584e-06
247,2.956771206282931e-06,3.904618550359827e-06,1.355914253179823e-06,2.9283321120585156e-06,2.310763711898309e-06,1.327146773689924e-06,2.21488333902454e-06,3.4073026362133564e-06,3.3038081805229574e-06,3.4091183799088307e-06,7.045187419956766e-07,2.1659753669373886e-05,3.245162546921668e-06,3.433712771325936e-05,1.006270391366518e-06,2.982659938464403e-06
248,3.069806192273484e-06,4.144319414804588e-06,1.3592069364568402e-06,3.043061225668113e-06,2.262004297520543e-06,1.2788672720687763e-06,2.189108231300671e-06,3.4235789670287036e-06,3.339104461382897e-06,3.4774906780373864e-06,6.298029008294765e-07,2.342683642017262e-05,3.378430562498005e-06,3.459558549347133e-05,1.0110507032017162e-06,2.991498408125784e-06
249,3.192606265641142e-06,4.3864019839046635e-06,1.3663688110040467e-06,3.1691686132774952e-06,2.2154878412802477e-06,1.2472572673087645e-06,2.1718776690879247e-06,3.4410947674327573e-06,3.3896967668771465e-06,3.5462150932682024e-06,5.712048737685547e-07,2.5411686238566902e-05,3.504057897569882e-06,3.4728990269809645e-05,1.0178002881459038e-06,3.0006992421609963e-06
250,3.32340744502644e-06,4.627698001170632e-06,1.3781622884869514e-06,3.3044214138184487e-06,2.1715815677572155e-06,1.2317671173033257e-06,2.160998675666507e-06,3.4614178402546303e-06,3.4551754075003773e-06,3.614055421732549e-06,5.263777987842657e-07,2.763544247462536e-05,3.619131563538755e-06,3.473477342401482e-05,1.0265834301842132e-06,3.0097779964669034e-06
251,3.460078306092666e-06,4.864717249184289e-06,1.3952911998428945e-06,3.446056905474609e-06,2.1306259664254053e-06,1.2317140750377924e-06,2.1546375609634385e-06,3.486595872987142e-06,3.5348386706181717e-06,3.6798186479172138e-06,4.930612135548593e-07,3.0117289700233593e-05,3.7214609431267277e-06,3.461590551937999e-05,1.0374458152215183e-06,3.0181938126120675e-06
252,3.6002302032463547e-06,5.093994476718226e-06,1.4183570463512644e-06,3.5909081299339444e-06,2.0928432521054593e-06,1.2462381092545443e-06,2.1515333484553695e-06,3.5187697756493e-06,3.627794181848465e-06,3.7426217699918176e-06,4.692600062244469e-07,3.287302962108389e-05,3.809871406752643e-06,3.438243432929162e-05,1.0504430652137492e-06,3.0255742661212387e-06
253,3.7415131706215187e-06,5.3123967792468606e-06,1.4478504338145984e-06,3.7355066809035853e-06,2.058241664407513e-06,1.2742477802809294e-06,2.1510399164077127e-06,3.5597942538248877e-06,3.7331705580726287e-06,3.801952078388664e-06,4.533312554027107e-07,3.591348870342708e-05,3.884186362349673e-06,3.4050859513920636e-05,1.0655838878312156e-06,3.031755610072929e-06
254,3.882018937774615e-06,5.517431193865272e-06,1.4840929666786642e-06,3.876069655999576e-06,2.0266939461556663e-06,1.314409900308699e-06,2.1529166074920156e-06,3.6110105893112596e-06,3.850236476139062e-06,3.857443772985643e-06,4.4391300013197937e-07,3.924293195975626e-05,3.944884107678817e-06,3.364216812325254e-05,1.0827678331277194e-06,3.0366474659283303e-06
255,4.020610564978722e-06,5.707557851499861e-06,1.5271515028181777e-06,4.008680997470202e-06,1.9980983912267073e-06,1.3652599105448236e-06,2.1569645355856556e-06,3.6731205911355603e-06,3.9782821965490585e-06,3.908511439786218e-06,4.398552904562925e-07,4.285770722060468e-05,3.992566075179197e-06,3.317930047455773e-05,1.1017698645294853e-06,3.040074885127419e-06
256,4.157005026691909e-06,5.882363307916411e-06,1.5768463847071334e-06,4.129930473009793e-06,1.9724604119980105e-06,1.4254298022215273e-06,2.16271770989464e-06,3.7461030361667215e-06,4.116474346644771e-06,3.954072688111957e-06,4.402205228682966e-07,4.6745501184213875e-05,4.02749153784926e-06,3.268485752959689e-05,1.1222640072566087e-06,3.0417240520446243e-06
257,4.291562850138724e-06,6.042485038253858e-06,1.6328859171025394e-06,4.2376477295220295e-06,1.949867359407029e-06,1.4938037806890979e-06,2.1693339823275493e-06,3.8291854345667675e-06,4.263998731282065e-06,3.992510151298956e-06,4.442534933111931e-07,5.0885368587437554e-05,4.0494628995579e-06,3.217961356025924e-05,1.1439203397240092e-06,3.041211403862414e-06
258,4.424903725861907e-06,6.189360943538023e-06,1.6950024495573794e-06,4.331151421722124e-06,1.9303830520966152e-06,1.5694358252842401e-06,2.1756922693082433e-06,3.920905021209008e-06,4.420371997480958e-06,4.021863327068021e-06,4.5131099786439903e-07,5.524832122657904e-05,4.058113335320138e-06,3.16817871810407e-05,1.1665546519166128e-06,3.038212440349281e-06
259,4.557541972596951e-06,6.324939718843973e-06,1.762937369726566e-06,4.410868958630836e-06,1.9139437595393487e-06,1.6513416426403938e-06,2.180604836937603e-06,4.019221357876674e-06,4.585557059195451e-06,4.040170400277691e-06,4.6081899961726815e-07,5.979823358607659e-05,4.053344039198189e-06,3.1206568449768226e-05,1.1901927444880047e-06,3.0325496719750387e-06
260,4.6896135936209925e-06,6.451337943679838e-06,1.8362954065869468e-06,4.477592595118059e-06,1.9003960879519576e-06,1.7383922934329351e-06,2.183025319435358e-06,4.121558325200174e-06,4.759767335636549e-06,4.045899469592223e-06,4.722504368379304e-07,6.449295582806063e-05,4.035635647337662e-06,3.076542411946091e-05,1.214980950147931e-06,3.0241618392257884e-06
261,4.820614050365522e-06,6.570339770339786e-06,1.914459783114656e-06,4.5317571877838445e-06,1.8896636130899355e-06,1.8293661271300387e-06,2.182184420501747e-06,4.224858416442588e-06,4.943074062837566e-06,4.038296169138987e-06,4.850916637436693e-07,6.928557378915277e-05,4.006110038170691e-06,3.0365061765201963e-05,1.2410510343539108e-06,3.0130029761633406e-06
262,4.949158399999833e-06,6.682822354800277e-06,1.9966481093575275e-06,4.573075295268375e-06,1.881820065820781e-06,1.9230736716502686e-06,2.1776860303673335e-06,4.325907443722789e-06,5.135109652948432e-06,4.01741663274744e-06,4.988246405221106e-07,7.412582387034265e-05,3.9663809203840414e-06,3.0006370375474407e-05,1.2684839367185262e-06,2.999031373882825e-06
263,5.072934678652549e-06,6.788352833141558e-06,2.0819543104690536e-06,4.600668394655266e-06,1.8769617723768793e-06,2.0184747482906434e-06,2.1696088623874546e-06,4.421873435541034e-06,5.335211092035292e-06,3.983834036335814e-06,5.12956491576532e-07,7.896174855449219e-05,3.9183590311913665e-06,2.9684028744174357e-05,1.2973472277626697e-06,2.982343460542543e-06
264,5.188890853299077e-06,6.885032537016053e-06,2.169257499020315e-06,4.613547397753073e-06,1.8750564207142154e-06,2.114748420838241e-06,2.1585226329822826e-06,4.510701784279931e-06,5.5428907561031235e-06,3.938201622482767e-06,5.270771822575328e-07,8.37415512514434e-05,3.864094149059999e-06,2.938741940605442e-05,1.3276734043746542e-06,2.9633102557197647e-06
265,5.293434123214122e-06,6.969503470357067e-06,2.2571046530162213e-06,4.611111799049816e-06,1.8759556215746483e-06,2.2113322648776634e-06,2.145297153141186e-06,4.591148509020993e-06,5.758039035165244e-06,3.880924391515702e-06,5.409194512374688e-07,8.841537896183445e-05,3.805574293986565e-06,2.9102763256021364e-05,1.3593979340693982e-06,2.942575643275069e-06
266,5.382564957333799e-06,7.0371781610021566e-06,2.3437595933621114e-06,4.593380166916449e-06,1.8794893216707271e-06,2.307969456913124e-06,2.1308166763916493e-06,4.6625342924114845e-06,5.980655186216098e-06,3.812227504154663e-06,5.544022634999779e-07,9.293685756787092e-05,3.744508907572594e-06,2.8815711454906775e-05,1.3923460020014217e-06,2.9209283071873753e-06
267,5.452250782421682e-06,7.082863416773985e-06,2.4274779720948675e-06,4.560925754477956e-06,1.885455418113066e-06,2.404709597383377e-06,2.115799684146908e-06,4.724496597115427e-06,6.210662662740201e-06,3.732633966861145e-06,5.676117029033438e-07,9.726460626673432e-05,3.682203203466218e-06,2.851362571047e-05,1.4262140395362655e-06,2.899146743112928e-06
268,5.4991576931047606e-06,7.101743436785408e-06,2.5068841048146695e-06,4.514712926144726e-06,1.893558886370703e-06,2.5017588847422218e-06,2.100706523901216e-06,4.776998126899975e-06,6.448018729146639e-06,3.6434123631223173e-06,5.807163210665798e-07,0.00010136407507892265,3.6194392914702053e-06,2.8187060124053857e-05,1.4604959991550026e-06,2.8779038201287027e-06
269,5.5213796936197004e-06,7.090384988350556e-06,2.5812970537627912e-06,4.455922886294615e-06,1.9034236140513022e-06,2.5992546370847324e-06,2.085663928551396e-06,4.820580609816964e-06,6.692582463041031e-06,3.546576467262343e-06,5.939009825390768e-07,0.0001052096558236651,3.556331065245948e-06,2.7830238294957757e-05,1.4944394330216043e-06,2.857724441754938e-06
270,5.518841523595318e-06,7.04736963973896e-06,2.650900848403872e-06,4.38568354903744e-06,1.9145867338572286e-06,2.6971608876400997e-06,2.0704737117722564e-06,4.856558346767686e-06,6.943821575486444e-06,3.4444759540093314e-06,6.073518071251838e-07,0.00010878663610748479,3.49240276923818e-06,2.7440750080654755e-05,1.5271388201812519e-06,2.838896175564614e-06
271,5.493314942622698e-06,6.973417655014029e-06,2.716649336646036e-06,4.304816354789503e-06,1.9264631261122704e-06,2.795300138238019e-06,2.054786116082263e-06,4.8868805102513185e-06,7.201146208961591e-06,3.339307362041527e-06,6.212446417997539e-07,0.00011209251685641132,3.4270363056031114e-06,2.7018976730991867e-05,1.5577699164409144e-06,2.8213075069852246e-06
272,5.448066553640227e-06,6.871147204155736e-06,2.779878847260543e-06,4.213925277431105e-06,1.9384129764674974e-06,2.893417514464772e-06,2.03840687408368e-06,4.913730147358162e-06,7.46484726305756e-06,3.2327995580861963e-06,6.357327719869393e-07,0.00011513729023373832,3.3599257709938224e-06,2.6567438089185386e-05,1.5858022653956794e-06,2.8043578010358493e-06
273,5.387246223458402e-06,6.744623281224286e-06,2.84181009506766e-06,4.113809482404079e-06,1.9498848393803787e-06,2.9912524424590107e-06,2.0215636180516294e-06,4.939134408832623e-06,7.736702161479874e-06,3.1261356614744343e-06,6.509412482711164e-07,0.0001179424838164633,3.291049323052483e-06,2.6089854217040083e-05,1.610997168123112e-06,2.787053401173432e-06
274,5.315269927699006e-06,6.598714189447626e-06,2.9032181783937023e-06,4.005770003349955e-06,1.9605520172643186e-06,3.0885841056472384e-06,2.0049246049781257e-06,4.96471442938684e-06,8.019643122922195e-06,3.020050340366877e-06,6.669482236445029e-07,0.0001205389898203904,3.2203445781408133e-06,2.5589872117294867e-05,1.6332460981689875e-06,2.7682034652280465e-06
275,5.2364031662121735e-06,6.4382813494936684e-06,2.964349750651593e-06,3.891596217135158e-06,1.970393450983432e-06,3.1852171743329524e-06,1.9893418750728932e-06,4.991481516462109e-06,8.316771064254309e-06,2.9150098386797765e-06,6.837652458180275e-07,0.00012296355427901,3.147651832856984e-06,2.506953851780841e-05,1.6525033885684236e-06,2.7465724402836147e-06
276,5.154529118718542e-06,6.267408457952089e-06,3.0249295784572394e-06,3.773422558507965e-06,1.9796238028624445e-06,3.281022504247608e-06,1.9755146858329114e-06,5.019633941763876e-06,8.630371820098382e-06,2.8113730731878845e-06,7.013215871812782e-07,0.00012525358936457985,3.0729557437367778e-06,2.4527690552259358e-05,1.6688531885686611e-06,2.72096110805118e-06
277,5.072997257698215e-06,6.088966049795585e-06,3.0841690296330477e-06,3.6535855305434083e-06,1.9885442786301e-06,3.3761589512286432e-06,1.963776380074415e-06,5.048524719036148e-06,8.961284952410844e-06,2.7094122656337684e-06,7.194357785559064e-07,0.00012744014548193166,2.996636560131849e-06,2.395927856019079e-05,1.6824955487493312e-06,2.6902680756648004e-06
278,4.994503569524518e-06,5.904620149671051e-06,3.140810868551664e-06,3.5343750755168907e-06,1.99750083580673e-06,3.471355500805451e-06,1.9540335523134628e-06,5.076929200642276e-06,9.308587863734477e-06,2.6092335968428573e-06,7.377981020269973e-07,0.00012953956710334835,2.91967023805892e-06,2.335691289585267e-05,1.6936205765384358e-06,2.6535980868533263e-06
279,4.920969292064785e-06,5.715177635643604e-06,3.1932073962238114e-06,3.4176705029386136e-06,2.0069095528421122e-06,3.5679527918934105e-06,1.9458069316364706e-06,5.103430025979451e-06,9.669549860258391e-06,2.5108616080558127e-06,7.56015082930779e-07,0.00013154612100267895,2.8438168193804176e-06,2.2714573053539303e-05,1.7023614423413988e-06,2.6104725458711663e-06
280,4.8534481752656684e-06,5.521133689474152e-06,3.2394790360575646e-06,3.3046675794308053e-06,2.0172282719950626e-06,3.6675687351831514e-06,1.9383214085467643e-06,5.126600856078319e-06,1.004001743314613e-05,2.414554782770609e-06,7.737119872146765e-07,0.00013342942022847868,2.7717024685669587e-06,2.2031884848217294e-05,1.7088694942556656e-06,2.5610900811580032e-06
281,4.792168351496843e-06,5.323238578128833e-06,3.277854932591413e-06,3.195842392905965e-06,2.0288786107446896e-06,3.7716151676659747e-06,1.930574782234619e-06,5.144836391811835e-06,1.0415240156261752e-05,2.3210313335368753e-06,7.90594163888012e-07,0.000135138100831875,2.7066042664932638e-06,2.131663148467836e-05,1.7133857204072662e-06,2.506451735260974e-06
282,4.736728525693311e-06,5.122853921137235e-06,3.3071385143199004e-06,3.091062368576653e-06,2.0421349106858368e-06,3.880996759523411e-06,1.921442705710694e-06,5.155951409809525e-06,1.0790644033598626e-05,2.231352453422512e-06,8.064113771860851e-07,0.00013660695067945782,2.6519462586522427e-06,2.058384031473877e-05,1.7162191034885755e-06,2.4482146187794715e-06
283,4.686388217676541e-06,4.9220446993000505e-06,3.3270765203557926e-06,2.9896753891365116e-06,2.0570362829328468e-06,3.996016118498577e-06,1.9099663645496823e-06,5.1569144931896995e-06,1.1162089680055588e-05,2.146609172312645e-06,8.209233179450298e-07,0.0001377643705768466,2.6108308611048806e-06,1.985202950054211e-05,1.7176281502449004e-06,2.3883331373698433e-06
284,4.640401506533102e-06,4.723532452697094e-06,3.3384719286556612e-06,2.890588601787642e-06,2.0733650770324255e-06,4.116294050354082e-06,1.8957338857650032e-06,5.144076958046258e-06,1.1525800626782669e-05,2.067702384101728e-06,8.339348038955347e-07,0.0001385392519692891,2.585827663769831e-06,1.9139008016730445e-05,1.7177009830258654e-06,2.328706272593083e-06
285,4.598295168415083e-06,4.530568948849037e-06,3.343066533173474e-06,2.792493764715685e-06,2.0906015072790855e-06,4.240676752471632e-06,1.8790357655246213e-06,5.113956563924814e-06,1.1878429532305046e-05,1.995332526206766e-06,8.453253631513805e-07,0.0001388670714721934,2.5789241300447175e-06,1.845935887083413e-05,1.7163539762614697e-06,2.2710386027358455e-06
286,4.5599880843615365e-06,4.3466797310144145e-06,3.343288052033673e-06,2.6942330488446227e-06,2.10782677306315e-06,4.367272569621343e-06,1.860662291642463e-06,5.064264330591208e-06,1.2217349608416615e-05,1.9301537281561264e-06,8.550290752100724e-07,0.00013869481378095015,2.591523598618724e-06,1.7823981749923756e-05,1.7134483562580349e-06,2.216873556412516e-06
287,4.52575046508424e-06,4.175298213541813e-06,3.34190558795944e-06,2.5951271401731057e-06,2.1237118486694918e-06,4.493782659268522e-06,1.8416432216380069e-06,4.9946215852547454e-06,1.254088644033373e-05,1.8729231988097584e-06,8.630227341129887e-07,0.00013798448961717846,2.6244630189734136e-06,1.7240691280230745e-05,1.7089497852835334e-06,2.167576432225671e-06
288,4.496034782777426e-06,4.019452043477954e-06,3.341644181221976e-06,2.4951867996135283e-06,2.1367425204627408e-06,4.6181350188806666e-06,1.823219763580257e-06,4.906570184256002e-06,1.2848267038622027e-05,1.8244667100342644e-06,8.693517103260156e-07,0.00013671533290140174,2.678021920355863e-06,1.6714919462934355e-05,1.7030345263031757e-06,2.1242231901063827e-06
289,4.471191263082115e-06,3.881664031522201e-06,3.3448678599861237e-06,2.395210814404082e-06,2.1456655856444473e-06,4.7390730614857316e-06,1.8068532950267583e-06,4.803028225303486e-06,1.3139213594348052e-05,1.785570688598858e-06,8.741602387441526e-07,0.00013488492785752705,2.7519090436381167e-06,1.625016874964486e-05,1.6960317897850928e-06,2.087521956312518e-06
290,4.451154194335196e-06,3.7640596833546917e-06,3.3534075292594856e-06,2.296690322501208e-06,2.149867518189539e-06,4.856251283688616e-06,1.794020662054845e-06,4.687713531107865e-06,1.341311982580844e-05,1.7570130299655864e-06,8.777050568015597e-07,0.00013250950236148631,2.845235884046549e-06,1.5848201288889858e-05,1.688247540484522e-06,2.0578079897050606e-06
291,4.435286709822103e-06,3.6684915534881547e-06,3.368498924941403e-06,2.2014728803201127e-06,2.1493717324611972e-06,4.969770518360791e-06,1.7859461703305469e-06,4.56485823608486e-06,1.366809588489308e-05,1.7396456765229591e-06,8.803389825601518e-07,0.00012962352991181686,2.956505300643446e-06,1.5509082904870625e-05,1.6798324218186948e-06,2.0351079791604323e-06
292,4.42253342105707e-06,3.596496781286958e-06,3.3907450035309925e-06,2.1113417265405044e-06,2.1444950762300795e-06,5.079563241972736e-06,1.78347749432506e-06,4.4390823650516875e-06,1.3900639656751834e-05,1.7343672551076365e-06,8.824628973746522e-07,0.00012627861422433647,3.0836476415331474e-06,1.5231048746215838e-05,1.6707217185446686e-06,2.0192462426864053e-06
293,4.411843205921001e-06,3.5491235636922873e-06,3.420065706259347e-06,2.027736418712146e-06,2.1354712852135692e-06,5.185156702806894e-06,1.7870859753392816e-06,4.315130170984092e-06,1.4106154630079227e-05,1.7420031551223915e-06,8.845100224250602e-07,0.0001225415087774211,3.224103905461872e-06,1.5010106739919907e-05,1.6606085034071756e-06,2.0098686699991124e-06
294,4.402625113392142e-06,3.526815520057737e-06,3.455648680833739e-06,1.9516752049362553e-06,2.1222792511992706e-06,5.28589326413108e-06,1.7969240075254582e-06,4.1974248524825265e-06,1.4279631464609689e-05,1.7631600514588601e-06,8.869908760513287e-07,0.000118491280176164,3.3748762102161357e-06,1.4839825161016182e-05,1.6490048488003481e-06,2.0063608699542946e-06
295,4.394915735651569e-06,3.5293972494020494e-06,3.495914763984215e-06,1.8837808281941747e-06,2.104765081946482e-06,5.381240804173187e-06,1.8129009929446792e-06,4.089670664613547e-06,1.4416160237939735e-05,1.7981266328903915e-06,8.90523509581908e-07,0.00011421591143113594,3.5324706687946376e-06,1.4711968285667379e-05,1.635449500310452e-06,2.007782262973146e-06
296,4.38908215973092e-06,3.556051485558319e-06,3.5385167557824314e-06,1.824340777577146e-06,2.082977968979883e-06,5.470958780184078e-06,1.834752824451381e-06,3.994673121651516e-06,1.4511685625607787e-05,1.8468633790711238e-06,8.958010892495012e-07,0.00010980868423568863,3.6928141160397483e-06,1.461783810275554e-05,1.6197640937962946e-06,2.0128918346615624e-06
297,4.385259110249579e-06,3.6052640529450563e-06,3.580388291373375e-06,1.7734455484092894e-06,2.057439320993055e-06,5.5551403159863125e-06,1.8621778765474087e-06,3.9143395614400715e-06,1.4564032232078466e-05,1.9090210604016605e-06,9.035165634193976e-07,0.00010536447521953605,3.851314565967125e-06,1.4549483079653654e-05,1.6021225352914731e-06,2.020291845546385e-06
298,4.38291787351406e-06,3.6747966445316047e-06,3.6178542880238384e-06,1.731196429061248e-06,2.0291496185551504e-06,5.634092026568302e-06,1.8950581005788167e-06,3.84976619864614e-06,1.4573478119603727e-05,1.983940607875536e-06,9.142837599553333e-07,0.00010097592749490849,4.003186392043635e-06,1.4500146583826755e-05,1.5828971432933879e-06,2.028655148193305e-06
299,4.380699073658445e-06,3.7617732586433807e-06,3.6469037511757893e-06,1.697797786169235e-06,1.9994402267724736e-06,5.707960970227258e-06,1.9335648183946035e-06,3.80133021198468e-06,1.454244340901675e-05,2.0706465673085662e-06,9.285861847984268e-07,9.672952764410987e-05,4.143983170245486e-06,1.446373796417107e-05,1.5625963514256555e-06,2.0368953310278395e-06
300,4.3764320021990654e-06,3.862939942127816e-06,3.6637717593257266e-06,1.6734336389392238e-06,1.969812795158389e-06,5.7762260111159295e-06,1.9780103319330803e-06,3.768719470047057e-06,1.4474755819686042e-05,2.1678320971773523e-06,9.46753392030223e-07,9.27018085910237e-05,4.2700819062086795e-06,1.4433636619902391e-05,1.5419975400434551e-06,2.044177699646501e-06
301,4.367436170573558e-06,3.974957667581951e-06,3.6657525940770714e-06,1.6580996999724244e-06,1.9417819273685165e-06,5.83737045481042e-06,2.028613482739547e-06,3.7509108730064636e-06,1.4375035706318677e-05,2.2738503297064815e-06,9.68961446865749e-07,8.895588268200539e-05,4.378970281249503e-06,1.4402117434565145e-05,1.522146331908005e-06,2.04985782569128e-06
302,4.351167317707667e-06,4.094505706674813e-06,3.6518677750490964e-06,1.6515613570544923e-06,1.9167915324235357e-06,5.888925945550484e-06,2.0853832881046208e-06,3.746162570937194e-06,1.4248080302851179e-05,2.3867570267594272e-06,9.95238635040577e-07,8.553840497048929e-05,4.4693830263544985e-06,1.4361450627909294e-05,1.504147516594862e-06,2.0535107128310285e-06
303,4.325870505301228e-06,4.218204156962734e-06,3.6230088197979815e-06,1.6534245220298665e-06,1.8962267914388482e-06,5.9278076664004415e-06,2.1480938010102907e-06,3.7521366505528506e-06,1.4097930479934695e-05,2.504509670599649e-06,1.0254496381829973e-06,8.247742433184912e-05,4.541195019997414e-06,1.4305754375925125e-05,1.4889968731634793e-06,2.055054052332421e-06
304,4.290817123701103e-06,4.342562349777609e-06,3.581487952966846e-06,1.6632486317637952e-06,1.881370138301972e-06,5.95076150746466e-06,2.2163034498717765e-06,3.7662883100287157e-06,1.3926901664753546e-05,2.62537335086034e-06,1.0592886163578275e-06,7.978212442988217e-05,4.594916939529753e-06,1.4231906966594417e-05,1.4775119573972412e-06,2.054772857548539e-06
305,4.24611701025129e-06,4.4640917797111995e-06,3.5302768300652274e-06,1.6806246104076314e-06,1.8732821441672021e-06,5.954803221282935e-06,2.2894473814429545e-06,3.786442705382974e-06,1.3735358309014898e-05,2.748206214112807e-06,1.0963086451503296e-06,7.744480181017229e-05,4.630995621234749e-06,1.4139104643683853e-05,1.4702883633243623e-06,2.0531032333139863e-06
306,4.192402796784181e-06,4.579561336026173e-06,3.4723113687956874e-06,1.7051545114625016e-06,1.8727295499528765e-06,5.937625608447483e-06,2.366900058265728e-06,3.81125117452612e-06,1.3522429138466177e-05,2.8722659880171464e-06,1.135937010478041e-06,7.5444001494181e-05,4.649317895627358e-06,1.4027776646674001e-05,1.4676568828101339e-06,2.0503224147146225e-06
307,4.130563955382199e-06,4.686312672755371e-06,3.4100916100343015e-06,1.7364216715215575e-06,1.8801490923965294e-06,5.89794505135433e-06,2.4479424509154757e-06,3.840328668794821e-06,1.3286932668776448e-05,2.996802975457398e-06,1.1774562756977977e-06,7.374764400011262e-05,4.64911225345795e-06,1.3898688757277946e-05,1.4696565229536832e-06,2.0463864201825804e-06
308,4.061517665572255e-06,4.782546837291625e-06,3.345597685750236e-06,1.7741149458517117e-06,1.8956006128650517e-06,5.835652839921377e-06,2.5317749462790017e-06,3.874149046634493e-06,1.3027970377231359e-05,3.120831206891532e-06,1.2200415999837574e-06,7.231589409182381e-05,4.6292891974814836e-06,1.3752579802448338e-05,1.4760757679130831e-06,2.040947823026694e-06
309,3.985969900180952e-06,4.867422605307326e-06,3.2803725530950424e-06,1.8182437366281936e-06,1.9187399834618255e-06,5.751631153586321e-06,2.617565984434989e-06,3.913870294263166e-06,1.2745410178163693e-05,3.2429875153842123e-06,1.2629008744424883e-06,7.11038876481568e-05,4.589075800872444e-06,1.3589945967802537e-05,1.4865764940814983e-06,2.0334772647679313e-06
310,3.904180784091547e-06,4.940757556716364e-06,3.21559142342544e-06,1.8691930086120153e-06,1.948833629460679e-06,5.647220944520994e-06,2.7043615360898966e-06,3.961146360082752e-06,1.2440582768872247e-05,3.3613901593886192e-06,1.3054074168334877e-06,7.006428072609619e-05,4.528538644864289e-06,1.341048837446619e-05,1.5008002096644259e-06,2.023447322659182e-06
311,3.815913806742091e-06,5.002409174761126e-06,3.152060898504456e-06,1.9275268954363118e-06,1.9847996049629616e-06,5.523541700216122e-06,2.790958689240465e-06,4.0178606975385725e-06,1.211702782721315e-05,3.473616107213136e-06,1.3470872746619569e-06,6.914940950199729e-05,4.448785758309569e-06,1.3212730708228137e-05,1.518345431701432e-06,2.0105164452623993e-06
312,3.7207502560372445e-06,5.051884024346212e-06,3.0901749314821835e-06,1.9936916411295784e-06,2.0252450509577595e-06,5.381116901697745e-06,2.8759444430033287e-06,4.08574651850717e-06,1.1780703246932632e-05,3.576841100668638e-06,1.3874679071070624e-06,6.831288809273243e-05,4.35199597147066e-06,1.2994764729876967e-05,1.5386774345235344e-06,1.9946357162120626e-06
313,3.6186263768500246e-06,5.088533108130418e-06,3.029880800482945e-06,2.0677980282586817e-06,2.068526671428132e-06,5.2201590550243656e-06,2.9578097759600245e-06,4.165988983904794e-06,1.1439209748827419e-05,3.6681793041977375e-06,1.4259529572529087e-06,6.751073144197891e-05,4.241320531411754e-06,1.2755781524543656e-05,1.5611248603762835e-06,1.9760655541851265e-06
314,3.510271127438311e-06,5.11199674540831e-06,2.9707723821898823e-06,2.1495307957267893e-06,2.1129023470799073e-06,5.041351216519063e-06,3.034998469348836e-06,4.258971319963784e-06,1.1100275745755452e-05,3.7451202452896522e-06,1.4618451055046116e-06,6.670228866627999e-05,4.120542555742281e-06,1.2496968246674031e-05,1.5849787374404333e-06,1.955336920522125e-06
315,3.3973616257965226e-06,5.12246103414364e-06,2.9124052306054396e-06,2.238127176522117e-06,2.1566941963910045e-06,4.8466322855553415e-06,3.105876418233799e-06,4.364243908192437e-06,1.0770336266994683e-05,3.8056477945143527e-06,1.4944581027278557e-06,6.585117088047724e-05,3.993565260094906e-06,1.222109420365434e-05,1.6095694239046887e-06,1.9331551171812804e-06
316,3.2823680731179568e-06,5.1206618506623716e-06,2.8547295329676203e-06,2.332390046228348e-06,2.1983136919931855e-06,4.639508135605209e-06,3.168619966854259e-06,4.4806177193368535e-06,1.0453978642870177e-05,3.8478849754678115e-06,1.523222508389298e-06,6.492606917388127e-05,3.863952288259866e-06,1.1931288954152409e-05,1.6342410531736986e-06,1.9102416645839618e-06
317,3.1681514775151134e-06,5.107741051639137e-06,2.798369937187244e-06,2.430817224316899e-06,2.2363071284669656e-06,4.4246312283639685e-06,3.221152982570895e-06,4.606212623122058e-06,1.0154362640066611e-05,3.869779365740872e-06,1.5477689556097078e-06,6.390126338623838e-05,3.7346554177964087e-06,1.1629782086510391e-05,1.6582742033384953e-06,1.8871950598547184e-06
318,3.057469681429366e-06,5.085078889227562e-06,2.7445597223762916e-06,2.5319457544056725e-06,2.2696874406193173e-06,4.206927283500703e-06,3.2613786723741132e-06,4.738492812242162e-06,9.87401671194811e-06,3.869350228045979e-06,1.5679960084877703e-06,6.275679670156433e-05,3.60799737314937e-06,1.1317227045263107e-05,1.680854412645864e-06,1.8644312177367628e-06
319,2.9525936863527275e-06,5.054214575088087e-06,2.6947916488713443e-06,2.6347813128842543e-06,2.2983352454256878e-06,3.9909156392410426e-06,3.2876916376949676e-06,4.8744955843985076e-06,9.61525057164197e-06,3.845371609197388e-06,1.5841135791765183e-06,6.147844302949949e-05,3.485868058241364e-06,1.0993074432656217e-05,1.7011313971780802e-06,1.842143278376165e-06
320,2.855154118131339e-06,5.016884884077339e-06,2.650471812681931e-06,2.738962280926419e-06,2.3230128453980038e-06,3.7804868622089017e-06,3.2994381521787502e-06,5.011228312490067e-06,9.379840655629673e-06,3.798005810052248e-06,1.5966303577035166e-06,6.005757231527825e-05,3.3698587781981798e-06,1.0656789703509953e-05,1.7183115533235048e-06,1.8202650909876815e-06
321,2.766188051829235e-06,4.975119281461541e-06,2.612832787377718e-06,2.844499029360463e-06,2.3449666743764e-06,3.578946364684039e-06,3.297056670041711e-06,5.1459451943755214e-06,9.168334001684474e-06,3.7290330872987054e-06,1.6062458008648303e-06,5.849088995400007e-05,3.261136897544127e-06,1.0308949634714327e-05,1.7316732233328675e-06,1.7985545933053096e-06
322,2.6862782209656593e-06,4.931272641055093e-06,2.583016356240547e-06,2.951390304771412e-06,2.365500771457731e-06,3.3891750027940445e-06,3.2818943382250243e-06,5.276182774065903e-06,8.979741401701659e-06,3.641575430228909e-06,1.6136609741369106e-06,5.677999156459572e-05,3.1602554412298298e-06,9.9514741094543e-06,1.7405566307771592e-06,1.7768219559937014e-06
323,2.6156675992303156e-06,4.887888270568345e-06,2.562025753787006e-06,3.0594724217701472e-06,2.3858083947963633e-06,3.2137590478896665e-06,3.255865117268978e-06,5.399710375125986e-06,8.812045146300304e-06,3.539456463609767e-06,1.6193998035379158e-06,5.493083604304387e-05,3.067212687091461e-06,9.58707792575736e-06,1.7444870226457476e-06,1.7551050461992436e-06
324,2.5542705628417674e-06,4.84740660929492e-06,2.5505310746689e-06,3.1684358295612104e-06,2.406979483084609e-06,3.0549429819261887e-06,3.221146862325218e-06,5.514521873632249e-06,8.663196125516758e-06,3.4265568056393005e-06,1.6237306069681297e-06,5.295333147729315e-05,2.9817306827390704e-06,9.218472872913509e-06,1.7433394920448131e-06,1.7336153754759747e-06
325,2.5016310088802177e-06,4.8118363623228235e-06,2.5488029627415435e-06,3.2777579422284095e-06,2.429953392493921e-06,2.9145363058828418e-06,3.179987399096e-06,5.618810731176028e-06,8.531930802930619e-06,3.3065216406350733e-06,1.6266808154500978e-06,5.086109515285358e-05,2.9034405011589405e-06,8.847986741434692e-06,1.7372940036419487e-06,1.7125454508953871e-06
326,2.456967915436536e-06,4.782467982900701e-06,2.556866416326587e-06,3.386496485891924e-06,2.4554165576202404e-06,2.793922404661193e-06,3.134521263614653e-06,5.710858316415057e-06,8.417932869022248e-06,3.1828113213381484e-06,1.6280654667883213e-06,4.867125722511903e-05,2.831967821180682e-06,8.47804535652525e-06,1.7265789449912183e-06,1.6919321642815544e-06
327,2.4193260038087787e-06,4.759670041582513e-06,2.574640476968107e-06,3.4931024806388053e-06,2.4838140190928026e-06,2.6940924544872097e-06,3.086555344527744e-06,5.788928133479552e-06,8.321284683688614e-06,3.0587590044175354e-06,1.6274970630888094e-06,4.640407902249968e-05,2.7671202931060997e-06,8.111964411199979e-06,1.711275592239487e-06,1.671638804592153e-06
328,2.387707393112575e-06,4.742834688231859e-06,2.6018960368638017e-06,3.595514913554686e-06,2.5154694506344605e-06,2.6156858189372638e-06,3.037442599460371e-06,5.851301180668193e-06,8.241584774595593e-06,2.9374386075207046e-06,1.6244245052544416e-06,4.4082315364211446e-05,2.7089870879380095e-06,7.75396430401278e-06,1.691376585169711e-06,1.6514323414742407e-06
329,2.3611402885662337e-06,4.730537615144607e-06,2.638212098800014e-06,3.691658578709074e-06,2.5506576580156124e-06,2.559105579761281e-06,2.9881205031001707e-06,5.896350914525828e-06,8.17723256687594e-06,2.8214557352620767e-06,1.6182443199313868e-06,4.1730521342114704e-05,2.6577851245546283e-06,7.4082727977757375e-06,1.6670107452571154e-06,1.6310607337194176e-06
