,EMG1,EMG2,EMG3,EMG4,EMG5,EMG6,EMG7,EMG8,EMG9,EMG10,EMG11,EMG12,EMG13,EMG14,EMG15,EMG16
0,4.7303346814934443e-07,3.372385758318424e-07,5.749048772356662e-07,1.7328447698810484e-07,2.471974795393925e-07,4.104229782624327e-07,-2.1116340596703172e-07,7.543086120166438e-07,3.984465356164044e-06,6.8975230750185e-07,6.994110042733271e-06,1.0643898520720573e-06,-1.7656303693898535e-07,3.180192367490009e-06,2.7994987687240147e-07,1.849540932554678e-07
1,6.703699689173399e-07,4.723219906300871e-07,1.0449436918675842e-06,4.863092732538175e-07,5.053963410637377e-07,8.160833959447908e-07,3.068601449303526e-08,8.57928844566027e-07,4.297424138602684e-06,1.263142928289682e-06,9.023009947310286e-06,1.1620695467737749e-06,1.9704964885473155e-07,6.1232084987930865e-06,3.9823471428742733e-07,3.206008860046581e-07
2,8.65867046431751e-07,6.076638832579261e-07,1.5051339327663288e-06,7.914771831235301e-07,7.586767074212772e-07,1.2071071777632484e-06,2.618898436236636e-07,9.630603504836555e-07,4.6135905104147495e-06,1.8165894003568901e-06,1.0950350388746655e-05,1.260901684655248e-06,5.588018693070169e-07,9.033755674508599e-06,5.141788482949655e-07,4.5221733099352074e-07
3,1.059113995630163e-06,7.410300649830574e-07,1.9468925461177416e-06,1.0858000590604779e-06,1.0002142722279697e-06,1.5780666255327432e-06,4.80284345156123e-07,1.068894435302638e-06,4.931862991386415e-06,2.3458209039095636e-06,1.2768742524097501e-05,1.360587272167227e-06,9.054663567431979e-07,1.188171092358688e-05,6.251504461079608e-07,5.768961713111101e-07
4,1.2497223809818115e-06,8.706005738012281e-07,2.362810723273878e-06,1.3666333623791729e-06,1.2236130389938e-06,1.9243500467643634e-06,6.842494508644682e-07,1.174756020172706e-06,5.250871013705617e-06,2.8464920638882427e-06,1.4469368158918272e-05,1.460693173711767e-06,1.2341804024910216e-06,1.4637053971220993e-05,7.29167817669414e-07,6.924295961479906e-07
5,1.4373056171328488e-06,9.95157113490824e-07,2.747286801178742e-06,1.6320728571411675e-06,1.423522130179013e-06,2.2426005566393526e-06,8.72784358418358e-07,1.2801158730952708e-06,5.568633079350274e-06,3.314267092827691e-06,1.604103004115177e-05,1.560575341690229e-06,1.5425674155967014e-06,1.7269359507977245e-05,8.250160907816555e-07,7.974696974268439e-07
6,1.621421316680528e-06,1.114028919860523e-06,3.096911291832781e-06,1.8812494877302637e-06,1.596437925226856e-06,2.5309562942048584e-06,1.0453383585539568e-06,1.3845229614399241e-06,5.882377185004565e-06,3.7452171256379157e-06,1.746956020344169e-05,1.6594207031163253e-06,1.8287319981952544e-06,1.9747421893234818e-05,9.120913783412631e-07,8.915348699273521e-07
7,1.801547850623728e-06,1.2268529891730434e-06,3.410535042962416e-06,2.114198510412742e-06,1.7411899124974821e-06,2.788826837711199e-06,1.201532604370793e-06,1.4876199506667506e-06,6.188571125338502e-06,4.136336711539207e-06,1.8738247457613065e-05,1.7563457846046747e-06,2.091258037564462e-06,2.204106957895711e-05,9.901557691150807e-07,9.74898470423223e-07
8,1.977127791284884e-06,1.3333615167014843e-06,3.6890669670197224e-06,2.3314499157238423e-06,1.8588225410616539e-06,3.016310242437181e-06,1.3410259915127634e-06,1.5892308763449236e-06,6.483218758013582e-06,4.485825571114468e-06,1.9829847922696906e-05,1.8504038193897786e-06,2.329472107021908e-06,2.4125516440336347e-05,1.0592490234991504e-06,1.0483652459869546e-06
9,2.1476684633358014e-06,1.4332557136251214e-06,3.935025995227804e-06,2.533832202098456e-06,1.9519454380507578e-06,3.213827232741713e-06,1.4636548479229435e-06,1.689363287568179e-06,6.762289999359724e-06,4.793160586540292e-06,2.0729790482580296e-05,1.9405110792524636e-06,2.5437661170157124e-06,2.598496461548149e-05,1.1197435003756207e-06,1.1129804653411996e-06
10,2.3128941385486152e-06,1.5261392468027083e-06,4.151917237501812e-06,2.722608293678996e-06,2.0238653763533427e-06,3.382254706630459e-06,1.5697164668566019e-06,1.7881209767410845e-06,7.021869001786801e-06,5.05917705806243e-06,2.1429138263501665e-05,2.0254405851991686e-06,2.735664863226639e-06,2.761163235569803e-05,1.1723063794339595e-06,1.169829806709839e-06
11,2.47280832219511e-06,1.6115707118484218e-06,4.343582611855472e-06,2.8995134301564747e-06,2.0778878044878387e-06,3.5231524266062465e-06,1.6601006370726293e-06,1.8856065814768692e-06,7.257834268640994e-06,5.286032301443849e-06,2.1925643645828433e-05,2.1038848172261393e-06,2.907605376347144e-06,2.9001133134728108e-05,1.2176942029143813e-06,1.219982827125682e-06
12,2.6275363757504493e-06,1.689215293100641e-06,4.513640716896841e-06,3.066457658603904e-06,2.116976189838742e-06,3.6387096733341027e-06,1.7361221119000947e-06,1.9818191759538553e-06,7.465523720571758e-06,5.476736410551041e-06,2.2222024967455663e-05,2.1745609338889386e-06,3.0624703232547925e-06,3.014907112708575e-05,1.2565458733164774e-06,1.2644768057790337e-06
13,2.777189028838406e-06,1.758939741333628e-06,4.6650528738782995e-06,3.2252679185984874e-06,2.143700016170645e-06,3.73147484542077e-06,1.799243280576785e-06,2.076630320540848e-06,7.64001890101021e-06,5.634379293179937e-06,2.2322439236849872e-05,2.236497812155424e-06,3.203031836810194e-06,3.105055636914282e-05,1.2892780550542292e-06,1.3043420077761003e-06
14,2.921975827328613e-06,1.8207634090486956e-06,4.799869591887491e-06,3.3778142710990934e-06,2.1603424994464994e-06,3.804024280450457e-06,1.8509537145432236e-06,2.1699498804660937e-06,7.776954153393733e-06,5.761551094643969e-06,2.2230167587241575e-05,2.2894086539010567e-06,3.3316371543471466e-06,3.169990569832593e-05,1.3160636238845907e-06,1.3407080750873752e-06
15,3.06228625563342e-06,1.8747486745803412e-06,4.919247054336305e-06,3.5262519512429865e-06,2.169052184405644e-06,3.8586451968110246e-06,1.8927906188641138e-06,2.2619304103553747e-06,7.873169705258214e-06,5.860185121121601e-06,2.19488889537893e-05,2.3337172360236577e-06,3.4502829965459233e-06,3.209015971908749e-05,1.336915685072697e-06,1.3748713669122831e-06
16,3.19851838618519e-06,1.920963617119127e-06,5.023653215657398e-06,3.672959601219262e-06,2.1719238951864496e-06,3.897152176745792e-06,1.9263080098768513e-06,2.352935553917217e-06,7.926940856470639e-06,5.93186807897356e-06,2.148639775165081e-05,2.370202422811751e-06,3.560866175988157e-06,3.22161622004753e-05,1.3519045915105901e-06,1.408210597837716e-06
17,3.3309907037804767e-06,1.9595313814718772e-06,5.112972881375759e-06,3.820266900901626e-06,2.1709746954047545e-06,3.920983718253608e-06,1.9530059583701267e-06,2.443258002108987e-06,7.938173837014288e-06,5.978496615102915e-06,2.0857553668543322e-05,2.399691304877614e-06,3.6653114055793126e-06,3.208165849222466e-05,1.3613871641920806e-06,1.4420233278382267e-06
18,3.4601923284792902e-06,1.9906783847727996e-06,5.186445496961881e-06,3.970416029896723e-06,2.1680776088935415e-06,3.931489367203e-06,1.974395062348139e-06,2.532833748819319e-06,7.908836137829386e-06,6.002572838962512e-06,2.0084445018101853e-05,2.422941632607961e-06,3.7654835145396975e-06,3.170382718389564e-05,1.3660541901412743e-06,1.477414645899586e-06
19,3.587075495663299e-06,2.01472557168667e-06,5.2427147547637406e-06,4.125868831547279e-06,2.164903905248825e-06,3.9300740838759625e-06,1.992152793942501e-06,2.6211216042667406e-06,7.843156733105028e-06,6.0067163424262e-06,1.9194007163623006e-05,2.44058601877235e-06,3.86314147537905e-06,3.1110039537332804e-05,1.3667692518681172e-06,1.5152536037090084e-06
20,3.713015805298578e-06,2.032012822728308e-06,5.2800857287354825e-06,4.289576467393422e-06,2.1629031080213252e-06,3.91803452493685e-06,2.0081444375202943e-06,2.7070938267405026e-06,7.746984853242251e-06,5.993155925811465e-06,1.8214726949081354e-05,2.4531420270312364e-06,3.960203380785266e-06,3.0330932345519192e-05,1.3643606244291534e-06,1.5561433747739626e-06
21,3.839442899585666e-06,2.042767036362095e-06,5.296776214640601e-06,4.4648594371650295e-06,2.163368445505349e-06,3.896298015080379e-06,2.024264182729149e-06,2.7892435339308813e-06,7.626669060246443e-06,5.963966146956884e-06,1.7173934773490973e-05,2.4610578780153045e-06,4.05905927195573e-06,2.939658797035108e-05,1.3595290417402747e-06,1.6004203880011643e-06
22,3.967442719409553e-06,2.047019264922712e-06,5.291082265204627e-06,4.65495691073475e-06,2.1675288361294114e-06,3.865380960552575e-06,2.0422410793474226e-06,2.8655783843424657e-06,7.488521218141405e-06,5.9216911940928065e-06,1.6096173206169703e-05,2.4647116541985924e-06,4.162511152157377e-06,2.8336196907792112e-05,1.3529071905035332e-06,1.6482484245256719e-06
23,4.0975639503501e-06,2.044690833313765e-06,5.261594937895963e-06,4.8626277916207874e-06,2.176562373659817e-06,3.8256480124419246e-06,2.0635210340984736e-06,2.9336516382756555e-06,7.339001564035172e-06,5.8696211469795105e-06,1.500245793205462e-05,2.4643888541297566e-06,4.273453771658925e-06,2.71782630775369e-05,1.3451496805348431e-06,1.6997555826166637e-06
24,4.229736136599377e-06,2.0357921714863533e-06,5.2075395172742496e-06,5.090054360247211e-06,2.1915546717474997e-06,3.777669584634615e-06,2.089247372260065e-06,2.990806796007871e-06,7.1846795313216756e-06,5.811506122066178e-06,1.3910217111652374e-05,2.460238795691295e-06,4.3946059694276044e-06,2.5950621265737874e-05,1.336908390048454e-06,1.7550498736165283e-06
25,4.363169334699303e-06,2.0205894548107548e-06,5.129159641487153e-06,5.338837970572769e-06,2.2134411830762138e-06,3.722406021570218e-06,2.120274361848701e-06,3.034729569385184e-06,7.031575130175646e-06,5.750964859011325e-06,1.2833687414426204e-05,2.4521981382602757e-06,4.528320229863238e-06,2.4680633920214906e-05,1.3287215374109103e-06,1.8141123078539763e-06
26,4.496385124334284e-06,1.999664904008911e-06,5.027992739768879e-06,5.609821473056207e-06,2.243011762937866e-06,3.661093486927474e-06,2.1571207753257487e-06,3.064047373072911e-06,6.884440628648454e-06,5.690922187401168e-06,1.178438317751022e-05,2.439978712774442e-06,4.676519364520272e-06,2.3395369433237418e-05,1.3209395129100436e-06,1.876741866480567e-06
27,4.627506499380445e-06,1.9738429265811126e-06,4.90681940956261e-06,5.902870819157139e-06,2.2810775580059993e-06,3.5949069569083923e-06,2.199875652249967e-06,3.0785449863078454e-06,6.74648415603517e-06,5.633267136188881e-06,1.0771413994666947e-05,2.4231859137812032e-06,4.84078761447004e-06,2.212144581600788e-05,1.3137230053224433e-06,1.942610675827055e-06
28,4.754611474920439e-06,1.944014837231203e-06,4.769173405583161e-06,6.216885728875987e-06,2.3286423620428393e-06,3.5246361441912794e-06,2.248128259814998e-06,3.0788391406692786e-06,6.619592842916861e-06,5.578869502897426e-06,9.801769119211958e-06,2.4014859466460048e-06,5.0223563539574775e-06,2.0884396197519052e-05,1.3070771537506967e-06,2.0113590007444474e-06
29,4.875908301874795e-06,1.911008487952672e-06,4.6187429897383784e-06,6.550034065888441e-06,2.3868349431654293e-06,3.4506543116668727e-06,2.3009345194553008e-06,3.065780611857806e-06,6.504880190100642e-06,5.5279708697823335e-06,8.880682446430848e-06,2.3746963851863127e-06,5.2219105442310215e-06,1.970766157071e-05,1.3009047498354327e-06,2.082716249007098e-06
30,4.989776207445807e-06,1.875641415402702e-06,4.4591835113336594e-06,6.899940285195613e-06,2.4566321194763972e-06,3.373204549955094e-06,2.356811293321094e-06,3.0400373558727707e-06,6.403223182347469e-06,5.480613443101309e-06,8.011981321401e-06,2.342739438454882e-06,5.4394049994296464e-06,1.861162748988915e-05,1.2951187116581968e-06,2.1566305241877203e-06
31,5.094874271932832e-06,1.8389136564279686e-06,4.294264544575559e-06,7.263596040312784e-06,2.538628461563679e-06,3.2926790365341792e-06,2.413801280365981e-06,3.002106258053503e-06,6.315494984239548e-06,5.436713733690602e-06,7.198311480626854e-06,2.305532822994497e-06,5.673945286130553e-06,1.7613105330621926e-05,1.2898017133400595e-06,2.233270566806841e-06
32,5.190352850842448e-06,1.8021574980947013e-06,4.12784285233972e-06,7.637134848611013e-06,2.6330887736196284e-06,3.2096566705735863e-06,2.4696793163032625e-06,2.9525953581800858e-06,6.242433115589101e-06,5.395853031782483e-06,6.441254841710449e-06,2.2630324212720767e-06,5.9238454893992906e-06,1.6725306579378817e-05,1.2852690756557652e-06,2.312861025717032e-06
33,5.276001533005407e-06,1.7670242520286556e-06,3.9635762984635725e-06,8.015944507669876e-06,2.7402606875372396e-06,3.1248100954373977e-06,2.522307175037514e-06,2.8924374142794527e-06,6.1842402885266856e-06,5.357180577851421e-06,5.7414025118361936e-06,2.2154782007288108e-06,6.186954909026306e-06,1.5958119943751456e-05,1.2819663145978743e-06,2.3955196489713887e-06
34,5.3522137433451665e-06,1.735353051347351e-06,3.804649880144969e-06,8.395296355494452e-06,2.8606597482024134e-06,3.038850204441449e-06,2.5700148342726953e-06,2.8228797987810456e-06,6.140141694191183e-06,5.319545328751575e-06,5.098438280227139e-06,2.1635668512431726e-06,6.460941978042457e-06,1.5318456401438365e-05,1.2803170781435053e-06,2.4811668846894533e-06
35,5.419785130508145e-06,1.7090473379311064e-06,3.6536798528408145e-06,8.771052643452751e-06,2.9950690535310352e-06,2.9525764289641674e-06,2.611814605871651e-06,2.745352506078105e-06,6.108161832568411e-06,5.281613484031234e-06,4.511268115248807e-06,2.1083787040979694e-06,6.743275408326793e-06,1.4810395503383172e-05,1.2806285810863543e-06,2.5694466885647595e-06
36,5.47955268488158e-06,1.6899977340710883e-06,3.5128706202203264e-06,9.139915228779918e-06,3.1442572588686842e-06,2.867067246763332e-06,2.64731505046882e-06,2.6613520259156388e-06,6.085213675558897e-06,5.241795328639986e-06,3.978189857428481e-06,2.0512338333807716e-06,7.031114260404439e-06,1.4435056181989755e-05,1.283077716870865e-06,2.659658359482863e-06
37,5.531910483681473e-06,1.6799888345328222e-06,3.3843590747279597e-06,9.49905065414771e-06,3.3086136267643715e-06,2.7838891735870575e-06,2.676375656962348e-06,2.572328347601238e-06,6.067345164836024e-06,5.198041284316764e-06,3.497066712486108e-06,1.993635183630382e-06,7.321299952721858e-06,1.4190579156956337e-05,1.2877716914381577e-06,2.7506982226683207e-06
38,5.5764702829729845e-06,1.6806007574072362e-06,3.2704927412724487e-06,9.845283060172234e-06,3.487880414883395e-06,2.7050564108098234e-06,2.6987513734070366e-06,2.479560254882475e-06,6.050065784338525e-06,5.147791608082441e-06,3.065455152307572e-06,1.937200760246759e-06,7.610266303443831e-06,1.4072630464427711e-05,1.2948103814913265e-06,2.8410466919760404e-06
39,5.6121544600069065e-06,1.6932002044023712e-06,3.173864170628409e-06,1.0174361857006625e-05,3.6810339846608848e-06,2.6327400084223604e-06,2.7139981543250185e-06,2.3841780878555852e-06,6.029085860687662e-06,5.088409313938206e-06,2.6806708495326105e-06,1.8834832499255283e-06,7.893702439376797e-06,1.4075306848663047e-05,1.304278155601476e-06,2.928882696322737e-06
40,5.637663378404992e-06,1.7190284827362202e-06,3.0971314087284195e-06,1.0480901911440754e-05,3.88627330979816e-06,2.5690639144097355e-06,2.721641608943249e-06,2.287390571262151e-06,6.001463865310333e-06,5.017951314060392e-06,2.3398459176714494e-06,1.833799592651132e-06,8.166242165851438e-06,1.4192059371280701e-05,1.3162301222804416e-06,3.012275697482419e-06
41,5.652023914826573e-06,1.7592752999230208e-06,3.042738807814702e-06,1.0759085517555537e-05,4.1010382311232785e-06,2.5160918543713865e-06,2.7213831567131435e-06,2.190636710440619e-06,5.966238730580409e-06,4.935649904590821e-06,2.0400181308096477e-06,1.7892045368112203e-06,8.421583887105059e-06,1.4416373774015315e-05,1.3307247083038033e-06,3.089351283157e-06
42,5.654936208868833e-06,1.8150364931207563e-06,3.0126630511626548e-06,1.1003639353744536e-05,4.32202342701124e-06,2.4757502942831995e-06,2.71320981751326e-06,2.0954470144190987e-06,5.923878985983572e-06,4.841759124749068e-06,1.7782002379252116e-06,1.7505649339719184e-06,8.653079571477554e-06,1.4742152487738e-05,1.347802006235553e-06,3.158408863045054e-06
43,5.646753837011432e-06,1.8871937970694973e-06,3.0082721399604857e-06,1.1210668267684024e-05,4.5452650592978455e-06,2.4496134080891546e-06,2.6974624426351616e-06,2.0032178983742887e-06,5.875157434665324e-06,4.737081575799212e-06,1.5513623583940748e-06,1.7186639324152805e-06,8.854702361407685e-06,1.5163933320052815e-05,1.3673861707000904e-06,3.217993424744403e-06
44,5.628151016421616e-06,1.9763235771903036e-06,3.0302889654769415e-06,1.1378206684811481e-05,4.766395796720416e-06,2.4387365969020594e-06,2.6749183186849563e-06,1.9151268375035657e-06,5.820420823000042e-06,4.622656465728366e-06,1.3563667260141307e-06,1.6942931418777174e-06,9.022351403997824e-06,1.5676903490035293e-05,1.389221531883503e-06,3.2669170386535543e-06
45,5.599710976978338e-06,2.082657556061455e-06,3.0788178889083087e-06,1.1506322706334472e-05,4.981060688593651e-06,2.443656236417782e-06,2.646816959522972e-06,1.8320905155762513e-06,5.759446494614175e-06,4.499655184260313e-06,1.1899863117850103e-06,1.678254450234058e-06,9.154897222056995e-06,1.6276300571181955e-05,1.4128684305149654e-06,3.3042471922568527e-06
46,5.56167733020611e-06,2.2060870521002277e-06,3.153406466506985e-06,1.1596558909675616e-05,5.185356661381865e-06,2.464554510740726e-06,2.6147274584987737e-06,1.7546884578560721e-06,5.691860041199089e-06,4.369216236679497e-06,1.0490638732906913e-06,1.6712589644794067e-06,9.253898560285519e-06,1.6956338720702502e-05,1.4377448047581008e-06,3.32929977281408e-06
47,5.5139817000602945e-06,2.346227700509749e-06,3.2530789848644384e-06,1.1650729228989929e-05,5.376096318407968e-06,2.5014848728082616e-06,2.580266566088021e-06,1.6831707818122106e-06,5.618217423085645e-06,4.232270282302038e-06,9.30660074058299e-07,1.673835533378368e-06,9.321959147532918e-06,1.7709848918215017e-05,1.4632127825534518e-06,3.341635702436912e-06
48,5.456488113609147e-06,2.5025564533383243e-06,3.3763196047382643e-06,1.1669599535081982e-05,5.5507971777202005e-06,2.5544485904568645e-06,2.5447983898480783e-06,1.6175782032213886e-06,5.541014109374323e-06,4.0896975872987865e-06,8.32033098261277e-07,1.6863134519606601e-06,9.36117348188003e-06,1.8529243747004407e-05,1.4886365144860569e-06,3.3409536043566815e-06
49,5.389276239404454e-06,2.674626200308141e-06,3.521110667501521e-06,1.1652314755509343e-05,5.707421480093367e-06,2.6232356060711994e-06,2.509266057000497e-06,1.557861003767342e-06,5.4645382719127334e-06,3.9427642806798665e-06,7.505792260272354e-07,1.7088304614154609e-06,9.372605717803591e-06,1.940789451724429e-05,1.513377154943661e-06,3.3268533696366274e-06
50,5.312769916774357e-06,2.862286323360349e-06,3.6851259254428064e-06,1.1596977343393616e-05,5.843901856714884e-06,2.7071993158733166e-06,2.4741802652526736e-06,1.5039290748037465e-06,5.3938205651842575e-06,3.7934062523503313e-06,6.838841257106017e-07,1.7413468752302494e-06,9.356326449893278e-06,2.0341023376902465e-05,1.5367976978791525e-06,3.2987557494172005e-06
51,5.2275701418635574e-06,3.065710365573171e-06,3.866037640081612e-06,1.1501962529342053e-05,5.957606261424055e-06,2.8051434705404324e-06,2.4396726994021364e-06,1.4556421295522205e-06,5.333842919289566e-06,3.644137226320011e-06,6.297564825684998e-07,1.7836624685827796e-06,9.311573983618725e-06,2.1326064881383698e-05,1.5582829802881708e-06,3.256178294303454e-06
52,5.134045896144365e-06,3.2851373751150955e-06,4.061811650647377e-06,1.1367294885476936e-05,6.045174654154999e-06,2.91534037177698e-06,2.405575029832828e-06,1.412754825109228e-06,5.289297239466693e-06,3.497676502738149e-06,5.862045537912855e-07,1.8353887551027498e-06,9.237108718090835e-06,2.2362554324182666e-05,1.577229712943663e-06,3.199078278215182e-06
53,5.032077949107512e-06,3.5205760531961378e-06,4.2708982148380905e-06,1.1195562191421641e-05,6.10308435550589e-06,3.0356468397921282e-06,2.3715637537319563e-06,1.3748649435770807e-06,5.264351189998502e-06,3.3565745001810677e-06,5.515324554688656e-07,1.895909308909034e-06,9.131741530051768e-06,2.345137083336355e-05,1.593045289129144e-06,3.1279296073929925e-06
54,4.9213153066176395e-06,3.7717144051384843e-06,4.492294135147511e-06,1.0992051083190999e-05,6.12867447678875e-06,3.163658433378536e-06,2.3373669731834184e-06,1.341473219410555e-06,5.2623085413563476e-06,3.2231257930276416e-06,5.245041583133094e-07,1.964393359474133e-06,8.99502523676739e-06,2.459319382648654e-05,1.6051815233397457e-06,3.043597925267283e-06
55,4.801762308057357e-06,4.037879238262513e-06,4.725444740206684e-06,1.076407558413164e-05,6.12093242863956e-06,3.2967723882806272e-06,2.3028909036939476e-06,1.3121602979112965e-06,5.285443286862534e-06,3.0995340963006503e-06,5.043149630567716e-07,2.0398248497959837e-06,8.828052093076342e-06,2.5786408800954487e-05,1.6132241023641503e-06,2.947263297551188e-06
56,4.6742716850272905e-06,4.317886988591873e-06,4.969904524685453e-06,1.0519690962330502e-05,6.080633869481355e-06,3.4320941919372936e-06,2.2681430637888998e-06,1.2866886238510763e-06,5.335048213681278e-06,2.9880038366743072e-06,4.903863913754551e-07,2.121067115585618e-06,8.633963979825405e-06,2.7025279100158915e-05,1.6170943019841152e-06,2.840492586127473e-06
57,4.540753639346682e-06,4.610007027043852e-06,5.224792006629845e-06,1.026622720443681e-05,6.0099231789857675e-06,3.5663859518770393e-06,2.2331570862931374e-06,1.2649141701754522e-06,5.411705916927646e-06,2.89059892984725e-06,4.822529918348094e-07,2.2070167232976614e-06,8.417725535072348e-06,2.82991263384508e-05,1.617244108087592e-06,2.7252975001569753e-06
58,4.404037082607334e-06,4.912256543119234e-06,5.488307083023284e-06,1.000926969568116e-05,5.911583998955214e-06,3.696316765952246e-06,2.1981581758024235e-06,1.2466616223373071e-06,5.515837885928245e-06,2.8090130938648936e-06,4.795994686687915e-07,2.2967136525299097e-06,8.185158786164998e-06,2.959216790784328e-05,1.61463506368201e-06,2.6039559149823705e-06
59,4.26736520292301e-06,5.222893549604355e-06,5.7575672686634496e-06,9.752376303585556e-06,5.788284221486132e-06,3.8189984580504835e-06,2.1637923120147058e-06,1.2317158323139094e-06,5.648249899280297e-06,2.7444382968368427e-06,4.822704464985339e-07,2.3892850152073466e-06,7.941827684368792e-06,3.0883198289682805e-05,1.6105163656983215e-06,2.478690389388754e-06
60,4.133763531712099e-06,5.540833603925397e-06,6.028820629967209e-06,9.497345563022708e-06,5.642276873926964e-06,3.932625338132751e-06,2.13116907269723e-06,1.2198916120596585e-06,5.810279537339161e-06,2.697573131001534e-06,4.901993164609612e-07,2.483800865282262e-06,7.69249517603824e-06,3.214551636694618e-05,1.6061647316826514e-06,2.3515253706813565e-06
61,4.005630768107333e-06,5.865809377226539e-06,6.29794674468991e-06,9.244823948735822e-06,5.475895550049277e-06,4.036999637249814e-06,2.101712983189576e-06,1.2110974533571094e-06,6.003552172700698e-06,2.6687176010131364e-06,5.03342709243284e-07,2.5791732976984297e-06,7.441198036611875e-06,3.3348280773656806e-05,1.6026855151622593e-06,2.224370980121513e-06
62,3.884647004714906e-06,6.1981867558751e-06,6.560970546917833e-06,8.995051482107146e-06,5.2924218286871406e-06,4.133669108936075e-06,2.0769047646413245e-06,1.2053355487775626e-06,6.229607562181507e-06,2.6578901649600342e-06,5.21653182176321e-07,2.6741174625437926e-06,7.191311515749053e-06,3.445945856646332e-05,1.6009101167496052e-06,2.099078337061289e-06
63,3.771886558756722e-06,6.538453539802504e-06,6.814252584924853e-06,8.748479344574314e-06,5.0964951626015665e-06,4.225557974344757e-06,2.0580377827299206e-06,1.2026178598922806e-06,6.489563634216699e-06,2.664866653097525e-06,5.450851990818865e-07,2.7671092081681188e-06,6.945285582600127e-06,3.544941468561146e-05,1.6013920055883742e-06,1.97734998914098e-06
64,3.6679699956720893e-06,6.886539090182985e-06,7.054315298270511e-06,8.50614328189688e-06,4.893740961265548e-06,4.31625400925355e-06,2.0461537847083826e-06,1.202875647880072e-06,6.783874259511781e-06,2.6890875126576324e-06,5.736055489565227e-07,2.8564171723260284e-06,6.7043516261691146e-06,3.6293689920700186e-05,1.6044452949263553e-06,1.8606151618419383e-06
65,3.573080447140184e-06,7.241208304464027e-06,7.277602369766491e-06,8.269859028122217e-06,4.6899667113120055e-06,4.409252716701103e-06,2.0421852936421433e-06,1.2059568410925373e-06,7.112130418126684e-06,2.7295700190958298e-06,6.07162523434747e-07,2.94034585179504e-06,6.468452415752752e-06,3.69730706085309e-05,1.6101452235349842e-06,1.7499825732635846e-06
66,3.486860528289488e-06,7.5997037730250776e-06,7.480501333407421e-06,8.042302364096135e-06,4.490477506897074e-06,4.507438472877874e-06,2.047124987942063e-06,1.2116911941428244e-06,7.472782713975337e-06,2.784964624619028e-06,6.456378122471528e-07,3.0175864049251293e-06,6.236373696166567e-06,3.747044824654989e-05,1.6182833836769165e-06,1.646305221614703e-06
67,3.4084155551414147e-06,7.95767773943962e-06,7.659714719468968e-06,7.82688672530883e-06,4.299772076520972e-06,4.612881693429959e-06,2.0620648153356682e-06,1.2199367312744953e-06,7.862857689921637e-06,2.8536667189997823e-06,6.88830835477967e-07,3.0874940562386686e-06,6.006133659920995e-06,3.776790819229174e-05,1.6283421580053772e-06,1.55027789607579e-06
68,3.336536231492705e-06,8.309330995442878e-06,7.812730032770445e-06,7.627260637128808e-06,4.1214747703407275e-06,4.726809786897866e-06,2.0881403290571604e-06,1.230577684290675e-06,8.277871211868888e-06,2.9338281200353815e-06,7.364712887467017e-07,3.1502421266102276e-06,5.775710230550397e-06,3.784820407049932e-05,1.6395411418820592e-06,1.4624457989013128e-06
69,3.2700101264430572e-06,8.647510827357966e-06,7.937955983188148e-06,7.446544727818606e-06,3.9583054361273155e-06,4.849700544740739e-06,2.1264625546905324e-06,1.2434860893943718e-06,8.711916112657595e-06,3.0232792727988653e-06,7.882477049970832e-07,3.206800214093457e-06,5.543906728229086e-06,3.7699685121722626e-05,1.6509856309597287e-06,1.38316694892256e-06
70,3.2078287261867765e-06,8.96364701467864e-06,8.034251417749412e-06,7.286900196934221e-06,3.8120761983848034e-06,4.981611259053775e-06,2.1780296522783796e-06,1.2584593348970231e-06,9.157887472720525e-06,3.119523931027246e-06,8.438788012618086e-07,3.258661722957379e-06,5.310970348903288e-06,3.7320525190542905e-05,1.6618769249132125e-06,1.312631992748644e-06
71,3.149166126912205e-06,9.247962634725336e-06,8.100138147653314e-06,7.149726060814025e-06,3.683785129257517e-06,5.1226548063528306e-06,2.243600621985987e-06,1.2752088669958355e-06,9.608093828889323e-06,3.2199160103597786e-06,9.032497447027214e-07,3.3073883054956275e-06,5.078641487402874e-06,3.672032608104762e-05,1.6716139750006698e-06,1.2508906330398474e-06
72,3.0931589269768604e-06,9.490472848500825e-06,8.133523144445791e-06,7.035948091353586e-06,3.573821010003316e-06,5.273240308264077e-06,2.3235946662973937e-06,1.2934444728005911e-06,1.005524964904323e-05,3.3219106303143036e-06,9.66559037441512e-07,3.3541777081503924e-06,4.849564831867131e-06,3.5919490127042426e-05,1.6796957762272768e-06,1.1978339690804752e-06
73,3.038770498896481e-06,9.682528521473041e-06,8.132331424599397e-06,6.945874868355778e-06,3.4821669362181713e-06,5.43382716803206e-06,2.4180590447621372e-06,1.312921781123274e-06,1.0493262238785602e-05,3.4231993126616587e-06,1.0343723420616581e-06,3.3996168960685664e-06,4.626387208066716e-06,3.494682144934258e-05,1.6856002057921713e-06,1.153205212073277e-06
74,2.9850048524789662e-06,9.818172072371488e-06,8.095469777316268e-06,6.878818893082227e-06,3.4084469004064303e-06,5.604367362977546e-06,2.5266566724280255e-06,1.3333454461723184e-06,1.0917309302058704e-05,3.521714020725002e-06,1.1075763394600471e-06,3.443658085961062e-06,4.411088676413958e-06,3.383577024463389e-05,1.6888238179242666e-06,1.1166548502516837e-06
75,2.931296698145844e-06,9.894825721461389e-06,8.023447971857601e-06,6.833000549748941e-06,3.3518040934869298e-06,5.783825614573552e-06,2.648647184262811e-06,1.354246718522659e-06,1.132315684059757e-05,3.615570114749052e-06,1.1873471203078786e-06,3.4857777458963165e-06,4.204831941118593e-06,3.262023877094456e-05,1.6890204948327544e-06,1.0877654863561752e-06
76,2.877681822379057e-06,9.913221258096908e-06,7.918549024250609e-06,6.805997846371296e-06,3.3108040594603935e-06,5.970063565205628e-06,2.7828753436476597e-06,1.3750304033889667e-06,1.170618889719247e-05,3.702881861052985e-06,1.2751672465502081e-06,3.5252581983673744e-06,4.008126208979301e-06,3.133098491595565e-05,1.6861120934822135e-06,1.0660644593474576e-06
77,2.8246332682938734e-06,9.876694550505639e-06,7.784656893418623e-06,6.795508143684661e-06,3.2835790923557193e-06,6.160166083849442e-06,2.927771980016788e-06,1.3952378474518721e-06,1.2061385932337219e-05,3.7814274390974186e-06,1.3727647990656325e-06,3.561583156912733e-06,3.820954984252979e-06,2.999343421645068e-05,1.6803317945577476e-06,1.0510719169826389e-06
78,2.7727331873613556e-06,9.790064553900963e-06,7.626803594719696e-06,6.7998198738344105e-06,3.2681677385446968e-06,6.351057955970097e-06,3.081392766710799e-06,1.4148389045215701e-06,1.2384968350214e-05,3.8483808814310575e-06,1.4819338115940031e-06,3.594904930233386e-06,3.642863572550537e-06,2.8627396104670886e-05,1.6721361006101686e-06,1.0423183893553986e-06
79,2.7224177510119932e-06,9.658345294831996e-06,7.450509514291429e-06,6.81756201336853e-06,3.2627747453161623e-06,6.540071396731337e-06,3.241534843026071e-06,1.4342738834118943e-06,1.2676338690803048e-05,3.900359220918358e-06,1.6044251777617355e-06,3.62631440558088e-06,3.473265528219792e-06,2.7248347136759466e-05,1.6619887013532163e-06,1.0393025642552533e-06
80,2.6740006601177863e-06,9.485665915963452e-06,7.2610450850524716e-06,6.847001453964175e-06,3.2658076842058464e-06,6.725163875580341e-06,3.4059390944969957e-06,1.454205130069746e-06,1.2938246964677084e-05,3.933982210685722e-06,1.7420060925092183e-06,3.6576263835240076e-06,3.311926149720086e-06,2.5869174282397232e-05,1.6502263250130964e-06,1.0414468324876163e-06
81,2.6279261561029876e-06,9.274902650460284e-06,7.0627791537514195e-06,6.885633465131067e-06,3.275802449865615e-06,6.904781811027202e-06,3.57249368339623e-06,1.4752418788671747e-06,1.3174942071411352e-05,3.947027712234994e-06,1.8964843360037514e-06,3.690858818918228e-06,3.1592307963461037e-06,2.450146023042162e-05,1.6371321639263913e-06,1.0481132364584544e-06
82,2.5849235928286816e-06,9.028134214183801e-06,6.8588253862736965e-06,6.930364484505234e-06,3.291363775131929e-06,7.07764190665121e-06,3.7392813088943866e-06,1.4978166063842709e-06,1.339013491074243e-05,3.939586320140544e-06,2.069551391555039e-06,3.727860827979911e-06,3.015995691408987e-06,2.3155994201921135e-05,1.6230392013455231e-06,1.05873737066392e-06
83,2.5459181805968282e-06,8.74743813355536e-06,6.651248636784904e-06,6.977812386285007e-06,3.3110738061017185e-06,7.242658056884887e-06,3.904380223650261e-06,1.5221353636366222e-06,1.358632250599872e-05,3.914124680874102e-06,2.262604743595866e-06,3.7701613272364377e-06,2.882985239911893e-06,2.1842572886057158e-05,1.6082999209759535e-06,1.0730020237102767e-06
84,2.511910548772931e-06,8.435555773587045e-06,6.441866312796564e-06,7.024262559665301e-06,3.3332913201312357e-06,7.398902590460905e-06,4.065531912313302e-06,1.548166664312946e-06,1.3765136837076795e-05,3.874328660459134e-06,2.476773498801511e-06,3.8188930301543534e-06,2.7605277782038104e-06,2.0569482029909713e-05,1.593207213505133e-06,1.090866443277406e-06
85,2.4839864736870943e-06,8.096229092980936e-06,6.23317068345112e-06,7.06557312583298e-06,3.355971668859298e-06,7.545308522406456e-06,4.219984503331853e-06,1.5757440912021234e-06,1.3927697924802334e-05,3.823848777817322e-06,2.7131561918769672e-06,3.874912215594062e-06,2.648463346231293e-06,1.9343155480882774e-05,1.577969187335061e-06,1.1124339194939005e-06
86,2.4633110878844463e-06,7.73411048617193e-06,6.028765965318737e-06,7.097613206745324e-06,3.3767221374734664e-06,7.680222275112954e-06,4.36472382421632e-06,1.604707161168019e-06,1.4074616254766995e-05,3.7657903241204583e-06,2.97304140839775e-06,3.939146797065441e-06,2.546286981541565e-06,1.8168041315586067e-05,1.5627123999864034e-06,1.137829399061538e-06
87,2.4509361265671543e-06,7.354325409259078e-06,5.833155264769636e-06,7.117114243903506e-06,3.3931183983142626e-06,7.801376793069438e-06,4.496994028010528e-06,1.634893211889617e-06,1.4205870651475785e-05,3.702719829001153e-06,3.257891104302449e-06,4.012814800670489e-06,2.4532590677104626e-06,1.7046268818891666e-05,1.5475271858714926e-06,1.1671994663504004e-06
88,2.447534276566167e-06,6.961990389819311e-06,5.651113035041241e-06,7.122268387479186e-06,3.4031721058037553e-06,7.90648282267495e-06,4.614902568089789e-06,1.6659950083707134e-06,1.4320889758685541e-05,3.636658786665709e-06,3.569084997864592e-06,4.097238633011527e-06,2.368460437308682e-06,1.5977143944780865e-05,1.53259127477653e-06,1.2007430849259565e-06
89,2.4532560681659945e-06,6.562012849695903e-06,5.486969198500979e-06,7.1127376223819975e-06,3.405806418376006e-06,7.993954806568009e-06,4.717904994515837e-06,1.6974857001756688e-06,1.4418842746060623e-05,3.569002807868721e-06,3.907569387491276e-06,4.193456062131341e-06,2.290840791706605e-06,1.4957237541591966e-05,1.5182401892029736e-06,1.2386391322737337e-06
90,2.467699471356229e-06,6.159286808900042e-06,5.344103874639471e-06,7.089165753017863e-06,3.4011344173831487e-06,8.063332431145203e-06,4.806911051623559e-06,1.7287293210235435e-06,1.4498791671189988e-05,3.5006123176510216e-06,4.27357814044391e-06,4.302039727801172e-06,2.2193511021095063e-06,1.3981572165607923e-05,1.5048497802367467e-06,1.2809207954608738e-06
91,2.4899100200391664e-06,5.759035558059074e-06,5.224793418918111e-06,7.052387027620588e-06,3.3903957356908562e-06,8.11540277679455e-06,4.883900835933351e-06,1.7591737520195414e-06,1.4559322650057788e-05,3.432133310553888e-06,4.666544745171872e-06,4.423185375851255e-06,2.1532488236361782e-06,1.3045284982708606e-05,1.4926440010361109e-06,1.3274325172316232e-06
92,2.5184323724472275e-06,5.366856887118419e-06,5.130284791629098e-06,7.002667101182314e-06,3.3756110966529933e-06,8.15215085224975e-06,4.951257363411357e-06,1.7884143521829668e-06,1.4597659479744942e-05,3.364331947721112e-06,5.085194043119384e-06,4.556717970801288e-06,2.0923752039675065e-06,1.2144693144778183e-05,1.4816213674391822e-06,1.3778606608789627e-06
93,2.5514965289426403e-06,4.988302812580801e-06,5.060912269692279e-06,6.939492194501493e-06,3.3591232644279306e-06,8.176569230179463e-06,5.011128301372073e-06,1.8161440924229482e-06,1.4609032122966832e-05,3.2981455906273836e-06,5.527699088280756e-06,4.701851559997386e-06,2.037155014321008e-06,1.127747648727852e-05,1.47161000653468e-06,1.4317421891876926e-06
94,2.587347499572155e-06,4.628295779020778e-06,5.01624619160906e-06,6.862085393764219e-06,3.343152172367827e-06,8.192343805579618e-06,5.0650084379053755e-06,1.8421376129426244e-06,1.4587289548972736e-05,3.234385582182718e-06,5.991784898307994e-06,4.856986912474341e-06,1.988364345018476e-06,1.0442446862478857e-05,1.4623282473411462e-06,1.4884485649149722e-06
95,2.624571449153464e-06,4.290775381549344e-06,4.995334340556682e-06,6.770174019780709e-06,3.3294706210073773e-06,8.203436770849274e-06,5.113644203361023e-06,1.8662218625556307e-06,1.4526722253461438e-05,3.1734013413578867e-06,6.4747110884631885e-06,5.019833675795909e-06,1.946828502854846e-06,9.639111888474221e-06,1.4534292098402938e-06,1.547182653267716e-06
96,2.6622348513693746e-06,3.9786778082859775e-06,4.996966152240993e-06,6.664482717408505e-06,3.319290437073164e-06,8.213567171066874e-06,5.157242338636259e-06,1.8882790163047924e-06,1.4423955868443538e-05,3.1150204538555683e-06,6.973153736630291e-06,5.1877812571794835e-06,1.9131874164307597e-06,8.867047172462283e-06,1.4446477017805521e-06,1.6069625596183894e-06
97,2.6997558070542303e-06,3.694075090639324e-06,5.019831306054706e-06,6.546882334835504e-06,3.313327475494921e-06,8.225680789867724e-06,5.19581571253321e-06,1.9084095750507855e-06,1.4278818945908857e-05,3.058803281798988e-06,7.483075290418353e-06,5.358178522545982e-06,1.8877913643217243e-06,8.12592232943288e-06,1.4360390569987898e-06,1.6666067814977797e-06
98,2.736626848859018e-06,3.4382811024525524e-06,5.0625332390251495e-06,6.420371685574558e-06,3.3119275998684623e-06,8.241536554114774e-06,5.229502355642295e-06,1.9270306773868947e-06,1.4093890985594593e-05,3.0044330330421906e-06,7.999622834777699e-06,5.528251114263007e-06,1.8706744651665213e-06,7.416772120241215e-06,1.4280600882991729e-06,1.7248188875304065e-06
99,2.772332735437479e-06,3.211941644947643e-06,5.123442794225538e-06,6.289015441745163e-06,3.3152078243085415e-06,8.261419037037343e-06,5.258721982536944e-06,1.9446913164319733e-06,1.3873085646080752e-05,2.9519310837253624e-06,8.516982527249975e-06,5.694711889136635e-06,1.8615724998042846e-06,6.7430627105948885e-06,1.4213707049799838e-06,1.7803893031606612e-06
100,2.806621915074751e-06,3.015180642701843e-06,5.200424678986812e-06,6.157793158916461e-06,3.3232590674554846e-06,8.284021086765926e-06,5.284084142819232e-06,1.9618085521952543e-06,1.3619924738798942e-05,2.9015506639460076e-06,9.02809611077799e-06,5.853359280098967e-06,1.86002057081837e-06,6.110042427813112e-06,1.4165881085522333e-06,1.8323990836495057e-06
101,2.8398273445522515e-06,2.8476899637803685e-06,5.290724640362888e-06,6.032217695455997e-06,3.3364029875966363e-06,8.306540127709618e-06,5.306172416895224e-06,1.978545744109647e-06,1.3336413854112205e-05,2.8536377359576955e-06,9.524325035329242e-06,5.998963506499263e-06,1.8655917615186527e-06,5.523238754312203e-06,1.4142034900154235e-06,1.8803074902875229e-06
102,2.8729265259609924e-06,2.7086897792117064e-06,5.3912937107215245e-06,5.917711150592159e-06,3.3553573766319574e-06,8.32482455919831e-06,5.3254284896794155e-06,1.9947917569716053e-06,1.3023249898333017e-05,2.80879598639892e-06,9.995406419367226e-06,6.125627966096073e-06,1.8783146580491678e-06,4.9875634598432704e-06,1.4146073702668605e-06,1.923894230673502e-06
103,2.907323079589537e-06,2.5968691870790203e-06,5.499352022211757e-06,5.818964465799114e-06,3.381196510340604e-06,8.333559661490908e-06,5.342159181893674e-06,2.0102143244388314e-06,1.2681111203211664e-05,2.7681473694648915e-06,1.0430028775511374e-05,6.227587719081418e-06,1.8991010931735556e-06,4.507050492957954e-06,1.418136302694221e-06,1.963116308636915e-06
104,2.944463507867451e-06,2.510374683908631e-06,5.612812265905092e-06,5.739575523284095e-06,3.415185963388309e-06,8.326875098791526e-06,5.356522154877245e-06,2.0244181612887313e-06,1.2312014300052541e-05,2.7332561802311723e-06,1.0817073914202453e-05,6.300187547446653e-06,1.929849799216232e-06,4.084742028656076e-06,1.425101418418183e-06,1.997992186090641e-06
105,2.9855043130322507e-06,2.446842097261978e-06,5.730444565871191e-06,5.682085460403566e-06,3.458582904517996e-06,8.299582920246152e-06,5.36845568984269e-06,2.0370711610357493e-06,1.1919925324550812e-05,2.7057623713192535e-06,1.1147297391066317e-05,6.340726278579736e-06,1.97312348449571e-06,3.7226611024972897e-06,1.4357534794334803e-06,2.0286199024529173e-06
106,3.031210899705196e-06,2.4034947033671074e-06,5.851762489414976e-06,5.648288034854594e-06,3.5124042441611774e-06,8.248600253305212e-06,5.377596289645466e-06,2.0478520928602494e-06,1.1510444515860217e-05,2.6870492558625484e-06,1.1414874874163755e-05,6.3488676975769475e-06,2.0316542469283797e-06,3.4218871381828663e-06,1.4502115959772898e-06,2.055315988332091e-06
107,3.0819942633729964e-06,2.377293514129547e-06,5.976545758197223e-06,5.639574995278631e-06,3.5772989102170976e-06,8.17375216615643e-06,5.383144008449147e-06,2.0563420822759478e-06,1.1089842841203736e-05,2.678059617753829e-06,1.1617982218487599e-05,6.326383149310527e-06,2.1080024735967774e-06,3.182679143485281e-06,1.468418415220039e-06,2.0786824019582747e-06
108,3.137891326017695e-06,2.365085055470884e-06,6.104126644581987e-06,5.657167877204523e-06,3.6536233045991304e-06,8.07744782443382e-06,5.38379225569835e-06,2.062066337301684e-06,1.0663947222352291e-05,2.6792249199803424e-06,1.1757928544378552e-05,6.2762240740481166e-06,2.204484029730518e-06,3.004648934182864e-06,1.4901485000678654e-06,2.099472289161603e-06
109,3.198519149767989e-06,2.3637260045468138e-06,6.2329135132451596e-06,5.70224418848338e-06,3.7415095714757773e-06,7.963456505759972e-06,5.378025744920376e-06,2.0646529195669762e-06,1.0237544076463077e-05,2.6904769906523184e-06,1.1837203686646126e-05,6.201322299808514e-06,2.323200549744619e-06,2.8869519757157526e-06,1.5150606057095051e-06,2.118400794574687e-06
110,3.263184053033861e-06,2.3702053526954332e-06,6.36050039511327e-06,5.776001973528208e-06,3.840842796341444e-06,7.835744900619205e-06,5.364728329671237e-06,2.063958273934624e-06,9.814794066594786e-06,2.7112951761252017e-06,1.1857476439982463e-05,6.103759413211157e-06,2.4660018205917296e-06,2.8283921223771595e-06,1.5427174258095698e-06,2.1360366589865835e-06
111,3.3311453089763793e-06,2.3818120469704262e-06,6.48418273665081e-06,5.879617408944385e-06,3.9514081882254595e-06,7.698259715688435e-06,5.343619673343927e-06,2.0601638262443292e-06,9.40020571898059e-06,2.7407242734668584e-06,1.181861147474942e-05,5.984595426618951e-06,2.634472298347578e-06,2.8274330198061245e-06,1.5725396217882942e-06,2.1527473438578572e-06
112,3.401801793414197e-06,2.3963593214685987e-06,6.601479358882911e-06,6.014008573554861e-06,4.073287567464691e-06,7.555376433117946e-06,5.315212990413034e-06,2.0538906420131185e-06,8.99902092332277e-06,2.777324222750707e-06,1.1719067303667724e-05,5.8441100461828125e-06,2.830027973866825e-06,2.882220810761763e-06,1.6037989324361698e-06,2.168758043983611e-06
113,3.474664447236803e-06,2.412344259004261e-06,6.710508332691925e-06,6.17942264165359e-06,4.20715683601297e-06,7.4121036436145905e-06,5.280436985368651e-06,2.046206116266193e-06,8.61657655479997e-06,2.819092578067999e-06,1.1557205435045109e-05,5.682210455682243e-06,3.0539388119690302e-06,2.9907086900138227e-06,1.6357394944912276e-06,2.1843460785008676e-06
114,3.5492529359418834e-06,2.428843638011516e-06,6.810266849821671e-06,6.375014204642709e-06,4.354124417861543e-06,7.273918948986831e-06,5.240241670405406e-06,2.03839540764749e-06,8.25742754094745e-06,2.8634354920383456e-06,1.1332784465858469e-05,5.498974785850913e-06,3.307154721985751e-06,3.150856528641952e-06,1.6677407418186525e-06,2.1999241853246286e-06
115,3.6250668482759843e-06,2.4451471090330735e-06,6.900709254700706e-06,6.598587566758834e-06,4.515236493560174e-06,7.146646008576845e-06,5.195292646178652e-06,2.0316366482957366e-06,7.925023388679724e-06,2.9072412210207076e-06,1.104806387339949e-05,5.295244316954112e-06,3.5901941251122743e-06,3.360759260789248e-06,1.6993361787380096e-06,2.2158596992119605e-06
116,3.701540410461893e-06,2.460481460611254e-06,6.9823484415146105e-06,6.8465122061865124e-06,4.6911650241283545e-06,7.036339773380013e-06,5.1457248281420275e-06,2.026806648180819e-06,7.6217158480128615e-06,2.9471665934760717e-06,1.0708167659479236e-05,5.073016982320245e-06,3.903399593881007e-06,3.6185900231614494e-06,1.730043664354091e-06,2.2322461861096095e-06
117,3.7779292412842354e-06,2.474134157520728e-06,7.05548088073679e-06,7.113700138270123e-06,4.882326071786378e-06,6.948902087171836e-06,5.091190079225882e-06,2.0244684488967527e-06,7.348634385384957e-06,2.9801713312735465e-06,1.0320689366034052e-05,4.835438146045891e-06,4.247413725290247e-06,3.922378744888166e-06,1.7591624957752832e-06,2.2488468923357772e-06
118,3.8533847920337815e-06,2.485811094149445e-06,7.119754016375512e-06,7.3935956796410675e-06,5.089188890053462e-06,6.889514418417089e-06,5.03139890411134e-06,2.0249594732332885e-06,7.105657770542574e-06,3.003992682066747e-06,9.894818235025895e-06,4.5864863445786155e-06,4.623432005357049e-06,4.2698041608445275e-06,1.7857352071872877e-06,2.265168519923401e-06
119,3.927318245934296e-06,2.495810582681895e-06,7.174519466457381e-06,7.678299676932087e-06,5.312501899546815e-06,6.862299831996902e-06,4.966795981649077e-06,2.0284537193153932e-06,6.891732978366191e-06,3.017151762408095e-06,9.440312173387686e-06,4.330611824795177e-06,5.033045480238796e-06,4.6581384619825565e-06,1.8087646424163792e-06,2.280563351715601e-06
120,3.999677648488612e-06,2.5047990881521464e-06,7.2194835779228146e-06,7.959043006066354e-06,5.553355013118323e-06,6.870320706392252e-06,4.898823898943039e-06,2.0349466421656773e-06,6.705178036272575e-06,3.0185798675689407e-06,8.966522174927206e-06,4.072404924378644e-06,5.477852693467543e-06,5.084352473018538e-06,1.8275548285104512e-06,2.2942954782617638e-06
121,4.070826781675056e-06,2.513375977315933e-06,7.25506996128828e-06,8.227056527579697e-06,5.8130346294537685e-06,6.915598679244554e-06,4.829591125047604e-06,2.0442510520074445e-06,6.54383835710176e-06,3.0074383903182022e-06,8.481611280083154e-06,3.816249675453665e-06,5.959050521394862e-06,5.5454376256263435e-06,1.8418977766508835e-06,2.3055302683094147e-06
122,4.141197449431594e-06,2.5218368788261086e-06,7.282478497084647e-06,8.474565660490428e-06,6.092655022264313e-06,6.999208006022314e-06,4.761221743134573e-06,2.0560547408277564e-06,6.405476733634767e-06,2.9834010369369926e-06,7.992148767734804e-06,3.566010285863367e-06,6.477057752510222e-06,6.038716943865052e-06,1.8519896048991142e-06,2.3133286056037175e-06
123,4.211048960275074e-06,2.5303195045747917e-06,7.303612023306139e-06,8.695517180928687e-06,6.3927633405814945e-06,7.1218399164471035e-06,4.695496638890562e-06,2.0699642471702554e-06,6.288269995848908e-06,2.9470391533290405e-06,7.503173435489803e-06,3.324848476238215e-06,7.0312047910430985e-06,6.561678302522336e-06,1.8582091247115633e-06,2.316770220531425e-06
124,4.280417269253454e-06,2.5391258233158367e-06,7.320925990404383e-06,8.885840573927345e-06,6.713130055089458e-06,7.284656820690082e-06,4.634070806945281e-06,2.085471137638049e-06,6.19080122030361e-06,2.89986550728005e-06,7.018536791027162e-06,3.0952156047004106e-06,7.619606693745366e-06,7.111583681978925e-06,1.8609001956838711e-06,2.315156136226574e-06
125,4.349128387007514e-06,2.5489209595573093e-06,7.337180109749902e-06,9.043330775401096e-06,7.052644430487504e-06,7.489668132518016e-06,4.578798722507335e-06,2.101872852418361e-06,6.1115705017552575e-06,2.8439616091768666e-06,6.541237241820323e-06,2.878979666283832e-06,8.239264179007724e-06,7.6856789364033e-06,1.8602337941462055e-06,2.3081069893632207e-06
126,4.416800429292937e-06,2.560691151631489e-06,7.355032519541279e-06,9.167358591624765e-06,7.409364139065323e-06,7.73928904168485e-06,4.531677457593703e-06,2.1182624710293946e-06,6.048856612023193e-06,2.7815374315625e-06,6.073676299777242e-06,2.6775727108852124e-06,8.886196482470054e-06,8.282114175021428e-06,1.8562510464096342e-06,2.295475888810164e-06
127,4.482786766090845e-06,2.575516963713551e-06,7.376486198418602e-06,9.258535411954186e-06,7.780925067188043e-06,8.035811842017347e-06,4.494614075438394e-06,2.133710686760951e-06,6.001323411078996e-06,2.714778358909327e-06,5.617902393145676e-06,2.4920736004447247e-06,9.555327829988771e-06,8.900755939194147e-06,1.8490664507461323e-06,2.277186643509473e-06
128,4.546054723769867e-06,2.5943237978676088e-06,7.402416165949849e-06,9.318364205294142e-06,8.164979165045066e-06,8.381576075537272e-06,4.469498182654035e-06,2.1475815398792766e-06,5.968604728859502e-06,2.645835555574353e-06,5.175832666390932e-06,2.323233489711644e-06,1.0240080931958414e-05,9.543146916121145e-06,1.8389834871644324e-06,2.253179215835523e-06
129,4.6052740329077e-06,2.617813683059556e-06,7.432475752263729e-06,9.348920134939507e-06,8.559089669986943e-06,8.77934424801652e-06,4.458482506713286e-06,2.1597207980276845e-06,5.951099623635798e-06,2.5766651423331844e-06,4.749410718891951e-06,2.1714706742334834e-06,1.0931915424354828e-05,1.0211599295491187e-05,1.826367843775459e-06,2.2235382733084977e-06
130,4.659291564908777e-06,2.6465975120990474e-06,7.46543000970481e-06,9.352576619302976e-06,8.960115905509365e-06,9.231941889908712e-06,4.463932272392755e-06,2.1703538198275727e-06,5.949184485314849e-06,2.508827697298479e-06,4.340689819567111e-06,2.036854827085522e-06,1.1620156639892657e-05,1.090791246888373e-05,1.8114790357395718e-06,2.188697548876104e-06
131,4.707591532499541e-06,2.6812901975328464e-06,7.499726426810703e-06,9.331616442931032e-06,9.363719545472816e-06,9.741256270050112e-06,4.487984049274965e-06,2.179814532333573e-06,5.962513440632402e-06,2.443530559974331e-06,3.951801513856166e-06,1.9191411930862443e-06,1.2292325019977222e-05,1.163222778761852e-05,1.7945083347111463e-06,2.149521023693932e-06
132,4.750355319248107e-06,2.7224060135943656e-06,7.534081462081323e-06,9.287627327202556e-06,9.764544329460766e-06,1.0307348799319287e-05,4.532181193988033e-06,2.18833758872764e-06,5.989833658308466e-06,2.381930430282854e-06,3.5847704168128694e-06,1.8179033817035139e-06,1.2934869895528364e-05,1.238232859242856e-05,1.7757427236795253e-06,2.107150549550184e-06
133,4.7883018775785696e-06,2.770183265570332e-06,7.567950195119563e-06,9.22110828729783e-06,1.0156971740233502e-05,1.0928003843200753e-05,4.597416192277334e-06,2.1959890745080218e-06,6.029234150667795e-06,2.3253952871940524e-06,3.2412581435113336e-06,1.7326859820431963e-06,1.3534037871119375e-05,1.315346187609457e-05,1.7556143797577156e-06,2.0627204445972326e-06
134,4.822619501084469e-06,2.8245680803251487e-06,7.601900473830836e-06,9.1318177041412e-06,1.0535928644538791e-05,1.159858461332727e-05,4.683959101765973e-06,2.2026405865067827e-06,6.078429537689441e-06,2.2754316888076777e-06,2.9223808539961722e-06,1.6630373039484208e-06,1.4076685238401247e-05,1.3938505948948521e-05,1.7345873275418802e-06,2.0171750745849397e-06
135,4.854981741048203e-06,2.885422440700078e-06,7.637939652071765e-06,9.019643879211817e-06,1.0897386519501571e-05,1.2312118068913174e-05,4.79134752580711e-06,2.2079469964446185e-06,6.134882914695435e-06,2.233401464337554e-06,2.628646101785442e-06,1.6084155440584762e-06,1.455101797973847e-05,1.4728089885062714e-05,1.7130616873580105e-06,1.9712695919919137e-06
136,4.88745506429282e-06,2.95281568718151e-06,7.679647069725137e-06,8.885305229296613e-06,1.1238465602754881e-05,1.3059504925164732e-05,4.918213945417657e-06,2.2114132765786476e-06,6.1959792944255605e-06,2.200330690924621e-06,2.3599686575525988e-06,1.5680903339050632e-06,1.4947366589333909e-05,1.551045841314376e-05,1.6914561706297824e-06,1.9255868590474674e-06
137,4.922197422896591e-06,3.0272186453465417e-06,7.731839469936977e-06,8.730495417073431e-06,1.1557093634114964e-05,1.3829585324218321e-05,5.06220864931909e-06,2.2125602318574295e-06,6.259455743240446e-06,2.1768362161972445e-06,2.1157450422243033e-06,1.5411157431543285e-06,1.5258918369613658e-05,1.6271558028107274e-05,1.6703618313079012e-06,1.8804671819355893e-06
138,4.961031769090317e-06,3.1095217453012676e-06,7.799710095503766e-06,8.557545774491733e-06,1.1851147174381457e-05,1.4609173369497518e-05,5.220065291576367e-06,2.2110192326528294e-06,6.323905246232535e-06,2.1630985109331173e-06,1.894985403226248e-06,1.526342797458285e-06,1.548179888839542e-05,1.6995853619387777e-05,1.6505349006453016e-06,1.8359591894599626e-06
139,5.00516015487778e-06,3.2009148950453028e-06,7.887783652459175e-06,8.368953933768713e-06,1.2117344776962438e-05,1.5383791543649695e-05,5.387869709597159e-06,2.2064312031425717e-06,6.389055009565061e-06,2.158915899407955e-06,1.6964756960564381e-06,1.5224280109761409e-06,1.5613902860354426e-05,1.766749577476697e-05,1.6327240278405301e-06,1.791891377908856e-06
140,5.055273229773561e-06,3.3027340976015955e-06,7.9991511699868e-06,8.167152088898389e-06,1.2350700420560027e-05,1.6139448061818678e-05,5.561476171977161e-06,2.1983088087662586e-06,6.455745204911532e-06,2.1638041806629285e-06,1.5189374959139186e-06,1.5278718629040559e-06,1.5653216210570837e-05,1.8271301158988e-05,1.6175050656463084e-06,1.7480245028750856e-06
141,5.1119956135070555e-06,3.416341488217174e-06,8.135163467292693e-06,7.954649926012018e-06,1.2545060642433598e-05,1.6864713431736573e-05,5.736730532993512e-06,2.1860751915978905e-06,6.525605228133001e-06,2.1770281179275654e-06,1.3611190725870585e-06,1.5411449182905503e-06,1.5597431684170384e-05,1.879374463632575e-05,1.6052139676921806e-06,1.7042082516401724e-06
142,5.1763543290711075e-06,3.543008495143912e-06,8.295475103374029e-06,7.734395128916297e-06,1.2694274144947192e-05,1.7552031072056468e-05,5.9092683816027926e-06,2.169224257243195e-06,6.600443935614933e-06,2.1976189180757914e-06,1.2217621731611707e-06,1.5608440440642414e-06,1.544539547399262e-05,1.9224155785009832e-05,1.5959544546228301e-06,1.6604884806997138e-06
143,5.250004743569702e-06,3.6837952658574966e-06,8.478229579928292e-06,7.510031462923388e-06,1.2793291586755674e-05,1.8197704796869455e-05,6.074163019906689e-06,2.1474548622165915e-06,6.681572784482247e-06,2.224478110197999e-06,1.0995315283193819e-06,1.585718531611963e-06,1.5199046751884592e-05,1.9555423127875767e-05,1.5896417605640268e-06,1.6171297242579016e-06
144,5.335116216145222e-06,3.8395214981662684e-06,8.68017724770143e-06,7.285770250539436e-06,1.2838948436143168e-05,1.8800656441204833e-05,6.225946118805853e-06,2.1207491088204303e-06,6.7693035602513536e-06,2.2564513413353784e-06,9.930224738256218e-07,1.6145560436745284e-06,1.4864462581618643e-05,1.978330530597425e-05,1.5860903217798832e-06,1.5745893700565446e-06
145,5.433956937244048e-06,4.010850915682322e-06,8.896703035974149e-06,7.06582356702484e-06,1.2830372506273819e-05,1.936052709081475e-05,6.359153302823847e-06,2.0893819152540747e-06,6.862668623859791e-06,2.2923476272867886e-06,9.00849680094333e-07,1.6461454385065902e-06,1.445163481934643e-05,1.990438446909718e-05,1.5851091462649564e-06,1.5334734824519456e-06
146,5.548351032753605e-06,4.198316713161538e-06,9.122017679201995e-06,6.853681531131177e-06,1.2768832170315821e-05,1.987576773683081e-05,6.469067971479587e-06,2.0538351494207522e-06,6.959444552127601e-06,2.3310980858219342e-06,8.217529361871144e-07,1.6793950336180383e-06,1.397338723194043e-05,1.9913901580528927e-05,1.58651179397708e-06,1.4944174918168733e-06
147,5.679307260567196e-06,4.402147294975422e-06,9.349782203848334e-06,6.6516588385783975e-06,1.2656827309669219e-05,2.0342410341483045e-05,6.552354829724702e-06,2.0146717555573965e-06,7.056623965763586e-06,2.3719931120612366e-06,7.546351474324552e-07,1.713387894923523e-06,1.3444068576865895e-05,1.9805490024909224e-05,1.5900679124240439e-06,1.457906522013399e-06
148,5.826964162601764e-06,4.622010495082663e-06,9.574086346670846e-06,6.460820534896372e-06,1.2496659481552703e-05,2.0754313371649706e-05,6.607507520836851e-06,1.9724749189026534e-06,7.151226074825019e-06,2.414682176333872e-06,6.98498293968487e-07,1.7472694523474772e-06,1.287827371990282e-05,1.9573814727454183e-05,1.5954630692253904e-06,1.4241544578128966e-06
149,5.990616613495074e-06,4.856844957069922e-06,9.790304037559187e-06,6.2811151285094096e-06,1.2289433233942451e-05,2.1104841154790752e-05,6.635071951622375e-06,1.9278342808426566e-06,7.241140431418654e-06,2.4588906671617155e-06,6.523406847434074e-07,1.7801618304025238e-06,1.2289576480515062e-05,1.9218542142940517e-05,1.6022306000211217e-06,1.3931014635097717e-06
150,6.168629843771236e-06,5.104765670097585e-06,9.995350543931683e-06,6.111670377859355e-06,1.2035344046270832e-05,2.1388694760481485e-05,6.637569369853918e-06,1.8812785772440224e-06,7.325805686887052e-06,2.504159587323575e-06,6.151098082774195e-07,1.8112332606968414e-06,1.1689602252439348e-05,1.8746937270043976e-05,1.6096628183275456e-06,1.3644918739696245e-06
151,6.358447457685454e-06,5.3630613734453664e-06,1.018734050202968e-05,5.951147683306865e-06,1.1734915239578483e-05,2.160271582798283e-05,6.619072111144957e-06,1.833240944615374e-06,7.406634479325887e-06,2.549857047993724e-06,5.857285870305753e-07,1.839829251604412e-06,1.1087843837665983e-05,1.8173542347026264e-05,1.616771717767299e-06,1.3379637177404854e-06
152,6.556864856705007e-06,5.6283894979035145e-06,1.036513739464687e-05,5.797821462339908e-06,1.1390129328249591e-05,2.1745625723551426e-05,6.5844755261365245e-06,1.7841826336173947e-06,7.48703883997365e-06,2.5953771503710374e-06,5.631230960458276e-07,1.8655662386717872e-06,1.0492066990292417e-05,1.7517216498535118e-05,1.6223105552975413e-06,1.31312580097494e-06
153,6.760364357138904e-06,5.897055130728207e-06,1.0528274453926028e-05,5.649315279506881e-06,1.1004904873922755e-05,2.181743770595871e-05,6.538635391821054e-06,1.7346980560408997e-06,7.571892394663198e-06,2.640223011363153e-06,5.462303725057328e-07,1.888345765560916e-06,9.908891212659017e-06,1.6797508119859968e-05,1.6248720607437785e-06,1.2896433396950078e-06
154,6.965301553913337e-06,6.165116899872528e-06,1.067720673994587e-05,5.502433354343416e-06,1.0585025925333685e-05,2.1819254213431046e-05,6.485607741841845e-06,1.6854195561139016e-06,7.666519219004298e-06,2.6838517681186263e-06,5.340351206575589e-07,1.908271317353632e-06,9.34432025546844e-06,1.6032735481075045e-05,1.6231067159343058e-06,1.2672871802171943e-06
155,7.1679960440037315e-06,6.428283535019437e-06,1.081338497137766e-05,5.35349984568397e-06,1.0137788985219381e-05,2.1753585211533062e-05,6.4281573135345136e-06,1.6368857534061955e-06,7.775684831130571e-06,2.7255685382277513e-06,5.256174856440194e-07,1.925524452092706e-06,8.80409032905446e-06,1.5240139252597766e-05,1.6160043830429604e-06,1.2458844491351355e-06
156,7.364843150480035e-06,6.681841495138967e-06,1.0938745310004049e-05,5.1991091132392015e-06,9.671547935684987e-06,2.1624775048000386e-05,6.367572856938054e-06,1.5895301459296442e-06,7.903127246437249e-06,2.7647156394819165e-06,5.201870652460958e-07,1.9403066989927965e-06,8.29377033054943e-06,1.4436401644685718e-05,1.6031094775225724e-06,1.225282029639619e-06
157,7.552462082791013e-06,6.9209068222123745e-06,1.1054710523557631e-05,5.03691441931115e-06,9.195187237527133e-06,2.143906516876806e-05,6.303776023856147e-06,1.5436816064579114e-06,8.051712279554184e-06,2.8009678711740064e-06,5.171347401230228e-07,1.952865335334924e-06,7.818677614361193e-06,1.36374411063759e-05,1.5846015431593996e-06,1.2054421116342042e-06
158,7.727833403274112e-06,7.141052534881544e-06,1.1161198703939037e-05,4.866173710731116e-06,8.71743829794878e-06,2.12041383758789e-05,6.235670493975551e-06,1.4995018120807009e-06,8.223738801767975e-06,2.8345569649628076e-06,5.160497972878459e-07,1.963475214523957e-06,7.3836435704946564e-06,1.2857860898407281e-05,1.5611948150775356e-06,1.1865432581414738e-06
159,7.88833682198225e-06,7.339001668597404e-06,1.1256269214700776e-05,4.687881947506461e-06,8.246093738716583e-06,2.092827959597413e-05,6.161557997941307e-06,1.4569328012892974e-06,8.420866413368026e-06,2.866492626164556e-06,5.166422209087723e-07,1.9723257423270256e-06,6.992685404201689e-06,1.211051358259308e-05,1.5338590270207773e-06,1.1689302751971647e-06
160,8.031510318840728e-06,7.512988599254016e-06,1.1336708871104417e-05,4.504389127453533e-06,7.787456016856817e-06,2.0619302830715033e-05,6.07945258233335e-06,1.4157217835791837e-06,8.643633829805424e-06,2.898634431377705e-06,5.186608683249169e-07,1.979478922581796e-06,6.64883793100406e-06,1.1406204400457845e-05,1.5035359328991994e-06,1.1529563260904034e-06
161,8.154480742485361e-06,7.662667143089552e-06,1.1399142535139952e-05,4.3186162826354695e-06,7.3463130871337296e-06,2.0283250958972552e-05,5.987372388217674e-06,1.3755425104383775e-06,8.890964730880102e-06,2.933342971820121e-06,5.218687932171396e-07,1.9850141696396917e-06,6.354190811054854e-06,1.0753469360077038e-05,1.470993106055515e-06,1.1388826181105514e-06
162,8.253524593407499e-06,7.788703286093788e-06,1.1440936341251413e-05,4.133324643012202e-06,6.926371082817521e-06,1.992310572435456e-05,5.883828239461763e-06,1.336149876501851e-06,9.160002368866754e-06,2.972905163969884e-06,5.260250147630031e-07,1.9892380038347394e-06,6.109836890494567e-06,1.0158407421371103e-05,1.4367849479886362e-06,1.126940164215114e-06
163,8.324345602737555e-06,7.892176893929531e-06,1.1460565119272867e-05,3.950869473697308e-06,6.530851131148124e-06,1.9538413065158475e-05,5.76850406277711e-06,1.2974767745811206e-06,9.446259229764644e-06,3.0191790187878158e-06,5.308808441870186e-07,1.9927434430991966e-06,5.915699986469565e-06,9.624599303300243e-06,1.4013097959963766e-06,1.117432551951396e-06
164,8.363051262395895e-06,7.973860249262283e-06,1.145763360257159e-05,3.7733960695635473e-06,6.1629713143644554e-06,1.9126575813419074e-05,5.642822607783182e-06,1.2596937622518693e-06,9.743865392017962e-06,3.073519127169175e-06,5.362123683770182e-07,1.9962331335612024e-06,5.770447829654778e-06,9.153155661269577e-06,1.364959724845354e-06,1.1107056073125678e-06
165,8.367337671305381e-06,8.033638430698445e-06,1.1432834004598298e-05,3.6031666186043016e-06,5.8261367531830445e-06,1.8685145337355382e-05,5.510062449018927e-06,1.2232644956793866e-06,1.0045933594031802e-05,3.1368141975376164e-06,5.418445305293663e-07,2.000247374797401e-06,5.671494140474549e-06,8.742865415022661e-06,1.3282868134199238e-06,1.1070568699928915e-06
166,8.33736110281129e-06,8.070504309537465e-06,1.1387857847897111e-05,3.4427860759311606e-06,5.5238149038866875e-06,1.8213486770912644e-05,5.374943910383191e-06,1.1889202142442763e-06,1.0345341096602515e-05,3.209591422765583e-06,5.476682771387656e-07,2.0049935315095405e-06,5.61500636088296e-06,8.39037785421543e-06,1.292087043097561e-06,1.1067109102844134e-06
167,8.275932273611983e-06,8.083229815533872e-06,1.132514983720611e-05,3.2952121448395433e-06,5.259189716086388e-06,1.7712936442876736e-05,5.242923722019109e-06,1.1575245276989837e-06,1.0635964323747672e-05,3.2921099521909923e-06,5.536614997966368e-07,2.010320264306216e-06,5.595976083532644e-06,8.090458306835823e-06,1.25731814984707e-06,1.1097970934935071e-06
168,8.188042749124497e-06,8.07126947437619e-06,1.1247588929142845e-05,3.1635637449409963e-06,5.034762831870412e-06,1.7186030026579087e-05,5.119549099821947e-06,1.129922957297648e-06,1.0913867042089159e-05,3.384367384811084e-06,5.59860205489123e-07,2.0157766201985214e-06,5.608495922866371e-06,7.836520267426863e-06,1.2249054610648814e-06,1.116283143369068e-06
169,8.080035009160895e-06,8.03526097488885e-06,1.1158338554168379e-05,3.0508477833962114e-06,4.852125800195515e-06,1.6635896623275323e-05,5.010010235424967e-06,1.1068375287667346e-06,1.1177869560519191e-05,3.4861561583542895e-06,5.662845401461878e-07,2.0207218722228325e-06,5.646256431091829e-06,7.621502521259737e-06,1.1956056569397524e-06,1.125954575443158e-06
170,7.958707875389796e-06,7.97676252473129e-06,1.106095395345717e-05,2.959766117767607e-06,4.711982319851152e-06,1.606637438480795e-05,4.918807272559649e-06,1.0888051868513704e-06,1.142928184236829e-05,3.5971957722539565e-06,5.728888557353698e-07,2.024527340274816e-06,5.703076694807563e-06,7.438769438363271e-06,1.170005213203687e-06,1.13849898375414e-06
171,7.830537914817503e-06,7.897413302339785e-06,1.09595670379752e-05,2.8927452483448136e-06,4.614345618915129e-06,1.5482731398763926e-05,4.849488535691554e-06,1.0761656374031423e-06,1.1670814493399887e-05,3.7170912991676844e-06,5.795596519224468e-07,2.0269127527226747e-06,5.773275229700717e-06,7.282618355508522e-06,1.1486006577666297e-06,1.1536254632472476e-06
172,7.70112237675001e-06,7.79811619547104e-06,1.0858863666643762e-05,2.8521206577922588e-06,4.5588461926736175e-06,1.489231032203762e-05,4.804514868641528e-06,1.0690788872137753e-06,1.190500537830723e-05,3.845072530181617e-06,5.861670802171774e-07,2.0282900362803243e-06,5.851827095598527e-06,7.148291647527718e-06,1.1318552307731608e-06,1.171107261452232e-06
173,7.574874642767734e-06,7.67882221423402e-06,1.0763661222593858e-05,2.8402079062762594e-06,4.5449152878107575e-06,1.4304284332880686e-05,4.785276266443087e-06,1.0675266071026094e-06,1.2133126683639667e-05,3.979741278510781e-06,5.926516801456751e-07,2.029875572855987e-06,5.934366039854663e-06,7.031778603191194e-06,1.1201584889850435e-06,1.1907411754635374e-06
174,7.454952320088228e-06,7.539110166863562e-06,1.0678117953437834e-05,2.859157644048459e-06,4.5716088442955475e-06,1.3728507130246703e-05,4.792232262813346e-06,1.0712868052295916e-06,1.2355263786371675e-05,4.1189641194213225e-06,5.990574967409864e-07,2.0335049495585447e-06,6.017120704549335e-06,6.929779782674139e-06,1.1137286980956672e-06,1.212297617410257e-06
175,7.343336706447262e-06,7.379204996707794e-06,1.0604850509192239e-05,2.910756447227534e-06,4.637290386389492e-06,1.317430128033789e-05,4.825108762600607e-06,1.0799111867527372e-06,1.2571063834422508e-05,4.259959758110938e-06,6.054691982361632e-07,2.0413160893179762e-06,6.096865216683997e-06,6.8397808650091756e-06,1.1125458987551925e-06,1.235477150288638e-06
176,7.240903557423344e-06,7.20070794926879e-06,1.0544312222556848e-05,2.996300716580699e-06,4.7394601922634346e-06,1.2649745324998666e-05,4.8830828133751264e-06,1.092738316717849e-06,1.2780402144454945e-05,4.399541775633065e-06,6.119391987263912e-07,2.0554713296531417e-06,6.170891997719006e-06,6.759771288986684e-06,1.1163371088615601e-06,1.2598483062691107e-06
177,7.1473494864099626e-06,7.006486200505325e-06,1.0494636924979844e-05,3.116517094025241e-06,4.874669531598898e-06,1.216126322241929e-05,4.964908069822884e-06,1.108968246623845e-06,1.2983812795144892e-05,4.5343279072177735e-06,6.185026041042509e-07,2.077956033474487e-06,6.236818056572303e-06,6.687564415449427e-06,1.1245976317945688e-06,1.2848019538196392e-06
178,7.061046651077096e-06,6.799811878689534e-06,1.0451938943836112e-05,3.271526014222079e-06,5.038459565742313e-06,1.1713474737973904e-05,5.068894779854146e-06,1.1277958451319714e-06,1.3182679630864726e-05,4.660896931907696e-06,6.252556924094861e-07,2.1104566975515835e-06,6.292179693310976e-06,6.620431012552645e-06,1.1366841692049855e-06,1.3096286841263218e-06
179,6.97911792510833e-06,6.583417239849413e-06,1.0410921415143126e-05,3.4609134741177072e-06,5.225439834517546e-06,1.13095721669629e-05,5.192740919158561e-06,1.148536401903267e-06,1.3379097125011379e-05,4.776140879237258e-06,6.323848840808797e-07,2.154353742490476e-06,6.3343501140998e-06,6.555527505343595e-06,1.1520135711978565e-06,1.33374096645174e-06
180,6.897892918169812e-06,6.3591010725357825e-06,1.0365612771736615e-05,3.6839125049799774e-06,5.429607368322794e-06,1.0951866825861126e-05,5.333412742835251e-06,1.1706439202563775e-06,1.3575451105766246e-05,4.877867741530065e-06,6.401050794678235e-07,2.2108201569524593e-06,6.361114802417722e-06,6.490713588523061e-06,1.1702392447293361e-06,1.3568649024348888e-06
181,6.813514794640142e-06,6.127935600292819e-06,1.0310091925253372e-05,3.939604902593886e-06,5.644914724049701e-06,1.0641789507343574e-05,5.487132542170015e-06,1.1936079096318024e-06,1.3773852697177324e-05,4.965257560033619e-06,6.485889116070664e-07,2.280984041234346e-06,6.371304526286085e-06,6.425116382898131e-06,1.1912247718774227e-06,1.379068811951481e-06
182,6.722396604106243e-06,5.890703497437558e-06,1.0239113851226037e-05,4.227016092851378e-06,5.865978192272123e-06,1.0379341442313879e-05,5.649314177718397e-06,1.2168703023422307e-06,1.397543722349047e-05,5.038671825130775e-06,6.57975295147968e-07,2.366142428296872e-06,6.36485355365634e-06,6.359212894241697e-06,1.214879363371892e-06,1.4007078506937959e-06
183,6.621532885375381e-06,5.648285560104491e-06,1.0148570731419253e-05,4.545019150303843e-06,6.088713522771875e-06,1.0162688313243466e-05,5.814554301048495e-06,1.2398919080532407e-06,1.4179758958386056e-05,5.098869815095467e-06,6.684249833169164e-07,2.4679526637494978e-06,6.342373924037589e-06,6.294673222781437e-06,1.241041280016194e-06,1.4223411637223603e-06
184,6.508840504715743e-06,5.401908285329929e-06,1.0035749299251862e-05,4.892105977709889e-06,6.310639371978726e-06,9.988384784096943e-06,5.976911930353209e-06,1.2622790328267276e-06,1.4384961564904716e-05,5.146388357069574e-06,6.801095403895438e-07,2.5884214225757745e-06,6.304655343097051e-06,6.234356335202039e-06,1.269447467663188e-06,1.4445732490828944e-06
185,6.383537695153488e-06,5.1531995631066045e-06,9.89940028393512e-06,5.266165989644377e-06,6.530636612688769e-06,9.852026510720946e-06,6.130283637783175e-06,1.2837805490369539e-06,1.4588892656083447e-05,5.181600819764927e-06,6.931345278163144e-07,2.7296202413797733e-06,6.252393393385011e-06,6.182443214809641e-06,1.299751952932249e-06,1.4678598705670033e-06
186,6.24637205856345e-06,4.9040243131217936e-06,9.739673231436625e-06,5.6643294183448075e-06,6.748174832221981e-06,9.748791124184052e-06,6.268480434941048e-06,1.3041322603495697e-06,1.4790324557655393e-05,5.205109820085427e-06,7.07503847186939e-07,2.893342591576449e-06,6.1862136855199805e-06,6.144270882459241e-06,1.3315592601709741e-06,1.4923886316401236e-06
187,6.099531642938582e-06,4.656159897140298e-06,9.557953550563805e-06,6.082851623660216e-06,6.962323852994722e-06,9.67345494320171e-06,6.385102859334604e-06,1.3229316824099057e-06,1.4989513826690099e-05,5.218050911631529e-06,7.231402006082796e-07,3.0809667525428997e-06,6.106867385934586e-06,6.125699765106536e-06,1.364499104880749e-06,1.5180927464181553e-06
188,5.946251953367409e-06,4.4110040286468846e-06,9.356607155364417e-06,6.517055242762408e-06,7.170997425123391e-06,9.61998030241529e-06,6.473849937749438e-06,1.3397210543319888e-06,1.5187912027413253e-05,5.2223034429743e-06,7.398948376604799e-07,3.293500841399247e-06,6.015422101847171e-06,6.132431109582372e-06,1.3983819551156925e-06,1.5447979133412158e-06
189,5.790281598814538e-06,4.169561510206777e-06,9.138616362823366e-06,6.961360013143996e-06,7.370703992687742e-06,9.581357061900045e-06,6.529446159057904e-06,1.3542292481463924e-06,1.5387146747864044e-05,5.220579362513535e-06,7.575361494233718e-07,3.5316764932308565e-06,5.913289712492913e-06,6.169742108648611e-06,1.4332789150126398e-06,1.572374978517713e-06
190,5.635374786013817e-06,3.932760799096351e-06,8.907022111299394e-06,7.409313315118578e-06,7.556778418630222e-06,9.549985702292332e-06,6.548468389608488e-06,1.3665202329799706e-06,1.5588127886858923e-05,5.216176202030206e-06,7.757791263004672e-07,3.79611377013378e-06,5.8020177355439715e-06,6.242585251471881e-06,1.4693765771721985e-06,1.600713984953714e-06
191,5.484850822541783e-06,3.7018052754712604e-06,8.664212784845417e-06,7.853499882244663e-06,7.7237733945511e-06,9.518016780429901e-06,6.529514026613779e-06,1.3768956214411038e-06,1.5791417895477485e-05,5.212348443949483e-06,7.943765057151515e-07,4.087464559603993e-06,5.682882979335827e-06,6.3556055956038776e-06,1.5067509787870693e-06,1.629546132676074e-06
192,5.341223590140032e-06,3.478182765131536e-06,8.4115581511758e-06,8.28551487627016e-06,7.865618922399766e-06,9.477420752813606e-06,6.472962767897849e-06,1.3857120934847649e-06,1.5998513233219797e-05,5.211706230232193e-06,8.13180029905167e-07,4.4062783112638044e-06,5.556450569252785e-06,6.512857923111992e-06,1.5452608210468754e-06,1.6583135460672924e-06
193,5.206069404099526e-06,3.2633502633291943e-06,8.149753140196017e-06,8.696457986704728e-06,7.975721374028877e-06,9.420415593337269e-06,6.380783221443175e-06,1.393316744797255e-06,1.6212425748693384e-05,5.216115236323509e-06,8.32104139329428e-07,4.752630122614624e-06,5.422423503417718e-06,6.717588337495131e-06,1.5845694298153613e-06,1.6861839192012625e-06
194,5.080270690974739e-06,3.0584714126643797e-06,7.87945929254449e-06,9.078004350050114e-06,8.047641292311984e-06,9.340552504798979e-06,6.2564571283924995e-06,1.400047384224297e-06,1.6436863240039285e-05,5.226922914811657e-06,8.510471409575624e-07,5.1257911534603375e-06,5.2799924491610145e-06,6.972566777954658e-06,1.624200830544153e-06,1.7121658384274813e-06
195,4.9644007816770305e-06,2.864375434828069e-06,7.601810707687634e-06,9.423478940590127e-06,8.076343215230369e-06,9.233840649211991e-06,6.104773098128004e-06,1.4061901714325073e-06,1.667478113200339e-05,5.2449785639810505e-06,8.698328122792502e-07,5.524019407833712e-06,5.128473911854431e-06,7.28084103429682e-06,1.6635543519162001e-06,1.735259661519633e-06
196,4.858865806055883e-06,2.6815792797476376e-06,7.318812586724134e-06,9.728382747400659e-06,8.059268472358614e-06,9.099176932491553e-06,5.9313025364046354e-06,1.4119589456684727e-06,1.692728448247231e-05,5.2704739287496335e-06,8.881747857821947e-07,5.94440497024543e-06,4.9678517033268075e-06,7.646267308778366e-06,1.7018852999632915e-06,1.7545782879648044e-06
197,4.7637111871745e-06,2.510276802991789e-06,7.033578299315158e-06,9.990260625165759e-06,7.996751879411771e-06,8.937988881899602e-06,5.7416569630500625e-06,1.4176145794025726e-06,1.7193188071596395e-05,5.303003012594324e-06,9.056647655601335e-07,6.382793655641009e-06,4.798965110539459e-06,8.073412902720116e-06,1.7383203931733526e-06,1.7693881474226093e-06
198,4.678295198976508e-06,2.3503194061484138e-06,6.750215081962164e-06,1.020806925319358e-05,7.891847312160044e-06,8.753478651906514e-06,5.540838127081214e-06,1.4236644511450984e-06,1.7469084233626518e-05,5.341782987204784e-06,9.218159663924104e-07,6.833858383367128e-06,4.623270351895271e-06,8.566979266497658e-06,1.771903705694467e-06,1.7791203672455783e-06
199,4.601068790484696e-06,2.201206687239949e-06,6.473385034988265e-06,1.0381244405969265e-05,7.749778626662401e-06,8.549845979547119e-06,5.332998645067706e-06,1.430911133901475e-06,1.7749658160386643e-05,5.385678544494716e-06,9.36162822787385e-07,7.2913402474862214e-06,4.442419448772435e-06,9.131152890060719e-06,1.801622024834172e-06,1.783430141255717e-06
200,4.529647875801599e-06,2.062136614306234e-06,6.20774018415544e-06,1.0508685847870789e-05,7.577204436089053e-06,8.331632378875006e-06,5.121624775991119e-06,1.4402686721354834e-06,1.8027785937433876e-05,5.432992889370547e-06,9.483318478306352e-07,7.748388553571372e-06,4.258023516939879e-06,9.76920065002871e-06,1.8264563357696329e-06,1.782259531822536e-06
201,4.461282911651517e-06,1.932168393275695e-06,5.957392361222545e-06,1.0588101258596198e-05,7.381441662523722e-06,8.103132175186037e-06,4.9097952691539614e-06,1.4525281910191564e-06,1.8294323177004324e-05,5.481331020393625e-06,9.580212940412659e-07,8.197852782558248e-06,4.07159485481201e-06,1.0483348607769802e-05,1.8455149532102324e-06,1.775817194041615e-06
202,4.393566570440045e-06,1.8104609044706222e-06,5.7255114475618575e-06,1.0616251375537969e-05,7.1697250005555894e-06,7.86780589954168e-06,4.700244156613292e-06,1.4682447308817895e-06,1.8538679574641634e-05,5.527849953494143e-06,9.649884460628976e-07,8.632375337619691e-06,3.884519432104595e-06,1.1274720879082132e-05,1.858162349312458e-06,1.7644773688298814e-06
203,4.324980792814786e-06,1.6964496032880194e-06,5.514123946612027e-06,1.0590088985486279e-05,6.948572551950537e-06,7.627805837665166e-06,4.495286509166549e-06,1.4877361172407117e-06,1.875094775101442e-05,5.569856935898514e-06,9.691690379043013e-07,9.044162516755546e-06,3.6982317787354146e-06,1.214315808123808e-05,1.8640497656609043e-06,1.748648730653104e-06
204,4.255035355733688e-06,1.5898226877541827e-06,5.324089338472076e-06,1.0508149783292021e-05,6.72345054812003e-06,7.3838458151693365e-06,4.296790326684924e-06,1.5111082954712717e-06,1.8924346999341167e-05,5.605294614158841e-06,9.708356567300016e-07,9.424617314697584e-06,3.5145706225870893e-06,1.308711178294316e-05,1.8631191919252703e-06,1.728685597783079e-06
205,4.184103615475183e-06,1.4903363149226984e-06,5.1551683774304056e-06,1.037157564968018e-05,6.498863966609747e-06,7.1354680666791744e-06,4.1062624403556625e-06,1.5382600567310478e-06,1.9056361368693838e-05,5.632659386073863e-06,9.705897884317567e-07,9.764522385032283e-06,3.33582742707962e-06,1.4104020703755299e-05,1.8556598386307728e-06,1.7049234160754355e-06
206,4.113160962454334e-06,1.397706617805938e-06,5.006299642136843e-06,1.0184475346246464e-05,6.278622843583539e-06,6.881541083938013e-06,3.9249802944962635e-06,1.5688860955182448e-06,1.914840308302879e-05,5.650439023147545e-06,9.691742895824783e-07,1.005513071450023e-05,3.164413263528718e-06,1.5191204427624126e-05,1.8423028831639666e-06,1.6777802972229686e-06
207,4.043447156234313e-06,1.3117053469631514e-06,4.876239568161582e-06,9.95353009441182e-06,6.065960611343973e-06,6.620890766349647e-06,3.7541033741778913e-06,1.6025358581496614e-06,1.9204719260051567e-05,5.656729449166308e-06,9.672697384750628e-07,1.0289424991610828e-05,3.00265730779677e-06,1.634671582834035e-05,1.8238365053857837e-06,1.6477626701613257e-06
208,3.976056820155254e-06,1.2323041846933437e-06,4.7642722323702545e-06,9.686929069197374e-06,5.863550652113838e-06,6.352986935821494e-06,3.594763620393992e-06,1.6386901739716486e-06,1.923113789110571e-05,5.649470292438694e-06,9.653812064291638e-07,1.0462428387537238e-05,2.8528765672329223e-06,1.756939151542648e-05,1.8009783226510523e-06,1.615417049575078e-06
209,3.9117335933166755e-06,1.1596781393425506e-06,4.67049820886973e-06,9.39296546089538e-06,5.673615219264476e-06,6.078439110889878e-06,3.448091463399547e-06,1.6767329654360255e-06,1.923377176256856e-05,5.62699815898295e-06,9.63807440898426e-07,1.0570322855955226e-05,2.7173676817043003e-06,1.8857772335425387e-05,1.7743012568000053e-06,1.5813551982948193e-06
210,3.851038794516113e-06,1.0940759638903508e-06,4.595634938301376e-06,9.078845354655663e-06,5.498083082598305e-06,5.799143199740276e-06,3.3150909860252386e-06,1.715840932927735e-06,1.9217544264629726e-05,5.588473365844208e-06,9.626499277103907e-07,1.0609566959244167e-05,2.5982808352095003e-06,2.0208529657308383e-05,1.7442711451703851e-06,1.5462375862345882e-06
211,3.7946069511560666e-06,1.0357116586448106e-06,4.540652234467576e-06,8.750117367036426e-06,5.338603752637507e-06,5.518227406787977e-06,3.196462730043782e-06,1.7549363685911461e-06,1.9184843670162965e-05,5.534045191693759e-06,9.61838422572468e-07,1.05774474750821e-05,2.4975935541172007e-06,2.1615580643062215e-05,1.7112778247526858e-06,1.5106355403151392e-06
212,3.743266524813775e-06,9.847486263475637e-07,4.506521044841569e-06,8.410616019027481e-06,5.1963719172996205e-06,5.239952554752732e-06,3.0926531755092948e-06,1.7927766370206886e-06,1.913508429631182e-05,5.464725824484534e-06,9.61192340439626e-07,1.0473771611683567e-05,2.417107460494214e-06,2.307022789446899e-05,1.6756842292206785e-06,1.4749753681468074e-06
213,3.6981499209156465e-06,9.413160600087032e-07,4.494102403368424e-06,8.062618800280261e-06,5.071896549266041e-06,4.969456197428428e-06,3.0041703056203815e-06,1.8281606577931896e-06,1.906544961355831e-05,5.381949748569429e-06,9.60506231943008e-07,1.03020549242595e-05,2.35833208922111e-06,2.45616269481628e-05,1.6379113483459877e-06,1.4396972210736871e-06
214,3.660801579443184e-06,9.0554402238741e-07,4.504047226662698e-06,7.707188931563432e-06,4.964854682905286e-06,4.7122422326417675e-06,2.9318133446623884e-06,1.8601510183621292e-06,1.897231828534109e-05,5.287000732247762e-06,9.595750687438585e-07,1.0069162810008993e-05,2.32235607515403e-06,2.607714723296647e-05,1.598485160533978e-06,1.4054417609449417e-06
215,3.6330543956594883e-06,8.776053327938963e-07,4.5366171058674486e-06,7.344783646221314e-06,4.874070694601875e-06,4.473633636379531e-06,2.8765276075924654e-06,1.8881876438091472e-06,1.8852756770769258e-05,5.180732151288263e-06,9.581791259728607e-07,9.78365349822414e-06,2.3097982337071494e-06,2.7602839029715298e-05,1.55804392784082e-06,1.3730195931711708e-06
216,3.616624956062572e-06,8.576843563811433e-07,4.591515305146169e-06,6.97603779589164e-06,4.797587682849292e-06,4.25844535236098e-06,2.839016253678052e-06,1.9120751936046794e-06,1.870565632459988e-05,5.063704668675761e-06,9.56140749541844e-07,9.453926310566032e-06,2.3208178502428368e-06,2.912423227382273e-05,1.5173445635408302e-06,1.343198173520079e-06
217,3.6127189449520623e-06,8.459119951561718e-07,4.66791838589283e-06,6.602498752290487e-06,4.732811353221506e-06,4.0708377207478976e-06,2.8194249043121594e-06,1.9318931722850006e-06,1.853238822332259e-05,4.9364209064946885e-06,9.534330388805254e-07,9.087290675485448e-06,2.3551546553171675e-06,3.0627452132044976e-05,1.4772030945244534e-06,1.3165200094171905e-06
218,3.6218766845652104e-06,8.424170830012802e-07,4.764714698560518e-06,6.227048286874942e-06,4.676777788499543e-06,3.914220839367091e-06,2.8172285489766244e-06,1.9478383275915983e-06,1.8337094523088694e-05,4.799544675017577e-06,9.502502214437094e-07,8.690112364582846e-06,2.4121765568923954e-06,3.210056949633905e-05,1.4383470182741987e-06,1.2932382056235306e-06
219,3.643992035846586e-06,8.474892094870781e-07,4.880654042372699e-06,5.853799156080673e-06,4.6265594347331205e-06,3.7912701398292523e-06,2.831255693760756e-06,1.9600572280193627e-06,1.8126570065541927e-05,4.65418223900104e-06,9.47001289506458e-07,8.2683515917714e-06,2.4909710783190005e-06,3.3534953741617035e-05,1.4012971838346604e-06,1.2733258116413122e-06
220,3.6784684618107036e-06,8.616592325801042e-07,5.014235334609644e-06,5.487468694942012e-06,4.5796380016783305e-06,3.7041156908824218e-06,2.8597613918758405e-06,1.968583917359413e-06,1.7909496320194047e-05,4.502061820885622e-06,9.442075115720126e-07,7.827984044582436e-06,2.5905572952973196e-06,3.4925872051040695e-05,1.3663462867283375e-06,1.2565099247348563e-06
221,3.7245371760915705e-06,8.856115372091374e-07,5.163667496369748e-06,5.13254692938746e-06,4.534040846387735e-06,3.6545242972439436e-06,2.900550915866615e-06,1.9733833476086396e-06,1.7695035836390932e-05,4.345421012641487e-06,9.423466560888416e-07,7.37522609306612e-06,2.7101729835378886e-06,3.6271454617742444e-05,1.3335920538913272e-06,1.2422979365437866e-06
222,3.781509049083693e-06,9.200498596500543e-07,5.3271979510119104e-06,4.792723181193277e-06,4.4883138590903135e-06,3.643925156809344e-06,2.9512740690507744e-06,1.9744575201326767e-06,1.74912323771239e-05,4.186615214480156e-06,9.417594586977582e-07,6.916546778581696e-06,2.849460736342454e-06,3.7570105770629994e-05,1.3029697868382108e-06,1.230010426629165e-06
223,3.848743477754848e-06,9.655978159295949e-07,5.5035501952748215e-06,4.4707906928811855e-06,4.441588067266074e-06,3.673455479998694e-06,3.0099004664182767e-06,1.972041124583314e-06,1.7303730258660982e-05,4.027620020371896e-06,9.426939534101767e-07,6.458461742455165e-06,3.0083878431899576e-06,3.881739653286256e-05,1.2742813808866904e-06,1.218882496182566e-06
224,3.925486994753383e-06,1.0227192280652692e-06,5.692163539496677e-06,4.168843801767861e-06,4.393743196128054e-06,3.744169674028512e-06,3.075087998029051e-06,1.966816170307739e-06,1.7134992902255232e-05,3.869695984968731e-06,9.454376171105451e-07,6.007180768649234e-06,3.1869563320974356e-06,4.000342061182008e-05,1.2472769547530997e-06,1.2082437376047219e-06
225,4.010818574557988e-06,1.0916795381211509e-06,5.893251764806168e-06,3.888464687544347e-06,4.34533025476889e-06,3.857242623014925e-06,3.1461622858905987e-06,1.9599509999740317e-06,1.6984076817518748e-05,3.7133692772187748e-06,9.503928061820479e-07,5.56823484770142e-06,3.3850499771876637e-06,4.1111526576592206e-05,1.2217530932443647e-06,1.1976807351902018e-06
226,4.103713001795207e-06,1.1725745790517224e-06,6.107764922723834e-06,3.630795173078101e-06,4.297164701043903e-06,4.01401940544677e-06,3.2227478249297338e-06,1.9528926280050965e-06,1.6847207520993658e-05,3.5586629731947627e-06,9.580144831372775e-07,5.146260711769957e-06,3.602566959095106e-06,4.2119674632051416e-05,1.1975466180655988e-06,1.1870977321795685e-06
227,4.203105732928522e-06,1.2653796044205859e-06,6.3372336340836495e-06,3.3965922815357438e-06,4.250106844829595e-06,4.21595591386885e-06,3.304293851454518e-06,1.9470645695230412e-06,1.671914954120659e-05,3.4054597584092344e-06,9.686805217464926e-07,4.7450165639717055e-06,3.8394864375684125e-06,4.300498360899956e-05,1.174480243282848e-06,1.1766903809421928e-06
228,4.307835761736485e-06,1.3699620756744637e-06,6.5834200297360285e-06,3.1863804025293786e-06,4.205343485768061e-06,4.464463689322301e-06,3.3897201076789262e-06,1.943678681386186e-06,1.659469749660081e-05,3.2538983863251088e-06,9.826036547814133e-07,4.3674473504777375e-06,4.095606550901793e-06,4.3750226741290036e-05,1.152432070729684e-06,1.1668561138156516e-06
229,4.416449046996765e-06,1.4861256541006196e-06,6.847766448175307e-06,3.000661644517895e-06,4.1646984542875014e-06,4.760620966855311e-06,3.4773242429960495e-06,1.9437198095016564e-06,1.646953449683283e-05,3.104643677834396e-06,9.998117673174577e-07,4.015640412554318e-06,4.370166478228628e-06,4.434952815051702e-05,1.1314858719302067e-06,1.1580405592564005e-06
230,4.52716086635665e-06,1.613758361964128e-06,7.130826618952791e-06,2.8399929485571704e-06,4.1304829621991e-06,5.104875619050063e-06,3.5649636474731472e-06,1.94797950550611e-06,1.6340305659344423e-05,2.9588352487162184e-06,1.0201571568441687e-06,3.6907915157549127e-06,4.6616130985717475e-06,4.481029350202584e-05,1.1119507768981089e-06,1.1505713519704314e-06
231,4.6382676354761e-06,1.752954213330042e-06,7.432038037119933e-06,2.7048337630678064e-06,4.104972561646485e-06,5.496936825239978e-06,3.6503082680321537e-06,1.9570258876243963e-06,1.620427851174111e-05,2.8177044471339857e-06,1.0433194854623786e-06,3.393324663746272e-06,4.967493287327531e-06,4.514997558575705e-05,1.0942075951073788e-06,1.1445588381052663e-06
232,4.748721438178477e-06,1.903966324103566e-06,7.750036165793437e-06,2.5953730925046067e-06,4.08988888968262e-06,5.935807131545208e-06,3.7309047968949854e-06,1.9711396380078766e-06,1.60590239368259e-05,2.6821603277763757e-06,1.0687999021684803e-06,3.1231141656448193e-06,5.284397895280857e-06,4.538926877130841e-05,1.0785612457655876e-06,1.1398909012899229e-06
233,4.858364709523991e-06,2.0670579211518677e-06,8.083327235294765e-06,2.511520329991343e-06,4.086195913010631e-06,6.419746592622696e-06,3.804162668203188e-06,1.9902581447203583e-06,1.5902290761721142e-05,2.552701621058543e-06,1.0959464972100351e-06,2.8797203925145166e-06,5.608054476010877e-06,4.554607511224637e-05,1.065227617653493e-06,1.136295908010159e-06
234,4.967786435511422e-06,2.2423572645156363e-06,8.430988778162286e-06,2.4529299642372405e-06,4.094260723586714e-06,6.946225816293486e-06,3.867651205831765e-06,2.013913888709119e-06,1.5732031907729183e-05,2.429636834829257e-06,1.1240367265299284e-06,2.6626029869230145e-06,5.933560555366471e-06,4.563405700637643e-05,1.0543742785294923e-06,1.1334205531577662e-06
235,5.078113335712407e-06,2.429747342296567e-06,8.793055959657522e-06,2.4190043881979722e-06,4.114169219447095e-06,7.51226830045194e-06,3.919739647970151e-06,2.0411866218747382e-06,1.5546480810776064e-05,2.313272031732053e-06,1.1523373627876028e-06,2.4712335350670235e-06,6.255536469443394e-06,4.56653683541244e-05,1.0460910560221467e-06,1.130859672154292e-06
236,5.190937430618056e-06,2.628836056870871e-06,9.170245838850557e-06,2.4090118941126866e-06,4.145918665594044e-06,8.115311968360756e-06,3.9601955513006995e-06,2.0707065983364452e-06,1.5344025433039434e-05,2.2039709420712387e-06,1.1800566004557402e-06,2.3050543495214276e-06,6.56838642965498e-06,4.565414905360265e-05,1.0403145126821154e-06,1.128119714526391e-06
237,5.3082935283418565e-06,2.8389840808520488e-06,9.563050503072728e-06,2.4222694351614816e-06,4.1893420730726385e-06,8.754001019848929e-06,3.990423578365888e-06,2.1007440993954094e-06,1.5122565485319202e-05,2.102259622833968e-06,1.2062579974679736e-06,2.1633934081140523e-06,6.867065845371919e-06,4.5617885901351986e-05,1.036815736388455e-06,1.1245860612463163e-06
238,5.432436885029028e-06,3.059253655716144e-06,9.970826814507593e-06,2.4582297422999993e-06,4.243882224336408e-06,9.42815850594681e-06,4.013243516563803e-06,2.1294487066335897e-06,1.4878710900900305e-05,2.0088978636417947e-06,1.2298826639318827e-06,2.045491568926357e-06,7.147812528670941e-06,4.5575306110152854e-05,1.0352753768879515e-06,1.119572653601388e-06
239,5.565399645245586e-06,3.288296422792815e-06,1.039142518759419e-05,2.5164809814146056e-06,4.30853751803652e-06,1.0137878527946876e-05,4.0322601013598335e-06,2.155211606154845e-06,1.4607917705007265e-05,1.9247378342849137e-06,1.2499009339394605e-06,1.9506487594794e-06,7.407887353759874e-06,4.5541727186740704e-05,1.0353555653134532e-06,1.1124423987106623e-06
240,5.708756784434252e-06,3.5243986958872332e-06,1.0821177676659554e-05,2.5967262964737122e-06,4.382075083080709e-06,1.0882546190832644e-05,4.051121893433338e-06,2.17694352351852e-06,1.4305845670393299e-05,1.8505174183769944e-06,1.2654733009090507e-06,1.8783464243883872e-06,7.644564475069624e-06,4.552486246389623e-05,1.0367095296395576e-06,1.1027466062799555e-06
241,5.863855270769908e-06,3.765748095681641e-06,1.1254880910652855e-05,2.6987261783332117e-06,4.463156617566671e-06,1.1660627979111766e-05,4.0731274596376445e-06,2.1940627556893908e-06,1.3969808390939337e-05,1.7868322005994707e-06,1.2760371930070597e-06,1.8282011370785366e-06,7.8544391873457e-06,4.5522928043799424e-05,1.0390181480404927e-06,1.0903487088213834e-06
242,6.032064259365114e-06,4.010689821347754e-06,1.1685877155874865e-05,2.8221805938933636e-06,4.550155308786733e-06,1.2470052038035279e-05,4.101300024045028e-06,2.2062222494830644e-06,1.3599384499492553e-05,1.7342454329185762e-06,1.2813326572382667e-06,1.7997829068542917e-06,8.033517856749432e-06,4.552463019103058e-05,1.042112029128833e-06,1.0754855319976185e-06
243,6.214576377060378e-06,4.257718301815399e-06,1.2106477805081347e-05,2.9665884110531264e-06,4.641030499441455e-06,1.3308269155985306e-05,4.13854371837594e-06,2.213026904913075e-06,1.3196369604015982e-05,1.6933152430279172e-06,1.2813807100658962e-06,1.7924676186542553e-06,8.177984146724755e-06,4.551105443067645e-05,1.0460307552918917e-06,1.0587087908576162e-06
244,6.411938131872095e-06,4.505198602841642e-06,1.250869490072379e-05,3.1311133128547676e-06,4.733646325791509e-06,1.4171560280471815e-05,4.187542773874872e-06,2.213976112124476e-06,1.276452765152616e-05,1.6644899148590868e-06,1.2764408184962019e-06,1.8054029930424504e-06,8.285441508836922e-06,4.545981618067004e-05,1.0509247430799451e-06,1.040717956265984e-06
245,6.623848940973421e-06,4.751082691999572e-06,1.2885135377939703e-05,3.3144802299288207e-06,4.8262650220577094e-06,1.5054077672304432e-05,4.250499540576802e-06,2.208640548013894e-06,1.2309162554087663e-05,1.648004309126495e-06,1.2670088660244287e-06,1.8375350658730864e-06,8.355941448874453e-06,4.534969572264493e-05,1.056927562914557e-06,1.0222183016828387e-06
246,6.84944348676352e-06,4.992926961181495e-06,1.322991835099645e-05,3.5150138942022516e-06,4.917634633885613e-06,1.5947601095143862e-05,4.32903179714523e-06,2.1968829174597507e-06,1.1836232056512947e-05,1.6438351455516566e-06,1.2538247390340664e-06,1.8876139718011353e-06,8.391824385995642e-06,4.516305696584092e-05,1.064113133410975e-06,1.00389923186784e-06
247,7.087738036730737e-06,5.2282208928233865e-06,1.3539314166529077e-05,3.7308451756595058e-06,5.006657897097359e-06,1.6842672712181566e-05,4.424406981641581e-06,2.178920125218694e-06,1.1351067474777439e-05,1.651696738020332e-06,1.237776938747165e-06,1.9541885518575636e-06,8.396500602501315e-06,4.488507866739042e-05,1.0725399537160781e-06,9.864361034321384e-07
248,7.337876517291814e-06,5.454787101114807e-06,1.3811741820745347e-05,3.9600429367038125e-06,5.092248995781855e-06,1.7730632039491847e-05,4.537913354805421e-06,2.155158903448663e-06,1.0857459337498182e-05,1.6710730223518606e-06,1.2197252283652749e-06,2.03563419257248e-06,8.373606308925711e-06,4.450056879734133e-05,1.0823129416004884e-06,9.704364007302008e-07
249,7.599123402737631e-06,5.671084183099414e-06,1.4046959601844037e-05,4.200465273602621e-06,5.1736271244825585e-06,1.8605102266816095e-05,4.670931833575532e-06,2.1259355914997095e-06,1.0357748466170682e-05,1.7012377032756137e-06,1.2003809414193222e-06,2.130152372788807e-06,8.327197444765993e-06,4.3990704075686646e-05,1.093574903557643e-06,9.564121755529036e-07
250,7.870680268154518e-06,5.876245432736058e-06,1.4244638440877757e-05,4.449439918174293e-06,5.250609830677624e-06,1.9461817578664758e-05,4.824591522629237e-06,2.0914393795925523e-06,9.853686512358924e-06,1.7412144823351525e-06,1.1802910459754766e-06,2.235723360695115e-06,8.262052172979522e-06,4.3333526641183706e-05,1.1064702876048023e-06,9.448192105285451e-07
251,8.151347500636087e-06,6.069671059926045e-06,1.4403074850244203e-05,4.7035395247613706e-06,5.3236103608828705e-06,2.0296951167658837e-05,4.999466486641439e-06,2.051957148143352e-06,9.347521687050854e-06,1.789729168825282e-06,1.1598763123660965e-06,2.3500947690823195e-06,8.183455924438032e-06,4.250968283207516e-05,1.1211544433946741e-06,9.361018645284041e-07
252,8.439060113253004e-06,6.250378522522301e-06,1.451891941369882e-05,4.958641749800528e-06,5.393417388287324e-06,2.110537312742406e-05,5.195719281268992e-06,2.0082346187429352e-06,8.84284585807488e-06,1.8452610357065783e-06,1.1394673166079933e-06,2.4708232445598754e-06,8.096805903396263e-06,4.150952198321442e-05,1.1377953093758907e-06,9.30706543883722e-07
253,8.73050155645374e-06,6.4165578129954996e-06,1.4587928469560713e-05,5.2102638030229e-06,5.46083284016814e-06,2.1880682852012447e-05,5.413513813745605e-06,1.9616564517805886e-06,8.34462974717716e-06,1.9061793278193487e-06,1.1192994704376871e-06,2.595353370212491e-06,8.007203928434018e-06,4.033623984888973e-05,1.1565301567986493e-06,9.290592606006316e-07
254,9.021143887718088e-06,6.5655164648596746e-06,1.4606074418957252e-05,5.453950290074729e-06,5.526430412515778e-06,2.261728650635372e-05,5.653328083133138e-06,1.914137999218753e-06,7.858346913715457e-06,1.9708076224713156e-06,1.099492875290007e-06,2.721123235545938e-06,7.91900851185441e-06,3.900301051991168e-05,1.177407306879552e-06,9.315309291785348e-07
255,9.30579282419618e-06,6.694054638857023e-06,1.4570610562848653e-05,5.685442648575535e-06,5.590802478042715e-06,2.3312490689692275e-05,5.915974412851149e-06,1.8678174106785136e-06,7.389099493011049e-06,2.037436346374018e-06,1.0800559339452114e-06,2.8456450959569754e-06,7.835731609281073e-06,3.752640187555388e-05,1.2003423542601711e-06,9.384336392740632e-07
256,9.579266253156969e-06,6.79914043435724e-06,1.4480979347062597e-05,5.900497041733684e-06,5.655035431910756e-06,2.3966355256561924e-05,6.202266676283801e-06,1.824741837003774e-06,6.941531145410343e-06,2.1044404617476136e-06,1.0608885297595707e-06,2.966565785298597e-06,7.760469192585087e-06,3.592178416882274e-05,1.2251247772976098e-06,9.500232683977559e-07
257,9.836830794791349e-06,6.87831437326839e-06,1.4339364127756997e-05,6.094569058870771e-06,5.720689475310466e-06,2.4579360237900937e-05,6.512536314039596e-06,1.7866889463750282e-06,6.52003740208726e-06,2.1704509421335694e-06,1.0417896881449072e-06,3.0817654842166118e-06,7.696209740419015e-06,3.420443862366899e-05,1.2514604609394122e-06,9.664665018475874e-07
258,1.0074338324993006e-05,6.9294000111072516e-06,1.415064408854373e-05,6.262966902958832e-06,5.789169669932018e-06,2.5150725712493847e-05,6.846379538536387e-06,1.7551247469619132e-06,6.128549880072207e-06,2.2344995036730193e-06,1.0225011506529623e-06,3.189467273965174e-06,7.64549007182287e-06,3.2393481423940534e-05,1.2789859925352773e-06,9.878084687568954e-07
259,1.0288181381877229e-05,6.949961249853206e-06,1.392169565573777e-05,6.4017399049380856e-06,5.8611042406409894e-06,2.567924735062674e-05,7.202619013343027e-06,1.731260518930661e-06,5.770093906566062e-06,2.2961218081254475e-06,1.002771918575837e-06,3.2883083163245936e-06,7.609844409595479e-06,3.0513375714628826e-05,1.3072461970808801e-06,1.0139625350678642e-06
260,1.0475221767114957e-05,6.937348796873189e-06,1.3660249861618335e-05,6.508716934102591e-06,5.936129886661439e-06,2.6164246279403493e-05,7.579176885105464e-06,1.716167875796731e-06,5.446603286361957e-06,2.355273574597821e-06,9.824575219229429e-07,3.377400384088664e-06,7.589709371285606e-06,2.8591526485237403e-05,1.335656561121579e-06,1.04470269913021e-06
261,1.0632827620930756e-05,6.889482082845587e-06,1.3373721186617866e-05,6.5839942163640465e-06,6.0130403775250835e-06,2.6604221011832487e-05,7.973041046156757e-06,1.7108550651859014e-06,5.1591114243934e-06,2.4120463569840164e-06,9.616332392423827e-07,3.456387748301241e-06,7.584829701954496e-06,2.6654727364874493e-05,1.3634650234842729e-06,1.0796782560976232e-06
262,1.0759012027079512e-05,6.805683817161388e-06,1.3068444480183539e-05,6.629691473397595e-06,6.090228810450322e-06,2.699524230150017e-05,8.380637905844732e-06,1.7162308781319681e-06,4.908111909613188e-06,2.4664911273018534e-06,9.406063095870321e-07,3.525440991045413e-06,7.594795799800753e-06,2.4727779902269734e-05,1.3897630830220439e-06,1.1184690796557205e-06
263,1.0852484155135105e-05,6.687004050743841e-06,1.2749456733666463e-05,6.649133289521821e-06,6.166195371254995e-06,2.733162986714613e-05,8.798228872587142e-06,1.7329896520910483e-06,4.693792551273697e-06,2.5186933800399883e-06,9.198018121680453e-07,3.5851438522027734e-06,7.619384177773932e-06,2.2834013619648536e-05,1.4135619903137625e-06,1.1606615284809935e-06
264,1.0912417820571135e-05,6.536076349499162e-06,1.2420457700174876e-05,6.645834226804042e-06,6.239755264005012e-06,2.7607799945305934e-05,9.221764170445686e-06,1.7615053396809071e-06,4.516342070551647e-06,2.5688552512294435e-06,8.99627380889265e-07,3.6362720836568057e-06,7.658520699593083e-06,2.099518336369084e-05,1.4338615631598075e-06,1.2059118992257746e-06
265,1.0937888873969994e-05,6.356753188751856e-06,1.2083554813521157e-05,6.622778858018765e-06,6.309874329980854e-06,2.7819370524133726e-05,9.646368292403504e-06,1.8017888523705552e-06,4.3765606559860885e-06,2.6172958584343415e-06,8.804055246029362e-07,3.679477162122248e-06,7.711896689136869e-06,1.923047578286331e-05,1.4497164653851185e-06,1.2539445853596216e-06
266,1.0927099263327203e-05,6.1535646588885e-06,1.173913832741774e-05,6.5822279109061475e-06,6.375280832745918e-06,2.796354328409265e-05,1.0066104624686298e-05,1.853503372419446e-06,4.276159982693592e-06,2.6645146631368606e-06,8.623647719887251e-07,3.7149731136811417e-06,7.778512142884177e-06,1.75560166496084e-05,1.4604456242260762e-06,1.3044557737490282e-06
267,1.0876802106144422e-05,5.931032856678342e-06,1.1386491315697034e-05,6.525843812370495e-06,6.434007441908529e-06,2.8039234610910178e-05,1.0474130011319158e-05,1.915993056877093e-06,4.2173416641311705e-06,2.711210413877743e-06,8.45632217931875e-07,3.7423890831302998e-06,7.856346547323153e-06,1.5984852955930836e-05,1.4659551931224551e-06,1.356981697002929e-06
268,1.0782593561823806e-05,5.693271726123836e-06,1.1024858075818595e-05,6.454719394215501e-06,6.483137977503468e-06,2.8046541720548958e-05,1.086282047463633e-05,1.988297515654944e-06,4.202256441268556e-06,2.7581418533889364e-06,8.302156382237309e-07,3.7608078953505077e-06,7.94210966752112e-06,1.452675566219569e-05,1.4668419864815009e-06,1.4108188384933387e-06
269,1.0640315645685294e-05,5.444236774696163e-06,1.0654163713692003e-05,6.369157559837337e-06,6.519024640662941e-06,2.798498443789183e-05,1.1223880848513481e-05,2.069206837549349e-06,4.232766091389505e-06,2.805995943841448e-06,8.159888758116985e-07,3.768845519019307e-06,8.03116510971818e-06,1.3188090565944172e-05,1.4640951612470344e-06,1.4650185020708619e-06
270,1.0447929968973917e-05,5.188202885793705e-06,1.0275103173751012e-05,6.268584797777713e-06,6.537884991981152e-06,2.7851296782540602e-05,1.1548878726953298e-05,2.157354746761316e-06,4.310240504365221e-06,2.855312944424028e-06,8.026933566908897e-07,3.764706403805145e-06,8.117833624302172e-06,1.1972010383065157e-05,1.4586643656992654e-06,1.5184165073745196e-06
271,1.0206860280205014e-05,4.92980882531228e-06,9.888891043655893e-06,6.15198802289975e-06,6.536460293410874e-06,2.763867683969093e-05,1.1830245809904319e-05,2.251213525617143e-06,4.435310202032235e-06,2.906389281487493e-06,7.900066008655884e-07,3.7463660426908906e-06,8.195995443949912e-06,1.0878709550087563e-05,1.4512238807891276e-06,1.5696904432687345e-06
272,9.922185231017057e-06,4.673618555819468e-06,9.49702645483408e-06,6.018692786093858e-06,6.512541535353707e-06,2.7338302992167836e-05,1.2062269634493133e-05,2.349012512678269e-06,4.6078637827074755e-06,2.95918094115676e-06,7.777012091993561e-07,3.7120158778735503e-06,8.259844335584048e-06,9.905680879140423e-06,1.442150409746334e-06,1.6175188395860564e-06
273,9.601766817137198e-06,4.423595101601909e-06,9.101194995915482e-06,5.869046761026521e-06,6.46530745687148e-06,2.694215200679227e-05,1.2241544237137797e-05,2.4487264000103092e-06,4.827381870400292e-06,3.013210238356832e-06,7.658015196766929e-07,3.6606074778284347e-06,8.304725197647173e-06,9.048224675817014e-06,1.43159551400684e-06,1.6608566213629461e-06
274,9.254950788820542e-06,4.1828150463141736e-06,8.703221817744527e-06,5.70473039734851e-06,6.395422084825134e-06,2.6445898217084043e-05,1.2366560696684179e-05,2.54808743266134e-06,5.093350341809319e-06,3.067488421944592e-06,7.546116525157224e-07,3.5922056201174447e-06,8.327725801336602e-06,8.300184369634546e-06,1.4196153950724634e-06,1.6991779027925849e-06
275,8.891394686462237e-06,3.9534915415332784e-06,8.305033218156301e-06,5.528634271965524e-06,6.304809707273424e-06,2.5851005991352702e-05,1.2436467359604555e-05,2.6445821337416785e-06,5.4054150080381954e-06,3.120521274191001e-06,7.44604083533102e-07,3.5080420372972218e-06,8.327559984906188e-06,7.654473317168808e-06,1.4063496445809122e-06,1.7325232496654065e-06
276,8.520123803096945e-06,3.737183248448368e-06,7.90877829593754e-06,5.344464290371442e-06,6.196050569604164e-06,2.516516471245729e-05,1.2449676358200684e-05,2.735572634358011e-06,5.76316358909185e-06,3.170380652691985e-06,7.362771337341955e-07,3.4103203819181358e-06,8.303768125867864e-06,7.103106587202678e-06,1.3921726985389542e-06,1.7613428212146062e-06
277,8.148833277892825e-06,3.5350659832325866e-06,7.517221322302309e-06,5.156263530471305e-06,6.071582865327476e-06,2.4400646640529253e-05,1.2403406526843231e-05,2.8185691170313132e-06,6.1657343892188e-06,3.2149011673690192e-06,7.300684830712057e-07,3.301875858200429e-06,8.255794435455008e-06,6.637066002736682e-06,1.377693842139761e-06,1.7862449432225126e-06
278,7.783550532643031e-06,3.348193566408059e-06,7.1341327877580196e-06,4.967942036167919e-06,5.9331682320385495e-06,2.3571159250487216e-05,1.2294468584833595e-05,2.891491179181604e-06,6.611497572320413e-06,3.252171946937172e-06,7.263140419565361e-07,3.1858216104458416e-06,8.182597407013782e-06,6.246743778819607e-06,1.3635808451669384e-06,1.8077479334566899e-06
279,7.428559753196019e-06,3.1776120963957716e-06,6.764171316455618e-06,4.782947354590069e-06,5.781768502584158e-06,2.2688645508734566e-05,1.212047462841982e-05,2.952789362404086e-06,7.097902507818225e-06,3.2810576687178007e-06,7.252214026687348e-07,3.065268171627526e-06,8.083320684084839e-06,5.923229114784004e-06,1.3503576454626426e-06,1.826125553552699e-06
280,7.086400178056275e-06,3.0242256180409944e-06,6.412167939730083e-06,4.604224405510719e-06,5.617552735730002e-06,2.1761646663613564e-05,1.1880795142862096e-05,3.001413573087211e-06,7.621429770288207e-06,3.3011843618332307e-06,7.26873324579914e-07,2.943113960656381e-06,7.95874626523563e-06,5.659658629902163e-06,1.3383310025309907e-06,1.8414446214513225e-06
281,6.757993536523224e-06,2.8885697681401825e-06,6.082420799886485e-06,4.434428503262248e-06,5.440077353230873e-06,2.079596661147772e-05,1.1577285634954926e-05,3.036700551709931e-06,8.17746736031209e-06,3.3125393641892527e-06,7.312928259933543e-07,2.821930477719349e-06,7.812234778033909e-06,5.45169512506219e-06,1.3276519353717274e-06,1.8537541046665458e-06
282,6.443010139129493e-06,2.7707523919757167e-06,5.778522221808871e-06,4.27615013605769e-06,5.24896961346221e-06,1.9796827771718244e-05,1.1214758333638299e-05,3.0582882586426663e-06,8.76010986091175e-06,3.3153751444002875e-06,7.38551629026303e-07,2.7040332444616628e-06,7.649328565643272e-06,5.297104943923757e-06,1.3184244666377016e-06,1.8632165203772678e-06
283,6.140368428339739e-06,2.6705972037824526e-06,5.5034568925687265e-06,4.131900090316478e-06,5.044910410000661e-06,1.8770836770462424e-05,1.0800813689468963e-05,3.0660760539661173e-06,9.3620306423353e-06,3.3105215505686318e-06,7.48835543578818e-07,2.591640819816912e-06,7.47646816194267e-06,5.195010505919885e-06,1.3107750061339724e-06,1.870044248332592e-06
284,5.848722279501286e-06,2.5878360135049978e-06,5.259535026092275e-06,4.003878931089572e-06,4.830185560036005e-06,1.7726615039072114e-05,1.034478792641534e-05,3.060123347849675e-06,9.97446147963818e-06,3.299607398023424e-06,7.624004683956613e-07,2.486868208003412e-06,7.299705300811122e-06,5.145210166691126e-06,1.3048653046868183e-06,1.874330774500559e-06
285,5.566977018267297e-06,2.5222188267339164e-06,5.048254937813989e-06,3.893847047804525e-06,4.608359129381272e-06,1.6674023778233783e-05,9.856201198830876e-06,3.0405209594918837e-06,1.0587485949799838e-05,3.2848600391044714e-06,7.794597696554585e-07,2.3916141458025015e-06,7.124083493521647e-06,5.147626676291534e-06,1.3008951075393178e-06,1.8759636479317795e-06
286,5.294878039439219e-06,2.473522180137386e-06,4.8703854493649035e-06,3.803230707225232e-06,4.383375674286423e-06,1.5622620794134303e-05,9.34362183703872e-06,3.007524103235036e-06,1.1190905815840985e-05,3.2686829862388854e-06,8.001007641326336e-07,2.307561703043465e-06,6.953824747655171e-06,5.201835972354025e-06,1.299094605400035e-06,1.874688741943286e-06
287,5.033440608164337e-06,2.4414773360441687e-06,4.726243596029374e-06,3.733244377499397e-06,4.158798177098752e-06,1.4580393864348589e-05,8.81459304890341e-06,2.9619706703584244e-06,1.1775438942493218e-05,3.2533879824091502e-06,8.242657337164871e-07,2.236210560010648e-06,6.792825309318342e-06,5.3066639211310955e-06,1.2996499657497054e-06,1.8702170587550417e-06
288,4.784856769115997e-06,2.4256398054771807e-06,4.615887977351903e-06,3.6848993930046734e-06,3.937586413982176e-06,1.3553724269834569e-05,8.276296874804066e-06,2.9055300693911197e-06,1.2333702758162968e-05,3.241075512561607e-06,8.517514948231612e-07,2.1788567872211023e-06,6.644876964413301e-06,5.459926053142935e-06,1.3025816497903966e-06,1.8622868261747658e-06
289,4.551855167441619e-06,2.425352235150538e-06,4.539041667261891e-06,3.6589764647622045e-06,3.7222162857358076e-06,1.2548275860315787e-05,7.736067389031689e-06,2.840518300853864e-06,1.2860640277674877e-05,3.233477234212408e-06,8.822000502535959e-07,2.136684949685728e-06,6.513416881265204e-06,5.658416683776161e-06,1.3076704838068789e-06,1.8507590212969905e-06
290,4.3370204376931665e-06,2.4399877864194514e-06,4.494877239142376e-06,3.6559692601037663e-06,3.514756471593806e-06,1.1569408382027929e-05,7.2012316272404195e-06,2.7695242316670772e-06,1.3353377244875936e-05,3.2318083828201988e-06,9.151284891256246e-07,2.1110053015494083e-06,6.401023459112612e-06,5.898255453667483e-06,1.3144589058285687e-06,1.8357685314311459e-06
291,4.142543107713714e-06,2.469391005866774e-06,4.4819577040849256e-06,3.6759527039394935e-06,3.316915578395295e-06,1.0621751819094882e-05,6.678499550988925e-06,2.6951322823702786e-06,1.3810584434255361e-05,3.2367254227760494e-06,9.500465179037198e-07,2.1034097974779493e-06,6.309086100143836e-06,6.175599055681182e-06,1.3223194708398742e-06,1.8177781374455768e-06
292,3.970262370709532e-06,2.514218121996232e-06,4.498342939044817e-06,3.7184708177248654e-06,3.130258690753959e-06,9.709045343948553e-06,6.173527806431988e-06,2.619779221423429e-06,1.4231301862921623e-05,3.2484118276914e-06,9.866131984563996e-07,2.1157012311543335e-06,6.237879261937839e-06,6.487385486203607e-06,1.3306211784523645e-06,1.7974632413224529e-06
293,3.821633849960192e-06,2.5759304453696054e-06,4.541590039898726e-06,3.7826193526655827e-06,2.9564360869009936e-06,8.834703726670353e-06,5.690906906543547e-06,2.5456927328685242e-06,1.4613566188229546e-05,3.2667655145088477e-06,1.0247458946159053e-06,2.149715046246959e-06,6.186945026018198e-06,6.831690460978385e-06,1.338946130193392e-06,1.775560565362389e-06
294,3.6975674532750197e-06,2.656412098058617e-06,4.60863676967216e-06,3.867264772730161e-06,2.7971554703630037e-06,8.002324523180859e-06,5.234244093317918e-06,2.4748782720467606e-06,1.4953890914095504e-05,3.291480603828489e-06,1.064660604716311e-06,2.2072807063764525e-06,6.1555550316712465e-06,7.207688440674109e-06,1.3472024135577724e-06,1.752796055287969e-06
295,3.598266336425401e-06,2.7574518089645617e-06,4.6958381439628384e-06,3.9711076526105754e-06,2.653947324756134e-06,7.215621958090788e-06,4.806136004484891e-06,2.409095495863058e-06,1.5248166959528768e-05,3.3218862578844548e-06,1.1068294196226503e-06,2.290433850992306e-06,6.142931215492501e-06,7.615415807850211e-06,1.3555394002470359e-06,1.7298247518454516e-06
296,3.523141483925278e-06,2.880407986915806e-06,4.799202688385865e-06,4.0925551803549805e-06,2.5279222100917987e-06,6.4780840068429075e-06,4.408219110867444e-06,2.349801581419803e-06,1.5493159300614887e-05,3.3567476881002165e-06,1.1518506801194746e-06,2.4016651789736406e-06,6.1480048277560075e-06,8.055363644251106e-06,1.3641455495479509e-06,1.7071106223213793e-06
297,3.4708346795550645e-06,3.0261668485659048e-06,4.9146256185814135e-06,4.229682991811786e-06,2.41962984185776e-06,5.792740559052363e-06,4.041375773327188e-06,2.298122313328704e-06,1.568753664666706e-05,3.3942141162269138e-06,1.2003145782110951e-06,2.543864525623883e-06,6.168953494204935e-06,8.528014398260916e-06,1.3731238323606167e-06,1.6848553637232706e-06
298,3.439401104036383e-06,3.195233392684993e-06,5.038000850785273e-06,4.380383685213975e-06,2.329026895881529e-06,5.162132288898194e-06,3.705883221774312e-06,2.2548575150682687e-06,1.5832366383707966e-05,3.4318895062673528e-06,1.2527278484531386e-06,2.7199428056054347e-06,6.203053598307297e-06,9.033716407439361e-06,1.3825307781222384e-06,1.663097512457639e-06
299,3.426708153875851e-06,3.3878112516679577e-06,5.1652812650317955e-06,4.542569285613241e-06,2.255502102415586e-06,4.58833041772493e-06,3.4014115841996493e-06,2.220472534021776e-06,1.5931582828613927e-05,3.467109000461601e-06,1.3094919188834016e-06,2.932446171400911e-06,6.247118366797388e-06,9.573084111266762e-06,1.3924222571238031e-06,1.6418913271980588e-06
300,3.430971447318028e-06,3.6039920897483012e-06,5.292658968408511e-06,4.714290892092584e-06,2.1979322600504077e-06,4.072858909944541e-06,3.1270694592470346e-06,2.1950880036210786e-06,1.5992352593293404e-05,3.497498073815238e-06,1.3709457617527446e-06,3.18337025201896e-06,6.2982470729224085e-06,1.014749259324283e-05,1.4027652611089083e-06,1.6213915225361416e-06
301,3.451139766526304e-06,3.844120029736075e-06,5.416967451869508e-06,4.893625237905965e-06,2.1547837308285945e-06,3.6166335822135072e-06,2.881617547663152e-06,2.178488022260367e-06,1.6024577603895934e-05,3.5214758980411507e-06,1.43746079484501e-06,3.4741432470770688e-06,6.3543433260073236e-06,1.0758995346395502e-05,1.4133110648321233e-06,1.6018378717492764e-06
302,3.486896678723997e-06,4.1090622699795364e-06,5.536147716252085e-06,5.0784035183067324e-06,2.1242734926949784e-06,3.2200901496758735e-06,2.663665390308872e-06,2.1701329022564552e-06,1.6039301147980447e-05,3.538236938936348e-06,1.5094881577235955e-06,3.805721598824316e-06,6.41406821537601e-06,1.1409467690406651e-05,1.4235492123140512e-06,1.5835343285740814e-06
303,3.538325376173417e-06,4.400145039129014e-06,5.6494087238720704e-06,5.2661864711000696e-06,2.1046097390348795e-06,2.883369417484065e-06,2.4717181016099322e-06,2.169145028640756e-06,1.6046755015512027e-05,3.547354327802551e-06,1.58751412491382e-06,4.178695075877469e-06,6.476303875334815e-06,1.2099533872775973e-05,1.4327680662394677e-06,1.566821883136594e-06
304,3.605452854539036e-06,4.718801287214163e-06,5.7568123650156315e-06,5.454648203583711e-06,2.0943008892778892e-06,2.6063395690834266e-06,2.304223261333293e-06,2.1742611828262896e-06,1.6054862949399302e-05,3.54867454725213e-06,1.6720126394266027e-06,4.593251020672687e-06,6.5395623809475355e-06,1.2828055519067391e-05,1.4402152326461745e-06,1.5520088998046965e-06
305,3.687958690305977e-06,5.066150754929638e-06,5.85844639551215e-06,5.642062438049783e-06,2.092429145118952e-06,2.3884851926911384e-06,2.159644676001206e-06,2.183862292552089e-06,1.606862072666169e-05,3.542657423649286e-06,1.7634193860220063e-06,5.049088463052673e-06,6.601783747884949e-06,1.3592367338068395e-05,1.4452461023995881e-06,1.5392868505131956e-06
306,3.785224228215289e-06,5.442788342533956e-06,5.9537392688297365e-06,5.827565371983161e-06,2.0987320494019756e-06,2.228840947698813e-06,2.0363827490307626e-06,2.1962189161944845e-06,1.609052890926404e-05,3.5305113437371775e-06,1.8620542536640036e-06,5.5454585146442e-06,6.660484704838445e-06,1.4388976886401184e-05,1.4473804981586708e-06,1.5286839017696512e-06
307,3.8965658592971485e-06,5.848892140332588e-06,6.041227110580776e-06,6.011054380848053e-06,2.113405405850984e-06,2.1260476639931773e-06,1.932596113656347e-06,2.209886605876803e-06,1.612174670043232e-05,3.51377256987424e-06,1.96799865437196e-06,6.0812078370589305e-06,6.712807760386269e-06,1.5214566338704952e-05,1.4463439355436533e-06,1.5201118261279136e-06
308,4.021371336777469e-06,6.284424743982343e-06,6.118638457816082e-06,6.192705922067769e-06,2.1367194802985983e-06,2.0784310617631117e-06,1.8461167826367484e-06,2.2239261517613667e-06,1.616310517989705e-05,3.49383760850129e-06,2.080991386110443e-06,6.654630077355954e-06,6.7553306996429344e-06,1.606709538643971e-05,1.4420816154977626e-06,1.5134752360391515e-06
309,4.1590444253205825e-06,6.749058410297046e-06,6.183293640702611e-06,6.372382485684604e-06,2.1686654084233724e-06,2.084005835286335e-06,1.7744612634840993e-06,2.237753265151567e-06,1.6215529715238903e-05,3.4718819410484365e-06,2.2003717048354947e-06,7.263179359471503e-06,6.784167987817936e-06,1.6946580908386434e-05,1.4347007680552308e-06,1.5086954291837802e-06
310,4.308828492144023e-06,7.241761365521212e-06,6.232757883220895e-06,6.549432936518202e-06,2.208785546282201e-06,2.140471630684515e-06,1.7148928188090383e-06,2.250961336764051e-06,1.6280369193686056e-05,3.4489532037310103e-06,2.325069499219339e-06,7.903188048947316e-06,6.795747098270273e-06,1.7855354733304326e-05,1.4244526493242338e-06,1.505636272209042e-06
311,4.469576803765004e-06,7.760445850924451e-06,6.265121072342834e-06,6.722989946995717e-06,2.256229457614415e-06,2.2452473068663334e-06,1.6646420608250916e-06,2.26343977889974e-06,1.636018574366604e-05,3.426061794693448e-06,2.4536135246122113e-06,8.56960411632015e-06,6.787782279533434e-06,1.879791574210575e-05,1.4117443840333145e-06,1.504106501594888e-06
312,4.639499394722784e-06,8.301978015605057e-06,6.2785833794389895e-06,6.892289714699387e-06,2.310019096752759e-06,2.395454091484662e-06,1.6213760933180635e-06,2.275466181679736e-06,1.6459589380669326e-05,3.4044107216025646e-06,2.5841198972406e-06,9.255726098899504e-06,6.759782330290182e-06,1.9780204449323604e-05,1.3970451943703653e-06,1.5039487513336942e-06
313,4.81596060382181e-06,8.862356915895402e-06,6.271137877164442e-06,7.0566882685019025e-06,2.3693911646949133e-06,2.5878692088492267e-06,1.58368014320074e-06,2.287458217373541e-06,1.6585027675360374e-05,3.385722410722737e-06,2.714266812455834e-06,9.953035803914354e-06,6.7129670208538975e-06,2.0808040314004537e-05,1.3807678370015692e-06,1.5050456639420655e-06
314,4.995418808894329e-06,9.436871598834435e-06,6.241115629805387e-06,7.215555814990018e-06,2.433998922346663e-06,2.8190053422006754e-06,1.5511498184686567e-06,2.2996410712648778e-06,1.6743245495130323e-05,3.3723578278418717e-06,2.8413414889749997e-06,1.0651195825941041e-05,6.6498093500351515e-06,2.1885511253658317e-05,1.363253132662294e-06,1.5072955175286202e-06
315,5.173641056543108e-06,1.0020340083941194e-05,6.188218347486871e-06,7.368346370222131e-06,2.503892312234212e-06,3.0853453058277336e-06,1.524037158361053e-06,2.3119637557262143e-06,1.6939767099249415e-05,3.3670637567800955e-06,2.9624393035775165e-06,1.1338023437019582e-05,6.5733962680115316e-06,2.3014417227819185e-05,1.344812732821684e-06,1.5107018431797578e-06
316,5.34628111091368e-06,1.0607465149204185e-05,6.114241148682818e-06,7.514911685102271e-06,2.579386061771922e-06,3.383615703471933e-06,1.5028415642028397e-06,2.3242365778990155e-06,1.717863614797138e-05,3.3725035225314735e-06,3.074699085077851e-06,1.1999309184433007e-05,6.486711803263907e-06,2.4194329456182224e-05,1.3258148740831613e-06,1.5154184926120466e-06
317,5.5095110575004475e-06,1.1193053742919407e-05,6.0230626192060204e-06,7.655854571483266e-06,2.6608866716680374e-06,3.7109665585550503e-06,1.4881699375214507e-06,2.336252883514615e-06,1.7462721653059233e-05,3.390852548785834e-06,3.1753355824587514e-06,1.2618893390533983e-05,6.392040852627101e-06,2.5422497191223317e-05,1.306782347556215e-06,1.5215938756381733e-06
318,5.660142470469177e-06,1.1771732919469127e-05,5.919858945698635e-06,7.792569967586258e-06,2.7486609236269343e-06,4.064990227815246e-06,1.4807503388322867e-06,2.3477681988967426e-06,1.7793480037386954e-05,3.423615007941967e-06,3.2615104144341627e-06,1.3179710063907515e-05,6.290822281471943e-06,2.669463571513057e-05,1.2883604832529375e-06,1.5291884897461276e-06
319,5.79515375601717e-06,1.2337286832213635e-05,5.809991694085761e-06,7.926754099290546e-06,2.8426556108617785e-06,4.44360653078257e-06,1.481398269565543e-06,2.358412738731951e-06,1.8170349039444415e-05,3.471624360553912e-06,3.330451819893094e-06,1.3665896939270175e-05,6.18407958253438e-06,2.800781480861854e-05,1.271170069124699e-06,1.537955621591412e-06
320,5.911347397924016e-06,1.288258162232829e-05,5.698311606593352e-06,8.059668729492593e-06,2.942493741744106e-06,4.844812565917513e-06,1.4909455723640193e-06,2.3676581370124254e-06,1.8590376807201506e-05,3.535101907795561e-06,3.379981787354081e-06,1.4064947041075157e-05,6.073118654216131e-06,2.936391188197913e-05,1.2557042457526423e-06,1.547524711097319e-06
321,6.005845668166575e-06,1.3400659898074565e-05,5.5890733583704114e-06,8.191861369998639e-06,3.0475891648125705e-06,5.266348386551553e-06,1.5101756466762602e-06,2.374862775778305e-06,1.9048321081193115e-05,3.6136741429396296e-06,3.408933723279872e-06,1.4368312262881973e-05,5.959950029590682e-06,3.077017086780147e-05,1.242319904868665e-06,1.5574316773501481e-06
322,6.07710489485137e-06,1.3886138705565726e-05,5.485965896123122e-06,8.32359764222725e-06,3.1573519376205987e-06,5.705710761563885e-06,1.5398093165687947e-06,2.379346009463134e-06,1.9537367777674745e-05,3.7063214348089597e-06,3.4169559785542114e-06,1.457000986503913e-05,5.847152484647907e-06,3.223574415414337e-05,1.2312733339437219e-06,1.5670616675662373e-06
323,6.125485902649433e-06,1.4335841091587473e-05,5.3919251561751175e-06,8.455476353257293e-06,3.271505736752901e-06,6.1608933088841445e-06,1.5805970450617846e-06,2.3804337694553104e-06,2.005032499460722e-05,3.8113215117607953e-06,3.4040316238956386e-06,1.4665293021237263e-05,5.737362426694922e-06,3.376728381257515e-05,1.2227527571399565e-06,1.5755932503993357e-06
324,6.152864895795308e-06,1.4748605942588323e-05,5.308897136948451e-06,8.588672632887192e-06,3.390332940217713e-06,6.6313944833900775e-06,1.6334192951612826e-06,2.3774098983419595e-06,2.058043616851551e-05,3.9263304461293586e-06,3.3703815737632583e-06,1.4651717175327635e-05,5.632754557511623e-06,3.536707485781303e-05,1.216905600895256e-06,1.5820183708000328e-06
325,6.161596243400945e-06,1.5124696272631202e-05,5.237803355368699e-06,8.72467305535331e-06,3.514579799951792e-06,7.118527054275038e-06,1.6992377632458202e-06,2.369381651548716e-06,2.112090197945226e-05,4.048772470988298e-06,3.3167492570296485e-06,1.453163773420405e-05,5.534829047986864e-06,3.703375312468289e-05,1.213864031116129e-06,1.585283163643265e-06
326,6.153606681345215e-06,1.546495880327657e-05,5.178725393321745e-06,8.864613462774062e-06,3.645069764329545e-06,7.624673526095687e-06,1.7789481483509844e-06,2.3552662624145976e-06,2.166327137319494e-05,4.17651635704955e-06,3.24459134410321e-06,1.4313213964211083e-05,5.444523210303801e-06,3.876339487006125e-05,1.2137454937608212e-06,1.5845725139931563e-06
327,6.130099957030124e-06,1.5769656159815065e-05,5.131079864008973e-06,9.008581260727824e-06,3.782388975897898e-06,8.152267873322171e-06,1.873322876814749e-06,2.334047793149521e-06,2.219575330295976e-05,4.3084154883095376e-06,3.1559616317838208e-06,1.4008876956761395e-05,5.3622989289245354e-06,4.0549310902634096e-05,1.2166089525614604e-06,1.5795792917750957e-06
328,6.0916311826451385e-06,1.603711268727147e-05,5.093673427559284e-06,9.155304684066832e-06,3.926782681226601e-06,8.70326356816675e-06,1.983053046696177e-06,2.305124495956186e-06,2.270230042893052e-05,4.444235833719616e-06,3.053163949060243e-06,1.36325181769364e-05,5.28817298632283e-06,4.238038823453452e-05,1.2223815827271338e-06,1.5705199540306994e-06
329,6.038184609979397e-06,1.626268594859229e-05,5.064962751763738e-06,9.30226357237525e-06,4.0780688446830576e-06,9.2788067324757e-06,2.1087137406941775e-06,2.268550416288282e-06,2.3163002041894043e-05,4.5840522270910665e-06,2.938375567978254e-06,1.3197058940237054e-05,5.222025767966655e-06,4.423951121734527e-05,1.230802098763369e-06,1.5579051350770921e-06
330,5.969358625533588e-06,1.6438562016599496e-05,5.043760690432525e-06,9.446033533158396e-06,4.235511644467372e-06,9.878850168509649e-06,2.2506184615237603e-06,2.2251429707096454e-06,2.3556130334999743e-05,4.72766459383754e-06,2.813511487276034e-06,1.27133645441333e-05,5.164013902189341e-06,4.6103871370562106e-05,1.2414076022105545e-06,1.5422703634602385e-06
