,EMG1,EMG2,EMG3,EMG4,EMG5,EMG6,EMG7,EMG8,EMG9,EMG10,EMG11,EMG12,EMG13,EMG14,EMG15,EMG16
0,5.589417800801204e-06,9.95858093377624e-07,2.876420266591971e-07,5.651766548829547e-07,9.890800404511048e-09,3.897148544124719e-08,1.17365002558874e-09,9.793172122411076e-07,-5.0524625269576104e-08,1.3584606727126192e-07,1.596647144062909e-07,1.6025827971295405e-07,2.734599504296183e-07,1.1316591120920135e-07,-1.0672425895835698e-07,-3.780900747636974e-08
1,6.819683341006161e-06,1.3665135977267581e-06,8.497485259487523e-07,5.35471318738313e-06,1.0311419308013276e-07,1.1955526111278104e-07,1.1229466177630125e-07,1.0054499266693923e-06,1.3766908222766236e-07,9.70649176705643e-07,2.558508203042864e-07,3.4346555373623114e-07,3.299055229567435e-07,2.0990633051138072e-07,6.417808855033346e-08,1.454671501057058e-07
2,8.134927232068684e-06,1.7499197221036353e-06,1.391092579836402e-06,9.918236584030618e-06,1.938651421342805e-07,1.9818404726328355e-07,2.2005992509129622e-07,1.0348146807471334e-06,3.378824878130097e-07,1.7699578261900893e-06,3.516838290141274e-07,5.220094026548623e-07,3.87513726107373e-07,3.0598972507356064e-07,2.2749757172300688e-07,3.2799883738056003e-07
3,9.525107097939811e-06,2.1400115461424663e-06,1.908102488746369e-06,1.41636826536872e-05,2.807150683685392e-07,2.738346026926796e-07,3.234800742322142e-07,1.0676786941195104e-06,5.4790730788914e-07,2.5209277206132887e-06,4.4473886099114506e-07,6.934278019007215e-07,4.4485845745140677e-07,4.0006809136046505e-07,3.8174505295782034e-07,5.069544350635524e-07
4,1.0982269931996483e-05,2.5314382378311144e-06,2.397635363224438e-06,1.801251618015046e-05,3.6251197727509063e-07,3.4574014953268937e-07,4.216584939722054e-07,1.104144654336044e-06,7.662004454598302e-07,3.21226228799076e-06,5.330005098478793e-07,8.556267074052772e-07,5.007351042315649e-07,4.909751103713628e-07,5.257159851243278e-07,6.797295104442202e-07
5,1.2499381299144458e-05,2.919967391951941e-06,2.8568760333399655e-06,2.1404978678872956e-05,4.384025558510679e-07,4.133487169216699e-07,5.137735837285079e-07,1.144141430109166e-06,9.920463555923635e-07,3.834949088275662e-06,6.150454733427557e-07,1.0069397689490328e-06,5.542902631784591e-07,5.777725291095882e-07,6.585153775812617e-07,8.441109087178376e-07
6,1.4069778313784086e-05,3.3026925597027938e-06,3.283100185101725e-06,2.4303170434137714e-05,5.078129967984217e-07,4.762018021478117e-07,5.990750679412631e-07,1.1874349018359814e-06,1.225601864947344e-06,4.382719915710992e-06,6.901682213286799e-07,1.1460572841366e-06,6.05079839314345e-07,6.597097288080561e-07,7.795305052971846e-07,9.985979813302764e-07
7,1.5688084567848478e-05,3.677927120111075e-06,3.6734721960567986e-06,2.6691299789555196e-05,5.704530795043878e-07,5.338877417234955e-07,6.76960076478101e-07,1.2336531693838753e-06,1.4678459808376003e-06,4.8520526622828236e-06,7.583527829344585e-07,1.2719326852165583e-06,6.530255072364562e-07,7.361705318630036e-07,8.883249563940435e-07,1.1426602449507086e-06
8,1.735111833611397e-05,4.044760738144919e-06,4.0251356380826345e-06,2.8573485651048767e-05,6.263436369283575e-07,5.86112154306338e-07,7.470901007258072e-07,1.2823239264671435e-06,1.720500634263172e-06,5.2418193657219814e-06,8.200410577845576e-07,1.3837376078240984e-06,6.982634373861804e-07,8.066612079054092e-07,9.844845938436429e-07,1.2766985940165211e-06
9,1.9057223060207607e-05,4.402400447291229e-06,4.3356910761295665e-06,2.9970208013478715e-05,6.758138067613917e-07,6.327764228369692e-07,8.094664956443933e-07,1.3329016701613836e-06,1.9858648910522993e-06,5.552903048245808e-06,8.758194143738721e-07,1.480860980636728e-06,7.409568851978716e-07,8.708027566896547e-07,1.0675595805007081e-06,1.4017423639881958e-06
10,2.0804178426867695e-05,4.749555774488753e-06,4.60385348526285e-06,3.091433340335858e-05,7.194242643732682e-07,6.739704297728733e-07,8.644193602621789e-07,1.384754897176498e-06,2.2664883231881416e-06,5.788002487805078e-06,9.262026536815673e-07,1.5629281542977517e-06,7.811965723956001e-07,9.282947639461273e-07,1.1372477033246417e-06,1.5190936846200524e-06
11,2.2587241310767273e-05,5.084153619329419e-06,4.829986255755247e-06,3.144687649415212e-05,7.578241982304575e-07,7.098841378324636e-07,9.125004023476905e-07,1.4371085130483218e-06,2.5648886261426884e-06,5.95161262976993e-06,9.715673811706846e-07,1.6298392892815234e-06,8.190478936584466e-07,9.789012156226352e-07,1.1937667481283568e-06,1.630075072646128e-06
12,2.4398436642594558e-05,5.403530700144058e-06,5.016316206159963e-06,3.161227741587749e-05,7.916201099925113e-07,7.406920256015585e-07,9.54339104325509e-07,1.4889874522639995e-06,2.8835315532581685e-06,6.050010420616022e-06,1.012171094615182e-06,1.6818357374399124e-06,8.546668163049618e-07,1.0225152373036823e-06,1.2381206634879464e-06,1.7358609005830083e-06
13,2.6226621516956288e-05,5.7049812385908855e-06,5.166734034699408e-06,3.145377523509299e-05,8.213222965264551e-07,7.664806681346308e-07,9.90573214771452e-07,1.5392268280676349e-06,3.224928755815064e-06,6.0909343256188595e-06,1.048181620530262e-06,1.7195561420012949e-06,8.883307800462555e-07,1.0592719002552622e-06,1.2720219860317514e-06,1.8373390189875617e-06
14,2.805745845274053e-05,5.9862820260323876e-06,5.286207383446436e-06,3.101075307026486e-05,8.47342710373377e-07,7.872819458846361e-07,1.021864689155051e-06,1.5865763704509479e-06,3.5915953666146537e-06,6.082800059225574e-06,1.079676380830812e-06,1.7440082838548697e-06,9.203474084168428e-07,1.0895810813294568e-06,1.2975581007804904e-06,1.935025675943128e-06
15,2.9873273298288243e-05,6.245794130134645e-06,5.380007289658072e-06,3.031932074310037e-05,8.69986854215664e-07,8.031822864387493e-07,1.0488982010226356e-06,1.6298933546426023e-06,3.985807236411384e-06,6.0338679077448466e-06,1.1066708113182117e-06,1.7564226230140064e-06,9.509555185058177e-07,1.1140074185244435e-06,1.316847627926232e-06,2.0290400506252185e-06
16,3.1652985211918606e-05,6.482052512814001e-06,5.453009164096344e-06,2.9414767701489696e-05,8.894204151415837e-07,8.143847528564536e-07,1.072340409524186e-06,1.668370395984529e-06,4.409278545189915e-06,5.951918370844796e-06,1.1292636995022017e-06,1.758067850273051e-06,9.803099440049679e-07,1.1331455113789717e-06,1.3318363404868241e-06,2.1191315113441883e-06
17,3.3371846694012167e-05,6.693308001267557e-06,5.50923356821761e-06,2.8333342407325907e-05,9.056312441946661e-07,8.211922495720292e-07,1.0928351260450203e-06,1.7016749905592949e-06,4.8629016347479795e-06,5.844332731034825e-06,1.1477764291366508e-06,1.7501821632012055e-06,1.0085118158777867e-06,1.1476135007339831e-06,1.344249034721546e-06,2.2048199086628675e-06
18,3.500060181497089e-05,6.877719308947056e-06,5.551646531670934e-06,2.711222050463518e-05,9.184311126642089e-07,8.240206350698523e-07,1.11102362286634e-06,1.729922409031053e-06,5.3465684518467515e-06,5.7181148276523696e-06,1.162677550579771e-06,1.734040298601521e-06,1.035592350109219e-06,1.1580482146298202e-06,1.3556276328516074e-06,2.2856323899149674e-06
19,3.650448582504914e-05,7.03425696457619e-06,5.582103392047398e-06,2.5788051717630498e-05,9.275438266555638e-07,8.234509193260251e-07,1.127504074466124e-06,1.753553178483764e-06,5.859051919572414e-06,5.579775728951807e-06,1.1743727867336947e-06,1.711008912288078e-06,1.0614704459741567e-06,1.1650593174235383e-06,1.3673899617732212e-06,2.3612537046742276e-06
20,3.784394551257263e-05,7.163551807746776e-06,5.6013070096732e-06,2.4394976751205573e-05,9.327610698882997e-07,8.201934661921865e-07,1.1427390331209208e-06,1.773233909830284e-06,6.39800138102977e-06,5.435228142971508e-06,1.183115272902071e-06,1.6824812705762429e-06,1.0859977685418493e-06,1.169244470483784e-06,1.3808755301983465e-06,2.431496289651412e-06
21,3.8978795226943796e-05,7.267932525561484e-06,5.608828950508308e-06,2.2963213391853013e-05,9.34033782305183e-07,8.149560998314732e-07,1.156982880914831e-06,1.7897969324608773e-06,6.960031929789782e-06,5.2896791542544605e-06,1.1890703711717607e-06,1.6497182849590229e-06,1.1090608143950706e-06,1.171216061754689e-06,1.39732082927897e-06,2.496195995560103e-06
22,3.98750186190144e-05,7.350579064224813e-06,5.603338192830575e-06,2.1519104918151297e-05,9.314109216454782e-07,8.08343790736253e-07,1.1702492108986255e-06,1.8041453287658515e-06,7.54075178227495e-06,5.147507556504739e-06,1.1923621786144405e-06,1.6137146149127144e-06,1.130593987342085e-06,1.1715382656635967e-06,1.4177750587228062e-06,2.5550947150354296e-06
23,4.051133493766269e-05,7.4143863522343665e-06,5.583016797724284e-06,2.0086391665964212e-05,9.249527374334972e-07,8.008597943330427e-07,1.1823340528669475e-06,1.8170917626714073e-06,8.134788031316086e-06,5.0122477568811e-06,1.1930320827260004e-06,1.5751891071246324e-06,1.1505486258386422e-06,1.1706445560208954e-06,1.4430434686064107e-06,2.6076979958034146e-06
24,4.0882517991496714e-05,7.461324687922818e-06,5.545995847696496e-06,1.868752277040986e-05,9.147742790916398e-07,7.92959523555931e-07,1.1929093977292032e-06,1.8292059303164688e-06,8.736118702805747e-06,4.886742987104515e-06,1.191034631870565e-06,1.5346929949822079e-06,1.1689445872859882e-06,1.1688300222347406e-06,1.4736743529449416e-06,2.6532375488863024e-06
25,4.099767293184607e-05,7.4925458135766404e-06,5.4906787284188245e-06,1.734413940635547e-05,9.011651742175625e-07,7.850634828116333e-07,1.2016440516515838e-06,1.8407473281163634e-06,9.338663605691637e-06,4.773337452811553e-06,1.1863723964508227e-06,1.492741684197047e-06,1.1859209664700853e-06,1.1662943638740668e-06,1.5099760855963274e-06,2.6908516642651704e-06
26,4.0873956378412425e-05,7.508827448005506e-06,5.4158847691296285e-06,1.607666149969876e-05,8.846420491605728e-07,7.775085212284177e-07,1.208309451266124e-06,1.851661271698111e-06,9.9366531809989e-06,4.673933482152897e-06,1.1792571858453794e-06,1.4498710392098064e-06,1.2016846296814167e-06,1.1631889373211396e-06,1.552063234179351e-06,2.7198150065939177e-06
27,4.052938381124021e-05,7.510950045071921e-06,5.320813024199394e-06,1.4903406065810128e-05,8.658894305867618e-07,7.70499802801318e-07,1.2128516531120831e-06,1.8616282660523603e-06,1.0524423061554611e-05,4.589886033452824e-06,1.1701052310217927e-06,1.4066393067660779e-06,1.216433959417458e-06,1.1596463601041265e-06,1.5998786058478757e-06,2.7396220819087333e-06
28,3.997972336464792e-05,7.499873026831406e-06,5.2049557609733024e-06,1.3839903477702085e-05,8.456553351335723e-07,7.64109978908125e-07,1.2153731680817985e-06,1.8702326148785005e-06,1.109573224973264e-05,4.521854248656231e-06,1.159377509826198e-06,1.363655134731062e-06,1.2303321436888944e-06,1.155760967091922e-06,1.6531614310753644e-06,2.7499918873217898e-06
29,3.92406506571266e-05,7.476626642730834e-06,5.068176934351434e-06,1.2898900693815075e-05,8.246885109977651e-07,7.583290529319399e-07,1.2159902162638024e-06,1.8772184042092828e-06,1.1643261021356624e-05,4.469740100802459e-06,1.1474481255877775e-06,1.3215855418770077e-06,1.2434835033008756e-06,1.1515264757658261e-06,1.7114430455847833e-06,2.750956995426863e-06
30,3.833129296173458e-05,7.441895692780077e-06,4.911050136707211e-06,1.2090910801871153e-05,8.037167236149135e-07,7.531274231109203e-07,1.214675471649699e-06,1.8826530166667613e-06,1.2158988354632633e-05,4.432711038789894e-06,1.1345683699515e-06,1.2810714978458807e-06,1.2558740648932223e-06,1.1468092626789038e-06,1.7741505750116764e-06,2.743009844167753e-06
31,3.7275426963843395e-05,7.395562958420573e-06,4.735287532140267e-06,1.1424799522401185e-05,7.834107993714886e-07,7.484747624679721e-07,1.2112524772587902e-06,1.8868704057072628e-06,1.263530077927973e-05,4.4091901199706975e-06,1.120879242282721e-06,1.242632929317329e-06,1.267320569967504e-06,1.1414023247614476e-06,1.8407437208600298e-06,2.7270786219597827e-06
32,3.609987363644591e-05,7.336714139137545e-06,4.543915908841554e-06,1.0908152021901306e-05,7.643417261915544e-07,7.443370283183631e-07,1.205562326743833e-06,1.8902431959037353e-06,1.3066134212382266e-05,4.396792709531686e-06,1.1064932832511705e-06,1.2066879176924354e-06,1.2774759489058956e-06,1.1351022973975087e-06,1.9107231797941214e-06,2.704254877786995e-06
33,3.4831649522829583e-05,7.264262082815528e-06,4.3409293003886435e-06,1.0547452153960688e-05,7.469752152332948e-07,7.407083878214831e-07,1.1976494108828623e-06,1.8929500625531568e-06,1.3447730572303735e-05,4.392363599609466e-06,1.0916234128835965e-06,1.1736443853813123e-06,1.285901242477879e-06,1.1277417463154461e-06,1.983485135916803e-06,2.6755062554843656e-06
34,3.349564787281724e-05,7.177776672229428e-06,4.1305637328462105e-06,1.0348114008650002e-05,7.316969226993411e-07,7.376296455712138e-07,1.1877847087576927e-06,1.8949108024830627e-06,1.3778832204314618e-05,4.392240120580267e-06,1.0766073322518012e-06,1.1439253530307216e-06,1.2921639374368245e-06,1.1191621297396029e-06,2.058157688358333e-06,2.641542227562523e-06
35,3.2113644806402516e-05,7.078107667555822e-06,3.916768503834727e-06,1.0314433286424765e-05,7.188238841306299e-07,7.35147158583135e-07,1.1763141367806348e-06,1.8959267783552302e-06,1.4060199192758466e-05,4.3926571167673544e-06,1.0617954801597736e-06,1.117921331409717e-06,1.2958745838061337e-06,1.1091771708398894e-06,2.1335108599235858e-06,2.6028217823911936e-06
36,3.070438650465161e-05,6.9676643743925176e-06,3.703143980534603e-06,1.0449637383691838e-05,7.085934799978555e-07,7.332936768518885e-07,1.163513972937722e-06,1.8958520970051886e-06,1.4293575181250212e-05,4.390095728575897e-06,1.0474695167524055e-06,1.0959569701008612e-06,1.296645362069483e-06,1.097638187177497e-06,2.207918100170603e-06,2.5596994694352618e-06
37,2.9284182071214658e-05,6.850238822973195e-06,3.4929693686570656e-06,1.0756180767031957e-05,7.011546260484644e-07,7.321501661511374e-07,1.1495638451413855e-06,1.8945946292134779e-06,1.4480477660867033e-05,4.381500985503696e-06,1.0338948905509573e-06,1.078314406682733e-06,1.294096917607902e-06,1.0845983673965767e-06,2.2793813453663648e-06,2.512579109609921e-06
38,2.786733795409875e-05,6.7303033094593364e-06,3.2890680330116357e-06,1.1236233576558117e-05,6.965582751349132e-07,7.319180914178507e-07,1.1345689021314612e-06,1.8919806256829203e-06,1.4621145572098476e-05,4.364485232766967e-06,1.0214334349396766e-06,1.0652757975991487e-06,1.287978969196882e-06,1.070379583369047e-06,2.3456942016400154e-06,2.4618781058103193e-06
39,2.6465765590487702e-05,6.612056463977243e-06,3.093726422016656e-06,1.1892063780609079e-05,6.947438833826465e-07,7.329172786194315e-07,1.1185777766966967e-06,1.887647544711775e-06,1.4713788912239607e-05,4.3375713633722246e-06,1.0105916656878734e-06,1.0571066133239827e-06,1.2782534575284638e-06,1.0554426624216581e-06,2.4047235966504917e-06,2.4078333114389963e-06
40,2.508798064446483e-05,6.498748747393107e-06,2.908801914034177e-06,1.2725876245152091e-05,6.955476707042624e-07,7.355050839204345e-07,1.1015851997331504e-06,1.8810036396517252e-06,1.4754443237948057e-05,4.3001897427397784e-06,1.0019476270971284e-06,1.0540100913200487e-06,1.2650214605015372e-06,1.0402081229954846e-06,2.4546546010393353e-06,2.350317724360516e-06
41,2.373903820960065e-05,6.392486147242773e-06,2.7358801186017597e-06,1.3738942732487011e-05,6.987305503171107e-07,7.399720347710079e-07,1.0835114218980596e-06,1.8712499353762818e-06,1.4737810426976192e-05,4.2522156628006486e-06,9.960229552412183e-07,1.0561170806545765e-06,1.2484264488374572e-06,1.0249738649946282e-06,2.4940564979236865e-06,2.288782127339835e-06
42,2.2422223190184246e-05,6.294235402186042e-06,2.5763439906320813e-06,1.4930460136371013e-05,7.039894508984335e-07,7.464777879624681e-07,1.0641979483019188e-06,1.8575031654634472e-06,1.4658843289752335e-05,4.193532644972255e-06,9.932035167351322e-07,1.0634775068853019e-06,1.228699490719204e-06,1.009942065514996e-06,2.521758588868095e-06,2.2224580278321123e-06
43,2.114106335189576e-05,6.203781090253999e-06,2.431325927327538e-06,1.629681286749247e-05,7.10937869069927e-07,7.550584352115053e-07,1.0434473329545915e-06,1.83898918541957e-06,1.4514408949301321e-05,4.12417646351963e-06,9.9371374930379e-07,1.0760596880856613e-06,1.2062540492934487e-06,9.953206291892236e-07,2.536694448957013e-06,2.1509074351171057e-06
44,1.9899931193180958e-05,6.119644764778611e-06,2.301593979360261e-06,1.7831412711831608e-05,7.190831801480591e-07,7.656869775355084e-07,1.0211174757807787e-06,1.815253659779286e-06,1.4304625909473548e-05,4.0447733140760045e-06,9.976068492966444e-07,1.0937763876945929e-06,1.181644767883841e-06,9.81416235419749e-07,2.5379739558736287e-06,2.0746104131224907e-06
45,1.8702999147617877e-05,6.039127371621784e-06,2.1874679637410308e-06,1.952469557487035e-05,7.278452828986879e-07,7.783296464630295e-07,9.9726905644456e-07,1.7863306972824692e-06,1.403359847677032e-05,3.956673430084108e-06,1.0047688395190963e-06,1.1164985407152457e-06,1.155470228972543e-06,9.686117650320089e-07,2.5252128700324895e-06,1.995065371602838e-06
46,1.755260426057502e-05,5.958624704233558e-06,2.0888012447553925e-06,2.1363878571929633e-05,7.366372897821775e-07,7.929422936609117e-07,9.722694649803866e-07,1.752735216511372e-06,1.3709255089832623e-05,3.861706983225735e-06,1.014926550777386e-06,1.1441021528191236e-06,1.1283713261433146e-06,9.57237003397873e-07,2.498803555486152e-06,1.9143274155428207e-06
47,1.644870082843932e-05,5.874170392352796e-06,2.0050089067172766e-06,2.3332431221444013e-05,7.44989587758908e-07,8.094135921886637e-07,9.467344762025188e-07,1.7152331321828998e-06,1.3342355045411706e-05,3.7619220331942375e-06,1.0276544907804388e-06,1.176559904949578e-06,1.1010347089033325e-06,9.474514333402703e-07,2.459844117666473e-06,1.8344313237605235e-06
48,1.5390173600277135e-05,5.782020954082204e-06,1.935139105982151e-06,2.5409377441207558e-05,7.526731130220678e-07,8.275198918166902e-07,9.2133637180797e-07,1.6745845994112832e-06,1.2945153044429776e-05,3.6595374711839607e-06,1.042434327838639e-06,1.2139411658736836e-06,1.0741239647850428e-06,9.39216896650768e-07,2.4097690585740296e-06,1.7570778716866786e-06
49,1.4376903031048915e-05,5.679170257332862e-06,1.8779548806406054e-06,2.75685478365911e-05,7.59750466673635e-07,8.46931899368723e-07,8.966319568425352e-07,1.6314860865315757e-06,1.2530138543688405e-05,3.556950707312754e-06,1.058757610141085e-06,1.2563193023421806e-06,1.0482354568288176e-06,9.323474471151094e-07,2.350017496880099e-06,1.6835853293304535e-06
50,1.3411000696400041e-05,5.5637712632651734e-06,1.832027748641758e-06,2.977794018599026e-05,7.664998255499136e-07,8.672557570107138e-07,8.730090499552745e-07,1.5866923517493127e-06,1.2108915711591803e-05,3.456574983590893e-06,1.07615665644349e-06,1.3037139789368968e-06,1.0239070452521832e-06,9.265854557157167e-07,2.2820096777603745e-06,1.6149400201536892e-06
51,1.249666295368963e-05,5.4353885716781505e-06,1.7959634324255086e-06,3.1999697565025264e-05,7.732684732989174e-07,8.880819118105924e-07,8.507212070791263e-07,1.5411325547213609e-06,1.1691314330239944e-05,3.360573585343971e-06,1.0941879487333407e-06,1.3560790272137677e-06,1.0016089870165019e-06,9.21645191341803e-07,2.207279443844665e-06,1.55182841412247e-06
52,1.1639067026280254e-05,5.294890385587503e-06,1.768750666480661e-06,3.4191759130210636e-05,7.80373632795161e-07,9.090300830824689e-07,8.299490468842196e-07,1.4958872140057951e-06,1.1285074168613508e-05,3.2706972583431575e-06,1.1124862635033233e-06,1.4132913506115636e-06,9.817339789687491e-07,9.17198737801261e-07,2.127453601141676e-06,1.4946327215025796e-06
53,1.0843082894359025e-05,5.143882583492685e-06,1.7499471722475176e-06,3.63119283670419e-05,7.880687460005953e-07,9.297747125906537e-07,8.108572807863105e-07,1.4520235411009204e-06,1.089619527438836e-05,3.1882491035394903e-06,1.130813981784572e-06,1.4751194899336028e-06,9.646212578260127e-07,9.128442273289056e-07,2.044078694001165e-06,1.4434584828741522e-06
54,1.0112381984023379e-05,4.984027143990313e-06,1.7395058606813996e-06,3.8323423445462734e-05,7.965174440527174e-07,9.500339861169823e-07,7.936073209342454e-07,1.4104149024368887e-06,1.052955986413238e-05,3.1140584928385526e-06,1.1489837508226787e-06,1.541200338748466e-06,9.505488817173154e-07,9.081060654884938e-07,1.958546295112973e-06,1.3982340488390252e-06
55,9.44909266640508e-06,4.816805188352121e-06,1.7374049108663075e-06,4.019928392201366e-05,8.057705911845349e-07,9.695273663141365e-07,7.783132711278202e-07,1.3716949700735296e-06,1.0189433429156712e-05,3.0484866079660876e-06,1.16672787338023e-06,1.6110555776254549e-06,9.39686364382267e-07,9.024839169986664e-07,1.8722094999492445e-06,1.3587972314974347e-06
56,8.853822815217246e-06,4.6437555103707905e-06,1.7433766000912154e-06,4.192314212640982e-05,8.157635992155237e-07,9.879256262881696e-07,7.650217519601925e-07,1.3363578635810493e-06,9.879668577011709e-06,2.9915855156731997e-06,1.183668971594527e-06,1.6840873967987746e-06,9.320689565728942e-07,8.955383468914528e-07,1.7865074814457607e-06,1.3248879911611802e-06
57,8.325754995602208e-06,4.4667143868945865e-06,1.7568752138241625e-06,4.3485784692460425e-05,8.263176534222474e-07,1.0048122853966377e-06,7.537791691908787e-07,1.3048645861971394e-06,9.60352512340333e-06,2.943318913230684e-06,1.1994314566925213e-06,1.7595502762945679e-06,9.275774918972274e-07,8.869933433557524e-07,1.7029400497330292e-06,1.2961093808844785e-06
58,7.86262774399059e-06,4.28782653668513e-06,1.777206980140305e-06,4.487929053718038e-05,8.371496714289195e-07,1.0196890914188282e-06,7.447064344829533e-07,1.277631585499877e-06,9.363218386859537e-06,2.9036185248863237e-06,1.213764756335564e-06,1.8365775433361097e-06,9.259056577478731e-07,8.768433444468378e-07,1.622924015486562e-06,1.2719233364060852e-06
59,7.460716181746082e-06,4.109479082220362e-06,1.803624584971752e-06,4.609247099778485e-05,8.479004743851709e-07,1.032081397775825e-06,7.379731415244783e-07,1.2549373977031734e-06,9.159518471785754e-06,2.872287154745441e-06,1.2265242433684015e-06,1.914255738817437e-06,9.265480042782745e-07,8.653924486883483e-07,1.5476413738372945e-06,1.2516580439131913e-06
60,7.115138413006043e-06,3.934286829926354e-06,1.8352934202009756e-06,4.711083318240413e-05,8.58167130656705e-07,1.0417124473229303e-06,7.337087177687978e-07,1.2368873288997353e-06,8.991627955279524e-06,2.848973179631606e-06,1.2375328767370074e-06,1.9916942300602765e-06,9.288210794389269e-07,8.531570737589891e-07,1.4779721793393784e-06,1.2345482012184083e-06
61,6.820571130417788e-06,3.7650546551823083e-06,1.8712567309741376e-06,4.792049090251794e-05,8.675648800692375e-07,1.04859844988488e-06,7.319437096519828e-07,1.2234864131693504e-06,8.857302088233512e-06,2.833298503045209e-06,1.246491375128749e-06,2.068057506449479e-06,9.319225524533574e-07,8.407176360265911e-07,1.4145215274212632e-06,1.21980737861731e-06
62,6.572030113970727e-06,3.604579448345573e-06,1.9105532718407475e-06,4.8512676831842694e-05,8.75822394713417e-07,1.05298818991101e-06,7.325856909202085e-07,1.2147091852361585e-06,8.753066201290158e-06,2.8249730241488623e-06,1.2530217518106373e-06,2.142555778172813e-06,9.350548018024795e-07,8.286158274120693e-07,1.3576591223912196e-06,1.2066468603088502e-06
63,6.365351499122361e-06,3.455353661515197e-06,1.9524337243778716e-06,4.8886367741154015e-05,8.82823218987822e-07,1.0552290951448541e-06,7.354132744281441e-07,1.2104721718824153e-06,8.674449107213135e-06,2.8237492243631912e-06,1.2567960109792155e-06,2.2144712761103745e-06,9.375803264039024e-07,8.172896437609174e-07,1.3075178916911505e-06,1.1942982035599323e-06
64,6.1973047222324164e-06,3.319411546329003e-06,1.9964600357567336e-06,4.904798140438439e-05,8.885407072311553e-07,1.0556546577255672e-06,7.400982457580454e-07,1.2105929787740033e-06,8.616256436879366e-06,2.8293034412472983e-06,1.2577037718548117e-06,2.283268957316314e-06,9.391029100824816e-07,8.070447912917617e-07,1.2639781915167404e-06,1.1821373943320594e-06
65,6.06544879934942e-06,3.1983671633356603e-06,2.04236391974771e-06,4.900768778494838e-05,8.929177763083819e-07,1.0545076662133292e-06,7.46244979396631e-07,1.2148195718089384e-06,8.572936884082562e-06,2.8411982321608125e-06,1.2559784053540179e-06,2.348631730775943e-06,9.394449567330304e-07,7.980582535516116e-07,1.2266628850807284e-06,1.1697836060707832e-06
66,5.967846054561586e-06,3.093449446071553e-06,2.0897694339528916e-06,4.877402719103366e-05,8.95792251728148e-07,1.0519025931379321e-06,7.534460481568927e-07,1.2228475296737316e-06,8.538976823825878e-06,2.858913432778568e-06,1.2521428512255748e-06,2.410275935875763e-06,9.385855854238234e-07,7.9038241435492e-07,1.1949499813682005e-06,1.1570437239088115e-06
67,5.902686636584001e-06,3.0054446279412775e-06,2.137993608209052e-06,4.835126320569475e-05,8.969670574853242e-07,1.0478648054501348e-06,7.613793033740627e-07,1.234268191971172e-06,8.50917000262008e-06,2.8818127088186464e-06,1.246800694946682e-06,2.46774165800305e-06,9.36583529041496e-07,7.839521616414687e-07,1.1680378675331049e-06,1.1437690857374855e-06
68,5.86783489261696e-06,2.9346460628875476e-06,2.1860866896485e-06,4.7741718456713924e-05,8.963939076199804e-07,1.042445192803785e-06,7.699192906996814e-07,1.2485211992967712e-06,8.478769800142624e-06,2.908976035432968e-06,1.2404664650190881e-06,2.5203444450680705e-06,9.3348711475107e-07,7.786422275570161e-07,1.1450678719353769e-06,1.1297528595824836e-06
69,5.860406193171747e-06,2.8809067265924905e-06,2.2331195415974173e-06,4.695023473815018e-05,8.942652048325358e-07,1.035827484492534e-06,7.791727268964146e-07,1.2649311414250201e-06,8.443761448568178e-06,2.938986521204885e-06,1.2335075210844386e-06,2.5671374562442685e-06,9.292959399101249e-07,7.74381954509552e-07,1.125237502185456e-06,1.11474659278601e-06
70,5.87663735416912e-06,2.8437852239985477e-06,2.2785536462199256e-06,4.598711533914552e-05,8.909010144506828e-07,1.0283317176168453e-06,7.893919281783617e-07,1.2828405260526876e-06,8.401416579679072e-06,2.969822220721445e-06,1.2261266018478595e-06,2.6068354211671237e-06,9.240298661551821e-07,7.712128319145496e-07,1.107878366484171e-06,1.0985441617812102e-06
71,5.9121487042403195e-06,2.8226937479561125e-06,2.3225332014531896e-06,4.486812584780155e-05,8.865684612244844e-07,1.0203038946772295e-06,8.008225085755632e-07,1.301749704134596e-06,8.350906569247787e-06,2.9989538662591185e-06,1.2183753428101224e-06,2.6379221814818238e-06,9.178567370241429e-07,7.692084743616967e-07,1.092526089958322e-06,1.0810202495973217e-06
72,5.9623307446263015e-06,2.8169764037809347e-06,2.3660706457568585e-06,4.361141585968287e-05,8.81391976732643e-07,1.0119972608994705e-06,8.135892047190658e-07,1.3213416890021725e-06,8.2934670036409e-06,3.0237195468010428e-06,1.2102089788157487e-06,2.65900213356418e-06,9.111596490905612e-07,7.683558907154865e-07,1.0789327798773692e-06,1.0621498922550955e-06
73,6.022579761600495e-06,2.8259386631945496e-06,2.411120307358593e-06,4.223279615261943e-05,8.753705467664913e-07,1.0035386015457812e-06,8.276835611983724e-07,1.3413841986116548e-06,8.231738941281617e-06,3.041934769046659e-06,1.201528696224094e-06,2.669179044388736e-06,9.044722553421094e-07,7.685005215580482e-07,1.066964176031035e-06,1.0420694304759135e-06
74,6.0883679394452825e-06,2.8488312272437295e-06,2.460467054340881e-06,4.074279484431363e-05,8.684404569871094e-07,9.949621641581931e-07,8.430145051219882e-07,1.3616038736631262e-06,8.168548730534752e-06,3.05244818336621e-06,1.192240607143821e-06,2.6682344860749417e-06,8.983448560455752e-07,7.693421943051056e-07,1.0564835718044668e-06,1.021092613268328e-06
75,6.155183935415321e-06,2.884752555928406e-06,2.5173754116191193e-06,3.914780914635007e-05,8.605029661840277e-07,9.862607837280237e-07,8.594297798781336e-07,1.3816172224763227e-06,8.106108351040915e-06,3.0552283264235305e-06,1.1823804718409513e-06,2.6565706167495782e-06,8.932563682785489e-07,7.704771430792011e-07,1.0473211532410045e-06,9.996449492468466e-07
76,6.2183424014416915e-06,2.9326219068256616e-06,2.5851343569578974e-06,3.745374480746328e-05,8.51402165299945e-07,9.774110079662092e-07,8.767065164373776e-07,1.4009437115264897e-06,8.04620463459449e-06,3.050884251525722e-06,1.1721729707528585e-06,2.6350497249680593e-06,8.895938137510664e-07,7.715126524735312e-07,1.0392665322015048e-06,9.78215563676191e-07
77,6.273009047896697e-06,2.9914390035196784e-06,2.666806956382809e-06,3.566916134531648e-05,8.409426389385497e-07,9.68351796091791e-07,8.945915025126597e-07,1.4190764018166797e-06,7.990685919154694e-06,3.040104824520688e-06,1.1619184271408214e-06,2.6048326959908457e-06,8.876512398540026e-07,7.721995063542832e-07,1.0320820440769984e-06,9.57326206981154e-07
78,6.31496679773465e-06,3.0606931815224536e-06,2.76532167257526e-06,3.38068086920291e-05,8.29004988421748e-07,9.589866076811577e-07,9.128908305534858e-07,1.4355658338446982e-06,7.94142200175739e-06,3.023504737629665e-06,1.1518318789960611e-06,2.5671739745866046e-06,8.876219546492225e-07,7.724624260510528e-07,1.025595360677027e-06,9.374510038288845e-07
79,6.341773635955487e-06,3.1405738922955486e-06,2.8836749294905795e-06,3.188383030711435e-05,8.156909658902251e-07,9.492536044034491e-07,9.31506799717364e-07,1.450080345186451e-06,7.899818688096977e-06,3.0017839067083297e-06,1.1419800321459358e-06,2.523158581869314e-06,8.895853951585656e-07,7.723028290169167e-07,1.0197666395136325e-06,9.189421631265619e-07
80,6.3531332221026e-06,3.231860671318912e-06,3.0249502252119323e-06,2.992099896428302e-05,8.013706434356087e-07,9.391617217153602e-07,9.503666668665944e-07,1.4624048980966185e-06,7.866389139667484e-06,2.9759142400509166e-06,1.132327955420767e-06,2.473565337410173e-06,8.935032671168898e-07,7.716948878539881e-07,1.0146337200129203e-06,9.020356160536772e-07
81,6.350054099842076e-06,3.3356143793682608e-06,3.1921020376150145e-06,2.7941276981787853e-05,7.865786024230134e-07,9.28725007113076e-07,9.693220386188364e-07,1.4723605715688138e-06,7.840620757652491e-06,2.9472536281556546e-06,1.1228314454322832e-06,2.4189875090220232e-06,8.992586371545526e-07,7.705696466229107e-07,1.010233452958047e-06,8.869131813493684e-07
82,6.333803514591763e-06,3.4528158747196455e-06,3.3876716138288887e-06,2.5968155039866165e-05,7.718550877358272e-07,9.17886566513471e-07,9.881454528676474e-07,1.4797392374935567e-06,7.821051231960206e-06,2.917501882323979e-06,1.113470552189191e-06,2.360055217734448e-06,9.067354004525482e-07,7.688537256817239e-07,1.0065746162506085e-06,8.737630267579995e-07
83,6.305764092825142e-06,3.5840786337696917e-06,3.6136541076307358e-06,2.4024254301575914e-05,7.576500796868003e-07,9.065146308785086e-07,1.0066447068765982e-06,1.4843921652680038e-06,7.805479492026237e-06,2.8884435467457913e-06,1.1042086386176523e-06,2.2975686835904542e-06,9.158642546487802e-07,7.664985574093903e-07,1.0036223096956446e-06,8.627909616969087e-07
84,6.268008440908615e-06,3.729606234497819e-06,3.871592307753464e-06,2.213030151445957e-05,7.443007081286901e-07,8.944646732035395e-07,1.0247795125483955e-06,1.4864189026164196e-06,7.791364242833273e-06,2.8616473594233045e-06,1.0949920876602701e-06,2.2325269010254536e-06,9.266358010381181e-07,7.63467274089104e-07,1.0013005107487515e-06,8.541796998523011e-07
85,6.223529970167811e-06,3.88943213221605e-06,4.1627458339424975e-06,2.030422475372723e-05,7.320642090472701e-07,8.816840993962848e-07,1.0426549582527191e-06,1.486244347293948e-06,7.776370374904018e-06,2.8383763778948712e-06,1.085800967007843e-06,2.166094167624914e-06,9.39140627326719e-07,7.597071144435532e-07,9.995355769078393e-07,8.480588164409793e-07
86,6.175671327412767e-06,4.063666960837063e-06,4.488116409438629e-06,1.8560316831526115e-05,7.211955605655426e-07,8.682764739645081e-07,1.060404518430477e-06,1.48450091971936e-06,7.758925411202556e-06,2.819725643123483e-06,1.076642077828192e-06,2.099517366089582e-06,9.535641953015752e-07,7.551544934991339e-07,9.982988928545648e-07,8.445090630416547e-07
87,6.127443075612119e-06,4.252435477323065e-06,4.848245228212136e-06,1.6908954072090176e-05,7.12003986981894e-07,8.544403928610114e-07,1.078102679598332e-06,1.4818258704089263e-06,7.738643025250715e-06,2.806773682935907e-06,1.0675149884394294e-06,2.033994007551008e-06,9.700830254161913e-07,7.49756719099388e-07,9.97615405645979e-07,8.435547731421218e-07
88,6.081464778958882e-06,4.455519914544499e-06,5.242886052370737e-06,1.5357238088915437e-05,7.048249615331767e-07,8.403534492842396e-07,1.0957637599816228e-06,1.4787000502663464e-06,7.716323182164575e-06,2.80055625469529e-06,1.058437348192182e-06,1.9705294364456665e-06,9.88761822064143e-07,7.43516843551791e-07,9.975598611243175e-07,8.451704961765123e-07
89,6.04030187001612e-06,4.672051336769556e-06,5.670725774836765e-06,1.391014799082355e-05,6.999343705625411e-07,8.261128211374429e-07,1.1133412413525654e-06,1.4753816071969368e-06,7.693316049504809e-06,2.801862170846669e-06,1.0494741475773362e-06,1.9099159527703294e-06,1.0095036367580275e-06,7.365687393040427e-07,9.982933637685964e-07,8.493658844431024e-07
90,6.006626911923682e-06,4.900505514001649e-06,6.129207224902803e-06,1.2571542394266494e-05,6.974782442580818e-07,8.117709753912652e-07,1.130719796940971e-06,1.4719476873668793e-06,7.670690543879759e-06,2.81102380973726e-06,1.0407220321638076e-06,1.8528892257713978e-06,1.0320173448413905e-06,7.291845259843588e-07,1.0001180740811433e-06,8.56267360070548e-07
91,5.983038823242898e-06,5.138892291480384e-06,6.6144149757909115e-06,1.1344718691654388e-05,6.974499743935178e-07,7.974517294931672e-07,1.1477707569206565e-06,1.4684182427389855e-06,7.64888767008114e-06,2.8278227415743956e-06,1.0322735578086964e-06,1.8002539292922998e-06,1.055808630502518e-06,7.216925609384842e-07,1.0034592853149978e-06,8.660759525838675e-07
92,5.971671542984441e-06,5.3848676459936604e-06,7.121076983553935e-06,1.0232522223088979e-05,6.997002273399001e-07,7.83425931208713e-07,1.1644053415520383e-06,1.4648910536724578e-06,7.627769138423813e-06,2.851508935837689e-06,1.024188633435273e-06,1.752783166760055e-06,1.0802283447392132e-06,7.144204457250701e-07,1.0088094050320019e-06,8.789471460133273e-07
93,5.97384380730176e-06,5.6356130758880895e-06,7.642772256919407e-06,9.23717200246748e-06,7.039771927798033e-07,7.700484567683941e-07,1.180511376380811e-06,1.4615983290882133e-06,7.6065157086128535e-06,2.8809679739587555e-06,1.0164998370991463e-06,1.7110000126753108e-06,1.1045618168581021e-06,7.076874296315097e-07,1.0167426347948714e-06,8.94904089000906e-07
94,5.9900188884972e-06,5.887560612623198e-06,8.172276472141014e-06,8.360090309735465e-06,7.100196666045368e-07,7.576440412803158e-07,1.1958240970971747e-06,1.4588259997257057e-06,7.583468481600477e-06,2.915009695504062e-06,1.0092188361207009e-06,1.67504053404714e-06,1.1281056402706605e-06,7.018026993792766e-07,1.0279510296330833e-06,9.138398819897047e-07
95,6.020114172620462e-06,6.136226496572715e-06,8.70191263145992e-06,7.6019502125447045e-06,7.176715447854724e-07,7.464520543532253e-07,1.209853840315233e-06,1.45675437258516e-06,7.5565315534755e-06,2.952526998303871e-06,1.0022982160940592e-06,1.644641722707613e-06,1.1502125328164652e-06,6.970886517400021e-07,1.0431749196833032e-06,9.356620698490108e-07
96,6.063866392964487e-06,6.376286222581898e-06,9.223938962945556e-06,6.962951111292719e-06,7.269160122892792e-07,7.366336034318675e-07,1.2218958776404195e-06,1.4553701380029589e-06,7.524185896252709e-06,2.9923381986057255e-06,9.955804083495088e-07,1.619212154487544e-06,1.1703305755529362e-06,6.939125216049135e-07,1.0630573972464438e-06,9.60536148146391e-07
97,6.12096160857592e-06,6.601810991487079e-06,9.731093567554231e-06,6.44318811938718e-06,7.3780353023955e-07,7.283017160048817e-07,1.2311268569997847e-06,1.45450650993294e-06,7.486301768462621e-06,3.0329391995026978e-06,9.888004298170346e-07,1.5979326889760506e-06,1.1880474248693476e-06,6.926646966194992e-07,1.08806442611017e-06,9.89001331503158e-07
98,6.191024912118349e-06,6.806645869838048e-06,1.0217241138921284e-05,6.042953566428757e-06,7.503844943945549e-07,7.215310499814932e-07,1.2368146620932875e-06,1.4539023096954928e-06,7.443950000648903e-06,3.0725367729347413e-06,9.816969003752157e-07,1.5798156737989923e-06,1.2030791989528361e-06,6.936911755327753e-07,1.1185280169725905e-06,1.0218304262590753e-06
99,6.273760840567404e-06,6.98495631178563e-06,1.067789780039933e-05,5.762827826342096e-06,7.647124825635588e-07,7.163408888365925e-07,1.2385427999306347e-06,1.4531902845778446e-06,7.39836458419986e-06,3.109393340135755e-06,9.741590600709905e-07,1.563719882043538e-06,1.2151514873751455e-06,6.972317246788682e-07,1.154748709031229e-06,1.0597939167202028e-06
100,6.3692398730635114e-06,7.1318134736812314e-06,1.1110466223762998e-05,5.6034803244725715e-06,7.808499822168252e-07,7.126758010016149e-07,1.23627589942415e-06,1.4519214104286382e-06,7.350112953719398e-06,3.142205781495735e-06,9.662371249675744e-07,1.5484266254793802e-06,1.2238733246663293e-06,7.033917686107735e-07,1.197054496105253e-06,1.103520060150662e-06
101,6.4779540183678625e-06,7.243598561527172e-06,1.1514148556158518e-05,5.565259677170803e-06,7.98831898644825e-07,7.103937995765503e-07,1.230253350821536e-06,1.4497302187191958e-06,7.299188297247505e-06,3.1702806849850644e-06,9.58057171945659e-07,1.5328270237689675e-06,1.2287686179808057e-06,7.121455101290299e-07,1.2457649687415976e-06,1.153458674667138e-06
102,6.600412567701152e-06,7.3180354941661526e-06,1.1889563448535226e-05,5.647789385881248e-06,8.186189575008536e-07,7.092699719058989e-07,1.2208523655637023e-06,1.4465010568008286e-06,7.245718609513689e-06,3.1934793386567227e-06,9.498115356886346e-07,1.516113250139548e-06,1.2294764944156718e-06,7.233573523564743e-07,1.301095955680807e-06,1.2098654906991743e-06
103,6.736700542159903e-06,7.3536977906303545e-06,1.2238113668682557e-05,5.849712607365129e-06,8.400626343509868e-07,7.090350854330142e-07,1.2085065797687565e-06,1.4423621500405048e-06,7.1908130947900675e-06,3.2120523910947672e-06,9.417664528973762e-07,1.4978679269017824e-06,1.2259724207458668e-06,7.368116635637424e-07,1.3630785435314974e-06,1.2727690801763573e-06
104,6.88662475384129e-06,7.349205403566374e-06,1.25611653152829e-05,6.168536604354263e-06,8.628961376008389e-07,7.094510810787261e-07,1.193641487111235e-06,1.4375330634620467e-06,7.13733460441555e-06,3.2264998220545374e-06,9.341765683358663e-07,1.4780694630939349e-06,1.21865089466345e-06,7.522469284422579e-07,1.4315620038571898e-06,1.3419382847899488e-06
105,7.050400166968585e-06,7.302950727377206e-06,1.2859102511821892e-05,6.600525138734206e-06,8.867549423027641e-07,7.103539497811462e-07,1.1765919590100528e-06,1.432154871137709e-06,7.090299965629732e-06,3.2374974709760554e-06,9.27184651974773e-07,1.4570387264508823e-06,1.2082187670527089e-06,7.694010920717511e-07,1.5063052428079301e-06,1.4168772568892036e-06
106,7.229285558241224e-06,7.2138167274963305e-06,1.3130414676623798e-05,7.14080926303627e-06,9.112032649084908e-07,7.116059451759475e-07,1.1575672085528036e-06,1.4262320532309983e-06,7.056626453521937e-06,3.2457856704089782e-06,9.207921813075877e-07,1.4352881806406684e-06,1.1954740275435658e-06,7.880456008033634e-07,1.5870667546586294e-06,1.4968385484221052e-06
107,7.425737022930594e-06,7.082152973671284e-06,1.3371174701990419e-05,7.78395113894408e-06,9.357665916463988e-07,7.130181545021376e-07,1.13672694145172e-06,1.4197460603024627e-06,7.044314315200937e-06,3.2519425118938386e-06,9.149047850817722e-07,1.413305003946021e-06,1.1811070028363802e-06,8.079621414291181e-07,1.673621254675088e-06,1.5808143683130312e-06
108,7.64301457605334e-06,6.910175909750709e-06,1.3575226955107109e-05,8.524851782562325e-06,9.599510910879316e-07,7.143190923833235e-07,1.1142992953975004e-06,1.41282817717817e-06,7.0615066916989605e-06,3.256208447287649e-06,9.094423053169498e-07,1.3914092427661817e-06,1.1656451996051064e-06,8.28883412137775e-07,1.765701657780919e-06,1.667531854458942e-06
109,7.884445982019934e-06,6.701851059506958e-06,1.3735006510317528e-05,9.359477762821536e-06,9.831954884183908e-07,7.151970651207587e-07,1.0906224608834276e-06,1.4057947223111591e-06,7.1158312752418454e-06,3.2585663569768665e-06,9.044286151523524e-07,1.3697312200063042e-06,1.1495628155077671e-06,8.504784580355893e-07,1.8628829325596134e-06,1.75554420171414e-06
110,8.152684440674676e-06,6.46267510413703e-06,1.3842672769863078e-05,1.0284907376160618e-05,1.004795838429033e-06,7.154321583229707e-07,1.0661024596026379e-06,1.3990363873046763e-06,7.214066884770035e-06,3.2589804191536825e-06,8.999528548947583e-07,1.3482223554492158e-06,1.1334258310148468e-06,8.724372250458175e-07,1.9644561680745197e-06,1.8433803764792182e-06
111,8.449195764138408e-06,6.199457573481324e-06,1.3891358763320968e-05,1.1298641463651835e-05,1.0239328808604033e-06,7.150478586942393e-07,1.0411683889249612e-06,1.3929475864576007e-06,7.361919113235863e-06,3.2575392967503483e-06,8.960418975273943e-07,1.326689429090615e-06,1.1179031072636401e-06,8.946064362303458e-07,2.0693448224651456e-06,1.9295975265181007e-06
112,8.773956898423213e-06,5.919900751084893e-06,1.3876392538999427e-05,1.2397490271404246e-05,1.0398660197929822e-06,7.143418790969323e-07,1.016266471643914e-06,1.3879489070595876e-06,7.563801667781068e-06,3.254419590715957e-06,8.925865816955721e-07,1.3048819610484186e-06,1.1036349268942298e-06,9.170468558331469e-07,2.1760565887715304e-06,2.0127923099653672e-06
113,9.125207625756396e-06,5.631881700924582e-06,1.3796200240085314e-05,1.3576440418478407e-05,1.0522046791842009e-06,7.137768628524119e-07,9.91855250749089e-07,1.3844627556357657e-06,7.822813183717136e-06,3.2498031822067697e-06,8.894083325494358e-07,1.2825704835225191e-06,1.0911141392854427e-06,9.399700526889213e-07,2.2826587237050004e-06,2.0917620124433945e-06
114,9.499187229608169e-06,5.342684799542223e-06,1.3652570294780474e-05,1.482788953375847e-05,1.0610546419889664e-06,7.138607081822686e-07,9.683562732700595e-07,1.3827914107375305e-06,8.141042993656645e-06,3.2439394808184744e-06,8.864144565828067e-07,1.2595821588733948e-06,1.0806710199167644e-06,9.636187093853832e-07,2.3867893164207043e-06,2.1656641611521146e-06
115,9.889918470215805e-06,5.058562350565165e-06,1.345022492485711e-05,1.6141427139369048e-05,1.06691118811052e-06,7.150881269094221e-07,9.460726693642545e-07,1.3830159676266417e-06,8.51991081590901e-06,3.2373873480486336e-06,8.83674767836909e-07,1.2358468551725922e-06,1.072486276862145e-06,9.881539360750906e-07,2.4856803968750306e-06,2.2339030610187778e-06
116,1.0289098287261455e-05,4.784735677915671e-06,1.3195976114411759e-05,1.7504002979507358e-05,1.070412690832384e-06,7.1789813103872e-07,9.251270177553451e-07,1.3850393258242189e-06,8.960157202108162e-06,3.2312873581311325e-06,8.813372919203039e-07,1.2114572631758485e-06,1.0665718875007848e-06,1.0136060878141118e-06,2.57618836545635e-06,2.2959459111995496e-06
117,1.0686064114275931e-05,4.525611771798109e-06,1.2897809107736062e-05,1.8900226869705976e-05,1.0721690383785282e-06,7.226250954092638e-07,9.054398868954298e-07,1.3887795548713302e-06,9.46152305614806e-06,3.2274712479188724e-06,8.795165526623785e-07,1.1867030864343464e-06,1.0627868454885163e-06,1.039888599076078e-06,2.6550042542276545e-06,2.351359542799896e-06
118,1.1067825308093648e-05,4.284945216916607e-06,1.2564009202622668e-05,2.031265843272457e-05,1.0727061509838368e-06,7.294619005627809e-07,8.867319483391222e-07,1.3943812036365565e-06,1.0022442209533843e-05,3.228279273805442e-06,8.782922019806903e-07,1.1620935432129808e-06,1.0609270446213265e-06,1.0668071418103266e-06,2.719199081065303e-06,2.3998780457862376e-06
119,1.1419507705410196e-05,4.0658633402961565e-06,1.2202227380641104e-05,2.172205158523629e-05,1.072431505593454e-06,7.384374273095665e-07,8.685521422771311e-07,1.4022559845817042e-06,1.0639926390697974e-05,3.2362381010501254e-06,8.777662188868179e-07,1.1383578339621043e-06,1.0607962592272839e-06,1.0940355327748384e-06,2.7668385269752036e-06,2.441291736911501e-06
120,1.1725837555804733e-05,3.87084997618956e-06,1.1818563258163351e-05,2.3107426387354956e-05,1.0715960650114015e-06,7.494125888884376e-07,8.503593739190454e-07,1.4129080338045708e-06,1.130961374585513e-05,3.2539433364027734e-06,8.780626981070291e-07,1.1163550288628101e-06,1.0621778698526982e-06,1.1210821933331497e-06,2.7971683685578124e-06,2.47527761174155e-06
121,1.1973629381448966e-05,3.701785791736981e-06,1.141711828691846e-05,2.4445610559227502e-05,1.070292275200061e-06,7.62119652338841e-07,8.316500703022112e-07,1.4267235656445218e-06,1.2025956452426634e-05,3.2840983916591943e-06,8.792562936247922e-07,1.0969303614721814e-06,1.064772128775034e-06,1.1472871947025636e-06,2.810210831666433e-06,2.501277820607262e-06
122,1.2154050982164199e-05,3.559990760034053e-06,1.10002467710087e-05,2.57105257523471e-05,1.068483426548826e-06,7.76253274992994e-07,8.120801470907498e-07,1.4438763306462105e-06,1.2782517108607455e-05,3.3293575836844088e-06,8.813109874047523e-07,1.0808371032636732e-06,1.0681919394013654e-06,1.1718948188214492e-06,2.806121718275552e-06,2.5184825368403853e-06
123,1.22631989193325e-05,3.446171975063693e-06,1.0569163915987996e-05,2.6873904639256166e-05,1.0660235932361038e-06,7.915485722357015e-07,7.915521684198655e-07,1.4643063259856356e-06,1.3572182653755862e-05,3.3919859617105324e-06,8.840824631054709e-07,1.068717149578978e-06,1.0720137940089888e-06,1.1941942597043034e-06,2.784865675969185e-06,2.5260494884380257e-06
124,1.2300595214040931e-05,3.3603500037146557e-06,1.0124556041002608e-05,2.790869326772536e-05,1.0626654258592665e-06,8.077662851345471e-07,7.702716960653076e-07,1.4877104376316145e-06,1.4387151542091114e-05,3.4736193199029002e-06,8.873431427291523e-07,1.0610679304521405e-06,1.0758326824332153e-06,1.2136675604450082e-06,2.7464552548254933e-06,2.5235101123230676e-06
125,1.2266797212644922e-05,3.3019564473024386e-06,9.667118890148422e-06,2.8793823180818757e-05,1.0581057486504503e-06,8.246157056034592e-07,7.487483371820812e-07,1.5135643029713595e-06,1.521889929236086e-05,3.575228466521789e-06,8.907998107505935e-07,1.0582165942993344e-06,1.079277158346111e-06,1.230086089590844e-06,2.6914467150043117e-06,2.511055893949021e-06
126,1.2162090964625589e-05,3.2701733387293344e-06,9.198023520535341e-06,2.951769636940142e-05,1.0520954718404075e-06,8.416987594104138e-07,7.27699619530688e-07,1.541214470793621e-06,1.6058386986215836e-05,3.6972417837667545e-06,8.941380039361123e-07,1.0603219804398127e-06,1.0819806472059685e-06,1.243501595207126e-06,2.6212169148169833e-06,2.489479173846875e-06
127,1.1986876956657774e-05,3.2643223386777316e-06,8.71928484010407e-06,3.007867341519467e-05,1.0445536889517964e-06,8.584976172926991e-07,7.078866035836435e-07,1.57001325780834e-06,1.689636087123628e-05,3.839718792487838e-06,8.970821496621021e-07,1.0673626255089696e-06,1.0835501843656752e-06,1.2541182483867143e-06,2.5378587211271968e-06,2.4598354791790956e-06
128,1.174247478885172e-05,3.2840014239891693e-06,8.233976768756617e-06,3.0482289618039387e-05,1.0355943079056492e-06,8.744242128443435e-07,6.899786928781512e-07,1.5993755799877684e-06,1.7723360370957403e-05,4.002421667711451e-06,8.994173215136677e-07,1.0791110598714016e-06,1.0835750684965738e-06,1.2621129271399637e-06,2.4438585705880732e-06,2.4231312459032512e-06
129,1.1431487161925491e-05,3.3288968007654517e-06,7.746236724535465e-06,3.073645787132787e-05,1.025455063785839e-06,8.889464214464621e-07,6.744976680530726e-07,1.6286986290787152e-06,1.8529421109621124e-05,4.1847299236043e-06,9.009905918339485e-07,1.0951405376957026e-06,1.0816911135543452e-06,1.2675051824087668e-06,2.341763705373597e-06,2.380312942607078e-06
130,1.105816762593688e-05,3.3984919627284056e-06,7.261050506547104e-06,3.084774672059894e-05,1.014416455735719e-06,9.017012807838951e-07,6.618126056473497e-07,1.657237773910938e-06,1.9303928546526803e-05,4.385450252275762e-06,9.017430428590899e-07,1.1148745119263003e-06,1.0776729697484095e-06,1.2701511918674566e-06,2.233956984867253e-06,2.3324689838071957e-06
131,1.0629075750401607e-05,3.491878019009214e-06,6.783855415201305e-06,3.082143503067957e-05,1.002782945638536e-06,9.124890448383874e-07,6.52158319936575e-07,1.6840657642729443e-06,2.0035841457594233e-05,4.602606450298618e-06,9.01757194147052e-07,1.137645968362717e-06,1.0715029423971288e-06,1.2698404293910786e-06,2.1226011488567337e-06,2.2809042637972723e-06
132,1.0153555173620301e-05,3.6076418751576446e-06,6.320035250030323e-06,3.0664564323781034e-05,9.908968736971626e-07,9.211901893200472e-07,6.45665706554401e-07,1.7081625100907788e-06,2.0713616862579534e-05,4.833373582955015e-06,9.012598587123337e-07,1.162738421592893e-06,1.063377951734422e-06,1.2663756371276401e-06,2.009696598296785e-06,2.2270138768541696e-06
133,9.6435514417133e-06,3.743737970751953e-06,5.874413706594703e-06,3.0388966411590484e-05,9.791152095440576e-07,9.277227102054259e-07,6.42384621631227e-07,1.7285840230241358e-06,2.132434159264198e-05,5.074261190207287e-06,9.005461852112709e-07,1.1893957050914747e-06,1.0536367590197024e-06,1.2595831723225191e-06,1.8971025837336863e-06,2.1721856501002455e-06
134,9.11277931228858e-06,3.897372087893077e-06,5.4508696360385884e-06,3.0012283366824075e-05,9.677407516401676e-07,9.320400733019286e-07,6.422936344725465e-07,1.74461148255993e-06,2.1853520266798703e-05,5.321309956526807e-06,8.998597764130881e-07,1.2167934917943311e-06,1.0426387643486063e-06,1.249353248282078e-06,1.786471363716529e-06,2.1177783129280855e-06
135,8.575583242815955e-06,4.0649734221380295e-06,5.052163377507833e-06,2.9556769895902547e-05,9.569526088529968e-07,9.341069814487918e-07,6.453100945160604e-07,1.7558219450381716e-06,2.2287268869238568e-05,5.570024033600532e-06,8.993104730662477e-07,1.2440286951761361e-06,1.030683184684431e-06,1.235776328742048e-06,1.679160487916312e-06,2.0650408569172284e-06
136,8.045867495267444e-06,4.242329028089997e-06,4.679956946748768e-06,2.9046762570779254e-05,9.467730595488559e-07,9.339246704972371e-07,6.513065709427835e-07,1.7621024015655977e-06,2.2615899841600016e-05,5.815329209568018e-06,8.988903764369249e-07,1.2702304499443072e-06,1.0180122072765645e-06,1.2192694227983582e-06,1.5761881495761238e-06,2.0150041961789393e-06
137,7.536361582184087e-06,4.424999279990194e-06,4.334901840453644e-06,2.850613523436328e-05,9.370792753073521e-07,9.316722242085115e-07,6.601192453067556e-07,1.76365620134457e-06,2.283640911697549e-05,6.052026291767312e-06,8.985845037756536e-07,1.2947629308587117e-06,1.0048310012438642e-06,1.2005568496018024e-06,1.4782524814557613e-06,1.9684193444503335e-06
138,7.058286197776304e-06,4.608961989565561e-06,4.0167055276980045e-06,2.7956720070058523e-05,9.276261131617766e-07,9.277977438317125e-07,6.715322047282678e-07,1.7609966968530467e-06,2.2952884116058667e-05,6.275604164623543e-06,8.984713598009464e-07,1.3173165143501904e-06,9.912990831360884e-07,1.1805043259325387e-06,1.385810660322201e-06,1.9257238316802642e-06
139,6.621307746772288e-06,4.791154956882642e-06,3.724280343788499e-06,2.7417911498298225e-05,9.180420628041366e-07,9.229112973718859e-07,6.852563808883488e-07,1.7548657955306541e-06,2.2975496500482816e-05,6.482926288138266e-06,8.986950588343221e-07,1.3377756345944304e-06,9.775500840016258e-07,1.1599246944329288e-06,1.299207931451517e-06,1.8870391732188255e-06
140,6.23364229354481e-06,4.9696623713211864e-06,3.4561211801388473e-06,2.690706707786086e-05,9.07849732551265e-07,9.176071266347913e-07,7.009563434513491e-07,1.7460574503524524e-06,2.291895786888821e-05,6.672491901760651e-06,8.993603635731075e-07,1.356033805801239e-06,9.637472410941252e-07,1.139487290226408e-06,1.2187836361617717e-06,1.8521931516011777e-06
141,5.902241941008727e-06,5.143567611156212e-06,3.2108069276282944e-06,2.644013902876152e-05,8.965984023704069e-07,9.123724569766507e-07,7.183458874117066e-07,1.7352254896969643e-06,2.2800594158354693e-05,6.8442462173499736e-06,9.004703412992469e-07,1.3719650419446252e-06,9.500786182700829e-07,1.119766341089312e-06,1.1448687526335724e-06,1.820780985006214e-06
142,5.633049501896313e-06,5.3125468695091685e-06,2.9873535660339134e-06,2.6032136312668537e-05,8.840616451389501e-07,9.075566925956367e-07,7.372857131102879e-07,1.7227625988769376e-06,2.263788513065303e-05,6.999108460100037e-06,9.019164850987421e-07,1.3855225388055856e-06,9.366670409216866e-07,1.1013239998014444e-06,1.0777120461697839e-06,1.7923217176910765e-06
143,5.431267388134689e-06,5.476267476746723e-06,2.785311212903598e-06,2.5697221405284848e-05,8.703357017375569e-07,9.033441307298403e-07,7.577872845114308e-07,1.7087664069062748e-06,2.2446240820195496e-05,7.1383305122507155e-06,9.035174251824365e-07,1.3968324872266689e-06,9.235051376796214e-07,1.0847093436183966e-06,1.0174156514639118e-06,1.7664671876289809e-06
144,5.301486204655947e-06,5.633883902780435e-06,2.60472387447608e-06,2.544830443481188e-05,8.557677371918345e-07,8.997446305096998e-07,7.799161409031704e-07,1.6930688551399764e-06,2.2238449814488564e-05,7.262735670699368e-06,9.050946410441121e-07,1.406214973426765e-06,9.10515848081879e-07,1.0704041912056386e-06,9.63913880359623e-07,1.7431412771534949e-06
145,5.2476031621040374e-06,5.784023951626886e-06,2.44605696354849e-06,2.5296046328875425e-05,8.408104313336545e-07,8.966343784273513e-07,8.036843787524807e-07,1.6752974400173234e-06,2.2025956180982066e-05,7.372134077274887e-06,9.064880867615147e-07,1.4140925540223998e-06,8.976756507281131e-07,1.058790640277724e-06,9.170011141199179e-07,1.722533543047876e-06
146,5.272790144688426e-06,5.925321021791793e-06,2.3100326183248548e-06,2.5247467997892776e-05,8.259169440515579e-07,8.938573930874885e-07,8.289982212916832e-07,1.6549712827464665e-06,2.1820450879094634e-05,7.46523233821978e-06,9.074841449900892e-07,1.4208409043127919e-06,8.850513167148285e-07,1.0501196283155036e-06,8.763724275354191e-07,1.7049695002388367e-06
147,5.379758422039325e-06,6.05713950274411e-06,2.1973453149558076e-06,2.5304770116508494e-05,8.115013631889249e-07,8.913200512858599e-07,8.556409349509722e-07,1.6316632130739922e-06,2.1634341307226686e-05,7.539974716081913e-06,9.077912860218587e-07,1.426769033510731e-06,8.727592028199971e-07,1.0444794903605322e-06,8.416539134928052e-07,1.6907550491489428e-06
148,5.571038014834456e-06,6.179937154775919e-06,2.108427747656429e-06,2.5464813899098137e-05,7.979322034788705e-07,8.889758462854454e-07,8.832533510582041e-07,1.605171216582703e-06,2.1479805552545058e-05,7.594048245496933e-06,9.071629483930634e-07,1.4322553099381017e-06,8.609382175640155e-07,1.0418151040093445e-06,8.124339097938279e-07,1.6800915170268317e-06
149,5.848841990541231e-06,6.294873385186506e-06,2.043383350028517e-06,2.5719221675764407e-05,7.855143472995263e-07,8.867318787610216e-07,9.113232209170925e-07,1.5755764305727387e-06,2.1367119258217004e-05,7.625280622741159e-06,9.055337547771159e-07,1.437799555505216e-06,8.49709715320352e-07,1.0419969185734995e-06,7.882826006937428e-07,1.673086734846837e-06
150,6.2146106187482155e-06,6.402921783809246e-06,2.001984718547274e-06,2.6055279546546136e-05,7.74445298460274e-07,8.844331903091379e-07,9.392284884431191e-07,1.5431705248538426e-06,2.130346180292975e-05,7.63179857931444e-06,9.029836488135087e-07,1.4439135522322589e-06,8.391078440665303e-07,1.0448758653378236e-06,7.687494978535028e-07,1.6697730642235932e-06
151,6.668643349379707e-06,6.504260852000143e-06,1.983647166022028e-06,2.6458090793560587e-05,7.64783005789422e-07,8.819686235828564e-07,9.66314993558998e-07,1.508346568687325e-06,2.1293082023054186e-05,7.612138843698354e-06,8.996142006433397e-07,1.4510191741779238e-06,8.290374144225814e-07,1.0502759202189663e-06,7.53346098262808e-07,1.670051642392506e-06
152,7.209928020636346e-06,6.59832811486522e-06,1.987413502151115e-06,2.6913645557690733e-05,7.56474017425971e-07,8.793524582389442e-07,9.919272020246853e-07,1.4715259083562476e-06,2.1338676260939613e-05,7.565517560888714e-06,8.955291540218946e-07,1.459396161003902e-06,8.192798991079791e-07,1.057978479689287e-06,7.41536320955515e-07,1.6736259102976517e-06
153,7.835983632500755e-06,6.684183097449251e-06,2.0120226731358187e-06,2.7411502775276147e-05,7.494451998506851e-07,8.766970428906784e-07,1.0154375235177086e-06,1.4331385513646674e-06,2.144294102067611e-05,7.492100117317848e-06,8.908982354040702e-07,1.4691307583262248e-06,8.095226360844737e-07,1.0677541379502688e-06,7.327489218135466e-07,1.6799929811855195e-06
154,8.542665029222721e-06,6.760755705245502e-06,2.0560941514621693e-06,2.7945710893413395e-05,7.436894466563088e-07,8.741783294787173e-07,1.036373504455273e-06,1.3936655245688178e-06,2.1609051791022133e-05,7.393025336565313e-06,8.859720637471743e-07,1.4800916374815025e-06,7.994141439321472e-07,1.0793749659910285e-06,7.263883109285688e-07,1.6884994693923769e-06
155,9.324085977147098e-06,6.826837488141583e-06,2.1183466098274776e-06,2.851336186776697e-05,7.392716018974448e-07,8.720386241380437e-07,1.054536175128054e-06,1.3537445315045419e-06,2.1839561048182138e-05,7.2702396013901835e-06,8.810258087500911e-07,1.4919302705419355e-06,7.886962078091541e-07,1.0925633135235419e-06,7.218798011783229e-07,1.6984472291022799e-06
156,1.0172714050889328e-05,6.8807911241239775e-06,2.1977017167135334e-06,2.9111448339834337e-05,7.362678514068765e-07,8.705404644494756e-07,1.0699473340685223e-06,1.3142973863605422e-06,2.21347015875348e-05,7.126337060083607e-06,8.763077559466126e-07,1.5040912637487173e-06,7.7736827241623e-07,1.1069543813568092e-06,7.188064352869686e-07,1.7091706499763222e-06
157,1.1079409156743192e-05,6.920235099980991e-06,2.293202996621166e-06,2.973401316296319e-05,7.347000346582132e-07,8.698775675114918e-07,1.0826764939283824e-06,1.2766016561132263e-06,2.2491730632206756e-05,6.964398482964175e-06,8.720169826455638e-07,1.5158409036068853e-06,7.657219159498288e-07,1.1221116178914752e-06,7.17022206073499e-07,1.7200602082559983e-06
158,1.2033214895892717e-05,6.9421859718495955e-06,2.403796730057292e-06,3.0371483559616476e-05,7.345085745259376e-07,8.701260334433633e-07,1.0927320638646573e-06,1.2422605928859301e-06,2.2905657645059143e-05,6.787618557223466e-06,8.682711878004801e-07,1.5262846510176033e-06,7.542127380116194e-07,1.1375343642993324e-06,7.16584650312243e-07,1.730592836875028e-06
159,1.3021193838860266e-05,6.943750230109815e-06,2.5280885311813993e-06,3.101187229208944e-05,7.355826124289552e-07,8.712577078244348e-07,1.1001053281739466e-06,1.2130846779705203e-06,2.3370291816719292e-05,6.598735729677255e-06,8.650702956093678e-07,1.534372777787904e-06,7.433122787567456e-07,1.1526576491560476e-06,7.175777630572266e-07,1.7403789126837447e-06
160,1.4028758328042249e-05,6.922934951569162e-06,2.6641958406310633e-06,3.164156966232647e-05,7.37819048848367e-07,8.731893075032353e-07,1.1048612417846144e-06,1.1909283120960907e-06,2.3878722339557476e-05,6.399811697415471e-06,8.622977602911412e-07,1.5389806828209967e-06,7.334296900714355e-07,1.1669268786308239e-06,7.199938176465341e-07,1.749223359029096e-06
161,1.5040336273509254e-05,6.87915083420066e-06,2.809739403667016e-06,3.224441333975787e-05,7.41152561526999e-07,8.758118831201989e-07,1.1071190675416975e-06,1.1775540453752005e-06,2.4423117913873364e-05,6.1927235926596015e-06,8.597768279042716e-07,1.539133031065348e-06,7.24891715512376e-07,1.1799284167734303e-06,7.236982921258718e-07,1.75719911018348e-06
162,1.6039684037841947e-05,6.8132836457137865e-06,2.96188813649559e-06,3.280069523156441e-05,7.455340186486951e-07,8.789725503693515e-07,1.1069273572507554e-06,1.1745686450017333e-06,2.4994140699756592e-05,5.979839590056266e-06,8.573478872744864e-07,1.5342744164823628e-06,7.179506533034537e-07,1.191456206572432e-06,7.284350287835065e-07,1.7646459430778793e-06
163,1.700943393815927e-05,6.727414746336721e-06,3.1173773829911077e-06,3.3288702207524364e-05,7.508807109235646e-07,8.824599212547834e-07,1.1041773393575072e-06,1.183390313000789e-06,2.5580347864154815e-05,5.76423367938257e-06,8.548962652919983e-07,1.5244006009177043e-06,7.127766129650809e-07,1.2014754711287803e-06,7.338662005850314e-07,1.7720185497775095e-06
164,1.7930176557252077e-05,6.624337804246346e-06,3.272619944865666e-06,3.368877628413433e-05,7.570494105667774e-07,8.860495130577894e-07,1.098648439078805e-06,1.2052301671705793e-06,2.6167616517688232e-05,5.54946631872237e-06,8.523071681831073e-07,1.5099866932420336e-06,7.094229694817472e-07,1.2100426001802306e-06,7.396329611713443e-07,1.7796727592337138e-06
165,1.8780041323902602e-05,6.507013347107835e-06,3.42405998801701e-06,3.398737984304808e-05,7.638745500326762e-07,8.895869557760547e-07,1.0901591847047118e-06,1.241140634654556e-06,2.673830728634766e-05,5.339250888943044e-06,8.494320236027966e-07,1.4917678059886163e-06,7.078133983923051e-07,1.2172248385611306e-06,7.454003955435157e-07,1.7877578702363695e-06
166,1.9536009432687962e-05,6.378048815406018e-06,3.568662790308774e-06,3.417869938134808e-05,7.712333518987296e-07,8.930164006012125e-07,1.0787356251539166e-06,1.2921357127320148e-06,2.7270478192721424e-05,5.137184365114364e-06,8.461357270219286e-07,1.4704667029181294e-06,7.078005354477301e-07,1.223023262346948e-06,7.508734818514391e-07,1.7962349645985931e-06
167,2.0177372215055764e-05,6.239257839976682e-06,3.7042682081372665e-06,3.4262687471307933e-05,7.790523048624557e-07,8.96310745150648e-07,1.0646923755122895e-06,1.3593078032976824e-06,2.7738569501630795e-05,4.946566604892964e-06,8.423606741607623e-07,1.4466122620238049e-06,7.092705827121991e-07,1.2273277715536363e-06,7.558113451272792e-07,1.8048816243754316e-06
168,2.0689724332218362e-05,6.091443414335343e-06,3.829545495642214e-06,3.424055939505879e-05,7.872557074761836e-07,8.994049732290586e-07,1.0485555412442028e-06,1.4438656413749532e-06,2.8116853235859712e-05,4.770221221502141e-06,8.381382779715215e-07,1.4205735842419405e-06,7.121827009884056e-07,1.2299357490490193e-06,7.600244299965739e-07,1.8132151025177711e-06
169,2.106645975564952e-05,5.934563311926919e-06,3.943541110291777e-06,3.411106554975418e-05,7.957357647940782e-07,9.022312426173612e-07,1.0308756380279598e-06,1.5470908591010559e-06,2.838502712182069e-05,4.610244758975502e-06,8.335567834530611e-07,1.3927885421537697e-06,7.164974303016975e-07,1.2306293719290652e-06,7.633219446996339e-07,1.8204187534794815e-06
170,2.1306343063788144e-05,5.768165690578855e-06,4.045344922681371e-06,3.3870425016768395e-05,8.043624286141419e-07,9.047807934560738e-07,1.012089433509915e-06,1.6702747317454689e-06,2.853311352294913e-05,4.467798474207094e-06,8.287051785101744e-07,1.3640071385168543e-06,7.220859300122569e-07,1.2293147099985645e-06,7.655024280061838e-07,1.8253855334445177e-06
171,2.140960099346447e-05,5.591788705104814e-06,4.134328567488461e-06,3.3515232428426894e-05,8.129720972598623e-07,9.070865220132985e-07,9.925477478077316e-07,1.8146690786140142e-06,2.856228212495782e-05,4.34313970985897e-06,8.236269729840992e-07,1.3353412171944452e-06,7.287040679231803e-07,1.2261311822739652e-06,7.664493402998575e-07,1.8269440994866132e-06
172,2.1376279603020363e-05,5.405168020670588e-06,4.210604531761282e-06,3.304559605511754e-05,8.21325424592391e-07,9.091840066412459e-07,9.726601042916855e-07,1.981417374171589e-06,2.8480839807373093e-05,4.23590763284689e-06,8.183207224402075e-07,1.3080867533680847e-06,7.360211824634952e-07,1.2213677606721016e-06,7.661870895468521e-07,1.8241893052487938e-06
173,2.120751943524406e-05,5.20829606605641e-06,4.275131218259593e-06,3.2467102072308016e-05,8.291223670084663e-07,9.111485904836104e-07,9.530047305905024e-07,2.1714388832273333e-06,2.8299114271686492e-05,4.145426694855347e-06,8.127643850405143e-07,1.283491393739675e-06,7.436431910868513e-07,1.2152498914913615e-06,7.648063738433443e-07,1.816673176087502e-06
174,2.0907623675459504e-05,5.0014201581321e-06,4.329383518419282e-06,3.179168404347197e-05,8.361159804861286e-07,9.131587395548156e-07,9.343123965319521e-07,2.3853063396032104e-06,2.8027799969723833e-05,4.070761799583955e-06,8.069220733200696e-07,1.2626090049174678e-06,7.510967691460574e-07,1.2078095605512245e-06,7.624052174199878e-07,1.8043222067637551e-06
175,2.0485166393165964e-05,4.785056291991583e-06,4.374820090648852e-06,3.103749048986158e-05,8.422054576533887e-07,9.154800089378685e-07,9.173545396579639e-07,2.6231614883536614e-06,2.7679795358862488e-05,4.01060455956021e-06,8.007696025914104e-07,1.2462367410083276e-06,7.578308815340621e-07,1.1988740338989398e-06,7.591564437891543e-07,1.7872355770218503e-06
176,1.9952814696971447e-05,4.5600867597373436e-06,4.412382452043085e-06,3.0227663262681523e-05,8.473927929060431e-07,9.183736469195253e-07,9.02821750430145e-07,2.8846586685898586e-06,2.7272270943943556e-05,3.963345573895969e-06,7.943574385928744e-07,1.234917025359007e-06,7.633042651605455e-07,1.1880905566448938e-06,7.55379682750016e-07,1.7655700026759688e-06
177,1.932638903832047e-05,4.327925065074885e-06,4.44220806621853e-06,2.9388241002130864e-05,8.516984287128269e-07,9.220403159506646e-07,8.912622671316563e-07,3.168927087294402e-06,2.6827178388237032e-05,3.927434517848814e-06,7.878207773936531e-07,1.2290236046398856e-06,7.671029481563417e-07,1.1750131710378577e-06,7.514950673381629e-07,1.739550818260351e-06
178,1.8623739214183888e-05,4.090593885015147e-06,4.463694385461594e-06,2.8545693233119043e-05,8.551806678250086e-07,9.266536517140991e-07,8.830945636985881e-07,3.4745548823387833e-06,2.6370521249997985e-05,3.901789141070545e-06,7.813278537280641e-07,1.228895766971838e-06,7.689726363202374e-07,1.159320886592973e-06,7.479385386209022e-07,1.7095438592449512e-06
179,1.786363781910827e-05,3.850563486139205e-06,4.475915897553608e-06,2.772460956940888e-05,8.580066291997597e-07,9.323898245806736e-07,8.786440054815362e-07,3.799578526993087e-06,2.5931004844873732e-05,3.885995541842189e-06,7.750504874321527e-07,1.2349025277090786e-06,7.688022947777509e-07,1.1410426059164232e-06,7.45140602728069e-07,1.6761080049369266e-06
180,1.706476940576533e-05,3.610380595877833e-06,4.478112922172859e-06,2.6945887353935414e-05,8.60438664265334e-07,9.393860989330031e-07,8.781470703605713e-07,4.1414775796253595e-06,2.553838776295224e-05,3.880158718116375e-06,7.691522046407761e-07,1.2473796905253317e-06,7.66688170012797e-07,1.1205591777342458e-06,7.435198895327694e-07,1.6399734123428104e-06
181,1.624488493730265e-05,3.372268569068861e-06,4.469809568882704e-06,2.622551186286137e-05,8.627239085167787e-07,9.476938930016822e-07,8.817189210355761e-07,4.497189209925035e-06,2.5221719880909015e-05,3.884530150188676e-06,7.637779618224722e-07,1.2665434359260592e-06,7.630250486701862e-07,1.0983860956970213e-06,7.434379384394987e-07,1.601946618970045e-06
182,1.542003128024263e-05,3.137887764823639e-06,4.4504584510505096e-06,2.5574081458361062e-05,8.649875711795512e-07,9.572647689046424e-07,8.893230060267313e-07,4.863119051428457e-06,2.500755822885632e-05,3.899284337646267e-06,7.590573418123345e-07,1.2924667626996442e-06,7.584650039635833e-07,1.0749621566799235e-06,7.451575230525878e-07,1.562790913743768e-06
183,1.4603806583249988e-05,2.9083790475454654e-06,4.419092747494482e-06,2.4997348215220674e-05,8.672000310737776e-07,9.679390140033908e-07,9.007844165209747e-07,5.2351043550899954e-06,2.4918348722684455e-05,3.924482707728729e-06,7.550911023743586e-07,1.3250608088047427e-06,7.537522806405206e-07,1.0505753866798232e-06,7.488297499096529e-07,1.523154694863832e-06
184,1.3806891383827285e-05,2.6846710584855148e-06,4.3744203170892424e-06,2.449754268417798e-05,8.691929315405145e-07,9.79450664760502e-07,9.158414920978313e-07,5.6083158821080195e-06,2.497148333813688e-05,3.9598911696177306e-06,7.519377939840297e-07,1.3640316399736018e-06,7.495695086188045e-07,1.0253905786543167e-06,7.544932275994281e-07,1.4835949098224007e-06
185,1.3037083813039161e-05,2.4678469117209355e-06,4.315206422573271e-06,2.4074640193343738e-05,8.706988445492832e-07,9.914709517589275e-07,9.341859039239379e-07,5.9771119358963655e-06,2.5179469642522717e-05,4.004696614264588e-06,7.496351337597336e-07,1.4088873079941397e-06,7.464618383539835e-07,9.994980748243582e-07,7.620865437855202e-07,1.4446414720426381e-06
186,1.2299634725001408e-05,2.2593211388502275e-06,4.240637626864499e-06,2.3726894010428556e-05,8.714016101226448e-07,1.0036457516035909e-06,9.554710048403135e-07,6.334852498508043e-06,2.5551102997835507e-05,4.0574920512185495e-06,7.482135713633927e-07,1.4590094167169456e-06,7.44809880293158e-07,9.729264879030075e-07,7.714653564680161e-07,1.4068023997515625e-06
187,1.1597569114584512e-05,2.060732592157393e-06,4.150603168337968e-06,2.3450646370259028e-05,8.709454663112847e-07,1.0155803903238555e-06,9.792957403182585e-07,6.6737245350584545e-06,2.609317403557542e-05,4.1165380738521e-06,7.476849071819092e-07,1.513704723920616e-06,7.448205196934373e-07,9.456705359999094e-07,7.824033374751669e-07,1.3705052443957603e-06
188,1.0932004824691361e-05,1.8736696706053465e-06,4.04589524296529e-06,2.323988799028488e-05,8.689210529785139e-07,1.0268026964232373e-06,1.005170123461876e-06,6.984816451095126e-06,2.681206059775844e-05,4.180018329278812e-06,7.480362244034493e-07,1.5721885772184607e-06,7.465442668288729e-07,9.178103238011261e-07,7.94611071742057e-07,1.3360421753605989e-06
189,1.0302603376155833e-05,1.6994390709016173e-06,3.928277636475453e-06,2.308603995122989e-05,8.649187262436982e-07,1.0367926050122787e-06,1.0324982947199035e-06,7.2588034292482555e-06,2.7714439523546474e-05,4.24619719828074e-06,7.49246018864257e-07,1.633521881968938e-06,7.499250810315666e-07,8.896184034518483e-07,8.078095134002913e-07,1.3035778999504149e-06
190,9.708157071322067e-06,1.5389981006655067e-06,3.800381984191936e-06,2.2978266249231544e-05,8.586460595771739e-07,1.0450940332308457e-06,1.0606034836935522e-06,7.487294181824401e-06,2.8806699611399414e-05,4.313550669460842e-06,7.513177233027899e-07,1.6965352121866719e-06,7.548470103927387e-07,8.615106076470756e-07,8.217863086865854e-07,1.2732729391240352e-06
191,9.147247476681541e-06,1.3929986484329088e-06,3.6654531162426665e-06,2.290448399585631e-05,8.50026895788973e-07,1.0513868787334834e-06,1.088763744624765e-06,7.664313471586135e-06,3.0093226412331254e-05,4.3807983094348965e-06,7.54270861550665e-07,1.7597968735378143e-06,7.611438702555684e-07,8.339023404505911e-07,8.363463954861273e-07,1.245464731194301e-06
192,8.618854256448082e-06,1.2618242436276352e-06,3.5270270233137526e-06,2.2852968065983106e-05,8.392263229319091e-07,1.0554290327288405e-06,1.1162249311924517e-06,7.787161264845653e-06,3.1574177972898246e-05,4.446702299144471e-06,7.580641739024173e-07,1.8216904010477046e-06,7.685958275105284e-07,8.071342864528105e-07,8.512062476053245e-07,1.220712021637594e-06
193,8.122687621364004e-06,1.1455875663245361e-06,3.3886011086366544e-06,2.281407160200848e-05,8.265824864919164e-07,1.0569682411279664e-06,1.1421828994243397e-06,7.856217380692374e-06,3.324360508723416e-05,4.509815348474775e-06,7.625235975563093e-07,1.8805810874503703e-06,7.769350299733447e-07,7.815103720300287e-07,8.6595888435384e-07,1.1996350753594954e-06
194,7.659073030842998e-06,1.0441526227743556e-06,3.253325496856004e-06,2.278145902095437e-05,8.124864781149391e-07,1.0557591684361769e-06,1.165780084404768e-06,7.873839965131083e-06,3.5088458168052346e-05,4.568601647647524e-06,7.673292565736307e-07,1.9349611161893115e-06,7.858445585982172e-07,7.5734364676265e-07,8.801595388266994e-07,1.1827151670033777e-06
195,7.22851395609995e-06,9.572212581583587e-07,3.1238218602940057e-06,2.275247271031203e-05,7.973086749917049e-07,1.0516512374450714e-06,1.1862136340584437e-06,7.84290724790927e-06,3.708862095188074e-05,4.621904276217755e-06,7.720603182876375e-07,1.9834790911300956e-06,7.949698677348382e-07,7.349315732555366e-07,8.934512993639882e-07,1.1701995298939324e-06
196,6.831290677739619e-06,8.844216711874593e-07,3.002195658734508e-06,2.2727485983930234e-05,7.814013674708036e-07,1.0446423984776632e-06,1.2029483005996538e-06,7.76564669170091e-06,3.921799735099054e-05,4.66911568003903e-06,7.762687173147761e-07,2.0248910740561243e-06,8.039675439179594e-07,7.145150140342455e-07,9.055938600521728e-07,1.1620975576174152e-06
197,6.467353000086901e-06,8.253277983039702e-07,2.890111445218243e-06,2.2708198897807733e-05,7.651052459581759e-07,1.0348877205011455e-06,1.2158721161781983e-06,7.643283989880428e-06,4.1446047076663744e-05,4.709764898563984e-06,7.795258175785245e-07,2.058106381854895e-06,8.125703631973172e-07,6.962679356996753e-07,9.16363548346996e-07,1.1582102415280179e-06
198,6.136479493985928e-06,7.794619197796391e-07,2.7888138254335927e-06,2.269525034713486e-05,7.48713411827704e-07,1.0226997866426662e-06,1.225286879426941e-06,7.476597928897037e-06,4.373836234034621e-05,4.743109988522076e-06,7.814465114039751e-07,2.0824344670011883e-06,8.206610343837848e-07,6.802846430216366e-07,9.254491666038792e-07,1.158183682093998e-06
199,5.838451469858199e-06,7.463545708125883e-07,2.6991406453148723e-06,2.2686338626081415e-05,7.324234207434384e-07,1.008533436364098e-06,1.2317811117622447e-06,7.266880908989501e-06,4.605568927128613e-05,4.76822644954294e-06,7.817859326390454e-07,2.0978875878113392e-06,8.283107704818765e-07,6.665656728045963e-07,9.324885176916718e-07,1.1615867897016688e-06
200,5.572953105376418e-06,7.25592962066413e-07,2.6215872718509946e-06,2.2676103923397653e-05,7.163265130522023e-07,9.929155093471942e-07,1.2360580128128237e-06,7.016713638464077e-06,4.8353481596166154e-05,4.7842984327896205e-06,7.805819958488606e-07,2.105239669451967e-06,8.357050119467144e-07,6.550448222791977e-07,9.372560028949225e-07,1.1679865747122555e-06
201,5.3392030354061825e-06,7.167804973380202e-07,2.556383671181529e-06,2.265763344910025e-05,7.00445881730809e-07,9.763283090256852e-07,1.2387540454597912e-06,6.730284221766088e-06,5.0584711519979026e-05,4.790744003206864e-06,7.78152367419555e-07,2.1057175285555537e-06,8.430097545800742e-07,6.456714558520722e-07,9.398437547406617e-07,1.177013448928632e-06
202,5.1356715834513396e-06,7.194817383238711e-07,2.503502589680329e-06,2.262419995798044e-05,6.847838862441514e-07,9.591318031480083e-07,1.2403011288879822e-06,6.413243019862012e-06,5.270520287552795e-05,4.7872769952151095e-06,7.74926010088738e-07,2.100578226651151e-06,8.503034718647146e-07,6.384925601466764e-07,9.406693900275857e-07,1.1884530280058253e-06
203,4.960061754479965e-06,7.33232513191058e-07,2.4626097435359006e-06,2.2570291524445906e-05,6.693440502667209e-07,9.415907764959543e-07,1.2408830169035532e-06,6.072261985234556e-06,5.4678336050455665e-05,4.774062500306009e-06,7.713059727278986e-07,2.090869605154209e-06,8.576138253489356e-07,6.336456800287388e-07,9.40319383361132e-07,1.202349342256617e-06
204,4.809369621966328e-06,7.575674319630022e-07,2.433045063869822e-06,2.2492112295167147e-05,6.541460977184432e-07,9.239750102584675e-07,1.2404859619106619e-06,5.714533712008741e-06,5.647729020245727e-05,4.751762082871984e-06,7.676489400894551e-07,2.0773626346072913e-06,8.649892678966676e-07,6.312904221980451e-07,9.393932604797533e-07,1.219006272222457e-06
205,4.67993529350869e-06,7.920066594535441e-07,2.4138361591945703e-06,2.2387915810347704e-05,6.39248109169529e-07,9.066385088685824e-07,1.2390026495208042e-06,5.3473009232210185e-06,5.8084710701620576e-05,4.721243558439745e-06,7.642763904441775e-07,2.0605358875020464e-06,8.724944497196182e-07,6.315637159876599e-07,9.384768957737054e-07,1.2388363541199838e-06
206,4.567588114350731e-06,8.360249495047076e-07,2.4037402383250307e-06,2.2258100510923843e-05,6.247386690992687e-07,8.899995139683745e-07,1.2363094858734459e-06,4.977391136302716e-06,5.949022620971447e-05,4.6833212422368815e-06,7.61452223221091e-07,2.0405851657927795e-06,8.801558890821701e-07,6.345451239352359e-07,9.381864616853118e-07,1.262184480920657e-06
207,4.4678996833577645e-06,8.890295814590272e-07,2.401399324906291e-06,2.2104982670093114e-05,6.106794127506319e-07,8.744352325210647e-07,1.23224458416207e-06,4.61085012322273e-06,6.068637900918229e-05,4.6389937560781995e-06,7.593500235180651e-07,2.017507130650136e-06,8.879830544740594e-07,6.402155184239568e-07,9.391486909735516e-07,1.2892662472461244e-06
208,4.376455455119798e-06,9.503425519203221e-07,2.40556247851739e-06,2.1932385020825565e-05,5.970539694982607e-07,8.601816634880899e-07,1.2265230179188092e-06,4.25282611078222e-06,6.16634457012786e-05,4.589845441798463e-06,7.580680685148932e-07,1.991278625106351e-06,8.96053190633635e-07,6.484479748749715e-07,9.419118171281124e-07,1.320189996429063e-06
209,4.289115015572559e-06,1.0192269949754281e-06,2.4151945499261947e-06,2.174513356749749e-05,5.837852065473431e-07,8.472998659186961e-07,1.218723045659413e-06,3.907632299295832e-06,6.240436584108524e-05,4.538016602421136e-06,7.577133216449778e-07,1.9620012246188056e-06,9.045455546900106e-07,6.590390858459483e-07,9.4688142409805e-07,1.3549540884255168e-06
210,4.202311491523822e-06,1.094994292594238e-06,2.4294239341990267e-06,2.1548415887516317e-05,5.708011540618955e-07,8.357101180983985e-07,1.2084199948587765e-06,3.5787844895045783e-06,6.288332300491303e-05,4.4857811265259065e-06,7.584819372267274e-07,1.9299090201160643e-06,9.136828856483922e-07,6.717387465578036e-07,9.543245171918869e-07,1.393404631273109e-06
211,4.113375110720259e-06,1.1771103125831202e-06,2.4474298730960602e-06,2.1346888968177908e-05,5.580766710135548e-07,8.252522405234415e-07,1.1953809838126734e-06,3.269011983448247e-06,6.307128881554116e-05,4.435208563784356e-06,7.606459337613014e-07,1.8953214937826907e-06,9.236398736175006e-07,6.862405133185015e-07,9.644050376091331e-07,1.4352217393713384e-06
212,4.020724603014946e-06,1.2651984583465833e-06,2.468362350791176e-06,2.114344383456386e-05,5.456394502290686e-07,8.157097100790095e-07,1.179654427304425e-06,2.9803918424282956e-06,6.294711555371358e-05,4.388255406605247e-06,7.644727366712503e-07,1.8586269452041111e-06,9.344950120198359e-07,7.021571595425715e-07,9.771957086897424e-07,1.4799693876012539e-06
213,3.923753327819441e-06,1.3589383511623998e-06,2.4913358571302903e-06,2.093796396710418e-05,5.335986941552833e-07,8.068045031428981e-07,1.1614805216397358e-06,2.7146121562461315e-06,6.250900618780281e-05,4.347206624608299e-06,7.701655789297096e-07,1.820281395918788e-06,9.462242690993943e-07,7.190406090282606e-07,9.926501680612046e-07,1.5271896949489239e-06
214,3.822383827083225e-06,1.457943907020663e-06,2.5155111657683864e-06,2.072693337173471e-05,5.221803597921387e-07,7.982503414942837e-07,1.1411072341627669e-06,2.4732020136547297e-06,6.17809384341862e-05,4.315067283045401e-06,7.778385069500364e-07,1.7807947700540676e-06,9.586850290105232e-07,7.364490002456524e-07,1.0105726950602182e-06,1.576529357950604e-06
215,3.7165301718242768e-06,1.5617670643234963e-06,2.5402516848149597e-06,2.0504177613637636e-05,5.116935771229612e-07,7.898741609662557e-07,1.1186772135791135e-06,2.257607792722311e-06,6.081050284472392e-05,4.295570990785585e-06,7.874992230793196e-07,1.7407202988176804e-06,9.71597487691738e-07,7.539969446778672e-07,1.030623580881163e-06,1.6278601417720539e-06
216,3.6058639693284545e-06,1.6701086033343824e-06,2.5652897587529286e-06,2.026191539667712e-05,5.024612561760201e-07,7.816843517154042e-07,1.0942752093502219e-06,2.0691333345260657e-06,5.9658861598523495e-05,4.29278848353572e-06,7.990558369443473e-07,1.700660395272928e-06,9.845703808275383e-07,7.713464093389646e-07,1.0523680907407796e-06,1.681295673249687e-06
217,3.489966485079672e-06,1.7831062557309889e-06,2.590789258013336e-06,1.9991430101284227e-05,4.947887190261179e-07,7.738114109559816e-07,1.068066602044718e-06,1.9088228773740054e-06,5.838816395474401e-05,4.310611426182646e-06,8.123485500225122e-07,1.6612432277959055e-06,9.971488840692939e-07,7.881799888352917e-07,1.0753441839992157e-06,1.7370715628438835e-06
218,3.368547179829759e-06,1.901484181729646e-06,2.617211124736751e-06,1.9683665931510298e-05,4.889506988050436e-07,7.663878426111565e-07,1.0403984857409356e-06,1.777358730547634e-06,5.705233599912996e-05,4.352408740300694e-06,8.271457237415505e-07,1.6230550967098148e-06,1.0088461696546771e-06,8.042324622632289e-07,1.0990823447256107e-06,1.795369849615481e-06
219,3.241559595314999e-06,2.02646815137523e-06,2.6450205555246143e-06,1.9330459705445154e-05,4.851698002193152e-07,7.59457509393703e-07,1.0117981508044588e-06,1.6750282290124415e-06,5.5693600385947443e-05,4.420854930452895e-06,8.431007837353514e-07,1.586633392238255e-06,1.0192194817627976e-06,8.193758466918841e-07,1.123084577066129e-06,1.8561622716260869e-06
220,3.1093445134980783e-06,2.159523657934984e-06,2.6744366318868123e-06,1.892660827195853e-05,4.836041580823028e-07,7.52941759932361e-07,9.828753591799905e-07,1.6017548810667887e-06,5.4343781413922844e-05,4.517816241263135e-06,8.597682127664787e-07,1.5525276287948841e-06,1.0280210809000373e-06,8.33656653244567e-07,1.146873197148824e-06,1.919113836296634e-06
221,2.9728486734110363e-06,2.3020549813970603e-06,2.705396505113767e-06,1.847204908270332e-05,4.843577597275307e-07,7.466618495037029e-07,9.541811811891555e-07,1.5571350270084364e-06,5.302825422169105e-05,4.644393828671276e-06,8.767237145721412e-07,1.521266702122742e-06,1.0352866094057477e-06,8.472215120025887e-07,1.1701081177875875e-06,1.9835694360275134e-06
222,2.833783134323071e-06,2.455173649328161e-06,2.737637169762019e-06,1.7972958432364438e-05,4.875062911793959e-07,7.404212169873928e-07,9.261071586766908e-07,1.5404763565142825e-06,5.1770093600646555e-05,4.801185061340932e-06,8.936967942001443e-07,1.4932277920578485e-06,1.0412511997917147e-06,8.601872017548502e-07,1.1926366506388276e-06,2.0485972794049704e-06
223,2.694580893931248e-06,2.6195612036322994e-06,2.7706841927044606e-06,1.7441014646281395e-05,4.931027862093288e-07,7.341051583961354e-07,8.988938793618717e-07,1.5508651825428003e-06,5.059228027440776e-05,4.98851781044427e-06,9.105944382175966e-07,1.4685531166635025e-06,1.0461984347996928e-06,8.725485012918687e-07,1.2144157693951732e-06,2.113080401187857e-06
224,2.5581324315629315e-06,2.7954371691614644e-06,2.8038102587043743e-06,1.6890992072322613e-05,5.011454687693143e-07,7.277000083621964e-07,8.727444192130761e-07,1.587207743701749e-06,4.9516808990882725e-05,5.206376373984441e-06,9.273963810784807e-07,1.4471466479749896e-06,1.0503866388500737e-06,8.841472019659329e-07,1.2353750014927622e-06,2.1758437599759226e-06
225,2.4274233448061596e-06,2.9826349032349035e-06,2.836179535110672e-06,1.6337760497858453e-05,5.115422162388517e-07,7.212146049481292e-07,8.479575396480501e-07,1.6481879561407365e-06,4.856116382563101e-05,5.4540739476306775e-06,9.440220922251946e-07,1.4287059896223746e-06,1.0540288959708942e-06,8.946689197703403e-07,1.255308964032924e-06,2.235745661612988e-06
226,2.3052501573627623e-06,3.1807139980200595e-06,2.8670991609663557e-06,1.5794243534409373e-05,5.241011003357852e-07,7.146114848736639e-07,8.249817818434687e-07,1.7321788059738484e-06,4.7734328574382594e-05,5.729947486437573e-06,9.602954373039574e-07,1.4127968910516977e-06,1.0572486032622082e-06,9.036781481849529e-07,1.2738178727583893e-06,2.29173352151072e-06
227,2.1940804103347603e-06,3.389041570921799e-06,2.8960836082558284e-06,1.527100297258255e-05,5.385443797577536e-07,7.078290810973301e-07,8.043572812446745e-07,1.8371725192375645e-06,4.703458980031304e-05,6.031183691375256e-06,9.760123217147005e-07,1.3989851693995246e-06,1.060019935958444e-06,9.107434832279773e-07,1.2902969168912108e-06,2.3429079340200855e-06
228,2.095992832194675e-06,3.6068444007322884e-06,2.922676725785325e-06,1.477649393458262e-05,5.545318434259294e-07,7.00871353044049e-07,7.86594828482567e-07,1.960752403734751e-06,4.645000558137672e-05,6.353724647880708e-06,9.909738417517743e-07,1.3869271686853228e-06,1.0621328482024024e-06,9.156270627750934e-07,1.3040362108887754e-06,2.388547709714183e-06
229,2.0126325487225495e-06,3.83321624606473e-06,2.946276506351211e-06,1.4316913815171265e-05,5.716861176644964e-07,6.938725277433825e-07,7.720818340603777e-07,2.1000850839931133e-06,4.596129288787954e-05,6.6922521501584576e-06,1.0049159796136397e-06,1.3763260902270839e-06,1.0632034191007898e-06,9.183916104519673e-07,1.314414208793476e-06,2.4280651318757486e-06
230,1.9451821621707723e-06,4.067022994693722e-06,2.9661134393990194e-06,1.3895772482292759e-05,5.896209544060765e-07,6.870592065785429e-07,7.610745482205086e-07,2.251904561391038e-06,4.554595961348521e-05,7.0404017343775456e-06,1.0174308382269968e-06,1.3668404787489305e-06,1.0627553868529763e-06,9.192998962612863e-07,1.3210399339140663e-06,2.460972697571736e-06
231,1.8943757803616067e-06,4.3066878942470746e-06,2.9812424532446634e-06,1.3513801299324093e-05,6.079660359789099e-07,6.80658360785119e-07,7.537407766806228e-07,2.412501655858039e-06,4.518180734196901e-05,7.391426158743295e-06,1.0279717221470761e-06,1.3580324279119326e-06,1.0603856966958632e-06,9.186093326984219e-07,1.3237698538992887e-06,2.4869496011704354e-06
232,1.8605533502737714e-06,4.549938191687329e-06,2.9904750933662564e-06,1.3169312978649347e-05,6.26398180422453e-07,6.748507864576231e-07,7.501726676239925e-07,2.5777293455642535e-06,4.4848691955481955e-05,7.739076003707054e-06,1.0359653206751286e-06,1.3493341673748183e-06,1.055930074571944e-06,9.164854924716314e-07,1.3226325020417841e-06,2.5060194567589594e-06
233,1.8437029172203293e-06,4.79370255430714e-06,2.992501915839047e-06,1.2858648518551643e-05,6.447011384293808e-07,6.697740947262981e-07,7.503735053128236e-07,2.7430067130649733e-06,4.4529013087593245e-05,8.077906144243e-06,1.041010119023233e-06,1.3400290955639904e-06,1.0495032458637761e-06,9.130452655979221e-07,1.317749066075733e-06,2.518779769155981e-06
234,1.8434538498518773e-06,5.0343535079763084e-06,2.98635881708015e-06,1.2576337347480311e-05,6.628138588262688e-07,6.655313937237458e-07,7.542672040659387e-07,2.9034345661702945e-06,4.420797102196386e-05,8.402678283583312e-06,1.0430410029477277e-06,1.329279754609295e-06,1.0414100176164368e-06,9.083696737742019e-07,1.3093769054866673e-06,2.5265360809447237e-06
235,1.8590628989031097e-06,5.268280828241171e-06,2.9719170548499104e-06,1.2315136392051793e-05,6.807928777602807e-07,6.622016591912758e-07,7.617068021198046e-07,3.0542269313165564e-06,4.3873821957741127e-05,8.707662135278067e-06,1.0423064243605688e-06,1.3162555252357087e-06,1.032003526321852e-06,9.024597075375131e-07,1.2980459283785262e-06,2.5311564082722786e-06
236,1.8894294913657518e-06,5.492487926964659e-06,2.949953222538539e-06,1.2066772552957615e-05,6.986990685280801e-07,6.598636060856907e-07,7.724490148833233e-07,3.191397211886814e-06,4.351704930411892e-05,8.986793436317565e-06,1.03917933061715e-06,1.3003098740974601e-06,1.021547749304199e-06,8.95239694327608e-07,1.284566606785753e-06,2.534669424400604e-06
237,1.9331181257826607e-06,5.70480542583081e-06,2.9217293392638763e-06,1.1823814711933947e-05,7.16501530478865e-07,6.585986331028619e-07,7.861472057165762e-07,3.3123071007464753e-06,4.312761909432572e-05,9.234653590538343e-06,1.0339888662324252e-06,1.2810103677988695e-06,1.0101403331924547e-06,8.866273772935169e-07,1.2698408826349503e-06,2.538919197189916e-06
238,1.9884173107305843e-06,5.9035295482275236e-06,2.8884095813555972e-06,1.1581881777761139e-05,7.340568779480386e-07,6.584432531586063e-07,8.024497715783722e-07,3.4157178128678484e-06,4.269258698996716e-05,9.44759229020797e-06,1.0269625284253582e-06,1.2580269312955402e-06,9.97718465926409e-07,8.765957491743881e-07,1.2546606554494972e-06,2.545457400579678e-06
239,2.0534516072562383e-06,6.086764327963547e-06,2.850722058951882e-06,1.1340950808635536e-05,7.511474670038866e-07,6.59335206000535e-07,8.211843419272026e-07,3.501296241546314e-06,4.219789157572464e-05,9.62442404669081e-06,1.018230252312412e-06,1.2310976450825203e-06,9.84100443788538e-07,8.652031209198216e-07,1.2396230582152088e-06,2.5555178342722237e-06
240,2.1262347510535143e-06,6.2521221577369115e-06,2.809037485630597e-06,1.1105176868959712e-05,7.67547892576104e-07,6.61102996665605e-07,8.424649662871212e-07,3.5688846359872195e-06,4.163412345770011e-05,9.76625717053805e-06,1.0078800644623862e-06,1.2000943055927746e-06,9.690433059776874e-07,8.526160837772146e-07,1.2251409936111003e-06,2.5699686292405772e-06
241,2.2046818808017554e-06,6.397106478300509e-06,2.7637163678127104e-06,1.0881554953963212e-05,7.830962574150081e-07,6.635136664786847e-07,8.66617963067762e-07,3.618046880284814e-06,4.100133304473405e-05,9.875411521885033e-06,9.9605582190569e-07,1.1650383524921124e-06,9.523644358740728e-07,8.391149637742284e-07,1.2115235852921434e-06,2.589274900509659e-06
242,2.2868174623596666e-06,6.519786449853744e-06,2.715450089671701e-06,1.0678286364356942e-05,7.977367339897764e-07,6.663858335527542e-07,8.940134159494905e-07,3.648141762054746e-06,4.0308275574440296e-05,9.954404145977431e-06,9.830165137125148e-07,1.1260244231632201e-06,9.340952889859258e-07,8.250583339102055e-07,1.1990813576392565e-06,2.6134494221395565e-06
243,2.3712266975555317e-06,6.61925296210799e-06,2.6654305629092653e-06,1.0503541606944148e-05,8.11508404252052e-07,6.697131652934292e-07,9.249337616009796e-07,3.6586690253064074e-06,3.956648785570842e-05,1.0006065849373203e-05,9.69117873387449e-07,1.0831454406038512e-06,9.14537178154193e-07,8.108219756671272e-07,1.188172986972194e-06,2.6420117534589373e-06
244,2.457458538951968e-06,6.695698236554968e-06,2.6153341909050114e-06,1.0364706809663055e-05,8.244895131912324e-07,6.736773559243992e-07,9.595276128383529e-07,3.6495599279144544e-06,3.878455854478066e-05,1.003425871137806e-05,9.547471696698886e-07,1.0365035066350208e-06,8.941846609385132e-07,7.967449386889566e-07,1.1791605041398449e-06,2.6740323601987535e-06
245,2.54609037471394e-06,6.750200323885621e-06,2.5671655396812294e-06,1.0267845667617739e-05,8.36734415465283e-07,6.785320741713994e-07,9.978249257375113e-07,3.6213350735264365e-06,3.7966002843259836e-05,1.0043929297991734e-05,9.402394560183995e-07,9.862400187482692e-07,8.736026297653746e-07,7.830919732446949e-07,1.1723170898206208e-06,2.7082185517775634e-06
246,2.638429598514507e-06,6.784402913733131e-06,2.5230036815713842e-06,1.0217298848424125e-05,8.482299673970511e-07,6.844808975924355e-07,1.0397436552698196e-06,3.5751597709905344e-06,3.7108833094847154e-05,1.0040502429989136e-05,9.258068491646477e-07,9.324775288018919e-07,8.533207752040085e-07,7.700373795687902e-07,1.1677846411686999e-06,2.74293527602156e-06
247,2.7360481839836904e-06,6.8002489273083385e-06,2.484712473571019e-06,1.021564068158646e-05,8.588719937919943e-07,6.916378401581251e-07,1.0850463580596241e-06,3.5128121236329908e-06,3.6206155803635664e-05,1.0029507427628299e-05,9.115150984097213e-07,8.752402462431538e-07,8.337732086483694e-07,7.576898327600204e-07,1.1656275145928335e-06,2.776192660267499e-06
248,2.8404397828917216e-06,6.799706864488988e-06,2.4537474743323753e-06,1.0264138051535381e-05,8.684862338276761e-07,7.000612614135429e-07,1.1332871784554306e-06,3.4365758478091435e-06,3.524950096423264e-05,1.0016576177553768e-05,8.973109406459755e-07,8.144945836301614e-07,8.152925691421991e-07,7.461513716950764e-07,1.1658936312251712e-06,2.8057294097164314e-06
249,2.952983713435308e-06,6.7843696946142075e-06,2.4312136255816434e-06,1.0363535649359615e-05,8.769198321808645e-07,7.098028704602477e-07,1.1837934830930935e-06,3.349079671043841e-06,3.423337405624414e-05,1.0007195517152403e-05,8.830962128245906e-07,7.502906390027276e-07,7.981276627818585e-07,7.355703542888987e-07,1.1685890601046438e-06,2.8292481753168982e-06
250,3.0750856764254195e-06,6.7551782415707785e-06,2.418195175404132e-06,1.0514785812280677e-05,8.841195941578001e-07,7.209123201142958e-07,1.2356869094817442e-06,3.253097692473663e-06,3.315770233413376e-05,1.0006136069869185e-05,8.688160563860584e-07,6.828586381393847e-07,7.824633971532618e-07,7.261652971305373e-07,1.1735971296058502e-06,2.8447814216940974e-06
251,3.208192516329001e-06,6.712707892615529e-06,2.416113032708005e-06,1.0719363250529193e-05,8.901033490653279e-07,7.334261906197641e-07,1.2879605083725262e-06,3.1513138467666176e-06,3.202710223479538e-05,1.0017062974175095e-05,8.544852100197228e-07,6.125933288654197e-07,7.684317880772231e-07,7.18209996177444e-07,1.1806304311713435e-06,2.85108410474751e-06
252,3.3535852736721746e-06,6.657923378967853e-06,2.4267596095236507e-06,1.0979014726891116e-05,8.949197747172755e-07,7.473968063404709e-07,1.3396135678180354e-06,3.0460840065820134e-06,3.084779592422833e-05,1.0042338188404735e-05,8.401663136986424e-07,5.400113684753415e-07,7.560963391895817e-07,7.11971904213074e-07,1.1892652326924868e-06,2.8478500905712906e-06
253,3.512163152259485e-06,6.592796879630146e-06,2.4520220392249813e-06,1.12950623128089e-05,8.986907555944438e-07,7.629056917090062e-07,1.3897545547205365e-06,2.9392521966233004e-06,2.9624108519029706e-05,1.0082784562463652e-05,8.259947881812447e-07,4.657725242968739e-07,7.454259853893459e-07,7.076487694765509e-07,1.199019811743135e-06,2.835652884719847e-06
254,3.6843885464420563e-06,6.520336603677705e-06,2.4936241964689884e-06,1.1667527638980944e-05,9.016326956821975e-07,7.800029632914687e-07,1.4375681651744787e-06,2.832045029933257e-06,2.8357320759231967e-05,1.01376946605366e-05,8.122238384078116e-07,3.9071885065910456e-07,7.362788969734213e-07,7.053586236349986e-07,1.2093692858757729e-06,2.815740711148525e-06
255,3.8702717755687265e-06,6.4439949421258896e-06,2.5530020875150236e-06,1.209440322228409e-05,9.040196115337602e-07,7.986216241029477e-07,1.4821802676991665e-06,2.725054011614759e-06,2.7047905356480097e-05,1.020536601271311e-05,7.991847617243372e-07,3.158730297855029e-07,7.284089472985546e-07,7.051548556039424e-07,1.2196749163163086e-06,2.7898432451056555e-06
256,4.069310830786761e-06,6.366820535169007e-06,2.6312194854981026e-06,1.2571391954922493e-05,9.061645373614598e-07,8.185289954533887e-07,1.5225612392599702e-06,2.6183334175914352e-06,2.5698964416284134e-05,1.0283964083198092e-05,7.871801559882109e-07,2.424277946615934e-07,7.215267280838589e-07,7.07023811095575e-07,1.229162538554235e-06,2.7599970929306214e-06
257,4.280515370945793e-06,6.290941231727852e-06,2.728900049104636e-06,1.3092115296656677e-05,9.083908674838633e-07,8.393333015226289e-07,1.5575962187803706e-06,2.5116397678172353e-06,2.4318379499031463e-05,1.0372271563489896e-05,7.764163163034227e-07,1.7171990791721578e-07,7.153954208596762e-07,7.108788482773003e-07,1.2370537953589378e-06,2.7283164869187577e-06
258,4.502513109316621e-06,6.217628388965058e-06,2.8461550085202517e-06,1.3648318524088048e-05,9.109969348757496e-07,8.60556718790492e-07,1.5863295241914e-06,2.4047915987903402e-06,2.291882502029044e-05,1.0469882174156481e-05,7.670065002707016e-07,1.0516794910323584e-07,7.098665543477658e-07,7.16565428802866e-07,1.2427699650202862e-06,2.6967138632429366e-06
259,4.733554119022495e-06,6.147620399173124e-06,2.9824848762534543e-06,1.4229636816895578e-05,9.142795411228986e-07,8.817733747497663e-07,1.60818131777431e-06,2.298003243099578e-06,2.1515825773865015e-05,1.0576638741503428e-05,7.589847309503795e-07,4.423899229337785e-08,7.048303355635884e-07,7.238718679267591e-07,1.2460662139512288e-06,2.6666669242078794e-06
260,4.971345633067966e-06,6.081326379188938e-06,3.136721376203507e-06,1.4823046665898581e-05,9.185461350490747e-07,9.027578356460911e-07,1.622916736547919e-06,2.1919782716363276e-06,2.012518447427185e-05,1.0691567481720864e-05,7.522911088008644e-07,-9.521142471496839e-09,7.001647401100742e-07,7.32533045591654e-07,1.2470432107591534e-06,2.639094485632972e-06
261,5.212801186557201e-06,6.018800097456229e-06,3.3071061096935185e-06,1.5412526135732073e-05,9.240422662761053e-07,9.235435347823533e-07,1.6304355060854795e-06,2.087721721935961e-06,1.876149708251275e-05,1.0811897202930091e-05,7.467738151820334e-07,-5.44302564471431e-08,6.957144619245328e-07,7.422247513869215e-07,1.246039739857056e-06,2.614338630060371e-06
262,5.453813643378079e-06,5.95950479701497e-06,3.491528697848065e-06,1.5979340921022777e-05,9.30859218251117e-07,9.44333758825155e-07,1.6306730433243732e-06,1.986268119057285e-06,1.743794566418277e-05,1.0932738550710673e-05,7.422640987637389e-07,-8.85796560879351e-08,6.912740876912153e-07,7.525966777506396e-07,1.243451875311434e-06,2.5922396124409087e-06
263,5.689183431139916e-06,5.902016184386548e-06,3.6877604366053682e-06,1.650318890543646e-05,9.388981146003016e-07,9.653402564192474e-07,1.6237181382887548e-06,1.8885085162668827e-06,1.6166317842899207e-05,1.1047750913736903e-05,7.386864426747632e-07,-1.0972028549999849e-07,6.86613877765985e-07,7.633615813777073e-07,1.2396113998582158e-06,2.5722568619258324e-06
264,5.9128226129296625e-06,5.843942264750402e-06,3.8934428652634415e-06,1.6964418506596693e-05,9.479208428247963e-07,9.86665156810084e-07,1.6099331208054444e-06,1.7951031783418352e-06,1.4956696913626108e-05,1.1150715124477777e-05,7.36109592288032e-07,-1.1522541108214358e-07,6.815734382978911e-07,7.743407341300731e-07,1.23478508370693e-06,2.553556814025266e-06
265,6.118273278175401e-06,5.7821741703929254e-06,4.105871420589571e-06,1.734709030862926e-05,9.5768525969491e-07,1.0082433683136727e-06,1.5899192511588958e-06,1.7064010183176712e-06,1.3816992845129491e-05,1.1237327245475205e-05,7.347070953295071e-07,-1.0214340212736328e-07,6.761521473464853e-07,7.854067530709932e-07,1.229178202910501e-06,2.5350844971799742e-06
266,6.2995098172375105e-06,5.713298496331763e-06,4.321845306195156e-06,1.764176684826094e-05,9.680849235919775e-07,1.0298336018405145e-06,1.564418930078947e-06,1.6223917955175457e-06,1.2752668126738719e-05,1.1306209859418629e-05,7.346794257038434e-07,-6.719716094178328e-08,6.705183620289745e-07,7.964247759467898e-07,1.2228840929853018e-06,2.5157452692641105e-06
267,6.451845150030144e-06,5.63401557970465e-06,4.537615067719431e-06,1.7846667579633336e-05,9.791786122631187e-07,1.0510873766329485e-06,1.5342582686841948e-06,1.5427678398747527e-06,1.1766965012357366e-05,1.135863552876221e-05,7.362036239547593e-07,-6.689397355079852e-09,6.649338262001434e-07,8.072599788160927e-07,1.2158739990818019e-06,2.4947137392663114e-06
268,6.572473191664021e-06,5.54154141695895e-06,4.748780741762179e-06,1.7966594256488595e-05,9.910995474579794e-07,1.0716812569423947e-06,1.5003073893992872e-06,1.4670699288606298e-06,1.0861388500868923e-05,1.1397335552103735e-05,7.394399052769072e-07,8.354584308703143e-08,6.596498386626117e-07,8.177813869160206e-07,1.208074820355659e-06,2.4716902821833755e-06
269,6.660128509602998e-06,5.433910665534607e-06,4.950297246168267e-06,1.8010038210319588e-05,1.0039483695822827e-06,1.0914342591325695e-06,1.463427808715598e-06,1.394787365677331e-06,1.0035854573861282e-05,1.142513398983277e-05,7.446023136798663e-07,2.0808362621806108e-07,6.548322292240953e-07,8.278427301984365e-07,1.1994620042690635e-06,2.4469350860901275e-06
270,6.714028026758815e-06,5.309978245756825e-06,5.136871458151888e-06,1.7985876451361277e-05,1.0177384876926288e-06,1.110347162333249e-06,1.4244563959558498e-06,1.325378499133579e-06,9.288664683445392e-06,1.1443837835713768e-05,7.520377045384375e-07,3.718093710437576e-07,6.505429191776391e-07,8.373210715815727e-07,1.1900648740780425e-06,2.421096895205492e-06
271,6.733210225268854e-06,5.169021666678891e-06,5.303676141661066e-06,1.7901741984424734e-05,1.0323737396171346e-06,1.1285404547184742e-06,1.3842531377636506e-06,1.2583532888237188e-06,8.616920582902037e-06,1.1453448050584525e-05,7.622023378226558e-07,5.798131611883157e-07,6.467983110830418e-07,8.462148624914587e-07,1.179868364119108e-06,2.3949818114497416e-06
272,6.717086431025375e-06,5.0102839325509465e-06,5.447067908382084e-06,1.776486167059759e-05,1.0476601835766366e-06,1.1461237660947755e-06,1.3437236222269852e-06,1.1934703994307192e-06,8.017173756406774e-06,1.1451817787465556e-05,7.755495429445238e-07,8.373066958532667e-07,6.436995112553639e-07,8.546825600460002e-07,1.1687266197389973e-06,2.369401891930451e-06
273,6.666627060117799e-06,4.833077981056874e-06,5.565066216256564e-06,1.7583745148170693e-05,1.0633729772160402e-06,1.1631011511544016e-06,1.303730318265917e-06,1.1308783761311562e-06,7.48567397281193e-06,1.1435044220243412e-05,7.924381929944998e-07,1.1496185592623876e-06,6.415371872760492e-07,8.629577177558501e-07,1.1563928724567382e-06,2.345137472064294e-06
274,6.5850625153689925e-06,4.637546042155578e-06,5.65746618117505e-06,1.7368773617184558e-05,1.0792997588746227e-06,1.1793604786541232e-06,1.264954672272976e-06,1.0710726431997826e-06,7.018479769564355e-06,1.1398670919609528e-05,8.130918535770183e-07,1.5222342499258712e-06,6.407534013105163e-07,8.712360923735956e-07,1.1426031507051258e-06,2.322906393890878e-06
275,6.477588826935354e-06,4.425409900266426e-06,5.72560060106792e-06,1.713115761562151e-05,1.0951832830231083e-06,1.1946736438661259e-06,1.2278339773923019e-06,1.0147411075567536e-06,6.6120849977286875e-06,1.133924860790183e-05,8.376054664759909e-07,1.9607972788053145e-06,6.418028650358487e-07,8.796261935020464e-07,1.1271046092498883e-06,2.303274316168447e-06
276,6.350337009993238e-06,4.200102586375324e-06,5.771907133681696e-06,1.6881013712323787e-05,1.110656465652381e-06,1.208690475994289e-06,1.192579840568547e-06,9.62625010846961e-07,6.2641010873287895e-06,1.125534278618768e-05,8.659867356809809e-07,2.4710568375019026e-06,6.450696591516992e-07,8.881449848126174e-07,1.1096413888665665e-06,2.2865775766111e-06
277,6.209239982320315e-06,3.96628480119079e-06,5.79944475020032e-06,1.6626032306965578e-05,1.1252828916337769e-06,1.2209921604550953e-06,1.1591979130850978e-06,9.154336506026078e-07,5.973023614668603e-06,1.1147319412359626e-05,8.981662012269155e-07,3.0588262905526963e-06,6.508972421691445e-07,8.967400351016739e-07,1.089956299603781e-06,2.2728656948232205e-06
278,6.059241537339217e-06,3.7291267643213267e-06,5.8113901704626e-06,1.6371567147686212e-05,1.1386312178436626e-06,1.2311755587480237e-06,1.127512455286037e-06,8.737885825367501e-07,5.737257188898349e-06,1.1016126061243622e-05,9.339806934653065e-07,3.729994806676287e-06,6.596600255675372e-07,9.053159701914161e-07,1.0678431628093286e-06,2.2618489994375896e-06
279,5.903936282114878e-06,3.493695864747421e-06,5.810540535162161e-06,1.612143142352571e-05,1.1502947840717458e-06,1.238881367514235e-06,1.097268489377927e-06,8.382127071178283e-07,5.554361488074669e-06,1.0862043343835227e-05,9.732080692681541e-07,4.490495559500526e-06,6.717894068307111e-07,9.137236708762955e-07,1.0432258422496445e-06,2.2529594667118134e-06
280,5.745619047765014e-06,3.2645664539882293e-06,5.798927310258612e-06,1.587826581422856e-05,1.1599395862697875e-06,1.2437823357884397e-06,1.0682965092496534e-06,8.091987684698854e-07,5.4209641718271e-06,1.0684577788178955e-05,1.0156139983326697e-06,5.3461330464300125e-06,6.877402948871489e-07,9.217518564855126e-07,1.016182750947611e-06,2.245503059455711e-06
281,5.585689230377639e-06,3.045631593857402e-06,5.7775947776221385e-06,1.56431364409238e-05,1.1674220186392753e-06,1.2456237971982718e-06,1.0406314381901887e-06,7.873015282483431e-07,5.333220927356624e-06,1.0483813752151339e-05,1.060922794179835e-06,6.302336533244958e-06,7.079760309561557e-07,9.291842073657639e-07,9.869499857112453e-07,2.2386983942162756e-06
282,5.425203703300368e-06,2.8400699015143583e-06,5.746478628453353e-06,1.5414896561419085e-05,1.1728238089285675e-06,1.244334506298703e-06,1.014499794017533e-06,7.731486085406519e-07,5.28743599846382e-06,1.0262103480154261e-05,1.108766637245518e-06,7.363887087170132e-06,7.330194738883256e-07,9.35879265277783e-07,9.559783807097922e-07,2.231586881799243e-06
283,5.265245895121401e-06,2.6503875248840315e-06,5.704384945998144e-06,1.5190193039120745e-05,1.176319424996272e-06,1.2400982328463019e-06,9.901904525936663e-07,7.673617068163432e-07,5.28024185282179e-06,1.0024754435022901e-05,1.1586851489388015e-06,8.534542379963948e-06,7.634811541427604e-07,9.417828309085766e-07,9.239685524758281e-07,2.2230250367060607e-06
284,5.1069096576834e-06,2.478457184507491e-06,5.649197292408376e-06,1.4964425720797806e-05,1.178022547543171e-06,1.233279466560238e-06,9.679177988390677e-07,7.705046050599579e-07,5.308242279079654e-06,9.779501608039934e-06,1.2101413662781857e-06,9.816547984382286e-06,7.999870811845317e-07,9.46879688018815e-07,8.917993289604845e-07,2.211855679460278e-06
285,4.9509802678655535e-06,2.3255592544711426e-06,5.5783202094333255e-06,1.4733181897534023e-05,1.1779568576846422e-06,1.2242676158532828e-06,9.477582999479078e-07,7.831544356096141e-07,5.367780236126671e-06,9.535428657532263e-06,1.262552016523337e-06,1.1210149621121398e-05,8.430712522231538e-07,9.512018810181074e-07,8.603953602111013e-07,2.197168425180484e-06
286,4.797559189732346e-06,2.192483887686901e-06,5.4891653463262815e-06,1.4493601713550217e-05,1.1761228013051852e-06,1.213409677599722e-06,9.296448135288254e-07,8.060204521676989e-07,5.455115200550164e-06,9.30194180582632e-06,1.3153482701783082e-06,1.2713207473173802e-05,8.931101926653221e-07,9.54903950522507e-07,8.306132049317699e-07,2.178534543611106e-06
287,4.645914306122514e-06,2.0796868611215626e-06,5.3795618525313025e-06,1.4245376491229092e-05,1.17258659272053e-06,1.201065944245842e-06,9.13377370547895e-07,8.399529109147404e-07,5.566462244990862e-06,9.087928492711737e-06,1.367996544723399e-06,1.4320921137732395e-05,9.502921286873676e-07,9.582544193089698e-07,8.031706370091985e-07,2.15609515130946e-06
288,4.494711888504107e-06,1.9874112147024233e-06,5.248180957087181e-06,1.3991123362572867e-05,1.1675449145347782e-06,1.187672718638978e-06,8.986356027037251e-07,8.858393342508536e-07,5.697610212951157e-06,8.90102715976939e-06,1.4199503665623057e-06,1.602562085980081e-05,1.0145985075293515e-06,9.61526400389792e-07,7.786168467790677e-07,2.1304323543192084e-06
289,4.342510072248181e-06,1.915730371257926e-06,5.095018172922231e-06,1.3735848919162361e-05,1.1613022814072678e-06,1.1737467128498442e-06,8.850292572598106e-07,9.445172262496041e-07,5.8436308514226055e-06,8.747082131969102e-06,1.4706159876585226e-06,1.781658304030784e-05,1.0858017267817832e-06,9.649001128131252e-07,7.573405016341904e-07,2.1023563384295276e-06
290,4.188253789095744e-06,1.864547128586871e-06,4.921729708089178e-06,1.3485497094135015e-05,1.1541550832968627e-06,1.1598452385961832e-06,8.722229193299325e-07,1.016748511833415e-06,5.998969601480259e-06,8.629902071860927e-06,1.5194079599235221e-06,1.9679888095391534e-05,1.1635056553495517e-06,9.684023358990003e-07,7.395965127262296e-07,2.0727787864588125e-06
291,4.031573986339838e-06,1.8335887049629344e-06,4.731600050708344e-06,1.3245404295928995e-05,1.146288129935002e-06,1.1464923979471135e-06,8.600612234572614e-07,1.1032164289048476e-06,6.157625524608125e-06,8.551292836680148e-06,1.5658678319600155e-06,2.15983716130621e-05,1.2472570281302128e-06,9.71890083624009e-07,7.255253212200356e-07,2.0426483366685527e-06
292,3.8728299542566286e-06,1.8224299682356244e-06,4.529208108040698e-06,1.3019873927026129e-05,1.1377747655711073e-06,1.134113015265468e-06,8.485940135860412e-07,1.2045420307025315e-06,6.313671085000255e-06,8.511376544046847e-06,1.6097451568992145e-06,2.35516141886561e-05,1.3366507440025437e-06,9.751067974035517e-07,7.151625138615687e-07,2.0129365424479733e-06
293,3.712966553722708e-06,1.8305632981958498e-06,4.320015245456219e-06,1.2812986990033817e-05,1.1286375863995434e-06,1.1230194094101406e-06,8.379982079539123e-07,1.3213248553210945e-06,6.4625275479335705e-06,8.509217501833553e-06,1.650998979745356e-06,2.55159018347822e-05,1.4313048501821735e-06,9.777762313665747e-07,7.084738218894944e-07,1.9847749995300293e-06
294,3.553291464888042e-06,1.8574861385725762e-06,4.109930429158711e-06,1.2629535867708124e-05,1.1188704198758553e-06,1.1134072072456622e-06,8.284568909714209e-07,1.4541652740468543e-06,6.601981221748474e-06,8.54336400475215e-06,1.6897452055807439e-06,2.7464392250901522e-05,1.5307768741702174e-06,9.796523794719564e-07,7.054424600574221e-07,1.9596285671764215e-06
295,3.3952531541439617e-06,1.9027623101081416e-06,3.904807044832332e-06,1.2475179125448071e-05,1.108414187800032e-06,1.1053202024844178e-06,8.200800494354465e-07,1.6036252892743418e-06,6.7317093449231874e-06,8.611783215510072e-06,1.726153715248375e-06,2.936783065601884e-05,1.634553094630589e-06,9.804936545615782e-07,7.061494563661838e-07,1.939230357496421e-06
296,3.240297454177296e-06,1.96604152450712e-06,3.709976558148128e-06,1.2355756043866006e-05,1.0971545634632384e-06,1.098625365019627e-06,8.129192756728452e-07,1.7701256283247567e-06,6.8520289200460495e-06,8.711288336840242e-06,1.7603592655959284e-06,3.119550925710453e-05,1.7420339854534872e-06,9.800380160545396e-07,7.107539002458771e-07,1.92529909947566e-06
297,3.0898178834323182e-06,2.0470256234900466e-06,3.529986933412702e-06,1.2276154711200386e-05,1.0849437516406224e-06,1.0930284902934638e-06,8.070268720364697e-07,1.9538190951664595e-06,6.963263928452726e-06,8.837040342751955e-06,1.7925136473237773e-06,3.2915364629573435e-05,1.8524239878125203e-06,9.78029332872075e-07,7.193965153400456e-07,1.9193130055626934e-06
298,2.945092392962643e-06,2.1453649700666073e-06,3.368553984912015e-06,1.2239289137388878e-05,1.0715851346694302e-06,1.088136318822364e-06,8.024668206167277e-07,2.154522526860039e-06,7.0658533689593925e-06,8.982520281567682e-06,1.8229435476901009e-06,3.449267573468876e-05,1.9646065249927444e-06,9.742497178285555e-07,7.321247317638696e-07,1.9224593624170705e-06
299,2.8071545152047103e-06,2.2605067637892846e-06,3.2286185719377163e-06,1.2245598226122658e-05,1.0568052013753736e-06,1.0835840932685233e-06,7.992546350386909e-07,2.371777027648998e-06,7.160832680537475e-06,9.13995320741901e-06,1.8522255477180616e-06,3.5889102006493856e-05,2.0771288792763007e-06,9.685607272206564e-07,7.488679876190151e-07,1.935649906195515e-06
300,2.6767622243266944e-06,2.3915668742495783e-06,3.112428824283362e-06,1.229297693721041e-05,1.040309395814998e-06,1.0791895159152125e-06,7.973004119351533e-07,2.605000188877401e-06,7.250555281174176e-06,9.300862181569229e-06,1.8810815137023464e-06,3.706491519781271e-05,2.18831267182747e-06,9.609715464972203e-07,7.694338228490357e-07,1.9594963450855853e-06
301,2.554567246545846e-06,2.537292814188304e-06,3.0216223491088997e-06,1.2376823365257352e-05,1.0219335071430988e-06,1.0750014832545712e-06,7.964452242132599e-07,2.8536137093052327e-06,7.339062087294053e-06,9.45647960404425e-06,1.91017055606091e-06,3.798482477877552e-05,2.2963441310434863e-06,9.516787795908234e-07,7.934978690353052e-07,1.994257791450361e-06
302,2.4413076858217482e-06,2.696120603702871e-06,2.95731501969221e-06,1.2490266944254808e-05,1.0018014948954042e-06,1.0711760338414012e-06,7.965708040628561e-07,3.117067570276674e-06,7.431439253381104e-06,9.598157024365072e-06,1.939927413407153e-06,3.862447686401686e-05,2.3992056947774394e-06,9.41034003095701e-07,8.205858878918784e-07,2.0398126892511996e-06
303,2.3378379318977007e-06,2.8662532585557113e-06,2.9201717048468736e-06,1.2624788920937045e-05,9.803829497877837e-07,1.067806325394147e-06,7.976526659669026e-07,3.3947332918562208e-06,7.532551166017252e-06,9.718127106420013e-06,1.9705099178317397e-06,3.897400630788695e-05,2.4945384344696204e-06,9.294488654455519e-07,8.500640152715069e-07,2.095699804847175e-06
304,2.244998512571802e-06,3.0456516402527625e-06,2.910398439460531e-06,1.2771130017615054e-05,9.584030054573148e-07,1.0648490597079969e-06,7.996874470687187e-07,3.6856874468071975e-06,7.64615954921454e-06,9.810552035183922e-06,2.001823263845177e-06,3.903667203769749e-05,2.5796245935095217e-06,9.173016284646837e-07,8.811533797897707e-07,2.1611970190729554e-06
305,2.163460117737212e-06,3.2319190273565666e-06,2.927664674773608e-06,1.292034870155923e-05,9.366780895121657e-07,1.0621183404284015e-06,8.025823562095806e-07,3.988532922019826e-06,7.77478295652468e-06,9.872249419052604e-06,2.033578285781633e-06,3.882309213299298e-05,2.6515614445963638e-06,9.049108412075419e-07,9.12991527541399e-07,2.235321877716713e-06
306,2.093725482212539e-06,3.4222855175929503e-06,2.9710338806518983e-06,1.3064973673658199e-05,9.159943871794429e-07,1.059291037930483e-06,8.061244486827314e-07,4.30137180661612e-06,7.919937125512093e-06,9.902665365770306e-06,2.0653029831224664e-06,3.834459050690097e-05,2.7076161065449644e-06,8.925499134345174e-07,9.447250736738712e-07,2.3167688254273106e-06
307,2.0363051892396607e-06,3.613916572931941e-06,3.0389402326523755e-06,1.3199902155854527e-05,8.970529123547889e-07,1.0559841149277765e-06,8.100542229941478e-07,4.621780881160352e-06,8.082509103829292e-06,9.903341932301331e-06,2.0962927245941174e-06,3.761076789571659e-05,2.7457073386574996e-06,8.804546554321555e-07,9.75603087771369e-07,2.40394269154435e-06
308,1.9918224493831547e-06,3.8044554927367633e-06,3.129180757764334e-06,1.3322489489827274e-05,8.804399456912075e-07,1.0519396183814335e-06,8.141935935542229e-07,4.946643397928737e-06,8.26319786332054e-06,9.87732694095405e-06,2.1255836818002526e-06,3.6632742516895284e-05,2.7648041521106716e-06,8.688256224870189e-07,1.00510826343548e-06,2.4951468391464874e-06
309,1.960893004454257e-06,3.992463605749827e-06,3.2388852387672683e-06,1.343171814983278e-05,8.666086812025142e-07,1.0471855596168828e-06,8.185318540432184e-07,5.271998617218325e-06,8.462733376529658e-06,9.828591083598857e-06,2.1519808337159463e-06,3.542786339878506e-05,2.764938601984844e-06,8.578421258459601e-07,1.033099240164254e-06,2.5888380658473934e-06
310,1.943966187745143e-06,4.177441570821924e-06,3.3645004581772187e-06,1.3527062256771235e-05,8.55871814324832e-07,1.0420126164365082e-06,8.231841519517942e-07,5.593078253893766e-06,8.681672765096452e-06,9.761268888574406e-06,2.1742053388829107e-06,3.4021783439781126e-05,2.746928847275207e-06,8.477167033720286e-07,1.059835915844778e-06,2.6838332685310956e-06
311,1.9412988161983263e-06,4.359351499280362e-06,3.5018605771809245e-06,1.3607699965088656e-05,8.484007117659088e-07,1.0367980912095258e-06,8.282519437963418e-07,5.904372799299743e-06,8.920119713777558e-06,9.678718395389684e-06,2.1911816580045838e-06,3.24476217890489e-05,2.712315657828063e-06,8.387663913396462e-07,1.0858760137249617e-06,2.779415235672263e-06
312,1.952945694086495e-06,4.5379416593836625e-06,3.646282918386127e-06,1.367201029867822e-05,8.442384515616983e-07,1.0318488711431083e-06,8.337077626552107e-07,6.199550200300281e-06,9.177818545516216e-06,9.58270968982009e-06,2.2022121262043103e-06,3.0743540146091246e-05,2.66348652854223e-06,8.314108791555307e-07,1.1119426742197855e-06,2.8753380647449636e-06
313,1.978676082289934e-06,4.712349277921568e-06,3.79257207617181e-06,1.3716922214754708e-05,8.43334784865175e-07,1.027341260136882e-06,8.393887694031967e-07,6.471482539577882e-06,9.454489586986432e-06,9.473114833248713e-06,2.2068361232304023e-06,2.8949638958099372e-05,2.6034318015222136e-06,8.260930434747017e-07,1.1388062505219853e-06,2.9717253464364067e-06
314,2.0179262554994295e-06,4.881146121052375e-06,3.935071931811517e-06,1.3737177259458574e-05,8.455969326181006e-07,1.0233135367817506e-06,8.450715333939895e-07,6.7128314064922e-06,9.74987504990498e-06,9.348175246592194e-06,2.2045345015789978e-06,2.7104791395268837e-05,2.5351525032619577e-06,8.231988807090318e-07,1.1671764094669806e-06,3.0688749436743875e-06
315,2.0698294680293135e-06,5.042609409607654e-06,4.068051844832041e-06,1.3725150358979522e-05,8.509207144722546e-07,1.0197086014362623e-06,8.505284249811687e-07,6.9171813123782455e-06,1.0063262811420108e-05,9.205221998397156e-06,2.194545928007901e-06,2.5244088324161056e-05,2.4612269623724552e-06,8.229996461969564e-07,1.1976371693429088e-06,3.1670596777710264e-06
316,2.1332314447109e-06,5.1950293347353035e-06,4.186395847397312e-06,1.3671657023800673e-05,8.591628714419211e-07,1.0164936358943508e-06,8.555275312889201e-07,7.080156237313532e-06,1.0392892885455666e-05,9.041853776548678e-06,2.175946408902119e-06,2.3397373614751702e-05,2.383690333954339e-06,8.256145303601259e-07,1.2306549406330844e-06,3.266442235345205e-06
317,2.206713223257309e-06,5.336998757889835e-06,4.286230671790292e-06,1.3567461638821734e-05,8.700762695092226e-07,1.0137879292847986e-06,8.598191945962877e-07,7.19990515279031e-06,1.073596217343611e-05,8.857454933834519e-06,2.1480492320012522e-06,2.1588791693902338e-05,2.304082062856756e-06,8.310094392207796e-07,1.2665990819897548e-06,3.367128865117798e-06
318,2.2886929070533648e-06,5.4675557582406435e-06,4.365193795683737e-06,1.3404901193055455e-05,8.832856581707486e-07,1.0118894488811305e-06,8.631294909642683e-07,7.276715665726756e-06,1.108931379568962e-05,8.65436269893244e-06,2.11091956405784e-06,1.9836928715032535e-05,2.2235618856433252e-06,8.390120751475613e-07,1.3057099066272527e-06,3.4692522789108347e-06
319,2.37747733006566e-06,5.586067748856747e-06,4.422333926112482e-06,1.317916838324064e-05,8.983495618511973e-07,1.0111843068912461e-06,8.652023744965032e-07,7.311951258277971e-06,1.1450044862793744e-05,8.43783847904886e-06,2.065517158658537e-06,1.8155302920472406e-05,2.1430383089392665e-06,8.4932164208609e-07,1.3480532502966956e-06,3.572961888081267e-06
320,2.471150370210381e-06,5.691988580456416e-06,4.457823020768289e-06,1.2888984051135556e-05,9.148521122593438e-07,1.0120218689524417e-06,8.659315774518338e-07,7.306842884584794e-06,1.181557445242522e-05,8.214801639419857e-06,2.0133116780766667e-06,1.6553165092034094e-05,2.0632455005909066e-06,8.61529896313835e-07,1.3935049453596103e-06,3.6783122251530785e-06
321,2.567482016824467e-06,5.7847534363014854e-06,4.472638375611379e-06,1.253665071887378e-05,9.324201250486831e-07,1.0146296353626697e-06,8.654716162323916e-07,7.261840750782932e-06,1.2183433213619805e-05,7.992217947993221e-06,1.9558463527633643e-06,1.503645101213011e-05,1.984731488623164e-06,8.751561156604748e-07,1.4417565955352517e-06,3.7851008306725436e-06
322,2.6640848376200184e-06,5.863902425667965e-06,4.468295550055182e-06,1.2127704892661149e-05,9.506520101169566e-07,1.019066664127887e-06,8.641932682465487e-07,7.1768699065005445e-06,1.2550917996058093e-05,7.77601035317282e-06,1.8946088629283924e-06,1.3608629347306781e-05,1.9077899819240098e-06,8.896720133613784e-07,1.492354873111194e-06,3.892679522980471e-06
323,2.7587582527684134e-06,5.929256262539445e-06,4.4466545032946285e-06,1.1670358335813382e-05,9.690625724898825e-07,1.0251949537570359e-06,8.625325622456287e-07,7.052083179891286e-06,1.2914811048022493e-05,7.570627784620865e-06,1.8309936201545616e-06,1.2271315530811853e-05,1.8324246096744682e-06,9.045273403418368e-07,1.5447797036029714e-06,3.99981543549675e-06
324,2.849758184563737e-06,5.980881031527071e-06,4.409734141033829e-06,1.1174772774964162e-05,9.871085364588755e-07,1.032686075368985e-06,8.608803057029361e-07,6.888512649896477e-06,1.3271727514075178e-05,7.379028018013252e-06,1.7661696328003761e-06,1.1024667114974126e-05,1.758449232867113e-06,9.192200395697768e-07,1.5985283080705312e-06,4.104721755443676e-06
325,2.9357784766027306e-06,6.018729312271147e-06,4.359426972579581e-06,1.0652198453782168e-05,1.0042374198308107e-06,1.0410851595368284e-06,8.595497860148544e-07,6.688417278407715e-06,1.361867288212929e-05,7.202843221099712e-06,1.7010077637737055e-06,9.867623039081504e-06,1.6857446332495306e-06,9.333644098879693e-07,1.653187150010382e-06,4.2052381675789945e-06
326,3.0156590000575365e-06,6.042165602704644e-06,4.297152615352421e-06,1.0114068046144227e-05,1.0198965205880876e-06,1.0499031295180076e-06,8.587460344640855e-07,6.455375726117351e-06,1.3952739867392783e-05,7.042531092382092e-06,1.6361756480833318e-06,8.798049215040505e-06,1.6145125308748972e-06,9.466698818735182e-07,1.708469352921314e-06,4.2990305221814194e-06
327,3.0881031871142405e-06,6.0497703758629045e-06,4.223714366826531e-06,9.571134692324846e-06,1.0335069756620745e-06,1.0586611640232014e-06,8.585124690356432e-07,6.194173680952961e-06,1.4270204415264938e-05,6.897524322422069e-06,1.5723087397293206e-06,7.812889164264855e-06,1.5453182528060255e-06,9.588850795709792e-07,1.7641647668254682e-06,4.383728901956468e-06
328,3.151647378532672e-06,6.039516040496755e-06,4.139517485833633e-06,9.032749461864938e-06,1.0444632128007952e-06,1.0668453621664889e-06,8.587022965619151e-07,5.910529001201099e-06,1.456575447593957e-05,6.766446849405683e-06,1.5101239856311147e-06,6.908433494466688e-06,1.4789023480032486e-06,9.69783283523193e-07,1.8200184221654533e-06,4.456994842102619e-06
329,3.2047736632596673e-06,6.009045640986787e-06,4.044946842516998e-06,8.506402645004921e-06,1.0522539626455428e-06,1.073824286876916e-06,8.589966825937327e-07,5.610708854758474e-06,1.4831917204766845e-05,6.647330855904271e-06,1.4504061278739269e-06,6.080691487083926e-06,1.4159418759559178e-06,9.79159183565994e-07,1.8756274619619434e-06,4.516560798722417e-06
330,3.245983200212645e-06,5.955957137773161e-06,3.940647021166e-06,7.99762129697928e-06,1.0566836194860427e-06,1.0788401008051706e-06,8.589613218561445e-07,5.301068445849724e-06,1.5058977881963656e-05,6.537925977620997e-06,1.3939162827414707e-06,5.3257303283612845e-06,1.3569387796820308e-06,9.868092281101236e-07,1.930365600025295e-06,4.560285180545977e-06
331,3.2739114110089837e-06,5.878278097771328e-06,3.827667093313322e-06,7.5102694075219896e-06,1.057992713224643e-06,1.0811428657906676e-06,8.581264658097545e-07,4.987563311081045e-06,1.5236042547868745e-05,6.436212830078663e-06,1.3413725252693153e-06,4.639907968171419e-06,1.3022326206048922e-06,9.9249649486052e-07,1.9833103184301154e-06,4.586252264714124e-06
