,EMG1,EMG2,EMG3,EMG4,EMG5,EMG6,EMG7,EMG8,EMG9,EMG10,EMG11,EMG12,EMG13,EMG14,EMG15,EMG16
0,5.189820818379738e-08,2.667610581886941e-07,2.9824711495822246e-07,5.633721776715358e-06,3.780865878158836e-08,1.583489167012782e-07,1.8926557422843447e-07,-6.963445941138864e-08,-1.7867245281563772e-07,3.264201120556139e-07,2.2177440159775931e-07,2.859998611791423e-07,-6.90549189927528e-08,3.4469197187706927e-07,1.2799167824191141e-07,2.198922777457112e-08
1,7.902677298912477e-08,3.650758550521837e-07,3.4497299370044167e-07,6.712873848499909e-06,1.484941408154031e-07,2.0750393403006522e-07,2.931253847585022e-07,1.6169504026183507e-07,-3.622152952776098e-08,3.625222616231856e-07,2.760543598120927e-07,3.676746160026632e-07,2.1814652028569335e-08,3.762856047405692e-07,1.7995962909806104e-07,1.4718037702597423e-07
2,1.063099246549175e-07,4.6340976912419345e-07,3.927253401547977e-07,7.77872373235907e-06,2.575220652149732e-07,2.5893243790885095e-07,3.9611365437735057e-07,3.9037622069824026e-07,1.0668749874420161e-07,4.012428780219131e-07,3.3167333306093727e-07,4.51476413229459e-07,1.1140234521205721e-07,4.0829799170119657e-07,2.3240811880795305e-07,2.706775818794116e-07
3,1.333808493964015e-07,5.6005573633513e-07,4.409316411677688e-07,8.815126729350326e-06,3.632593222729959e-07,3.120178115799162e-07,4.975019139943003e-07,6.144933433776207e-07,2.489098587951585e-07,4.422288565024439e-07,3.8796969810185605e-07,5.357395017218118e-07,1.9866776032927929e-07,4.404916748328498e-07,2.8464855834480483e-07,3.9083980197337023e-07
4,1.5991282787104264e-07,6.535374906462282e-07,4.890780784034957e-07,9.806692019796324e-06,4.6415914698296296e-07,3.6617930197670074e-07,5.965479389118563e-07,8.321256785184233e-07,3.8987050161665306e-07,4.850732140792071e-07,4.443117341065726e-07,6.193668267822179e-07,2.827069492247425e-07,4.726170951696693e-07,3.3603614833919565e-07,5.063059834313179e-07
5,1.856421954954018e-07,7.425816978680858e-07,5.36788851985897e-07,1.073971873077303e-05,5.588720614750236e-07,4.20888422874134e-07,6.92462825078273e-07,1.04133959386627e-06,5.295140590593849e-07,5.29306141678339e-07,5.000730867801714e-07,7.018384657405101e-07,3.628171287624556e-07,5.044073046011589e-07,3.860016167641939e-07,6.160222590495733e-07
6,2.1038982337753546e-07,8.261154949496649e-07,5.838607418149122e-07,1.1603398679746426e-05,6.463907965530003e-07,4.757115919388637e-07,7.84387796237488e-07,1.2403282339938708e-06,6.681060076401072e-07,5.744218316448275e-07,5.546567566417454e-07,7.830279574869328e-07,4.3852456076208434e-07,5.355626998856281e-07,4.340749022602734e-07,7.192206295545394e-07
7,2.3405466154023976e-07,9.033824341635073e-07,6.301948918335535e-07,1.2390746938369126e-05,7.261645636849424e-07,5.303640902713725e-07,8.713999059606649e-07,1.4276866772932968e-06,8.060540776511763e-07,6.199746070376896e-07,6.075632904557781e-07,8.629605971898131e-07,5.096171410885132e-07,5.657388458683055e-07,4.798850552391035e-07,8.153847356299342e-07
8,2.5660020277341377e-07,9.740898510822033e-07,6.757288319242867e-07,1.3098679047640536e-05,7.981254474511752e-07,5.847110548732519e-07,9.525585699275212e-07,1.6026638115773968e-06,9.438927468723313e-07,6.656905246596402e-07,6.584504656896928e-07,9.416522469573247e-07,5.761436238213613e-07,5.945640669804727e-07,5.231474630542951e-07,9.042023371297979e-07
9,2.780545404774098e-07,1.0384051954719204e-06,7.204466054712586e-07,1.3727177231154275e-05,8.626036320856891e-07,6.386885566050784e-07,1.0269565239139575e-06,1.7652290823115058e-06,1.0823954861655307e-06,7.114696181810893e-07,7.071436652143387e-07,1.0190324290799945e-06,6.383313448408728e-07,6.216867055350281e-07,5.636469651743948e-07,9.85514987328968e-07
10,2.985007384322964e-07,1.0967545544594984e-06,7.643778573391469e-07,1.4277903803973359e-05,9.20163732163299e-07,6.921981621179734e-07,1.0937580517137123e-06,1.91594662089589e-06,1.2226217690547607e-06,7.572630136025348e-07,7.535883723062999e-07,1.0949066855473155e-06,6.964998072695419e-07,6.468154341938558e-07,6.011984282405898e-07,1.0592901079772958e-06
11,3.1806748603880033e-07,1.14957783907715e-06,8.075180128270584e-07,1.4752563281697726e-05,9.714307489925137e-07,7.45047406584683e-07,1.1522699350475277e-06,2.055809311556486e-06,1.3657840989170193e-06,8.029485524476785e-07,7.977864917044617e-07,1.1689740284473636e-06,7.510144864853649e-07,6.69723829471947e-07,6.355902226253191e-07,1.1256251308392222e-06
12,3.369400937881188e-07,1.1972092792374255e-06,8.497356387576198e-07,1.5151429328167828e-05,1.0169956350438796e-06,7.969536187033495e-07,1.2020429121552458e-06,2.1861540518030205e-06,1.513017717385332e-06,8.482898228605168e-07,8.397587173865613e-07,1.2409182857871179e-06,8.022362896595771e-07,6.902317084121871e-07,6.665539642259598e-07,1.1847524055430556e-06
13,3.553571214846919e-07,1.2398913356114576e-06,8.907476534379429e-07,1.5472870842534792e-05,1.057432974105048e-06,8.475742607939563e-07,1.242923175494515e-06,2.308587973746174e-06,1.6652034696336585e-06,8.92960722251911e-07,8.795243810829797e-07,1.3105128646326973e-06,8.504764468080746e-07,7.081630856347334e-07,6.938182814407032e-07,1.2369928841513618e-06
14,3.735692149277411e-07,1.2778196793310363e-06,9.30191205762636e-07,1.5714250890975332e-05,1.0933269459786765e-06,8.965189321513896e-07,1.2750091436813706e-06,2.424787471453239e-06,1.8229188235343234e-06,9.366212273070124e-07,9.171053426731049e-07,1.3776376386666966e-06,8.959799149728363e-07,7.232902942577632e-07,7.172349499672642e-07,1.2826830049318425e-06
15,3.917879958408821e-07,1.31115046873113e-06,9.677726629166989e-07,1.587336728216404e-05,1.1252209662483946e-06,9.43323243112746e-07,1.29854674076394e-06,2.536199485182706e-06,1.98648761340035e-06,9.790295005086184e-07,9.525594926096432e-07,1.4421888864378564e-06,9.388959403677406e-07,7.353344792693418e-07,7.368434474991722e-07,1.3221463716085845e-06
16,4.1015717568913477e-07,1.3399623930264905e-06,1.0034032654231373e-06,1.594941710777463e-05,1.153558833746126e-06,9.874167482917347e-07,1.3138004652383423e-06,2.6438231528682136e-06,2.1560274407966576e-06,1.0201139790513202e-06,9.859954528296808e-07,1.5040066016756585e-06,9.792306145690005e-07,7.440785945403282e-07,7.527971168320076e-07,1.3557098185660686e-06
17,4.28759880456861e-07,1.3641985966957872e-06,1.0372048826635249e-06,1.5943277814124834e-05,1.1786856125116258e-06,1.0281608834890146e-06,1.3209373307097486e-06,2.7481704436466036e-06,2.3314103602855714e-06,1.0599621541164371e-06,1.0175252929132811e-06,1.5629253396044688e-06,1.0168545846766374e-06,7.495357842361195e-07,7.6527801811842e-07,1.3837412698263781e-06
18,4.476534974184878e-07,1.3836693209394333e-06,1.069395209749569e-06,1.5857410512095194e-05,1.200880034333915e-06,1.0649903302376593e-06,1.3200184786076885e-06,2.8493407523486362e-06,2.5121668368085127e-06,1.0987699522961742e-06,1.0471818584273423e-06,1.618877105580217e-06,1.0515945784689156e-06,7.520186767803936e-07,7.745368146911709e-07,1.4066891843326417e-06
19,4.668938637092569e-07,1.3981661155925733e-06,1.1002083843872986e-06,1.5695687018664738e-05,1.220387356908802e-06,1.0975873163398453e-06,1.3111603857609162e-06,2.947117522858947e-06,2.697429235788724e-06,1.1367852368059274e-06,1.0748921457857938e-06,1.6719579155468328e-06,1.0833309268586678e-06,7.520548833423803e-07,7.809842473713012e-07,1.425056952392653e-06
20,4.865252412107376e-07,1.4075749395684922e-06,1.1299106597060566e-06,1.546325495528461e-05,1.237438688219496e-06,1.1259700892669673e-06,1.2947665117562607e-06,3.041061452020357e-06,2.885946244651885e-06,1.174226592391476e-06,1.100551600653064e-06,1.7224566092956355e-06,1.1120044027358323e-06,7.502923251427716e-07,7.851846812453261e-07,1.4393342056036848e-06
21,5.065567132707945e-07,1.4118536840562207e-06,1.1587873394097631e-06,1.5166391513978894e-05,1.252240497085212e-06,1.150422009219627e-06,1.2716565202133008e-06,3.13056359153816e-06,3.076154795418669e-06,1.2111739685275835e-06,1.1241202312724297e-06,1.7707960633604412e-06,1.1375463755969334e-06,7.474766759090432e-07,7.877624967118487e-07,1.4499888991352785e-06
22,5.269411603779617e-07,1.4109448254102413e-06,1.1870405505197358e-06,1.4812248424837482e-05,1.2649664076338616e-06,1.1713072104223495e-06,1.2430187239562132e-06,3.2147825335187892e-06,3.2663126039331356e-06,1.2474809912959657e-06,1.1456310263534317e-06,1.817346091075143e-06,1.1598692958558141e-06,7.44404399926455e-07,7.89327381254534e-07,1.4574794184944564e-06
23,5.475587768549525e-07,1.4047956397073384e-06,1.2147017972196687e-06,1.4408420784598385e-05,1.275798162319338e-06,1.188940321930395e-06,1.210232584676548e-06,3.292502935926192e-06,3.454637821512136e-06,1.2827769708675656e-06,1.1650980731448055e-06,1.8622348527375844e-06,1.1789712379912412e-06,7.418296650301042e-07,7.904292134892672e-07,1.4621983143720757e-06
24,5.682190209379867e-07,1.3934867497248764e-06,1.2416605817340927e-06,1.3962305348182477e-05,1.2849621323749665e-06,1.2036165436552731e-06,1.1746638671203202e-06,3.36207871314821e-06,3.6393431345292546e-06,1.31659175886108e-06,1.182426591328079e-06,1.905322061404593e-06,1.1949944015825818e-06,7.403987064772718e-07,7.915003511697387e-07,1.464415214165423e-06
25,5.886773620373622e-07,1.37732271375162e-06,1.2677735109502617e-06,1.3480252087514996e-05,1.2926774017365007e-06,1.2157005373786305e-06,1.1375468499418728e-06,3.4215092822647742e-06,3.818520318085388e-06,1.3485203040229447e-06,1.1974317678926418e-06,1.9463021801074116e-06,1.2081050517457792e-06,7.406267151159315e-07,7.928055518281149e-07,1.4642868603157176e-06
26,6.086429295521808e-07,1.3568330138437559e-06,1.292925144311847e-06,1.2966796352934458e-05,1.2990841167582613e-06,1.2256294427142824e-06,1.0999741472782088e-06,3.468573704489435e-06,3.989939830982549e-06,1.378266983160197e-06,1.2099621457807876e-06,1.984759736230709e-06,1.2183119984780503e-06,7.42918950849508e-07,7.944402458171866e-07,1.4618554048772211e-06
27,6.277721086571735e-07,1.3327403386498803e-06,1.3170007981878503e-06,1.2424652463068332e-05,1.3042524625722498e-06,1.2338315233704823e-06,1.0628941229638224e-06,3.5010615372998505e-06,4.150853037791535e-06,1.405582879407666e-06,1.2200145369644588e-06,2.0201236627238392e-06,1.2253971482079612e-06,7.476148952549996e-07,7.963699018376551e-07,1.4569740625831459e-06
28,6.456625905053649e-07,1.3059193850941748e-06,1.3398720453252022e-06,1.1855759403608398e-05,1.3082052102033394e-06,1.2406464244282163e-06,1.0270784940560632e-06,3.517187714585288e-06,4.297909016412407e-06,1.4302867447984282e-06,1.2277260237088994e-06,2.051650452557897e-06,1.228952438690379e-06,7.549928117171094e-07,7.984697817139079e-07,1.4492674586180426e-06
29,6.618814318796685e-07,1.277325364760665e-06,1.361462904194613e-06,1.1262689656406957e-05,1.3108816589632607e-06,1.2462957704478726e-06,9.9312507684524e-07,3.5160834133319297e-06,4.427444637872587e-06,1.4523868986296517e-06,1.2332463148137267e-06,2.078513225399628e-06,1.2284598666713313e-06,7.652380296778856e-07,8.005612907772374e-07,1.4382741843395198e-06
30,6.760471449879442e-07,1.2478869453628974e-06,1.3818395379898688e-06,1.0649547079737224e-05,1.312108671137292e-06,1.2509043102549744e-06,9.61518965366607e-07,3.498110933557046e-06,4.536296513346416e-06,1.4720963564493658e-06,1.236607489497699e-06,2.099938252666091e-06,1.2234578940840197e-06,7.784256077563624e-07,8.024568859995379e-07,1.4237255454679013e-06
31,6.878984213170061e-07,1.2183928212826623e-06,1.4012254989597065e-06,1.0022112519743926e-05,1.3116537577200914e-06,1.2545472659289548e-06,9.326919891493699e-07,3.464823049302428e-06,4.622682636866697e-06,1.4896669934395969e-06,1.2377086068472222e-06,2.1152997578456275e-06,1.2137817960880761e-06,7.945382545012969e-07,8.039711990712289e-07,1.4057373578924532e-06
32,6.972885273821658e-07,1.1894150421658433e-06,1.419912223818143e-06,9.38747710431716e-06,1.3093519388393235e-06,1.2572795098578577e-06,9.070194950252739e-07,3.418537150294384e-06,4.686376148601103e-06,1.5052011224923358e-06,1.236429108326226e-06,2.1241108043208314e-06,1.1996989467052554e-06,8.135488107245445e-07,8.049084849814632e-07,1.384785635374348e-06
33,7.041841513956707e-07,1.1612820436407588e-06,1.4381638444723445e-06,8.753459054672534e-06,1.30521861901709e-06,1.2591250741533668e-06,8.847844140040602e-07,3.361689954342551e-06,4.72800481781146e-06,1.51854746433154e-06,1.2327737080156388e-06,2.1259496743500455e-06,1.1818370015749068e-06,8.355421419337647e-07,8.051090232772367e-07,1.361527447821387e-06
34,7.087208753946402e-07,1.1340827968975412e-06,1.456213473109824e-06,8.12793619443653e-06,1.2994362197179718e-06,1.2600533860151775e-06,8.661645455771201e-07,3.2963398048442933e-06,4.748223015181668e-06,1.529257323418797e-06,1.2269371409991957e-06,2.120450836981666e-06,1.160996505283805e-06,8.607310255864207e-07,8.045209034335474e-07,1.3365914371500297e-06
35,7.112180593898384e-07,1.1076964230074105e-06,1.4742691318351397e-06,7.51816039732325e-06,1.2922198524711285e-06,1.2599527969836304e-06,8.51237078433529e-07,3.224095299024064e-06,4.747458465738195e-06,1.5366032581579208e-06,1.2192408919253989e-06,2.1074397489957987e-06,1.1379692469637301e-06,8.893260935275774e-07,8.031887877556287e-07,1.3104743949719555e-06
36,7.121000602476972e-07,1.0818600494512782e-06,1.4924312621923224e-06,6.930293390797957e-06,1.2837160062886639e-06,1.258598788679091e-06,8.39986246811577e-07,3.1464211166644482e-06,4.726013493164956e-06,1.5396862170609935e-06,1.2099921534934715e-06,2.0871733729498056e-06,1.1134299325070394e-06,9.214045232095502e-07,8.011706077825584e-07,1.2836179077358973e-06
37,7.117912804740813e-07,1.056285070284117e-06,1.5105916132513258e-06,6.369398294900696e-06,1.2740371401921935e-06,1.2556708530174691e-06,8.323247077117769e-07,3.0650874203299682e-06,4.684080290578734e-06,1.5376206129105487e-06,1.1993813670066615e-06,2.06053837897977e-06,1.0879232102856349e-06,9.568612516133446e-07,7.984838278450432e-07,1.2565392215952615e-06
38,7.106569536894085e-07,1.0308102131343136e-06,1.5284180060640242e-06,5.839714335738084e-06,1.2633548057676735e-06,1.2508520229184283e-06,8.281198345160457e-07,2.982505363257996e-06,4.621864075487755e-06,1.5297143201956714e-06,1.1874632422818868e-06,2.0290401931187112e-06,1.061917258039774e-06,9.954122470787036e-07,7.951480168292509e-07,1.2298248626439598e-06
39,7.089939158075332e-07,1.0055261621985439e-06,1.5454574037117732e-06,5.344844657135936e-06,1.2519256153013662e-06,1.2439555724586676e-06,8.271890565255857e-07,2.901742886812485e-06,4.539951902273717e-06,1.515504581336683e-06,1.1741719544603254e-06,1.9945586659324933e-06,1.0358504814389707e-06,1.0366212214083027e-06,7.912807284755e-07,1.204009176818388e-06
40,7.070286036490285e-07,9.807730128989062e-07,1.5613310348147185e-06,4.887764799289372e-06,1.2400245930332373e-06,1.235026478720966e-06,8.292786702139729e-07,2.8261942949609843e-06,4.439526154448495e-06,1.4946989224792815e-06,1.1593580757228335e-06,1.95900840809929e-06,1.0101256509590392e-06,1.0799224769049827e-06,7.871225852867909e-07,1.1795013879637907e-06
41,7.049183256795533e-07,9.57005405544572e-07,1.575943484970061e-06,4.470777732376846e-06,1.2278376073165657e-06,1.2243772102470107e-06,8.340654312045559e-07,2.7591053509555105e-06,4.322277290300893e-06,1.4672384385317277e-06,1.1428741895524677e-06,1.9240722540384903e-06,9.850867650527185e-07,1.1246158229498994e-06,7.829594969683832e-07,1.1566147066789654e-06
42,7.027730574927677e-07,9.346590918205276e-07,1.5896211365628526e-06,4.095506145044051e-06,1.2153725157270545e-06,1.2125020191015292e-06,8.411670884143768e-07,2.703230033988113e-06,4.190292406789563e-06,1.4334611754752602e-06,1.1246726168075525e-06,1.8911027831768738e-06,9.610205948570313e-07,1.169888070697599e-06,7.790398316553709e-07,1.1356344575750985e-06
43,7.006670843972298e-07,9.141105321884507e-07,1.6031065995715303e-06,3.762931288267323e-06,1.2024432717701199e-06,1.1999216338080181e-06,8.501663803092632e-07,2.66071481734699e-06,4.04599029567984e-06,1.3941484819022228e-06,1.1048378500471923e-06,1.861157133694253e-06,9.381925011044618e-07,1.2149423592522274e-06,7.755470688218831e-07,1.116842158131791e-06
44,6.98616310430163e-07,8.957050906385842e-07,1.6173737201337723e-06,3.4734313222025217e-06,1.1887420621522985e-06,1.1871106432706482e-06,8.60648680413726e-07,2.633101195436767e-06,3.891969998586448e-06,1.350401028380179e-06,1.0835358466255913e-06,1.8350353257136214e-06,9.168853116353009e-07,1.25917508100389e-06,7.726035788940573e-07,1.1004708935732802e-06
45,6.965593960165273e-07,8.798009556035194e-07,1.633357680617851e-06,3.2268078595610505e-06,1.173954150120656e-06,1.1745423651272317e-06,8.721910660814472e-07,2.6213416546786406e-06,3.7307987897005827e-06,1.303450591044958e-06,1.0609643572007102e-06,1.8132482541495386e-06,8.973997626906131e-07,1.3022445616632221e-06,7.702885459028214e-07,1.0866926795071683e-06
46,6.943761671561754e-07,8.667647962124246e-07,1.6517693024395496e-06,3.0223311365578454e-06,1.1578765527044473e-06,1.1627432992666074e-06,8.843144301816311e-07,2.625816639647335e-06,3.5648800450596424e-06,1.2545113442750105e-06,1.0373884240922927e-06,1.7959669770723436e-06,8.800638029268595e-07,1.3440029460899414e-06,7.686783120063435e-07,1.0757015066449615e-06
47,6.919182937387078e-07,8.569302271897856e-07,1.6730507778429839e-06,2.8587811613378774e-06,1.1405273034240257e-06,1.1522918742483222e-06,8.964961375771469e-07,2.646396486354108e-06,3.3963869255099533e-06,1.2047071394910845e-06,1.0131852082152817e-06,1.7830525560306187e-06,8.652742065790236e-07,1.3843985566609397e-06,7.678774684866262e-07,1.0677618985178027e-06
48,6.890371877698157e-07,8.505870502061546e-07,1.6974112485388715e-06,2.7345405726229835e-06,1.1222006897522564e-06,1.1437832580948302e-06,9.082522765320726e-07,2.6825790664803672e-06,3.227188132581936e-06,1.1550536399546741e-06,9.887959427753548e-07,1.7741915767317653e-06,8.534798519806599e-07,1.4234124647636304e-06,7.679987886460398e-07,1.0631302142749206e-06
49,6.85627757605902e-07,8.479972882095719e-07,1.7248880691546216e-06,2.6478416893259593e-06,1.103421713141443e-06,1.1377788058245616e-06,9.191845995337944e-07,2.733632458237956e-06,3.0589155329889e-06,1.106464676895368e-06,9.64656152637934e-07,1.7690318607495918e-06,8.450878935079573e-07,1.4610181060511099e-06,7.691209542433667e-07,1.0619541699448013e-06
50,6.816701225392716e-07,8.494290132583265e-07,1.7554079605748417e-06,2.5970499678522087e-06,1.0848328035678029e-06,1.1347402319225672e-06,9.289422645210135e-07,2.79866434730607e-06,2.8932097435238505e-06,1.0597549397162885e-06,9.411710314068208e-07,1.767201786060182e-06,8.403836834001266e-07,1.4971689175729041e-06,7.712650451300292e-07,1.0642434835519656e-06
51,6.772263346894438e-07,8.55196295321882e-07,1.7888148057088056e-06,2.5808010861858893e-06,1.0670900557066404e-06,1.134972907535183e-06,9.372039633917228e-07,2.876674358788137e-06,2.731795568583267e-06,1.0156331979406041e-06,9.186871208965661e-07,1.7682362235096566e-06,8.395063002394913e-07,1.5318183634241392e-06,7.744023066073824e-07,1.0699078369717231e-06
52,6.723961096865007e-07,8.656411862947139e-07,1.8248349728621666e-06,2.597955265202611e-06,1.0507908843411657e-06,1.138603256075471e-06,9.437471729974534e-07,2.9666762805784293e-06,2.5762752494433084e-06,9.746982998363038e-07,8.974611000554815e-07,1.7715236086551001e-06,8.424464198554287e-07,1.5649210295557135e-06,7.784817591483675e-07,1.0788609553463277e-06
53,6.672699298040674e-07,8.810517140545845e-07,1.8630167308964934e-06,2.6473929525365455e-06,1.0364146165910621e-06,1.145570354646401e-06,9.484832419573199e-07,3.0678352768401755e-06,2.4279349101459216e-06,9.374253674206759e-07,8.776781105517937e-07,1.776359591628308e-06,8.490458379763504e-07,1.5963622473213012e-06,7.834252571283698e-07,1.091132383050717e-06
54,6.618975829535848e-07,9.015958403311676e-07,1.9027393517470612e-06,2.7277650090749946e-06,1.0242754605381075e-06,1.1556062525218574e-06,9.51381360960254e-07,3.1794450521489215e-06,2.2877031990420247e-06,9.041438896026555e-07,8.595100336730497e-07,1.782127682365301e-06,8.590190063721062e-07,1.6258385524690024e-06,7.890932434277789e-07,1.106865735377673e-06
55,6.562882292937377e-07,9.27330232262692e-07,1.943302540939879e-06,2.8373813565883265e-06,1.0144969266391917e-06,1.1682180950448699e-06,9.523919182099416e-07,3.3006966765756654e-06,2.1562033521865464e-06,8.750362214137953e-07,8.431548372365649e-07,1.788495692610326e-06,8.719900512822921e-07,1.6527649785579985e-06,7.952937763614573e-07,1.1262138751131991e-06
56,6.504617845202031e-07,9.582566788241372e-07,1.9839911570207464e-06,2.9742435653543293e-06,1.0070325594937017e-06,1.1826992687261186e-06,9.514755055126819e-07,3.430501543055622e-06,2.0338305435574327e-06,8.501609753258359e-07,8.28819056177639e-07,1.7954167013732257e-06,8.874976998822422e-07,1.676257752544741e-06,8.018291106845198e-07,1.1492700711873774e-06
57,6.444990180868463e-07,9.943442917872553e-07,2.0240300185990453e-06,3.1360342054846917e-06,1.0017500115676191e-06,1.198176031398788e-06,9.487070093786879e-07,3.5676159192248256e-06,1.9207820075811747e-06,8.295026960267045e-07,8.166619977708568e-07,1.8029053819754949e-06,9.049848153086951e-07,1.6952073216307868e-06,8.085014456590576e-07,1.1760665386942591e-06
58,6.385176171015191e-07,1.0354770390166759e-06,2.0624654908325115e-06,3.3199852731893934e-06,9.98517648227252e-07,1.2136617200353505e-06,9.443416214547289e-07,3.7109161562136247e-06,1.8170570238436162e-06,8.130267136301917e-07,8.067431969483291e-07,1.810816356498435e-06,9.23821013684279e-07,1.708465070373461e-06,8.15080668766955e-07,1.20656012046423e-06
59,6.326230222732122e-07,1.0813736477061622e-06,2.0981459562598986e-06,3.5227256696049717e-06,9.972163968905378e-07,1.2280734917160353e-06,9.387697654241643e-07,3.859527793340568e-06,1.7225075586351313e-06,8.006732966643326e-07,7.989873333591629e-07,1.818811326162813e-06,9.433230183013757e-07,1.7150869426735332e-06,8.212952181944236e-07,1.2405905126297848e-06
60,6.269054703478593e-07,1.1315358571220867e-06,2.129877337411426e-06,3.740179737116143e-06,9.977076890277844e-07,1.2402153805701846e-06,9.324272796120226e-07,4.012708958099012e-06,1.6369561987427737e-06,7.922962738567222e-07,7.931693273097315e-07,1.826472808104793e-06,9.627618790997782e-07,1.7144740979716914e-06,8.268553385836874e-07,1.277854138373063e-06
61,6.214515477398572e-07,1.1852244305426788e-06,2.1565506509087797e-06,3.967550516414583e-06,9.998482833149752e-07,1.2488431155317108e-06,9.25756427395039e-07,4.169555897887482e-06,1.5602747119239312e-06,7.87630210682714e-07,7.889302870783817e-07,1.8333776513913604e-06,9.813957398586967e-07,1.7063669930712337e-06,8.315086510488251e-07,1.3179274425892126e-06
62,6.163380589898472e-07,1.2414517994168284e-06,2.1771046811504947e-06,4.199467393974554e-06,1.003550273479237e-06,1.2529080574110035e-06,9.191774408460118e-07,4.328681557589099e-06,1.4923174140998099e-06,7.863209721456646e-07,7.858089244645656e-07,1.8390505303543319e-06,9.98497602918897e-07,1.6908153675944455e-06,8.351233830455401e-07,1.3603131233464098e-06
63,6.116089750637642e-07,1.2990013418643786e-06,2.190499952401141e-06,4.430341234482211e-06,1.008794445760117e-06,1.2518343567800504e-06,9.130125243521221e-07,4.488006123221899e-06,1.432836753189578e-06,7.879958301635563e-07,7.832803261628449e-07,1.8429614888576596e-06,1.013381260961922e-06,1.668204927882184e-06,8.377489497387757e-07,1.4044347363869791e-06
64,6.072359686303954e-07,1.356470649658294e-06,2.1958622921756836e-06,4.654865327646623e-06,1.015566865316146e-06,1.2455658441271396e-06,9.074112088972895e-07,4.644693278087601e-06,1.3815605077719221e-06,7.923228944507376e-07,7.808606255057427e-07,1.844680233378247e-06,1.0254534342040289e-06,1.6393036945731376e-06,8.396136776846109e-07,1.449623549471662e-06
65,6.031031013555495e-07,1.4123221612658208e-06,2.1927033757169357e-06,4.868512347256156e-06,1.0237890458264522e-06,1.2343409367548718e-06,9.023275176890863e-07,4.795257954309991e-06,1.3383319645190394e-06,7.990120520349514e-07,7.782905261659194e-07,1.8439906271101313e-06,1.0342126128072986e-06,1.6052488182219283e-06,8.410654465471866e-07,1.4951588977735374e-06
66,5.990543135235255e-07,1.4649397342293228e-06,2.1810401626260126e-06,5.067867896309939e-06,1.0332976895443698e-06,1.2184062986736356e-06,8.975481905343766e-07,4.935962749779313e-06,1.303113406742181e-06,8.077778305763121e-07,7.756619497617019e-07,1.8407802721811416e-06,1.0392034036426614e-06,1.567427688318721e-06,8.424838660841285e-07,1.540265879153745e-06
67,5.949727768147696e-07,1.512698756066486e-06,2.1613031483445873e-06,5.250764536448203e-06,1.0438635277266298e-06,1.1978960541628792e-06,8.927722399420503e-07,5.063515384921677e-06,1.2758778971429687e-06,8.183323196856332e-07,7.733562246534968e-07,1.8348743300216358e-06,1.0400902185635754e-06,1.5272827334716084e-06,8.441961251181945e-07,1.5840772461235267e-06
68,5.908179777496841e-07,1.5540652442334645e-06,2.1340568822360042e-06,5.416290829374249e-06,1.0552214130665244e-06,1.1729221468420379e-06,8.877369950533159e-07,5.175735044938897e-06,1.2565874329956922e-06,8.304393807338095e-07,7.718539541768532e-07,1.8261008396804628e-06,1.036848227650089e-06,1.4861243860217052e-06,8.46430709128178e-07,1.6257217278114594e-06
69,5.865870647798763e-07,1.587750005795977e-06,2.099737275752747e-06,5.564695718551006e-06,1.0670823634310288e-06,1.14374258694083e-06,8.823363448363867e-07,5.271712012532759e-06,1.2453008356062369e-06,8.439607632950913e-07,7.715794587455407e-07,1.8145453153838405e-06,1.0298549758141282e-06,1.4450239016747758e-06,8.493297500171515e-07,1.6645226511509652e-06
70,5.822642371996723e-07,1.612883920625459e-06,2.058603955613416e-06,5.697116473070078e-06,1.0791029230187335e-06,1.1108754197377292e-06,8.766481449034835e-07,5.3513071285258604e-06,1.2422145588820025e-06,8.588078245902257e-07,7.728432894992552e-07,1.8006504768394479e-06,1.0197648722586407e-06,1.4047815334038862e-06,8.529850427982564e-07,1.7001287924023128e-06
71,5.778335906540123e-07,1.6290757141431062e-06,2.0108708406647288e-06,5.815111577491405e-06,1.0908531743908678e-06,1.0751215103467604e-06,8.708444983439231e-07,5.4143414845979656e-06,1.2475702694212324e-06,8.748662627490525e-07,7.758556176814081e-07,1.7850446726673022e-06,1.007280312104303e-06,1.36591885181202e-06,8.574447002818821e-07,1.7324724055194962e-06
72,5.733302307606154e-07,1.6362475266799755e-06,1.9568604868728428e-06,5.9201012317740435e-06,1.101860675725037e-06,1.0374904235787195e-06,8.650540263535511e-07,5.460089421161035e-06,1.2616081048245238e-06,8.919820001703914e-07,7.807687118216485e-07,1.7683414875764874e-06,9.930056326062288e-07,1.328681582666439e-06,8.627099958841956e-07,1.7615840209884356e-06
73,5.688510324811006e-07,1.6343686925533566e-06,1.897097625815624e-06,6.012862632584941e-06,1.11171623193726e-06,9.990513113373283e-07,8.592783733778392e-07,5.487392878595545e-06,1.2846284232377793e-06,9.099428818270518e-07,7.876929075988286e-07,1.7510539840485034e-06,9.774446586728408e-07,1.2930736969665824e-06,8.687547554010348e-07,1.7874348004547094e-06
74,5.645082572703381e-07,1.6233635528620868e-06,1.8323264723448776e-06,6.093270322053025e-06,1.1201505935045584e-06,9.608035228427307e-07,8.534070854989466e-07,5.495133259682823e-06,1.3170286314751364e-06,9.284157756830719e-07,7.966732226276832e-07,1.733601973786871e-06,9.610405414525415e-07,1.2589153538275989e-06,8.755338303725503e-07,1.8099671809715106e-06
75,5.603951968513097e-07,1.6033117343017226e-06,1.7634778186638931e-06,6.160475373405231e-06,1.1270323978716397e-06,9.236433168177595e-07,8.472966013551518e-07,5.482667135109397e-06,1.3592359635268098e-06,9.469048926576045e-07,8.076723309983066e-07,1.7164138922937656e-06,9.441672545217294e-07,1.2258950535019707e-06,8.82951055365113e-07,1.829271175956539e-06
76,5.565987791463418e-07,1.5747609582717351e-06,1.6916242864478998e-06,6.213475506090175e-06,1.1323079902131754e-06,8.883843832100648e-07,8.408460258037896e-07,5.4501119229622205e-06,1.4115825310405272e-06,9.647856796856068e-07,8.205719237565837e-07,1.7000188856759643e-06,9.271295366083887e-07,1.1936414686067815e-06,8.90801579315464e-07,1.8457648104533123e-06
77,5.532005390794233e-07,1.5388664984001727e-06,1.6179352218030893e-06,6.251761881168424e-06,1.1359433729203328e-06,8.557555459555772e-07,8.340162096376331e-07,5.398507218466975e-06,1.4742097177702704e-06,9.814092070723719e-07,8.351718924468702e-07,1.6850013427453834e-06,9.102122871347422e-07,1.1618510326982483e-06,8.987319367063092e-07,1.8602469698029487e-06
78,5.502591443772952e-07,1.4972250052011826e-06,1.5436295035199113e-06,6.275769978821223e-06,1.137922460070544e-06,8.263644327258865e-07,8.26819150184845e-07,5.329853232953335e-06,1.5470959980244073e-06,9.961864444435861e-07,8.512229603282134e-07,1.6718692526942141e-06,8.936976447235917e-07,1.1303986093319543e-06,9.062600401219472e-07,1.8737248926427013e-06
79,5.478352854396423e-07,1.4515302817631803e-06,1.4699206364496788e-06,6.28703675208323e-06,1.138291254543991e-06,8.006578695952572e-07,8.193723047335826e-07,5.247020719420265e-06,1.630234368629609e-06,1.0086074510136758e-06,8.685042356025362e-07,1.6609364944825753e-06,8.778423876480153e-07,1.0993311892036688e-06,9.128347036350385e-07,1.8871196900403081e-06
80,5.460381584751235e-07,1.4033067369881514e-06,1.3979331913306393e-06,6.288076795904164e-06,1.1371944469356043e-06,7.789119710637149e-07,8.119959668858359e-07,5.153536948270421e-06,1.7238329634359604e-06,1.0182828959288095e-06,8.868447546119376e-07,1.6522632233616275e-06,8.628747337124682e-07,1.0687849409652597e-06,9.178960720723861e-07,1.9011072267236089e-06
81,5.450244930689924e-07,1.3538340202407996e-06,1.3285962326593088e-06,6.2821058916456964e-06,1.134894164962123e-06,7.612655137927103e-07,8.052047362108798e-07,5.053260318204543e-06,1.828352354250259e-06,1.0250204946938182e-06,9.060581124303704e-07,1.6456497243209318e-06,8.489903845799305e-07,1.038958827376712e-06,9.209680832382415e-07,1.9161707168215686e-06
82,5.449607790695958e-07,1.3041816219613588e-06,1.2625693329796287e-06,6.27279074825897e-06,1.1317846149727976e-06,7.47763325920775e-07,7.995751376502796e-07,4.9499969292313385e-06,1.944325591237071e-06,1.028852631349036e-06,9.258801677892936e-07,1.640647457015701e-06,8.363319797911342e-07,1.0101637976704e-06,9.217984980413549e-07,1.9326733167646894e-06
83,5.46007137809359e-07,1.2552617135147468e-06,1.2002367973460605e-06,6.264068791487965e-06,1.1283689713697568e-06,7.38364997582266e-07,7.956209715442889e-07,4.847170344715826e-06,2.0721107616783688e-06,1.0299968171970079e-06,9.459333573101807e-07,1.6366142599937989e-06,8.249570325388105e-07,9.828298794963543e-07,9.204436649939503e-07,1.9508077321028862e-06
84,5.483172113549648e-07,1.207863801640357e-06,1.1417661024795169e-06,6.259930056652114e-06,1.125176774672951e-06,7.32932991939046e-07,7.937356767026738e-07,4.747635234964489e-06,2.2117256804075206e-06,1.0287689422253351e-06,9.657090493648082e-07,1.6328574046711e-06,8.147918530069329e-07,9.574229870401803e-07,9.171909622703669e-07,1.9705760688837677e-06
85,5.52006905307835e-07,1.162644599009064e-06,1.0872142253540553e-06,6.264105433780898e-06,1.1226667524731591e-06,7.312369123976623e-07,7.941717471556164e-07,4.6535925688381534e-06,2.3627581429411227e-06,1.0254776701220901e-06,9.846097918911158e-07,1.6287941800173657e-06,8.056127798715621e-07,9.343520677779525e-07,9.123762320679311e-07,1.9919660308293494e-06
86,5.571027673446289e-07,1.120084780505316e-06,1.0366100834862388e-06,6.2797756491281955e-06,1.121168131192085e-06,7.329894840839943e-07,7.97043947240863e-07,4.566514662667738e-06,2.5243483772266293e-06,1.0203494313324006e-06,1.0020150494999415e-06,1.6240105685127491e-06,7.971013252189056e-07,9.139175710418323e-07,9.062610149056795e-07,2.015130736106617e-06
87,5.635125847042195e-07,1.0804750068381504e-06,9.899540110329373e-07,6.309457224110399e-06,1.1208956875741501e-06,7.379197040122238e-07,8.023473378077366e-07,4.487178188149662e-06,2.6952866197552405e-06,1.013499481914334e-06,1.0172964903501246e-06,1.6182422587495198e-06,7.889784778264913e-07,8.962901433988321e-07,8.990275116616085e-07,2.0403086810293474e-06
88,5.710219360392917e-07,1.0439526813054512e-06,9.47211625678727e-07,6.35506999787847e-06,1.1220155357021907e-06,7.458256707671222e-07,8.099646878548575e-07,4.415949304703754e-06,2.874178944048479e-06,1.0049396981044916e-06,1.0298690537028385e-06,1.6114521285847047e-06,7.811554681127905e-07,8.815285403950204e-07,8.908061892858963e-07,2.0676054886861724e-06
89,5.793047336160229e-07,1.0105338717814633e-06,9.083647028538624e-07,6.4180190610989265e-06,1.1246583472162477e-06,7.565297266526307e-07,8.196764053142808e-07,4.353156787859528e-06,3.0595409017670423e-06,9.946045304329398e-07,1.0393614269818844e-06,1.603963594546022e-06,7.737810269432875e-07,8.696190296812994e-07,8.816664650518173e-07,2.0968976486577166e-06
90,5.879492324438057e-07,9.801188280917704e-07,8.734308694261408e-07,6.4991294297131315e-06,1.1288419817840296e-06,7.698015947101417e-07,8.312025597686151e-07,4.299266825803136e-06,3.2497103496813954e-06,9.82371780196298e-07,1.0457554698438218e-06,1.5963682747947346e-06,7.67139469982765e-07,8.604887427293261e-07,8.715922950101798e-07,2.1278598650183183e-06
91,5.965033847217358e-07,9.52521869172033e-07,8.42401733040017e-07,6.598419183744829e-06,1.1343964613861056e-06,7.854069139014645e-07,8.442484886595109e-07,4.254799288669112e-06,3.442663906193012e-06,9.681361169031927e-07,1.0493310850649497e-06,1.589260102386423e-06,7.614986213259737e-07,8.540157063605137e-07,8.605134087984588e-07,2.1599651190819054e-06
92,6.045463642130369e-07,9.275312000992347e-07,8.151766321515485e-07,6.714816873277572e-06,1.1409901912221626e-06,8.032797390383131e-07,8.585093302856487e-07,4.220081527532234e-06,3.635941668702917e-06,9.519571130964362e-07,1.0504796379668854e-06,1.5831344858671597e-06,7.570255928023187e-07,8.500586025563e-07,8.484267174816873e-07,2.1924028929189243e-06
93,6.117729603994383e-07,9.049274468730955e-07,7.915501062680985e-07,6.845989646545137e-06,1.148258302679096e-06,8.23617080028956e-07,8.736273030307393e-07,4.19494784376899e-06,3.826716004067512e-06,9.341095826833427e-07,1.049555073264163e-06,1.5784515851433663e-06,7.537698424503374e-07,8.484562924186444e-07,8.35528972201702e-07,2.2240340488862697e-06
94,6.180241686558324e-07,8.844426112934083e-07,7.712587010700147e-07,6.988374756524563e-06,1.1559141710024135e-06,8.467749677799836e-07,8.891306880855768e-07,4.17848742517029e-06,4.011876102587596e-06,9.149471363592452e-07,1.0468394370007038e-06,1.57561696812141e-06,7.516655350075647e-07,8.48993888890844e-07,8.222320364529242e-07,2.2534945595162386e-06
95,6.232240995009636e-07,8.657412321851881e-07,7.540695650647902e-07,7.137272039060057e-06,1.1637235569331083e-06,8.730876407525699e-07,9.044251270541072e-07,4.168892852976163e-06,4.188095463096825e-06,8.947636896057507e-07,1.0425815788835941e-06,1.5748801666412105e-06,7.505624743241821e-07,8.514151491512186e-07,8.090519925192866e-07,2.2793794326447383e-06
96,6.273092813416538e-07,8.484775877260688e-07,7.398542950458004e-07,7.286817734040529e-06,1.1713866437191334e-06,9.027553763690457e-07,9.188919658856996e-07,4.163404308026739e-06,4.351979148488394e-06,8.737986910598309e-07,1.0370233487909864e-06,1.5763367742686492e-06,7.502791140935261e-07,8.555157683891601e-07,7.965007630859223e-07,2.300361764093028e-06
97,6.302498499234261e-07,8.32388608372177e-07,7.2861052080935e-07,7.429959165051687e-06,1.1784514220520222e-06,9.358004471963901e-07,9.320275414763263e-07,4.1584000984656835e-06,4.500336848639708e-06,8.522949063299209e-07,1.0303657040745554e-06,1.580031909609072e-06,7.506355714616279e-07,8.612269975128903e-07,7.850467198728654e-07,2.3152033595410066e-06
98,6.321227961557285e-07,8.173571907851526e-07,7.204321534207344e-07,7.558756670899654e-06,1.1842867974674384e-06,9.720625332708222e-07,9.43484262016988e-07,4.149778182114864e-06,4.630499379644753e-06,8.304888368410687e-07,1.0227492591798353e-06,1.5859773383373231e-06,7.514708445965775e-07,8.68581510177466e-07,7.750806237432134e-07,2.322776751219004e-06
99,6.331405912486229e-07,8.034066896038674e-07,7.154349732811297e-07,7.665196982304314e-06,1.188124892924058e-06,1.0112459330739562e-06,9.530092100109151e-07,4.133669162530101e-06,4.740547149505412e-06,8.085639860766915e-07,1.014336771030846e-06,1.594058921081131e-06,7.526711750000842e-07,8.775914006317752e-07,7.668721131105609e-07,2.322226152683902e-06
100,6.336119558356386e-07,7.906264495699255e-07,7.13690669666051e-07,7.742380342825124e-06,1.1892123186013946e-06,1.0529860804012444e-06,9.604305901415603e-07,4.107202205566427e-06,4.829359937727949e-06,7.866543941126212e-07,1.0054175223433228e-06,1.6039903572801793e-06,7.542003020634172e-07,8.881518756113645e-07,7.605763003134852e-07,2.3131949208260684e-06
101,6.338671292306944e-07,7.790760280545096e-07,7.152235598414589e-07,7.78563866215326e-06,1.1870216703562647e-06,1.09686110946512e-06,9.657113067298543e-07,4.068852182550605e-06,4.896443982048057e-06,7.649091644953202e-07,9.96405716434381e-07,1.6153663994322587e-06,7.561009882692554e-07,9.00013914214855e-07,7.562707145564269e-07,2.295915722173755e-06
102,6.341847501556267e-07,7.687318479241925e-07,7.200381940307368e-07,7.793038863047442e-06,1.1814014563529887e-06,1.1423486311220907e-06,9.689182636696592e-07,4.018107428737412e-06,4.9415446311068225e-06,7.435743406051592e-07,9.877364050135776e-07,1.6277604710313779e-06,7.584551674372076e-07,9.127865752869837e-07,7.53948525952289e-07,2.2710518444914366e-06
103,6.347494763628027e-07,7.594908418316023e-07,7.281335759112908e-07,7.764992911708267e-06,1.1725761068489387e-06,1.1887932758681366e-06,9.700999172098916e-07,3.954739467277973e-06,4.964287358618555e-06,7.230316962081244e-07,9.797468775029409e-07,1.6407915260048361e-06,7.61318170731442e-07,9.259323350513374e-07,7.534871329739562e-07,2.239406814788175e-06
104,6.356560589487881e-07,7.51203791668223e-07,7.394973548440804e-07,7.703146941393143e-06,1.160991141518041e-06,1.235390678680329e-06,9.691977686030372e-07,3.878366848796725e-06,4.9642711483662266e-06,7.037427423266954e-07,9.726116996120309e-07,1.6540734360888755e-06,7.646499846597086e-07,9.387780296000043e-07,7.546836499163603e-07,2.201758084060483e-06
105,6.369541010868018e-07,7.43711017466297e-07,7.540759153947334e-07,7.609081024145572e-06,1.1471067084728002e-06,1.281154735991188e-06,9.66021631728001e-07,3.7886646741710933e-06,4.941633878980586e-06,6.861469946426028e-07,9.663431584303508e-07,1.667057105434464e-06,7.682632847610699e-07,9.505983937653935e-07,7.573513233226882e-07,2.15888356119576e-06
106,6.386909377947718e-07,7.368629150697689e-07,7.717496329867864e-07,7.483536246653656e-06,1.1312748298797495e-06,1.3248898999925188e-06,9.602727784407638e-07,3.6858497419789256e-06,4.897577335978767e-06,6.70604429805945e-07,9.608411896285694e-07,1.678926227446707e-06,7.718192090287104e-07,9.607719830146165e-07,7.613647015877239e-07,2.111632418616304e-06
107,6.409029642790914e-07,7.305540905790778e-07,7.923522135152018e-07,7.32656966560127e-06,1.113717916956872e-06,1.365210707101196e-06,9.516275230740659e-07,3.570979051736658e-06,4.834438987135706e-06,6.573733285003004e-07,9.55968009851687e-07,1.6887189068723522e-06,7.749180168122018e-07,9.689232431079161e-07,7.666320191097492e-07,2.0609690045665554e-06
108,6.435736328632259e-07,7.247872475940945e-07,8.15699084103214e-07,7.138335383425537e-06,1.0945294368861675e-06,1.4006220690312732e-06,9.398755898607045e-07,3.4459651583387972e-06,4.755323953303475e-06,6.46588669887879e-07,9.515891869509895e-07,1.6956454760070366e-06,7.772694107249547e-07,9.749636281758745e-07,7.730561724265075e-07,2.007973309458217e-06
109,6.466212896101377e-07,7.19698996605971e-07,8.415694031156347e-07,6.9199220697691245e-06,1.0736993708233336e-06,1.4296680044730182e-06,9.250621337642058e-07,3.313367184114649e-06,4.663582310065144e-06,6.382519209654914e-07,9.475430312633023e-07,1.6993171416439185e-06,7.787949320261758e-07,9.790294912028477e-07,7.804854828418586e-07,1.9537330138665086e-06
110,6.499249991501844e-07,7.155045454559938e-07,8.696588867412489e-07,6.673914714284407e-06,1.0512242619568861e-06,1.451147032478842e-06,9.075522785836272e-07,3.1760128470226233e-06,4.562465860178606e-06,6.322408987912446e-07,9.43615093142856e-07,1.699648168376449e-06,7.795504469921953e-07,9.813773410181431e-07,7.886768562652839e-07,1.8991679205018677e-06
111,6.533372370803078e-07,7.124038785565002e-07,8.995562103999023e-07,6.404599290545922e-06,1.0272507892447885e-06,1.464340010367579e-06,8.879871311799491e-07,3.036572942389797e-06,4.4551147274071455e-06,6.283330757455496e-07,9.396355733130348e-07,1.696578673702163e-06,7.79569049452381e-07,9.822725443662268e-07,7.973117833263381e-07,1.8449507023862282e-06
112,6.566657997037637e-07,7.105068572730521e-07,9.307533335719157e-07,6.117854296316948e-06,1.002142587051978e-06,1.4691448394789403e-06,8.671754797186775e-07,2.8973119185812006e-06,4.34477950143004e-06,6.262387120450852e-07,9.356349455873914e-07,1.689968472138132e-06,7.787861155997811e-07,9.819021682045965e-07,8.060139613859934e-07,1.7915626620202373e-06
113,6.596882280299827e-07,7.098073078499679e-07,9.626846087585946e-07,5.820767640591842e-06,9.764298311985259e-07,1.4660177301457879e-06,8.459712704591283e-07,2.7601238204382723e-06,4.235027756430378e-06,6.256798649072877e-07,9.318542429205301e-07,1.6797523397523563e-06,7.770595507567767e-07,9.80355725787024e-07,8.14354484007343e-07,1.7393431598781908e-06
114,6.622320063753404e-07,7.10193439215181e-07,9.948120609220624e-07,5.5210376159170715e-06,9.506778420468882e-07,1.4557254706963815e-06,8.251801920924463e-07,2.626662662114378e-06,4.129650502171166e-06,6.265156576228011e-07,9.286007147389117e-07,1.666143347509252e-06,7.741950524614436e-07,9.776285558876188e-07,8.219086767565376e-07,1.6885248162902158e-06
115,6.642264642182394e-07,7.11465637734707e-07,1.026697914127923e-06,5.226366865393683e-06,9.253629584172583e-07,1.43908622186129e-06,8.055211196696397e-07,2.4983284131162827e-06,4.032227831848472e-06,6.28796398206424e-07,9.261191141498789e-07,1.6496968671369242e-06,7.699663228207135e-07,9.736023254771806e-07,8.283602943818982e-07,1.6393542756474434e-06
116,6.656494915823727e-07,7.133837564978967e-07,1.0579516691635836e-06,4.94404405106914e-06,9.008280170453338e-07,1.4168821081156147e-06,7.87610220793139e-07,2.376122806166154e-06,3.945664264206673e-06,6.326845632626476e-07,9.245469650604023e-07,1.631236965707842e-06,7.642073615943247e-07,9.681046230695321e-07,8.335956348664216e-07,1.5921711544889258e-06
117,6.66444342806822e-07,7.157705222074418e-07,1.088104390000309e-06,4.680682457649543e-06,8.772935615607316e-07,1.3899060726447283e-06,7.719382916350189e-07,2.2605573080828226e-06,3.871979021752047e-06,6.383375160733079e-07,9.239163828462748e-07,1.6117654265562892e-06,7.569453909456617e-07,9.610827727106526e-07,8.377373990525745e-07,1.5472932522312574e-06
118,6.66502690109443e-07,7.186041010122268e-07,1.1165627630328496e-06,4.442042888177441e-06,8.548595087354401e-07,1.35900576835375e-06,7.58861263709179e-07,2.151719866282199e-06,3.8123320671982966e-06,6.458474042235879e-07,9.241773373472495e-07,1.5924305745439975e-06,7.484309948596086e-07,9.527062434891163e-07,8.410885991050441e-07,1.5048268651503106e-06
119,6.656921249227325e-07,7.220053116564193e-07,1.1426437270583275e-06,4.232963726485135e-06,8.335106094499532e-07,1.3251100679275504e-06,7.486120503143898e-07,2.0494644757576007e-06,3.767187231710212e-06,6.552436944235993e-07,9.252211553240667e-07,1.5744807536140888e-06,7.390364866177683e-07,9.432701698000789e-07,8.440325529245148e-07,1.4646112697987138e-06
120,6.638807709569685e-07,7.26130339760748e-07,1.1656322119515805e-06,4.057359654934753e-06,8.131929235312179e-07,1.2892771222382292e-06,7.413105602656307e-07,1.9536322270075106e-06,3.7365963134932663e-06,6.665293241711627e-07,9.268815102812163e-07,1.5591178606941778e-06,7.291488328566248e-07,9.330270666224748e-07,8.46975045184216e-07,1.4263840795284473e-06
121,6.609685753032373e-07,7.310719119461019e-07,1.1848854766213094e-06,3.918219037623463e-06,7.939432780090095e-07,1.2527157839043035e-06,7.369661668821416e-07,1.8641976555806095e-06,3.7204942570008754e-06,6.797178900833464e-07,9.289353366065858e-07,1.5473277483716961e-06,7.191447878608807e-07,9.221189074761118e-07,8.503336253032064e-07,1.3900412541164784e-06
122,6.569060789843528e-07,7.36831754227352e-07,1.1999483038790638e-06,3.8176257373614935e-06,7.75949687343905e-07,1.216709184274536e-06,7.354880849406312e-07,1.7812407650929783e-06,3.7187761028642046e-06,6.948373759452249e-07,9.311197137401428e-07,1.5398014083269557e-06,7.09395011845425e-07,9.106091098618811e-07,8.545104469859848e-07,1.3557246659819683e-06
123,6.516704379075978e-07,7.433370895930088e-07,1.2105915882242336e-06,3.756830955945364e-06,7.59488479709807e-07,1.1824673495239434e-06,7.366951666059603e-07,1.7047645218007281e-06,3.731131560826891e-06,7.118963237640379e-07,9.331214717661273e-07,1.5369313717390488e-06,7.002334395171527e-07,8.985227727856123e-07,8.598523328044244e-07,1.3236563430669813e-06
124,6.452393182112626e-07,7.504532792254092e-07,1.2167969388343754e-06,3.7363309870692208e-06,7.448382087252883e-07,1.1510004940497426e-06,7.403157088068362e-07,1.6345296828441423e-06,3.756944333816188e-06,7.308283348371412e-07,9.345382230742274e-07,1.5388349788772926e-06,6.91931616975061e-07,8.85869226468271e-07,8.666366577028856e-07,1.2939285928767345e-06
125,6.376029000684522e-07,7.579863396879872e-07,1.2187379808708748e-06,3.755905768856543e-06,7.32246366115478e-07,1.123065361318755e-06,7.460170693893352e-07,1.5700377753439368e-06,3.795435736592123e-06,7.514374266820149e-07,9.34904323926677e-07,1.5453955580612136e-06,6.847327800094842e-07,8.726553494748921e-07,8.750543406987693e-07,1.266443152426392e-06
126,6.28809444841614e-07,7.657208792213582e-07,1.2167156636842954e-06,3.8146031462053573e-06,7.219091035376376e-07,1.0991777474332949e-06,7.534946992518217e-07,1.5106461064284758e-06,3.8458309542403066e-06,7.733785468148829e-07,9.338330009639154e-07,1.5562928402690917e-06,6.789116134312142e-07,8.588779678280568e-07,8.851829721079575e-07,1.2410114589366074e-06
127,6.190129668052527e-07,7.735006167270214e-07,1.2110405038732116e-06,3.910679003707555e-06,7.139423720253409e-07,1.0796533497138587e-06,7.625791766114882e-07,1.4557721708141373e-06,3.9073336099323835e-06,7.961720068857017e-07,9.311738272556725e-07,1.5710454933149233e-06,6.747781875162718e-07,8.445485156592891e-07,8.969909675088122e-07,1.217549821171195e-06
128,6.084668571969009e-07,7.812573838298198e-07,1.201972537343332e-06,4.041544680782011e-06,7.08370549144151e-07,1.064632745196079e-06,7.733028958104974e-07,1.4051170849001409e-06,3.978964010164114e-06,8.192138118886528e-07,9.27035021221543e-07,1.589088696493014e-06,6.726100935581662e-07,8.297886725947968e-07,9.103650828140493e-07,1.196235797909035e-06
129,5.974569262240848e-07,7.889330082700191e-07,1.1897546828864248e-06,4.203792102797305e-06,7.051393494402375e-07,1.0540823155742984e-06,7.859066442026307e-07,1.3587516883651592e-06,4.059389597799771e-06,8.417821977127844e-07,9.216594223082875e-07,1.6097751455120606e-06,6.725792897076061e-07,8.148698323455507e-07,9.251232396648173e-07,1.1774724879411457e-06
130,5.862438677309389e-07,7.963808791091303e-07,1.1746182246749385e-06,4.393348127898564e-06,7.041355135571609e-07,1.047796140560709e-06,8.007875948040015e-07,1.316989597163491e-06,4.1467729228767635e-06,8.630888576689942e-07,9.153089007993837e-07,1.6322610354222267e-06,6.747232925358753e-07,8.001050653489039e-07,9.410016079000067e-07,1.1617009599522406e-06
131,5.750604263274256e-07,8.033614858815407e-07,1.1567035013419372e-06,4.605813908884712e-06,7.051976371450317e-07,1.0454020841525082e-06,8.184005509273783e-07,1.2801776694426016e-06,4.238620696267402e-06,8.823917054880554e-07,9.082468251372636e-07,1.655412911183658e-06,6.789457678549319e-07,7.857090695755188e-07,9.576478912913483e-07,1.149272637516451e-06
132,5.641397260931603e-07,8.096311363674816e-07,1.1360154848213942e-06,4.837006355333761e-06,7.081314574952412e-07,1.0463772525102915e-06,8.391635513339105e-07,1.248581996796634e-06,4.3317355307861985e-06,8.99110152990888e-07,9.007333567302008e-07,1.6778212064406275e-06,6.850313660479655e-07,7.717573120202462e-07,9.74688261361794e-07,1.140466027032399e-06
133,5.537404046214609e-07,8.150100448242608e-07,1.1125380979550768e-06,5.0835269394495205e-06,7.127440583021541e-07,1.0500942238834401e-06,8.634227827706537e-07,1.2224057672036117e-06,4.422340335345597e-06,9.128451037616518e-07,8.929801493505716e-07,1.6979564943974673e-06,6.927073404094422e-07,7.58228855142617e-07,9.918513115757127e-07,1.1355197957323581e-06
134,5.441514136421945e-07,8.193658766057274e-07,1.0864514490884807e-06,5.343036437662903e-06,7.188672306532868e-07,1.0558719170853748e-06,8.914497455519536e-07,1.2018425777016525e-06,4.506260667546876e-06,9.232902387579849e-07,8.851075838780811e-07,1.7144926515821096e-06,7.017436391165061e-07,7.450575208957596e-07,1.0090127427857296e-06,1.1345844424036756e-06
135,5.356667287860014e-07,8.22604379741297e-07,1.058250252354137e-06,5.614085125016886e-06,7.263460474179804e-07,1.0630199138063694e-06,9.234134839327885e-07,1.1870669554563887e-06,4.57919616379176e-06,9.302038954906853e-07,8.771179593520525e-07,1.7266105542715294e-06,7.119891882096255e-07,7.321962527767563e-07,1.0261304945944612e-06,1.1376674901471046e-06
136,5.285467137022617e-07,8.247295913859389e-07,1.028644060365203e-06,5.895673000405941e-06,7.350190265373915e-07,1.0709092159592378e-06,9.593538688934281e-07,1.1781785896150248e-06,4.6372873786782254e-06,9.335663765356143e-07,8.688706556605055e-07,1.7340215313671531e-06,7.233053982906076e-07,7.197001128533726e-07,1.0431796142561713e-06,1.1446573711703695e-06
137,5.22996618068344e-07,8.258691372513215e-07,9.98341642250442e-07,6.186833437754766e-06,7.447128808438282e-07,1.0790117024155479e-06,9.991952419150386e-07,1.1752020509526328e-06,4.677799502894429e-06,9.337367357769727e-07,8.600904963459491e-07,1.7367894467683252e-06,7.354853858703878e-07,7.077240341347259e-07,1.060130469090278e-06,1.1553655037208008e-06
138,5.191571353488988e-07,8.261977848795729e-07,9.678982130830961e-07,6.486400890078307e-06,7.552608326674966e-07,1.0868552663646111e-06,1.0427542404874694e-06,1.1781591689279732e-06,4.699380125278158e-06,9.313836083073073e-07,8.504584880871668e-07,1.7352642926755937e-06,7.482143226383169e-07,6.964203249740738e-07,1.0769422156254414e-06,1.1694977016031396e-06
139,5.170963287440671e-07,8.258569541829587e-07,9.376809910205269e-07,6.792898827842557e-06,7.665384996066198e-07,1.0939950722629842e-06,1.0897064952248645e-06,1.1871094186674119e-06,4.701799321555031e-06,9.272860048718441e-07,8.397312545345611e-07,1.7301837420433607e-06,7.610459005656856e-07,6.858955210031892e-07,1.0935482311300813e-06,1.1866026646815438e-06
140,5.168255983534788e-07,8.249787685120692e-07,9.078993272657787e-07,7.104328490830589e-06,7.784617388859661e-07,1.1000603645092888e-06,1.1395572385511726e-06,1.2020922187525058e-06,4.685690287643791e-06,9.22227826757219e-07,8.277692070981992e-07,1.7226835029674157e-06,7.734022475227736e-07,6.762755534381903e-07,1.1098384687771306e-06,1.206098286653989e-06
141,5.183336434786545e-07,8.237996411177037e-07,8.786777482421187e-07,7.4177433652481e-06,7.909278145372163e-07,1.1047836832080417e-06,1.1916483261034927e-06,1.2230259792714002e-06,4.652518824586652e-06,9.169942592137302e-07,8.145117317293453e-07,1.7140646753959008e-06,7.84658308478783e-07,6.677397680375426e-07,1.1256563227858554e-06,1.2273561229084182e-06
142,5.215921078917416e-07,8.227359836795726e-07,8.501913921877294e-07,7.72879894432713e-06,8.037804656226318e-07,1.1079407205472001e-06,1.2452035112583265e-06,1.2496411960857212e-06,4.604375931397085e-06,9.123383054007997e-07,8.000066456823812e-07,1.7054946636928438e-06,7.942898982032718e-07,6.604562728512393e-07,1.140798104321931e-06,1.2497195596124853e-06
143,5.265361118432306e-07,8.22324862413264e-07,8.22786934152596e-07,8.031585176824035e-06,8.168439421914818e-07,1.1092551025651746e-06,1.2994292341734403e-06,1.2814639897142724e-06,4.54340166642165e-06,9.088981009537245e-07,7.844189221162036e-07,1.6978589156655521e-06,8.019475872574957e-07,6.545141690049912e-07,1.1550295280249383e-06,1.2724321116400958e-06
144,5.33057170077559e-07,8.230953693186035e-07,7.969618109470337e-07,8.318890315412944e-06,8.299600476924259e-07,1.108377158248998e-06,1.3536339327904839e-06,1.317850757719545e-06,4.471332035732476e-06,9.071439593786605e-07,7.679494532154379e-07,1.6917649249363647e-06,8.074156536833695e-07,6.499347575308463e-07,1.1681390410863302e-06,1.2946303569958933e-06
145,5.410117122018743e-07,8.254837530736036e-07,7.732289404720497e-07,8.582893355456383e-06,8.429819772025263e-07,1.1049575297564305e-06,1.4072727767545333e-06,1.358051108862083e-06,4.38954810288855e-06,9.073812563852962e-07,7.507619571349542e-07,1.687654040457845e-06,8.105585926992872e-07,6.467203501512214e-07,1.1799765433742709e-06,1.3154688181290869e-06
146,5.502281476213154e-07,8.297947849942477e-07,7.520059233969093e-07,8.816151225680824e-06,8.557608378543726e-07,1.0987282011899061e-06,1.4599045733177313e-06,1.4012142125363113e-06,4.299344349853453e-06,9.097767948205706e-07,7.329658543277343e-07,1.6859998277442336e-06,8.112913249450974e-07,6.448639493242281e-07,1.1904449142133786e-06,1.3342199299652201e-06
147,5.604914299208965e-07,8.361825335224665e-07,7.33592879291213e-07,9.012509135989978e-06,8.68148272687031e-07,1.089543996313744e-06,1.511138025459487e-06,1.446323770789415e-06,4.202065215553083e-06,9.14384197344983e-07,7.146150040940003e-07,1.6874117283190825e-06,8.095655045204895e-07,6.443114550706236e-07,1.1994594698656956e-06,1.3502772142149591e-06
148,5.715103439413204e-07,8.446696869387195e-07,7.18197732314153e-07,9.167435706937359e-06,8.799995985449477e-07,1.077420237224178e-06,1.5606174787373502e-06,1.4921786522929488e-06,4.09910699399337e-06,9.211580812611195e-07,6.957393130708932e-07,1.6925072098372134e-06,8.054141652901705e-07,6.449165419020955e-07,1.2068840256566282e-06,1.3631652549362802e-06
149,5.829087090913913e-07,8.551873433028009e-07,7.059424253053615e-07,9.277491850601754e-06,8.911717845132306e-07,1.0625642887019403e-06,1.6080165272570699e-06,1.5375036544443048e-06,3.9919092540855696e-06,9.299647100383226e-07,6.764328786977162e-07,1.7017611538305105e-06,7.990309610562002e-07,6.464273521781453e-07,1.2125015769738732e-06,1.372538119613718e-06
150,5.942626588974212e-07,8.675781068062735e-07,6.96845386573967e-07,9.339207855446239e-06,9.01507885859247e-07,1.0453398470038781e-06,1.6529854584779664e-06,1.5811557740061559e-06,3.882005143327809e-06,9.405952797104318e-07,6.569394681437824e-07,1.7155541950638607e-06,7.907974954944842e-07,6.485419856090206e-07,1.2160819736974732e-06,1.3781125107504232e-06
151,6.051716591380218e-07,8.815829920585912e-07,6.908194318589199e-07,9.348297165713245e-06,9.107969475861678e-07,1.0261537293532553e-06,1.6950702077014872e-06,1.6223521666506183e-06,3.7710708151744328e-06,9.527625507309895e-07,6.37651655715074e-07,1.734269887586359e-06,7.812257036143568e-07,6.510133175962971e-07,1.21747763419473e-06,1.3796612992521871e-06
152,6.153412368518807e-07,8.9687889974411e-07,6.877006903340432e-07,9.300009325431353e-06,9.187576262637548e-07,1.005336372218831e-06,1.7336730562413471e-06,1.6608585302256157e-06,3.6608311647876506e-06,9.661169191754068e-07,6.190295670418217e-07,1.7582208604588871e-06,7.708422260498006e-07,6.536959138426172e-07,1.2166478249748485e-06,1.3771088218549178e-06
153,6.246513274771864e-07,9.131435799445076e-07,6.873168702392347e-07,9.190444407134231e-06,9.250943470909323e-07,9.83099186961403e-07,1.7680575242650975e-06,1.6970798711220549e-06,3.552793394697565e-06,9.80333802052142e-07,6.01531688299007e-07,1.7874906601143779e-06,7.600798523230375e-07,6.564983396868308e-07,1.2136380932446853e-06,1.370572403917732e-06
154,6.331678074856267e-07,9.300726646910873e-07,6.895570346564637e-07,9.018046109713845e-06,9.295804998268229e-07,9.59592671499458e-07,1.7973289938259827e-06,1.7320097189075373e-06,3.4479607656778205e-06,9.952018884667883e-07,5.855905043026222e-07,1.8218552700294156e-06,7.492303703172623e-07,6.593481243554956e-07,1.208572085437088e-06,1.360324113557406e-06
155,6.410676996968531e-07,9.473476825759015e-07,6.943631464397416e-07,8.784626508013246e-06,9.321069324705952e-07,9.350014504761516e-07,1.8204073983853396e-06,1.7670369918173633e-06,3.3466789047158566e-06,1.0106224374828398e-06,5.715839711148039e-07,1.8607553102756899e-06,7.384563708820897e-07,6.622192523478205e-07,1.2016213674651375e-06,1.346819833648556e-06
156,6.485262471674891e-07,9.646276299820096e-07,7.016711041870394e-07,8.495588282378805e-06,9.326840549601727e-07,9.095988202879635e-07,1.836119413466387e-06,1.8036646669848333e-06,3.248660760386621e-06,1.0265296773199491e-06,5.597945238490787e-07,1.9032734720184869e-06,7.278487049672576e-07,6.651383278300845e-07,1.192928839138136e-06,1.3307765826454563e-06
157,6.55659332010007e-07,9.81592056989518e-07,7.113808112920229e-07,8.159338465283723e-06,9.314060640048631e-07,8.837607149988167e-07,1.8434504275028992e-06,1.8432403603815827e-06,3.153231969746034e-06,1.0427946168606913e-06,5.503901873475229e-07,1.9481733432336877e-06,7.174988232294864e-07,6.681388001953761e-07,1.182586607983148e-06,1.313114891555924e-06
158,6.625397858560318e-07,9.979616227416099e-07,7.233454705957753e-07,7.786183693635838e-06,9.283992770415025e-07,8.579766095752753e-07,1.8418260864805132e-06,1.8867954189348154e-06,3.0597508774073516e-06,1.0592081063076658e-06,5.434367995416822e-07,1.994011393387228e-06,7.075106587066593e-07,6.712227034983627e-07,1.1707322461060284e-06,1.2947670759721943e-06
159,6.692172940912626e-07,1.0134389492237362e-06,7.37351098976391e-07,7.387114160532867e-06,9.237745617195948e-07,8.328468442956479e-07,1.8312762771862204e-06,1.9350004179966908e-06,2.9679348537857197e-06,1.0755922981193748e-06,5.389183359442364e-07,2.0392614459897613e-06,6.979442252700049e-07,6.743538463518258e-07,1.157642695776266e-06,1.2765285362920097e-06
160,6.757085174902913e-07,1.0276419258342034e-06,7.530893127950455e-07,6.972795041130805e-06,9.175788871175068e-07,8.09026247719698e-07,1.8124363288804982e-06,1.988174280093024e-06,2.8778529145827037e-06,1.0919339152379614e-06,5.367419733191352e-07,2.0824194879219647e-06,6.887809080287538e-07,6.774686615162913e-07,1.1437100147545095e-06,1.2590029925709766e-06
161,6.820133572781462e-07,1.0401342013574067e-06,7.701417168937003e-07,6.5529040430105014e-06,9.097530659205024e-07,7.871281008894136e-07,1.7864056307834693e-06,2.046332594675705e-06,2.789645517721707e-06,1.1084095448568777e-06,5.367459943596781e-07,2.1220924730317037e-06,6.799481043356758e-07,6.804732513649006e-07,1.1293368574215345e-06,1.2425701916802756e-06
162,6.881892137874933e-07,1.050543451859415e-06,7.880083595806911e-07,6.13583596783686e-06,9.001536282193416e-07,7.676502955824283e-07,1.7544994230568135e-06,2.109314444989752e-06,2.703291187866704e-06,1.125304729402613e-06,5.387304743869365e-07,2.157081109579684e-06,6.713575900929115e-07,6.832200705178773e-07,1.1148496849288717e-06,1.227394310242235e-06
163,6.944089354571168e-07,1.0586732480817576e-06,8.061717276971568e-07,5.7287210296974374e-06,8.886618041089001e-07,7.509501320628875e-07,1.7179904343378744e-06,2.176996943135105e-06,2.6187410323799754e-06,1.1428837428847956e-06,5.424828178278475e-07,2.186466188231397e-06,6.629405937985327e-07,6.855449272415832e-07,1.1004933348642718e-06,1.2135397721596178e-06
164,7.00921082332628e-07,1.064537866941932e-06,8.24132996311719e-07,5.337598521152934e-06,8.75289643675876e-07,7.372568309258965e-07,1.6779835982100033e-06,2.2495433841104277e-06,2.536394049960975e-06,1.1612681406134698e-06,5.477922846644969e-07,2.209640885482475e-06,6.546718281067058e-07,6.87374015822969e-07,1.0864724707452448e-06,1.2011442774577963e-06
165,7.079433384479449e-07,1.06830599258292e-06,8.414171928370378e-07,4.967556178508806e-06,8.602033908089694e-07,7.267096100842611e-07,1.6354559299914188e-06,2.3275777351400787e-06,2.4574908615801917e-06,1.1803962470690556e-06,5.544704441095852e-07,2.226213062525511e-06,6.465404674163383e-07,6.887565503286806e-07,1.0729518353143998e-06,1.190502564776331e-06
166,7.155816600648615e-07,1.0701889185554543e-06,8.576180973117857e-07,4.622765674546841e-06,8.436891860149698e-07,7.193872372750621e-07,1.5913563175473861e-06,2.412206897031107e-06,2.384066458667196e-06,1.2000486789426093e-06,5.623579233261007e-07,2.235897215539419e-06,6.384869171756544e-07,6.897701456780078e-07,1.0600441421500987e-06,1.1819914103180114e-06
167,7.238183960203892e-07,1.07034737544511e-06,8.724575576935985e-07,4.306515807597885e-06,8.260934254981555e-07,7.153000635408812e-07,1.5466677420173246e-06,2.504932955320803e-06,2.318561989624581e-06,1.2198378096171113e-06,5.71317657597385e-07,2.238570935966806e-06,6.303836477723638e-07,6.904422550436099e-07,1.047860730862479e-06,1.1759355654679537e-06
168,7.325380021924579e-07,1.0688818596178777e-06,8.857537216811967e-07,4.021383328460967e-06,8.077449928983468e-07,7.143760509427923e-07,1.5023951325985795e-06,2.6075454153885507e-06,2.2634365421044375e-06,1.239165179480275e-06,5.812416548651793e-07,2.2343885287096777e-06,6.220919380303185e-07,6.908064901615181e-07,1.036566215000234e-06,1.1725280052715093e-06
169,7.415345359588037e-07,1.065892992852087e-06,8.973245686507604e-07,3.769468142885196e-06,7.889158114950433e-07,7.164700048952208e-07,1.4594862447726624e-06,2.721999706241358e-06,2.2209695725731154e-06,1.2572805909636371e-06,5.920556090222568e-07,2.2237355157690277e-06,6.135464691552152e-07,6.91017806398814e-07,1.0263756746811194e-06,1.1717972299211476e-06
170,7.50500242588548e-07,1.0615244013020357e-06,9.069634236376042e-07,3.552452349045854e-06,7.698619148387008e-07,7.213803788909793e-07,1.4187558548620953e-06,2.8502531576610616e-06,2.1932604809334473e-06,1.2734766629915743e-06,6.036898886885113e-07,2.2070158568249835e-06,6.047794808615121e-07,6.913673964833445e-07,1.0175430359831437e-06,1.1735975877646839e-06
171,7.59041593873837e-07,1.0559367540084022e-06,9.145264324496338e-07,3.371461512870695e-06,7.508821509810425e-07,7.288725862294968e-07,1.3808662217965402e-06,2.9941124221009822e-06,2.1822879751431913e-06,1.2872501364802521e-06,6.160462917788432e-07,2.1844434740145814e-06,5.958646977018324e-07,6.921790365476564e-07,1.01035655673479e-06,1.177646261565317e-06
172,7.667350244954176e-07,1.0492501359919092e-06,9.200402918504777e-07,3.226948230048584e-06,7.323149116270118e-07,7.386964110956848e-07,1.3463243696880988e-06,3.155167141998271e-06,2.189851024896068e-06,1.2982882332493658e-06,6.29015435574669e-07,2.1560415535427517e-06,5.868671816956821e-07,6.937105220360306e-07,1.0050939310399537e-06,1.1836348091597605e-06
173,7.732012641597245e-07,1.041501272115947e-06,9.237314089115037e-07,3.11869403566063e-06,7.144760644155449e-07,7.50567950337512e-07,1.3155019178259166e-06,3.3347647272729846e-06,2.2174145890733006e-06,1.3063407207534343e-06,6.425144169077585e-07,2.121912034014449e-06,5.778530456669531e-07,6.961271455108887e-07,1.0019469963223197e-06,1.1913942792515203e-06
174,7.781825595453591e-07,1.0326461521184573e-06,9.259571210583096e-07,3.0458688056256763e-06,6.976037657919624e-07,7.641591607757754e-07,1.2887215524630408e-06,3.533920770642403e-06,2.2659979257754366e-06,1.3110970132339008e-06,6.564750637488231e-07,2.0825801628173402e-06,5.688966553610442e-07,6.995029403330668e-07,1.0009676345149975e-06,1.2009893510967066e-06
175,7.816010691025766e-07,1.0226303250958881e-06,9.27100034255258e-07,3.007141399195594e-06,6.818488395117685e-07,7.791482096088142e-07,1.2663137118014606e-06,3.7531774918489567e-06,2.336141576807749e-06,1.3121548896723574e-06,6.708073659107954e-07,2.039112179512929e-06,5.600362258990201e-07,7.038274690455984e-07,1.0020418873957314e-06,1.2126463921855214e-06
176,7.83552453496139e-07,1.0114686460396729e-06,9.27500602665259e-07,3.0008643400835663e-06,6.672804421240041e-07,7.952914867870665e-07,1.2485447220900136e-06,3.992524264403494e-06,2.4279550573137844e-06,1.3091390612741914e-06,6.854063653631946e-07,1.99290207539003e-06,5.512387801156688e-07,7.090387765811128e-07,1.004880018154004e-06,1.2265941563661315e-06
177,7.842129441996278e-07,9.992487701703798e-07,9.274405445285508e-07,3.025294528567639e-06,6.538932118855588e-07,8.124481428595392e-07,1.2354996107875453e-06,4.25143554828543e-06,2.541242295928472e-06,1.301912967115811e-06,7.001904462430592e-07,1.9453343903338816e-06,5.424376883849154e-07,7.15046448556587e-07,1.0090438538883116e-06,1.2429389478074186e-06
178,7.837311508948783e-07,9.860971427239588e-07,9.271344890774265e-07,3.0787630562993066e-06,6.416453293257184e-07,8.305316194280064e-07,1.2270421355175354e-06,4.528966797157202e-06,2.675631335767786e-06,1.2907387510725436e-06,7.151078878291854e-07,1.8976095131955824e-06,5.336117975094188e-07,7.217089240575815e-07,1.014041011387239e-06,1.2616271776656215e-06
179,7.821940950843769e-07,9.72210227479927e-07,9.267237443721255e-07,3.159706191151889e-06,6.305194500312933e-07,8.49430068873021e-07,1.2228519699375947e-06,4.823770477881445e-06,2.8306176899650146e-06,1.2762724090753363e-06,7.300970331379216e-07,1.850760412189863e-06,5.248293084628299e-07,7.288072820488883e-07,1.019432801037328e-06,1.2825097504652983e-06
180,7.796657135105187e-07,9.579402636037094e-07,9.263287423185135e-07,3.2665684435565385e-06,6.205605497960826e-07,8.689740260004647e-07,1.2224691684347074e-06,5.133930564298102e-06,3.0054996915181094e-06,1.259382322893971e-06,7.450513570990003e-07,1.8056643187894081e-06,5.16227854808924e-07,7.360486281194768e-07,1.0248606930055408e-06,1.3054492660499758e-06
181,7.762520197585049e-07,9.438126514293946e-07,9.261560232867037e-07,3.3976850401429233e-06,6.118607191259173e-07,8.88967352730716e-07,1.2253559182645863e-06,5.456719344395334e-06,3.1992752573275827e-06,1.2409057181475271e-06,7.59822577517597e-07,1.762966800093046e-06,5.079634643164957e-07,7.431048283588595e-07,1.0300265610655993e-06,1.33035655379875e-06
182,7.72151914645932e-07,9.304231398907648e-07,9.265476429549535e-07,3.5511952429409844e-06,6.045090909425417e-07,9.092151794413659e-07,1.2310285661167072e-06,5.788494616292591e-06,3.4105734368428103e-06,1.2214976119526632e-06,7.742251423913577e-07,1.7230134788009927e-06,5.001551709979263e-07,7.49690454441547e-07,1.0347046861786304e-06,1.3571601667391055e-06
183,7.676521219946998e-07,9.183294016313814e-07,9.279125862739133e-07,3.72493476991296e-06,5.985535005574856e-07,9.294980499467815e-07,1.239168829172933e-06,6.124778956852776e-06,3.6375860479284227e-06,1.2016084934356075e-06,7.880240189420911e-07,1.6858766766482802e-06,4.928393979933669e-07,7.556188542102925e-07,1.0387355953972641e-06,1.3858033462259486e-06
184,7.63078976657364e-07,9.080240373521005e-07,9.30628560680677e-07,3.916267347122575e-06,5.939802786941068e-07,9.495464571127813e-07,1.2495765951393142e-06,6.460376813502008e-06,3.8779322481233024e-06,1.1815211938054732e-06,8.00949232823611e-07,1.6514854554328214e-06,4.85968291478948e-07,7.607657043512863e-07,1.0419528802897114e-06,1.41623444754475e-06
185,7.587718209579032e-07,8.999147553963538e-07,9.350257989377985e-07,4.121891323155429e-06,5.907002538909877e-07,9.691063286008067e-07,1.2620303274860645e-06,6.78940833429657e-06,4.128548783195497e-06,1.1614534063452178e-06,8.127459602283064e-07,1.6198022116089417e-06,4.794744593395671e-07,7.649865595115872e-07,1.0441125101510126e-06,1.4483086763276555e-06
186,7.55089481509653e-07,8.942712241282152e-07,9.414300803008216e-07,4.337693830249704e-06,5.885729320284613e-07,9.880596407503728e-07,1.276212807340405e-06,7.105281945223992e-06,4.385807864941253e-06,1.141733632280647e-06,8.23222855940562e-07,1.5909488252442388e-06,4.733642800362159e-07,7.681130336252446e-07,1.0449229512375464e-06,1.4816776819674041e-06
187,7.523994650744581e-07,8.912143540004433e-07,9.5015942655667e-07,4.558751804034146e-06,5.874877533085295e-07,1.006457743548842e-06,1.2917035997492052e-06,7.4008070257247365e-06,4.64580542292858e-06,1.1228838675016628e-06,8.322783990007853e-07,1.5651918899319977e-06,4.6776088307735023e-07,7.700518496000796e-07,1.0441741824594921e-06,1.515806783807086e-06
188,7.510356101591541e-07,8.907798920069484e-07,9.614678742238979e-07,4.779594243844586e-06,5.874440436941457e-07,1.0244155419941878e-06,1.3079741582368087e-06,7.668723996052678e-06,4.9044475792029905e-06,1.1055170299083586e-06,8.398882587328853e-07,1.5427791210212684e-06,4.6286533004992366e-07,7.708479142851717e-07,1.0418347550148679e-06,1.5501439136159653e-06
189,7.512540399187984e-07,8.929870808402599e-07,9.755080194106051e-07,4.994748480715367e-06,5.885517966856949e-07,1.0419738232351215e-06,1.324395644222446e-06,7.902691974004213e-06,5.157240201871986e-06,1.0902012167655892e-06,8.460649024706942e-07,1.5237403459523834e-06,4.588851126394491e-07,7.70628609965077e-07,1.0380182993884633e-06,1.584313842782811e-06
190,7.5320194671224e-07,8.97835748779336e-07,9.923140816529622e-07,5.199432727631653e-06,5.909568858842611e-07,1.059033677645113e-06,1.340250169458758e-06,8.098308682926845e-06,5.399199637031195e-06,1.0773958427540192e-06,8.508427014921514e-07,1.5077950453889648e-06,4.559844290164448e-07,7.695448913272681e-07,1.0329015903739273e-06,1.618160626030836e-06
191,7.569055883274501e-07,9.052500500089754e-07,1.0117741842561586e-06,5.390172945431173e-06,5.947711793853558e-07,1.075346861712364e-06,1.3547434983574508e-06,8.25353682586138e-06,5.62518576273924e-06,1.0674104630603518e-06,8.54302307082192e-07,1.4944419608244546e-06,4.542710628619744e-07,7.677883392377556e-07,1.0267274771243394e-06,1.6515957501105262e-06
192,7.622778692420169e-07,9.15043557511533e-07,1.033614195931157e-06,5.565148524712945e-06,6.000442355513071e-07,1.0905216534801562e-06,1.3670993466121987e-06,8.368307622057845e-06,5.830482105846994e-06,1.0603611183670503e-06,8.565970306820681e-07,1.4831714227566413e-06,4.538218898973532e-07,7.655935983601945e-07,1.0198679949275812e-06,1.6844123685576337e-06
193,7.691214739778663e-07,9.269153612579072e-07,1.0574245935688396e-06,5.724146254291244e-06,6.067460417146463e-07,1.104083828486047e-06,1.3767289937419144e-06,8.4436426826362e-06,6.011348082800758e-06,1.0561508435572e-06,8.579498855248297e-07,1.473595676960189e-06,4.54727985345607e-07,7.631991951468184e-07,1.0128137678065195e-06,1.7162637245778523e-06
194,7.771300703929249e-07,9.404527556851121e-07,1.0827200514857258e-06,5.868086423335127e-06,6.147619314842303e-07,1.11563113216057e-06,1.3833350147508076e-06,8.480703703497622e-06,6.165417788431487e-06,1.054480696276461e-06,8.586592792837247e-07,1.4654158249785524e-06,4.5710733263773535e-07,7.608315174358385e-07,1.0060563662548867e-06,1.7468229832794065e-06
195,7.859220649684895e-07,9.551503440867267e-07,1.1089751995105277e-06,5.998213101813229e-06,6.239154442338841e-07,1.1249833532526023e-06,1.3868718036572714e-06,8.479956828145308e-06,6.2918027195793755e-06,1.0548796993286384e-06,8.591432897862712e-07,1.4583895893969056e-06,4.61069726813429e-07,7.586854414601346e-07,9.999866979257256e-07,1.7759547476671328e-06
196,7.950878876570017e-07,9.704335449760286e-07,1.135595583911315e-06,6.115251017883556e-06,6.339986661554493e-07,1.1321781787266873e-06,1.3874230056764932e-06,8.440758814834312e-06,6.3906649309043315e-06,1.0567757470472458e-06,8.599263187368295e-07,1.4523798746425813e-06,4.6667856308269013e-07,7.568857470489789e-07,9.949056492912396e-07,1.8037397474317734e-06
197,8.041897059743622e-07,9.85673031331098e-07,1.1618953112060984e-06,6.2189628428351455e-06,6.448128925428315e-07,1.1373139816790613e-06,1.3850841344463753e-06,8.361708389903274e-06,6.462343389121555e-06,1.0596359090959734e-06,8.615239209847378e-07,1.4474001584510193e-06,4.7393837516143527e-07,7.55505071221052e-07,9.910760852280536e-07,1.8303422028925883e-06
198,8.127248236623905e-07,1.0002293495708922e-06,1.187164605975993e-06,6.308317706436521e-06,6.562145401241475e-07,1.1404040633994444e-06,1.379869825263249e-06,8.241577703854424e-06,6.506731500587442e-06,1.063099054705614e-06,8.643417383411973e-07,1.4436020673742683e-06,4.827964629159441e-07,7.546334525135291e-07,9.887279199022295e-07,1.8558295935213233e-06
199,8.201479797387797e-07,1.013523490074503e-06,1.2107570269024802e-06,6.382046083571579e-06,6.681170631154393e-07,1.1413847941341729e-06,1.3716327749621708e-06,8.08025371517125e-06,6.523401302862524e-06,1.0669643220637717e-06,8.686768873738854e-07,1.4411721200649417e-06,4.931363846539791e-07,7.543959839662504e-07,9.880525307776733e-07,1.8800918455555024e-06
200,8.25997551927603e-07,1.0250590801388718e-06,1.2320846014083336e-06,6.439205305802263e-06,6.804544266692162e-07,1.140231352325112e-06,1.3600413151632874e-06,7.879290654394284e-06,6.512054974343077e-06,1.0710422681442002e-06,8.747761915236684e-07,1.4401750130037544e-06,5.047699359551396e-07,7.549000439671431e-07,9.892137423998509e-07,1.9029274095189928e-06
201,8.300344245768658e-07,1.0343685519167753e-06,1.250565881859747e-06,6.47958962082377e-06,6.93143668208674e-07,1.137008539982815e-06,1.3446593984594018e-06,7.641995313975486e-06,6.472784316497353e-06,1.0750460790251754e-06,8.828620628007211e-07,1.4404519375193693e-06,5.174713221030553e-07,7.561897069689827e-07,9.92328582591241e-07,1.9241864386389198e-06
202,8.322635306127488e-07,1.0409538640755962e-06,1.2656759040038742e-06,6.504001706246486e-06,7.060606825432316e-07,1.1318082749044385e-06,1.3250768218767345e-06,7.373176869053555e-06,6.406218961501646e-06,1.0786333893458387e-06,8.931160740272068e-07,1.441580213693365e-06,5.310366852662332e-07,7.582275158065281e-07,9.974471616408993e-07,1.943808907557861e-06
203,8.328226670031999e-07,1.0443155189291455e-06,1.2771103944260282e-06,6.514367018086853e-06,7.190546977155496e-07,1.1247004648987274e-06,1.3010326397232194e-06,7.078751234923738e-06,6.313771245308951e-06,1.081485985937383e-06,9.056520739282527e-07,1.4428689130851052e-06,5.452908282160055e-07,7.608761227178582e-07,1.0045980008392979e-06,1.9617634325315436e-06
204,8.318349803805166e-07,1.0440683263350286e-06,1.2848894974467509e-06,6.513609838095614e-06,7.319857491998597e-07,1.1157506448831827e-06,1.272526837122678e-06,6.765335119640038e-06,6.1978715600279925e-06,1.0832983631071412e-06,9.204865826114492e-07,1.4434561314181702e-06,5.600595165047632e-07,7.63901477814785e-07,1.0138462737479025e-06,1.978001671676278e-06
205,8.293167710356169e-07,1.0400577662238212e-06,1.289286810650168e-06,6.505294949853095e-06,7.447273677812654e-07,1.1050178549787897e-06,1.2398920218243502e-06,6.439884687437842e-06,6.061943372399554e-06,1.0837569431299119e-06,9.375145012548286e-07,1.4425288711638399e-06,5.751772922517685e-07,7.670217718437922e-07,1.0252988290323395e-06,1.9924480779378654e-06
206,8.251925979688978e-07,1.0324149487452275e-06,1.2906804221841288e-06,6.493156193467446e-06,7.571493246773226e-07,1.0925330840203344e-06,1.203775788834193e-06,6.109350441811504e-06,5.910061006476678e-06,1.0826197171226136e-06,9.564809740341622e-07,1.439534918798796e-06,5.904928976383336e-07,7.699598576517589e-07,1.0390897556067315e-06,2.0049548637701843e-06
207,8.194222216592926e-07,1.021522542145855e-06,1.289475620120469e-06,6.480638429657376e-06,7.691544380331638e-07,1.0783618265046524e-06,1.165020876876135e-06,5.780284501524805e-06,5.746475571530892e-06,1.0798133916389815e-06,9.769461771633402e-07,1.4342268529968775e-06,6.058240526806311e-07,7.724633345498417e-07,1.0553754399953017e-06,2.0151939541449986e-06
208,8.121447348811878e-07,1.0078908607323635e-06,1.286090501566379e-06,6.4705190422612025e-06,7.807498886400911e-07,1.062706425458342e-06,1.1244926094195104e-06,5.458474832929159e-06,5.575197287860007e-06,1.0754278714936213e-06,9.982772073398413e-07,1.4265252768889442e-06,6.20925699033445e-07,7.743333626531079e-07,1.074306916328959e-06,2.0225609085250486e-06
209,8.037095829823851e-07,9.920267807436008e-07,1.2809144102121075e-06,6.4646104282082185e-06,7.920388901639028e-07,1.0458887827317426e-06,1.0829692446634702e-06,5.1488282731189625e-06,5.399697319271114e-06,1.0696355126708477e-06,1.019673538016518e-06,1.4163350638254858e-06,6.355439212116102e-07,7.754792861686873e-07,1.0959687372726772e-06,2.0262165487421445e-06
210,7.945747364716791e-07,9.744044839441476e-07,1.2742860521675493e-06,6.463520295862475e-06,8.031141643159118e-07,1.0282450361813238e-06,1.0411511980549524e-06,4.855507644253237e-06,5.222753435200006e-06,1.0626396366078651e-06,1.040225023530358e-06,1.4034325602945235e-06,6.495159648868542e-07,7.75945277654704e-07,1.1203167793770246e-06,2.0252860975255515e-06
211,7.851752556477224e-07,9.55523242132099e-07,1.2665496499780616e-06,6.466523690449968e-06,8.139647488909577e-07,1.0100897489263048e-06,9.997040870605515e-07,4.5820250228349024e-06,5.046433480773208e-06,1.0546807044323166e-06,1.0590754123201936e-06,1.3874528391974768e-06,6.628141425750391e-07,7.758863708011745e-07,1.147139569263155e-06,2.0190510546216176e-06
212,7.75858823607641e-07,9.359362099219198e-07,1.2580715170456131e-06,6.47165421166412e-06,8.244677032863887e-07,9.917432896507817e-07,9.592697284168255e-07,4.331131400874754e-06,4.872097352837903e-06,1.0460206117419635e-06,1.075698398128258e-06,1.3679915783175105e-06,6.754988025742364e-07,7.755174487823538e-07,1.1760688528609596e-06,2.006986728681986e-06
213,7.668808840656699e-07,9.161927346619501e-07,1.2491389505405028e-06,6.476027848364011e-06,8.344169701003258e-07,9.735160984444653e-07,9.204608620241229e-07,4.104653384912574e-06,4.700322882834972e-06,1.0368542456903434e-06,1.090069943000995e-06,1.344763568981576e-06,6.876263844141974e-07,7.750588068272822e-07,1.2066489222582678e-06,1.9887672125534454e-06
214,7.584095403494065e-07,8.967444364432047e-07,1.2398593024141002e-06,6.4763188796867715e-06,8.435331688009267e-07,9.556439105978342e-07,8.838342028813384e-07,3.90347046242597e-06,4.530870034973291e-06,1.0272316865647967e-06,1.1025457277602398e-06,1.3176415965936445e-06,6.991799572277011e-07,7.746962519757198e-07,1.2383970363863952e-06,1.964457989789974e-06
215,7.50543267736008e-07,8.779026980809761e-07,1.2301707383342276e-06,6.469298606553424e-06,8.51493447835735e-07,9.382715641379752e-07,8.498364694187252e-07,3.7276723587609225e-06,4.362838290790766e-06,1.0170927958740965e-06,1.1135657216863346e-06,1.2865488344383182e-06,7.10095957477434e-07,7.745512659902567e-07,1.2707956975828598e-06,1.9347814413773905e-06
216,7.433438358998998e-07,8.598871163564603e-07,1.2199217297723948e-06,6.452330587479663e-06,8.580253583854191e-07,9.215378483002994e-07,8.187752434224441e-07,3.576780102979917e-06,4.195037176089766e-06,1.006385294353854e-06,1.1234336582960268e-06,1.2514161524566979e-06,7.203936705778104e-07,7.746512390472471e-07,1.3032544479948522e-06,1.901076794088426e-06
217,7.368561395363373e-07,8.429081575392667e-07,1.2089339685323148e-06,6.423688821913476e-06,8.630037181761624e-07,9.056647875726196e-07,7.90853204502195e-07,3.4498655175044157e-06,4.026503692954767e-06,9.951558198564521e-07,1.1322425506851752e-06,1.212331869674112e-06,7.302751120381163e-07,7.749305334886393e-07,1.3350946841079344e-06,1.864896535206168e-06
218,7.311337073297147e-07,8.271878062911573e-07,1.1970528132702274e-06,6.382630471947598e-06,8.664684457540038e-07,8.909344448175803e-07,7.662239809571352e-07,3.3455146803236554e-06,3.8569725819257605e-06,9.835468826214505e-07,1.1399002198396052e-06,1.1697627423139402e-06,7.40082524149389e-07,7.752755808077787e-07,1.365593214477267e-06,1.8276178730280648e-06
219,7.26268071505534e-07,8.129037384430976e-07,1.1842215513662642e-06,6.32931699281376e-06,8.685740032021568e-07,8.775774859155338e-07,7.45003171885502e-07,3.2617715458261644e-06,3.68706727368905e-06,9.71711245472888e-07,1.1462299155047488e-06,1.124625184937081e-06,7.50191136986965e-07,7.755793404753131e-07,1.3940622181548968e-06,1.7903250988734322e-06
220,7.223525862162771e-07,8.001313328107995e-07,1.1705498876100307e-06,6.264728214767525e-06,8.695223317024981e-07,8.656787754311688e-07,7.272239305878614e-07,3.1962012631827254e-06,3.518221014153303e-06,9.597117154505916e-07,1.1510652389118987e-06,1.0781080581898263e-06,7.609452519748312e-07,7.758086845197585e-07,1.419852462548275e-06,1.7538342109804561e-06
221,7.193935210945852e-07,7.888360343937825e-07,1.1563198087880959e-06,6.190522599067385e-06,8.695016104380599e-07,8.551442788668533e-07,7.127838219377252e-07,3.1460147612645323e-06,3.35247292734823e-06,9.474865762504482e-07,1.154249592558428e-06,1.0313912181654811e-06,7.726256928360438e-07,7.760611071131756e-07,1.4422874259113327e-06,1.7186862683359355e-06
222,7.172538513839143e-07,7.78907223935531e-07,1.1419138289910726e-06,6.108636856440751e-06,8.686700921095233e-07,8.457021393338909e-07,7.014205387201923e-07,3.1082587968414794e-06,3.1921552376961063e-06,9.349102445173829e-07,1.1555942809162813e-06,9.854739306164975e-07,7.854268612654519e-07,7.765190582567968e-07,1.4606929181332688e-06,1.685113374199929e-06
223,7.156524951396866e-07,7.701987733275702e-07,1.1277000948153388e-06,6.020635156266059e-06,8.672020060180649e-07,8.369298804474422e-07,6.927188543555565e-07,3.080283727169603e-06,3.0394998903211675e-06,9.219196760460765e-07,1.1548891402018653e-06,9.411479693304297e-07,7.994464016319559e-07,7.773504178137755e-07,1.474561199189105e-06,1.6530517011923662e-06
224,7.142096939105212e-07,7.625391128687382e-07,1.1139417591672592e-06,5.927186989357485e-06,8.653218014973589e-07,8.283342213007778e-07,6.861718486063678e-07,3.0603905156266214e-06,2.8963215581551508e-06,9.086423452674465e-07,1.1519651690840578e-06,8.990199823726003e-07,8.146899461619697e-07,7.787175066519761e-07,1.4836792497583563e-06,1.6222560810175968e-06
225,7.125439383352965e-07,7.55725342982282e-07,1.1007813752037442e-06,5.827962763334331e-06,8.632769448593393e-07,8.194443817800614e-07,6.813221205515631e-07,3.0481274169561647e-06,2.763894178579172e-06,8.954264113561714e-07,1.1467528626198385e-06,8.595419725611623e-07,8.311148839739347e-07,7.808855075818927e-07,1.4880559400422958e-06,1.5925166556887218e-06
226,7.103943442437113e-07,7.495652505810596e-07,1.0882763136659233e-06,5.721805824260129e-06,8.612813999696898e-07,8.098336733295134e-07,6.779195749558866e-07,3.0439716193049904e-06,2.6430709397951262e-06,8.82738843412026e-07,1.1392936150035004e-06,8.230761899903912e-07,8.486925718886035e-07,7.842731113077166e-07,1.4877109874501867e-06,1.5638751051132362e-06
227,7.076949848563723e-07,7.43969757271297e-07,1.0764134108990197e-06,5.606962470818774e-06,8.594780940571615e-07,7.991179882209986e-07,6.75981471993182e-07,3.0486884425463277e-06,2.534641151718992e-06,8.710506732292067e-07,1.1297142017052544e-06,7.899752784334162e-07,8.674257978840024e-07,7.89387681532541e-07,1.4825450643571745e-06,1.5366924898010215e-06
228,7.045387275069767e-07,7.390190099245581e-07,1.065093310337828e-06,5.481382522408456e-06,8.579531030322743e-07,7.870320003276145e-07,6.757244441572525e-07,3.062809540413788e-06,2.4396881004752674e-06,8.607979961835225e-07,1.1182051252159108e-06,7.606028551301146e-07,8.87319516480121e-07,7.967274889441256e-07,1.4723972971323848e-06,1.511534696081643e-06
229,7.010625018994672e-07,7.34942878543117e-07,1.0541673883800112e-06,5.3431654207574925e-06,8.567769903642377e-07,7.735108855246276e-07,6.774445059033812e-07,3.086466946522245e-06,2.359618474959156e-06,8.523548991356347e-07,1.1050208893299408e-06,7.352775895442735e-07,9.083551655118466e-07,8.067205507075571e-07,1.4572061196581913e-06,1.4889858284193905e-06
230,6.973758627126744e-07,7.320291798449324e-07,1.0435539427643452e-06,5.191102634388866e-06,8.560066606409016e-07,7.586719114307266e-07,6.814227350698235e-07,3.1195167855680247e-06,2.2959161294661606e-06,8.459798663309119e-07,1.090499139620901e-06,7.142080772002854e-07,9.304861239919735e-07,8.196835215084627e-07,1.4371177101212075e-06,1.469539056005803e-06
231,6.935935242234535e-07,7.305201251258308e-07,1.0333276468039203e-06,5.02512958697704e-06,8.556365436709207e-07,7.427425523863081e-07,6.878699135604458e-07,3.1617036236466993e-06,2.249967708969289e-06,8.417865310551909e-07,1.0750906140048517e-06,6.974844238275333e-07,9.536225019469688e-07,8.357774002227649e-07,1.4124574217727607e-06,1.453615582980762e-06
232,6.898869706247659e-07,7.305449947461857e-07,1.0237048219575443e-06,4.8464502036998135e-06,8.555546698164334e-07,7.260067271682819e-07,6.968915601855697e-07,3.21271756573978e-06,2.223057371177766e-06,8.397740897949098e-07,1.0593493722141385e-06,6.851535793327118e-07,9.77597182420563e-07,8.549768162535206e-07,1.3836287562741383e-06,1.4415847523293976e-06
233,6.864612382959115e-07,7.32108212202645e-07,1.014978535271226e-06,4.657237597115909e-06,8.55552867582391e-07,7.087567982439621e-07,7.084695596718397e-07,3.2721722783745764e-06,2.2163879656249455e-06,8.398967199617631e-07,1.0438293269861818e-06,6.773395602504072e-07,1.0021544971814608e-06,8.770681936323161e-07,1.351068775112232e-06,1.4336760431460083e-06
234,6.834744109577178e-07,7.351374405473261e-07,1.0074863568291582e-06,4.460112493492826e-06,8.553962984195296e-07,6.912341847355199e-07,7.224829767868111e-07,3.3395545606956886e-06,2.2310687281153957e-06,8.421008986426437e-07,1.028950975062063e-06,6.742993312957921e-07,1.0269647451632135e-06,9.016643053704667e-07,1.3153064942688194e-06,1.429875760683748e-06
235,6.809711239414589e-07,7.395690250058112e-07,1.0016153201350964e-06,4.2577798184790365e-06,8.54912504588258e-07,6.735957123839806e-07,7.38771508665875e-07,3.4141607574350866e-06,2.2680864044117895e-06,8.462915721052017e-07,1.0149590427056302e-06,6.763744067883199e-07,1.0516285349458535e-06,9.282080082086622e-07,1.2770565131884313e-06,1.4299306543781565e-06
236,6.788628425053865e-07,7.45420262045788e-07,9.977786430918355e-07,4.053026225039118e-06,8.540290274180913e-07,6.559570632327293e-07,7.571771322984011e-07,3.4950016795333185e-06,2.328256918596578e-06,8.522825646349258e-07,1.0019755368017608e-06,6.839124071964037e-07,1.0756972510103535e-06,9.559738568326972e-07,1.2372246762203096e-06,1.433420959187304e-06
237,6.769540240214289e-07,7.52797102861603e-07,9.963274314835016e-07,3.848903950140111e-06,8.52720451089386e-07,6.384886404636163e-07,7.775164868525616e-07,3.5806592544389732e-06,2.412136878544498e-06,8.597846073017663e-07,9.90055169558072e-07,6.972080384597155e-07,1.098760086928303e-06,9.841360981494193e-07,1.1967760737602386e-06,1.4397933221236517e-06
238,6.750195527708175e-07,7.618314396668474e-07,9.974590654251066e-07,3.648761730215941e-06,8.509224690441064e-07,6.214572794116769e-07,7.995540684442863e-07,3.6692137293493334e-06,2.5198938208063316e-06,8.684336801105291e-07,9.79188967973218e-07,7.164584867758073e-07,1.1205559466144339e-06,1.0119268853023855e-06,1.1565871335492107e-06,1.448375320763342e-06
239,6.729126055640369e-07,7.726216051408409e-07,1.0011970645337925e-06,3.455993221094091e-06,8.485054022200684e-07,6.051948615460918e-07,8.230431672167289e-07,3.7583964589509672e-06,2.6511967252115147e-06,8.778746902754709e-07,9.692699109481031e-07,7.417291670696422e-07,1.1410142750061983e-06,1.0387653199142033e-06,1.1173943351474066e-06,1.458462844030087e-06
240,6.706388795654203e-07,7.852376805852318e-07,1.0074187308783923e-06,3.273669380791261e-06,8.453225747668029e-07,5.900815864490647e-07,8.477623824166458e-07,3.84590881379862e-06,2.805189578313998e-06,8.87880516662721e-07,9.600614131259373e-07,7.729277402501672e-07,1.1602078468715264e-06,1.0642243775179587e-06,1.0797732621114215e-06,1.4694135907690716e-06
241,6.683636445120977e-07,7.997359904481831e-07,1.015883851586547e-06,3.104268940164065e-06,8.412946964012292e-07,5.765440019991887e-07,8.734785427365025e-07,3.929750566788081e-06,2.9805118601237214e-06,8.984255082962132e-07,9.512324985220537e-07,8.097978871455732e-07,1.1783012607574157e-06,1.087890537805365e-06,1.0440964963367889e-06,1.4806741069570572e-06
242,6.663808249087192e-07,8.161112863693996e-07,1.026282018399268e-06,2.9495631360469e-06,8.364949623841103e-07,5.650062820639535e-07,8.999090665968115e-07,4.008507713567985e-06,3.1753008297291123e-06,9.096770551682556e-07,9.42489331218559e-07,8.519703329972247e-07,1.195547145902719e-06,1.1092984197362052e-06,1.0105410936417225e-06,1.4918501866011772e-06
243,6.650747813206253e-07,8.342272920685427e-07,1.0382990134790274e-06,2.8106025355761127e-06,8.311802906800222e-07,5.558216945323639e-07,9.267409310949484e-07,4.081560631250034e-06,3.387163307424698e-06,9.219181817392555e-07,9.337251869397731e-07,8.990678097162638e-07,1.212260790580739e-06,1.1280118969731394e-06,9.791532571020478e-07,1.5028314264519138e-06
244,6.648728089586648e-07,8.53801768194378e-07,1.0516442476227265e-06,2.6877660532912314e-06,8.257195578428901e-07,5.492410843854542e-07,9.536369231233938e-07,4.149100562448898e-06,3.613114508049131e-06,9.354315390562638e-07,9.250811804798682e-07,9.50772678139045e-07,1.2287046592151735e-06,1.1437288478441567e-06,9.498777615504557e-07,1.5137782913285433e-06
245,6.661849963068812e-07,8.744369403329471e-07,1.0660020235358041e-06,2.580835664963601e-06,8.204547585498353e-07,5.454180767013671e-07,9.802048180804506e-07,4.211878101975361e-06,3.849545403208952e-06,9.504076005359267e-07,9.168790195940306e-07,1.0067947093085404e-06,1.244965533496548e-06,1.1562520984399353e-06,9.225306627514232e-07,1.5249211101709333e-06
246,6.693448509691646e-07,8.956309815958167e-07,1.0809491247356416e-06,2.4890419240001354e-06,8.1559268342432e-07,5.444290842853599e-07,1.0060073717715747e-06,4.270744808399694e-06,4.092321400177824e-06,9.669191976336273e-07,9.09475568261919e-07,1.06679331747181e-06,1.2609578480470187e-06,1.165334264564982e-06,8.968237927742271e-07,1.5363585353173789e-06
247,6.745699978232807e-07,9.167673175702743e-07,1.0959256483730333e-06,2.4111053481791593e-06,8.111908442415445e-07,5.462892667651816e-07,1.0306312635903391e-06,4.3261558703758476e-06,4.336972683904928e-06,9.849446389797357e-07,9.031520195450439e-07,1.130334723823577e-06,1.2765275535520104e-06,1.1705556232922231e-06,8.725151370306884e-07,1.548008997009176e-06
248,6.819602963959297e-07,9.371612979973096e-07,1.1103092900288317e-06,2.3453771642874302e-06,8.072405351071116e-07,5.509493145650551e-07,1.053754928120139e-06,4.377813546226863e-06,4.578865211348561e-06,1.0044271407005442e-06,8.981041084453235e-07,1.1968841819939254e-06,1.2915168243414312e-06,1.171381752929619e-06,8.495568358166624e-07,1.5596513563237515e-06
249,6.915358223787482e-07,9.561847772780375e-07,1.1235798883432275e-06,2.290076048895636e-06,8.037866363552584e-07,5.582863288994671e-07,1.07517752999993e-06,4.424570699046094e-06,4.81333896948446e-06,1.025375541562206e-06,8.944951518772402e-07,1.2657802780558856e-06,1.3057420377096925e-06,1.1674241419097022e-06,8.2806256549389e-07,1.5709296129442744e-06
250,7.03281003712793e-07,9.733408329316864e-07,1.1354839697223763e-06,2.2434724107872535e-06,8.009691310639571e-07,5.681145436675028e-07,1.0947882617199517e-06,4.464616504450981e-06,5.035833675279383e-06,1.0479324944460802e-06,8.925002309698778e-07,1.3362171850276486e-06,1.3189304271995086e-06,1.1587285334247918e-06,8.081481642123794e-07,1.5813626101851198e-06
251,7.171453230064899e-07,9.881977593352672e-07,1.146052331595847e-06,2.203943312965991e-06,7.989421323682101e-07,5.80202140436327e-07,1.1124739984937987e-06,4.495880718648864e-06,5.241993816784508e-06,1.0723158941734121e-06,8.92292207053344e-07,1.4073332885285031e-06,1.330648533539967e-06,1.145816061987237e-06,7.898472471003537e-07,1.5904296837891656e-06
252,7.330019297894118e-07,1.0003086728154216e-06,1.1554438031887735e-06,2.1699980524066073e-06,7.977736566121993e-07,5.942717431130757e-07,1.1280501690437732e-06,4.516533926095539e-06,5.427788312268965e-06,1.0986742799407514e-06,8.939715309983684e-07,1.4784038596525241e-06,1.3402694619698173e-06,1.1294386736662724e-06,7.731606330292456e-07,1.5976305035174139e-06
253,7.506151071292098e-07,1.0092775455268958e-06,1.1637816598751109e-06,2.140354659454409e-06,7.974263302685208e-07,6.100189732903649e-07,1.141300862868488e-06,4.5254066634910725e-06,5.589680623299696e-06,1.126978812036861e-06,8.975208494600344e-07,1.548983698557675e-06,1.3470287390386151e-06,1.1103134259343812e-06,7.581189445620825e-07,1.6024348539451043e-06
254,7.696538481385215e-07,1.0149003241193608e-06,1.1710951579031186e-06,2.113985904118079e-06,7.977884529368863e-07,6.271670521355187e-07,1.1520803148894942e-06,4.522177548915843e-06,5.724696247341821e-06,1.1569978113942793e-06,9.028732197781942e-07,1.6188581255455967e-06,1.3501439853441768e-06,1.0890444461290782e-06,7.447560507123637e-07,1.6042610868755518e-06
255,7.897587749096103e-07,1.0171925874357621e-06,1.1773139708540572e-06,2.0900321298311073e-06,7.98688220116144e-07,6.45486866233044e-07,1.1603865557950577e-06,4.507340334575251e-06,5.830132401325343e-06,1.1883065841482927e-06,9.100451099628467e-07,1.6878345151696555e-06,1.3489656820515326e-06,1.0661652366745164e-06,7.330346784578823e-07,1.60261516686831e-06
256,8.106268976389231e-07,1.016315587691721e-06,1.1822811257886083e-06,2.067611275770097e-06,7.998943909562286e-07,6.647429937081778e-07,1.1663846699380955e-06,4.482086324023422e-06,5.903054864372943e-06,1.2203172055482527e-06,9.191761911464872e-07,1.7555446645537137e-06,1.3431617231616525e-06,1.042148570146911e-06,7.228250834133184e-07,1.59728233413891e-06
257,8.320389865468682e-07,1.0125540453266063e-06,1.185779298088186e-06,2.045670427148414e-06,8.01125736084683e-07,6.846395903612946e-07,1.17036186435379e-06,4.448189088143283e-06,5.9402524026398585e-06,1.252387570811401e-06,9.30441393256031e-07,1.821372886549041e-06,1.3328609348732922e-06,1.0173963396746115e-06,7.139614648498577e-07,1.5884124154166446e-06
258,8.537953562023991e-07,1.0063241699722512e-06,1.1875434011646313e-06,2.0230139400724985e-06,8.020530170386906e-07,7.048396551107598e-07,1.1726151241047613e-06,4.4078602116954415e-06,5.9389983427133e-06,1.2840094211802426e-06,9.439559325796928e-07,1.8844833036339836e-06,1.3186356740121096e-06,9.922862125049042e-07,7.062997581979749e-07,1.5764719118510709e-06
259,8.75615151764642e-07,9.981089717721343e-07,1.1873041473962924e-06,1.9985033093440627e-06,8.023028259545774e-07,7.250231286657022e-07,1.173377248605724e-06,4.363523220212634e-06,5.898063813957212e-06,1.314950264169636e-06,9.597270791832297e-07,1.943920148602288e-06,1.3013315416737223e-06,9.67204085065646e-07,6.997028262310754e-07,1.5621112684016362e-06
260,8.9708425042384e-07,9.883975881092845e-07,1.1848635397620534e-06,1.9712803758761905e-06,8.015248495604582e-07,7.448995198140125e-07,1.1728382169789312e-06,4.3175135513012925e-06,5.818248187104385e-06,1.3452304456986898e-06,9.7762685324076e-07,1.9987932602123642e-06,1.2818594534070956e-06,9.424798135161208e-07,6.939981456471406e-07,1.5460251286124832e-06
261,9.176762019997512e-07,9.777051607116682e-07,1.1800807867288192e-06,1.9408758089480393e-06,7.995301495512486e-07,7.641781934913979e-07,1.171154050363713e-06,4.27175204773586e-06,5.702269526570516e-06,1.3749507348780786e-06,9.974250783290256e-07,2.0484754047239257e-06,1.261043875205407e-06,9.18300897533246e-07,6.890120387428089e-07,1.5288504190035039e-06
262,9.368000296247277e-07,9.665756297141472e-07,1.1727942917997026e-06,1.9071913422730496e-06,7.96401130015758e-07,7.825733569184058e-07,1.168412254178487e-06,4.227470792167315e-06,5.554270189393434e-06,1.4040985382311382e-06,1.018895738939236e-06,2.0926886402196083e-06,1.2395562733358308e-06,8.947072067595338e-07,6.846722527113909e-07,1.5110731662731055e-06
263,9.538473186440118e-07,9.555131493716966e-07,1.162835880256559e-06,1.8704211328210827e-06,7.924700397217094e-07,7.998510501500545e-07,1.1646461652830872e-06,4.1850961104672145e-06,5.379164164789023e-06,1.4324544625429778e-06,1.0418758448450068e-06,2.131420928914132e-06,1.217897167972034e-06,8.716766980117352e-07,6.810548306666232e-07,1.4929578503352397e-06
264,9.682704067168668e-07,9.449295652120415e-07,1.1501413297740703e-06,1.8309677541012912e-06,7.881770617091656e-07,8.158597889000238e-07,1.159876797619663e-06,4.144305990408125e-06,5.181976569947184e-06,1.4596008267886108e-06,1.0662024565669078e-06,2.1647137290382426e-06,1.19639095180592e-06,8.492356739525949e-07,6.783230926400511e-07,1.4745747417001282e-06
265,9.796990151579334e-07,9.351467340852155e-07,1.1348725430183454e-06,1.7893931378020965e-06,7.839215533428925e-07,8.305332341794363e-07,1.1540975732872605e-06,4.104177927049155e-06,4.96752527353832e-06,1.484936274442626e-06,1.0916337648895457e-06,2.192495441814099e-06,1.175193533072635e-06,8.274939403621257e-07,6.766577665201956e-07,1.4559322403177824e-06
266,9.880311702483682e-07,9.263953891682658e-07,1.1174951480741597e-06,1.746421231832675e-06,7.799966012796723e-07,8.438938420781452e-07,1.1472335284877894e-06,4.063397329550724e-06,4.7406629635054404e-06,1.5076578730162992e-06,1.1178493298784086e-06,2.214650244764189e-06,1.1543128686928723e-06,8.065828337667178e-07,6.762550212902287e-07,1.437123067538468e-06
267,9.934420018816267e-07,9.188085840103773e-07,1.0987341304752968e-06,1.7029332788095581e-06,7.765974925855353e-07,8.560670097813882e-07,1.1391724394921574e-06,4.020547782283343e-06,4.506597315233353e-06,1.5267770930419029e-06,1.1444631249784108e-06,2.2312654380776186e-06,1.1336664673859108e-06,7.865973271006702e-07,6.773321250787774e-07,1.4183636023624602e-06
268,9.96319362280217e-07,9.12451692854914e-07,1.0793922995113708e-06,1.6598676220617212e-06,7.738510890695788e-07,8.672982975213387e-07,1.1298994261529451e-06,3.9744370547384556e-06,4.270712702139327e-06,1.5412357321847472e-06,1.1709848205269096e-06,2.2427941535210847e-06,1.1131918575056306e-06,7.676051828946156e-07,6.800933987576185e-07,1.399920382887937e-06
269,9.971671497208643e-07,9.073533416935169e-07,1.0601582237485376e-06,1.6180521420964096e-06,7.718313280936291e-07,8.7796005865749e-07,1.1196607260364462e-06,3.924365119972807e-06,4.038035820082679e-06,1.5501230138348868e-06,1.1968060881610436e-06,2.2499903538496813e-06,1.092939225208323e-06,7.496739926677339e-07,6.847070494653853e-07,1.382039873939737e-06
270,9.965110103457741e-07,9.034951985755126e-07,1.0415175048634701e-06,1.5780983505729576e-06,7.705437759192193e-07,8.885189149869954e-07,1.109037246752505e-06,3.8702718430647045e-06,3.812836804899676e-06,1.5529196123892322e-06,1.2212915958070868e-06,2.253686744708847e-06,1.0730578617612868e-06,7.328653221844604e-07,6.913144634470611e-07,1.364918608869206e-06
271,9.94822010640134e-07,9.007867750753887e-07,1.023748418688059e-06,1.540406840087145e-06,7.698831776554394e-07,8.994463419110302e-07,1.0988692963174906e-06,3.812765814665317e-06,3.5985239023580396e-06,1.5496165458989903e-06,1.2439128874646417e-06,2.2545604188574643e-06,1.0537097419324228e-06,7.171889884827882e-07,7.00031216516647e-07,1.3486792665146065e-06
272,9.92473465993634e-07,8.990589276801449e-07,1.006940700193523e-06,1.5052295969318017e-06,7.696101078071625e-07,9.111104260373234e-07,1.090083045217932e-06,3.7530869061706465e-06,3.3976964958783306e-06,1.5405888561610033e-06,1.2642904609422088e-06,2.253055046985884e-06,1.035008121103349e-06,7.025643180992711e-07,7.109218139164394e-07,1.3333360722306437e-06
273,9.897555751720042e-07,8.980973493609567e-07,9.910244066888275e-07,1.4727381686571539e-06,7.694177963264818e-07,9.237189080804744e-07,1.0835178290566145e-06,3.693045991445168e-06,3.212307461555782e-06,1.5263077406438499e-06,1.2820844849423902e-06,2.249472271110167e-06,1.0169893285083682e-06,6.888709245031672e-07,7.239656374120934e-07,1.318745202115851e-06
274,9.869199141466198e-07,8.976999756840982e-07,9.758102961036062e-07,1.4430491108792895e-06,7.690803552386424e-07,9.373321296410715e-07,1.079817112472411e-06,3.6349167438289297e-06,3.04392662835367e-06,1.5071433106660236e-06,1.2968582337757162e-06,2.244022652172002e-06,9.996040392603916e-07,6.760623922864758e-07,7.390342763236232e-07,1.3046211851112235e-06
275,9.841758906775656e-07,8.976934949549603e-07,9.610069990872438e-07,1.4161645761917013e-06,7.68541416592553e-07,9.518885510580136e-07,1.079392981077373e-06,3.581200227535928e-06,2.893935324518006e-06,1.4834074883312067e-06,1.3081218727060775e-06,2.236842583291347e-06,9.827477108762405e-07,6.642033106908072e-07,7.558792756781636e-07,1.2907099886517794e-06
276,9.816347849152354e-07,8.979099471749441e-07,9.46221131258693e-07,1.3918743718670802e-06,7.678521793410707e-07,9.671970531568288e-07,1.0824357183317125e-06,3.5342528003250206e-06,2.763529330103777e-06,1.455523351148335e-06,1.3155230662229704e-06,2.2281502592212664e-06,9.663082282849092e-07,6.533989950324042e-07,7.741161780214973e-07,1.277025023888642e-06
277,9.792864926526378e-07,8.981834482311108e-07,9.310239480088297e-07,1.3697156078788119e-06,7.670536674260733e-07,9.829324196065109e-07,1.0889192746513898e-06,3.495940704144255e-06,2.6536481366106375e-06,1.4241138960595973e-06,1.3189091223322072e-06,2.218368751536252e-06,9.502163703987485e-07,6.437360686285164e-07,7.932165922856338e-07,1.2639130897580803e-06
278,9.77049254963325e-07,8.983867185442222e-07,9.150602522480047e-07,1.3490141290325257e-06,7.661185659602729e-07,9.986826041931445e-07,1.09859150734557e-06,3.4675104473615227e-06,2.5649559161595448e-06,1.3899329300558686e-06,1.3181865995484698e-06,2.2079964192392742e-06,9.344909841308692e-07,6.352951817075726e-07,8.125523919430792e-07,1.2518746683405287e-06
279,9.748374541132137e-07,8.985161681251567e-07,8.98077840036101e-07,1.3289475504674368e-06,7.649617676039155e-07,1.0140246436889915e-06,1.1110012849405359e-06,3.449665353448881e-06,2.497843583738569e-06,1.3537125823201183e-06,1.3132208107675117e-06,2.1974289928662556e-06,9.192312739185812e-07,6.281675882272832e-07,8.31521143720871e-07,1.2413483715826919e-06
280,9.72597076961812e-07,8.987729973576787e-07,8.799248727563025e-07,1.3085845807109084e-06,7.634765834495149e-07,1.0285694138165733e-06,1.1255803013020825e-06,3.442692126640651e-06,2.452412078991512e-06,1.3160652444911547e-06,1.3039421729101028e-06,2.187003803119882e-06,9.045928652361131e-07,6.224457045610899e-07,8.497034033593505e-07,1.2326253609056105e-06
281,9.703227388510732e-07,8.995209245805993e-07,8.605975824779625e-07,1.286951926222195e-06,7.615485645133237e-07,1.041954211019525e-06,1.141700086480471e-06,3.4465309379271862e-06,2.4284608567340633e-06,1.2774802406527824e-06,1.2905459959813297e-06,2.177155099362819e-06,8.90818286050995e-07,6.182489288712964e-07,8.669306510674247e-07,1.2258201180236501e-06
282,9.68068671059608e-07,9.011292938202485e-07,8.402285891924109e-07,1.2632042332968262e-06,7.590496154498676e-07,1.053824289992656e-06,1.1586580773582919e-06,3.4607932806866055e-06,2.425495658897489e-06,1.2383364464398514e-06,1.2735863658146252e-06,2.16842421678944e-06,8.78242615618409e-07,6.157656561517798e-07,8.832032268498143e-07,1.2208381297940167e-06
283,9.65923243248361e-07,9.038367845887842e-07,8.189879698096524e-07,1.236860037260849e-06,7.55867049297082e-07,1.0638497432809676e-06,1.1756752352028122e-06,3.4847813316924336e-06,2.442754365429352e-06,1.1989253206993307e-06,1.2538836351322841e-06,2.161331660589393e-06,8.672021849908852e-07,6.15238669343215e-07,8.985589090208441e-07,1.217380106977695e-06
284,9.639382138578034e-07,9.077099572752689e-07,7.970494739246519e-07,1.207965584548974e-06,7.51970749206074e-07,1.0717580344242713e-06,1.1919624401132126e-06,3.5175493796657394e-06,2.4792583114276095e-06,1.159522167461718e-06,1.2323274668242416e-06,2.156277770949133e-06,8.579277736875232e-07,6.169210987167398e-07,9.130042537005719e-07,1.2150039817092933e-06
285,9.62075620396091e-07,9.126869513168839e-07,7.746432168909311e-07,1.1770808368282117e-06,7.47444701959281e-07,1.0773439066920425e-06,1.2067713439435248e-06,3.5580089883089037e-06,2.533845218827216e-06,1.1204479342579039e-06,1.2097454199253394e-06,2.1534991202286756e-06,8.504921144191956e-07,6.21050381640295e-07,9.264753675826991e-07,1.2132645240840794e-06
286,9.602419109741024e-07,9.18672863327792e-07,7.520605812245661e-07,1.1451046183975597e-06,7.42433094286178e-07,1.0804903437454992e-06,1.219372938252208e-06,3.6050156367592043e-06,2.6051141945850748e-06,1.082062344420962e-06,1.1868849912144447e-06,2.1530237780293976e-06,8.447982266917331e-07,6.27833438704405e-07,9.387853824162346e-07,1.2118912546105388e-06
287,9.583811881517315e-07,9.2562072483349e-07,7.295758157771846e-07,1.1130443000343647e-06,7.370530976896038e-07,1.0812326018740532e-06,1.2290613459422408e-06,3.6573177981237347e-06,2.691334331028353e-06,1.044720403205664e-06,1.1643835027010558e-06,2.154664048663889e-06,8.40603046771078e-07,6.374264804763523e-07,9.496278241153032e-07,1.210871782047444e-06
288,9.56513000733028e-07,9.3353827002189e-07,7.073923812802976e-07,1.081829109754904e-06,7.31376188623641e-07,1.0797849090418653e-06,1.2352328039472807e-06,3.713387362133325e-06,2.7904387349894845e-06,1.0087564271546242e-06,1.142693232645105e-06,2.1580486590389342e-06,8.375898133694806e-07,6.498990847462563e-07,9.58709081529905e-07,1.2104025718275444e-06
289,9.546622100174612e-07,9.424411211098455e-07,6.856695954121602e-07,1.0522179089089185e-06,7.255048278131385e-07,1.0764790683789275e-06,1.2374374424369507e-06,3.7714526481316907e-06,2.9000762641467856e-06,9.7449206492145e-07,1.1220719298780002e-06,2.162608774502564e-06,8.354479341801167e-07,6.652033327811679e-07,9.659546401969054e-07,1.2107815070559957e-06
290,9.527750479590125e-07,9.523009102389548e-07,6.645568872644066e-07,1.0247986297366755e-06,7.196561862261731e-07,1.0717261945996392e-06,1.2353701170765343e-06,3.829926162058059e-06,3.01759547853329e-06,9.422400095987621e-07,1.102652777686596e-06,2.1676023792743413e-06,8.338822215344097e-07,6.831840244277415e-07,9.716251379596832e-07,1.2122755323139642e-06
291,9.507271947388893e-07,9.629894992337195e-07,6.44191166831656e-07,1.000019088517506e-06,7.141510120019298e-07,1.0660438533239153e-06,1.2288769453694886e-06,3.887837782382983e-06,3.1400200156084236e-06,9.123443162170007e-07,1.0844858365853352e-06,2.1722928736335648e-06,8.325672963186627e-07,7.036172740811028e-07,9.762463438501718e-07,1.215002512259394e-06
292,9.484009940600059e-07,9.742270028410178e-07,6.246887181803577e-07,9.78195651213093e-07,7.093126257289212e-07,1.06002162390399e-06,1.2179901452100364e-06,3.944766733345217e-06,3.2641880123732927e-06,8.852423794228943e-07,1.0674965963784165e-06,2.176106284413332e-06,8.31154176106584e-07,7.262256506498628e-07,9.804229226972228e-07,1.2189086349991733e-06
293,9.457457495578739e-07,9.855861134327863e-07,6.06138508957496e-07,9.59510385098461e-07,7.053668433125782e-07,1.0542160521177744e-06,1.2029540046562479e-06,4.000326823257722e-06,3.3869901704569256e-06,8.614394761928572e-07,1.051426145683146e-06,2.1785767906026424e-06,8.293536686790785e-07,7.506581913037284e-07,9.846700888620138e-07,1.2238175539264347e-06
294,9.427702124720215e-07,9.96582247744497e-07,5.886072495538355e-07,9.440262519423492e-07,7.02399185733272e-07,1.0491017337713968e-06,1.184253999842794e-06,4.053751470943141e-06,3.5055230853543214e-06,8.414089905157346e-07,1.035838949865496e-06,2.179213178559993e-06,8.269945991641618e-07,7.764789779832224e-07,9.893339314371888e-07,1.2294584543241442e-06
295,9.394687348871024e-07,1.00678579933505e-06,5.721786704352988e-07,9.31738902425694e-07,7.003667280865758e-07,1.0450767979037593e-06,1.1626595365963161e-06,4.103960455691789e-06,3.6172650747941576e-06,8.255409093117406e-07,1.020190693919511e-06,2.1775001609599264e-06,8.239953801847757e-07,8.031873501673201e-07,9.94594138918829e-07,1.235519002466602e-06
296,9.357365782822221e-07,1.0158427486405553e-06,5.569842665562793e-07,9.226462328762802e-07,6.991520479454408e-07,1.042436840338068e-06,1.1392175137154457e-06,4.149950565525962e-06,3.7205020039148154e-06,8.14150991283229e-07,1.003890307338918e-06,2.172963240815541e-06,8.20330480487746e-07,8.302472135775562e-07,1.0005196070020143e-06,1.2417679951884076e-06
297,9.313312145875559e-07,1.0234101641336138e-06,5.431776283076647e-07,9.167667496709888e-07,6.986172590760981e-07,1.041331906816316e-06,1.1151365567551305e-06,4.191115826267548e-06,3.814835202495712e-06,8.074855309395011e-07,9.86378729546311e-07,2.165107535448215e-06,8.160736355002333e-07,8.571036355847265e-07,1.0071200521655735e-06,1.2481006376658198e-06
298,9.258941134344723e-07,1.0291488123734548e-06,5.308766016035857e-07,9.141041069083015e-07,6.986149107264335e-07,1.041761041647273e-06,1.0916059666427846e-06,4.227204899644045e-06,3.901226414399789e-06,8.057099649318072e-07,9.672678419247283e-07,2.1533623418283488e-06,8.114379824132596e-07,8.832073747069537e-07,1.0143355164167458e-06,1.254461211314278e-06
299,9.190355399468788e-07,1.0328216119259449e-06,5.201268274293356e-07,9.146403515245114e-07,6.990085116317702e-07,1.0436018085862413e-06,1.0696559562364416e-06,4.25794416982997e-06,3.98137377782319e-06,8.088928667295741e-07,9.464455692298256e-07,2.1372840150108886e-06,8.067096061060414e-07,9.080605599209154e-07,1.022012219838799e-06,1.2608127213926361e-06
300,9.104475612350777e-07,1.0343849965733678e-06,5.109002017123243e-07,9.183785741116441e-07,6.9976035232024e-07,1.04665075623032e-06,1.0501170748270517e-06,4.282736455172214e-06,4.056953989744912e-06,8.170081145883495e-07,9.240627604878416e-07,2.116881581942851e-06,8.021372668561404e-07,9.312276093111118e-07,1.0299429008141101e-06,1.2671767928291675e-06
301,8.999659857050211e-07,1.0339866873884703e-06,5.031016956460854e-07,9.253753867898138e-07,7.01002549051165e-07,1.0506438977861207e-06,1.03364424296348e-06,4.300619618582896e-06,4.129244860802608e-06,8.299711326937954e-07,9.004560180684924e-07,2.0927661823688634e-06,7.978881516479867e-07,9.523135241867226e-07,1.0379263833410084e-06,1.2736252702543656e-06
302,8.875642134410782e-07,1.0318960259751883e-06,4.965807777114274e-07,9.357226643445643e-07,7.029968912685184e-07,1.0552512148881565e-06,1.0207322518318175e-06,4.3102232127920755e-06,4.199097054765045e-06,8.476509114219093e-07,8.76086750936384e-07,2.0660848505540365e-06,7.940929735584533e-07,9.70981489335457e-07,1.0457961468577958e-06,1.2802559695089725e-06
303,8.733344372081041e-07,1.02840972928618e-06,4.911583447065128e-07,9.494852899706591e-07,7.06051032607207e-07,1.0601145648284487e-06,1.0116964794837266e-06,4.309767764673304e-06,4.267041517818027e-06,8.698167823214777e-07,8.51529736890133e-07,2.0383264427048708e-06,7.90930390175762e-07,9.86960007987084e-07,1.0534557058391825e-06,1.2871940570473679e-06
304,8.574629094943608e-07,1.0237515825913088e-06,4.86656765722765e-07,9.66630211458502e-07,7.104838428484912e-07,1.0649691934558678e-06,1.006651375241384e-06,4.297385490987754e-06,4.333400811341625e-06,8.960778009421572e-07,8.274649691689482e-07,2.0110831548724704e-06,7.886529778015005e-07,9.999750386263544e-07,1.060897978666161e-06,1.2945524424871356e-06
305,8.401702865604513e-07,1.0179974573064218e-06,4.829390819095127e-07,9.869871916052686e-07,7.165999518571099e-07,1.0697776877873419e-06,1.0055282252092141e-06,4.271605013602243e-06,4.39859938633168e-06,9.258649040559419e-07,8.046040385147199e-07,1.9858673792529387e-06,7.875430209217749e-07,1.0097152989829964e-06,1.0681561111788344e-06,1.3023931066243617e-06
306,8.216842850286054e-07,1.0110505172115765e-06,4.799680851301005e-07,1.0102538406418025e-06,7.246296074262953e-07,1.0747872048664669e-06,1.0081370860989277e-06,4.231725345890907e-06,4.463750492658957e-06,9.5844471199477e-07,7.836000812618541e-07,1.9639838991519627e-06,7.878784458958304e-07,1.015930090648409e-06,1.0752618994322793e-06,1.3107439858294638e-06
307,8.02313327156693e-07,1.0026653663957991e-06,4.778316143895382e-07,1.0360400267671514e-06,7.346747671021624e-07,1.0804707508666814e-06,1.0142368580546222e-06,4.178038620735404e-06,4.530881212055776e-06,9.929647408335842e-07,7.650150010578175e-07,1.9464213550764546e-06,7.899036350329873e-07,1.0185619438522454e-06,1.0822733757769497e-06,1.319583912811666e-06
308,7.825214129016439e-07,9.925101121700146e-07,4.766868255646068e-07,1.063946855603232e-06,7.466863015850111e-07,1.0873832112961479e-06,1.0235951337047524e-06,4.111857951729808e-06,4.602412648859474e-06,1.028561367388911e-06,7.49314900858693e-07,1.93380186085375e-06,7.937705838685112e-07,1.0177468768799762e-06,1.0892914260670896e-06,1.3287966398984716e-06
309,7.62889762513665e-07,9.802504673830996e-07,4.7667966578124735e-07,1.0936566294861557e-06,7.604742916612026e-07,1.096021217340444e-06,1.0360469220572004e-06,4.035290995154647e-06,4.680452756957524e-06,1.0644825823368606e-06,7.368611066828008e-07,1.9263832693096177e-06,7.994978722648795e-07,1.0136809148425373e-06,1.0964053330890822e-06,1.338205194911728e-06
310,7.440122219294827e-07,9.656538641142142e-07,4.77909714058268e-07,1.1249826318394997e-06,7.757732382037063e-07,1.1067370668072327e-06,1.0515233237671071e-06,3.950816619499676e-06,4.7664208112773745e-06,1.1000943362205804e-06,7.27905617694526e-07,1.924064991483623e-06,8.069865851873554e-07,1.0065402923844294e-06,1.103614654280811e-06,1.347640332611401e-06
311,7.264217856087953e-07,9.487057173046917e-07,4.804301735925504e-07,1.1578367213513904e-06,7.923303205968608e-07,1.1196974165188545e-06,1.0700027826360703e-06,3.860799716172773e-06,4.8608880666245945e-06,1.1347841199424434e-06,7.225977493129881e-07,1.926407043114349e-06,8.160695798572151e-07,9.965602448511649e-07,1.1108089382191783e-06,1.3569407213026844e-06
312,7.10561865940412e-07,9.296825968864893e-07,4.842656447298499e-07,1.19217298666584e-06,8.09929326520466e-07,1.134880280383603e-06,1.0914220502452616e-06,3.767117066163418e-06,4.96345944517764e-06,1.1679219823244358e-06,7.210008456081122e-07,1.9327061570324133e-06,8.265569752031616e-07,9.841409474219823e-07,1.1178029836971257e-06,1.3659864200342987e-06
313,6.967639137796475e-07,9.091315698988886e-07,4.894460982579466e-07,1.22803560066586e-06,8.283587170147999e-07,1.1521033653133522e-06,1.115664682032326e-06,3.671044076028086e-06,5.072789877681006e-06,1.1989281176553554e-06,7.230980867745087e-07,1.942147910407939e-06,8.382731340551133e-07,9.698337134821729e-07,1.1243498234268781e-06,1.3748312059937566e-06
314,6.852289657851952e-07,8.877625232617937e-07,4.960179019852756e-07,1.2657279913906169e-06,8.474136031002934e-07,1.1710695121919176e-06,1.1426612884531023e-06,3.5733672149149445e-06,5.186769699987624e-06,1.2273543380287248e-06,7.287756087820197e-07,1.953996356227051e-06,8.510928464491791e-07,9.542272549836103e-07,1.1301494678382443e-06,1.3837484955129412e-06
315,6.760447489747512e-07,8.663126776421372e-07,5.040225802588095e-07,1.305996749874222e-06,8.669163057755652e-07,1.1914320740856332e-06,1.172487229553697e-06,3.474533517781452e-06,5.302743922212978e-06,1.252877717311108e-06,7.37821532838762e-07,1.9677092587329907e-06,8.649375429549355e-07,9.378380232203607e-07,1.1349061074868586e-06,1.3931295841252861e-06
316,6.692218504237204e-07,8.454830729466894e-07,5.134799425225377e-07,1.3501259195885775e-06,8.866807000079224e-07,1.2128828262469387e-06,1.2053583229067557e-06,3.374767932539406e-06,5.41769409192108e-06,1.2752143805537344e-06,7.49966457108646e-07,1.9828955970344553e-06,8.796986299294453e-07,9.210656056024369e-07,1.1383917420902246e-06,1.4034141088990928e-06
317,6.646909335248981e-07,8.259692159662875e-07,5.243750416921241e-07,1.3998938216962726e-06,9.064603398432852e-07,1.2352242858407632e-06,1.2415408784673175e-06,3.2742721653902538e-06,5.528444752177622e-06,1.2940958246815116e-06,7.64915398811632e-07,1.999257967064582e-06,8.951574406143024e-07,9.042165499751386e-07,1.1405105761318546e-06,1.4150739629889546e-06
318,6.622678132457769e-07,8.084726059085269e-07,5.366547337911808e-07,1.457436990427942e-06,9.259428122060366e-07,1.2583650450193429e-06,1.2812336595774826e-06,3.1735623917594146e-06,5.631947513235637e-06,1.3093518500745388e-06,7.823359259180425e-07,2.016719462818639e-06,9.109978681844593e-07,8.875875658870567e-07,1.141393937287066e-06,1.4285226793434547e-06
319,6.616497415207153e-07,7.936394909308421e-07,5.502607649507778e-07,1.5251254101575308e-06,9.44762949027073e-07,1.282230213207389e-06,1.324467192714272e-06,3.0737812288158945e-06,5.725574708203379e-06,1.320938182628586e-06,8.01835414222842e-07,2.0355959609841733e-06,9.269042272056926e-07,8.715433467410756e-07,1.141428984037459e-06,1.4439845526314223e-06
320,6.624547362262991e-07,7.819972516130899e-07,5.651655241382688e-07,1.6054948743841404e-06,9.62544846129776e-07,1.3066461978145197e-06,1.371050801860102e-06,2.97674241122686e-06,5.807268447141786e-06,1.3288368542092177e-06,8.229655777911907e-07,2.0565199932115216e-06,9.426570154408489e-07,8.565025583616487e-07,1.1411242189654127e-06,1.4614374857605907e-06
321,6.642600342566598e-07,7.739307029434876e-07,5.813647685759852e-07,1.70119594923837e-06,9.789832221637645e-07,1.3312691045219343e-06,1.4205626208757772e-06,2.8846707971336948e-06,5.875438119914397e-06,1.332947209729332e-06,8.452784131126009e-07,2.080136005423536e-06,9.581457989203268e-07,8.428757013304088e-07,1.1409271554486156e-06,1.4806559007906118e-06
322,6.666107359092923e-07,7.696859406866371e-07,5.988488846775022e-07,1.814898904338533e-06,9.9385803828128e-07,1.355607576905931e-06,1.4723519962433718e-06,2.799838317586263e-06,5.928612963040831e-06,1.3330431649543936e-06,8.683945363005774e-07,2.1068280399500246e-06,9.732789737594755e-07,8.310295615421088e-07,1.1411395314702379e-06,1.5013118770195827e-06
323,6.690307605746916e-07,7.693858625847082e-07,6.17590259480385e-07,1.949141833629009e-06,1.006958804400788e-06,1.379111180112991e-06,1.5255502456831828e-06,2.7242872326269913e-06,5.9649563563573625e-06,1.3288243854278003e-06,8.920121574685854e-07,2.1366258583915033e-06,9.878743345596298e-07,8.212513569773446e-07,1.141907319972846e-06,1.5230384255748364e-06
324,6.711102977446673e-07,7.730456810348961e-07,6.375452477263778e-07,2.106195139871984e-06,1.0180432702714504e-06,1.4012113234881789e-06,1.5791139005128656e-06,2.6596694211156213e-06,5.981899516147433e-06,1.320099069364821e-06,9.158995673938739e-07,2.169312056094087e-06,1.0016508283977696e-06,8.137019718592477e-07,1.1432558049275613e-06,1.5454338165546737e-06
325,6.72652331903931e-07,7.805865922848506e-07,6.58667398631609e-07,2.28803182216042e-06,1.0268938606103207e-06,1.4213126417414006e-06,1.6318774924796496e-06,2.607180997814365e-06,5.976231228127935e-06,1.3070115398626204e-06,9.399212373734771e-07,2.204707064856646e-06,1.0143145862815116e-06,8.083940952500599e-07,1.1451846067020752e-06,1.5680934369711523e-06
326,6.737224947874896e-07,7.918498326140161e-07,6.809547378402414e-07,2.496397943207785e-06,1.0334422385828328e-06,1.438863562183719e-06,1.6825504842398005e-06,2.567622687337655e-06,5.944723502223636e-06,1.2901106698984622e-06,9.640152504418578e-07,2.242907267913122e-06,1.0256043708314792e-06,8.0520581557622e-07,1.147766533317555e-06,1.5906583600914148e-06
327,6.745293655346268e-07,8.066077089579635e-07,7.045182618967529e-07,2.7329112712523858e-06,1.0378836919888331e-06,1.453498002001616e-06,1.729694483087691e-06,2.541560349641173e-06,5.885009054393589e-06,1.2701940566434022e-06,9.881209219928133e-07,2.2842241334158172e-06,1.0352440380097599e-06,8.039246437107592e-07,1.1511877734273414e-06,1.612785607021566e-06
328,6.752745969549807e-07,8.245639791994638e-07,7.295958122244855e-07,2.9991505488810657e-06,1.0406745632092461e-06,1.4650968569802735e-06,1.7718268658303494e-06,2.52945014543325e-06,5.796378431642199e-06,1.2481451699595086e-06,1.0121998012390298e-06,2.3289577590339786e-06,1.0429155577562137e-06,8.043168939627505e-07,1.1557483322478401e-06,1.6340246040410127e-06
329,6.761086130356644e-07,8.453336351710022e-07,7.564767472449219e-07,3.296744402158213e-06,1.0424064652217945e-06,1.4737269896140651e-06,1.8076964991737684e-06,2.531621288251533e-06,5.680299237457376e-06,1.2249074980265195e-06,1.0363357826368048e-06,2.377272369746181e-06,1.048314754561793e-06,8.061832065789715e-07,1.161846607936872e-06,1.6537060416694378e-06
330,6.771574652227682e-07,8.684102279171201e-07,7.854146866250142e-07,3.627445667604082e-06,1.0436685384265813e-06,1.4795480293242745e-06,1.8365712063893995e-06,2.54813347750966e-06,5.540465928127144e-06,1.2014323235863252e-06,1.0607592627059311e-06,2.4291632470222094e-06,1.051186866053323e-06,8.093396490881175e-07,1.1699183279062847e-06,1.6710009386415357e-06
331,6.785315837196264e-07,8.931696758524046e-07,8.166013501941864e-07,3.9931212293285876e-06,1.0449680161030189e-06,1.482761732627512e-06,1.8583078760260065e-06,2.5786203097148823e-06,5.382221023763198e-06,1.1785422944145793e-06,1.0857813671579688e-06,2.4844934246926256e-06,1.0512988402652058e-06,8.135540492584129e-07,1.1803510514472467e-06,1.6851618406587488e-06
