,EMG1,EMG2,EMG3,EMG4,EMG5,EMG6,EMG7,EMG8,EMG9,EMG10,EMG11,EMG12,EMG13,EMG14,EMG15,EMG16
0,-6.295532259745137e-08,1.1404502656784217e-08,6.853389958304408e-08,3.8188745960129e-07,-1.2823943733781885e-07,1.5751895463341514e-07,2.7402568686931663e-07,2.08909151876778e-06,-3.736964515272638e-07,2.120472993333514e-07,3.171047310849442e-07,-1.2945606107440044e-06,1.3270723034799683e-07,1.609022540570746e-07,3.172981710727089e-07,5.500340012843243e-07
1,8.361437299437587e-08,5.3744786093720186e-08,1.5963826011618516e-07,5.046185149055065e-07,1.8312281450854977e-08,2.328266089683334e-07,3.521718614788016e-07,2.4352853207447773e-06,4.628710213211096e-07,3.408666756760637e-07,4.397842575707054e-07,-1.2201305896073388e-06,2.2299665694107072e-07,2.599706024114234e-07,4.229122377732452e-07,6.62405955378794e-07
2,2.431279659422416e-07,9.76579555044131e-08,2.4820192397692196e-07,6.259808334760957e-07,1.555706658572629e-07,3.056462185991737e-07,4.29856893232386e-07,2.79188559848844e-06,1.2669925071495843e-06,4.644910106923429e-07,5.561490572820861e-07,-1.1440001737664721e-06,3.105992760601854e-07,3.5594701972708233e-07,5.285546285510958e-07,7.755658495331157e-07
3,4.1679715272550894e-07,1.428770734203052e-07,3.3266861024027764e-07,7.459047467021706e-07,2.827677742009918e-07,3.7459974472148245e-07,5.061806780162315e-07,3.157150187882833e-06,2.025774992066148e-06,5.820360735906943e-07,6.654554766363567e-07,-1.0653357698143549e-06,3.947078006396785e-07,4.478963609925961e-07,6.330195451003414e-07,8.874087261604635e-07
4,6.058734075903888e-07,1.89241338978141e-07,4.116144050133482e-07,8.64362525971736e-07,3.9921582944391785e-07,4.385161219672021e-07,5.805051403558416e-07,3.5288952750074087e-06,2.7270567796502195e-06,6.926222165505734e-07,7.672955582233654e-07,-9.82522826365319e-07,4.7454812451916163e-07,5.348979199719839e-07,7.351012406005943e-07,9.963704625693195e-07
5,8.116919804458333e-07,2.3673154633812298e-07,4.837496713162927e-07,9.813146420476522e-07,5.042845851415753e-07,4.96399023845667e-07,6.524216442551961e-07,3.90445050001674e-06,3.360170762674113e-06,7.9533208077947e-07,8.614708864493805e-07,-8.931171027573063e-07,5.494357144997569e-07,6.160191488878417e-07,8.337000493690696e-07,1.101451987585923e-06
6,1.0357060461715799e-06,2.8544467238232574e-07,5.48023966008709e-07,1.096630227357756e-06,5.974492182893527e-07,5.474583289269795e-07,7.216060080175239e-07,4.28071168789509e-06,3.916946479862929e-06,8.891964506268153e-07,9.478120006276769e-07,-7.939580558572507e-07,6.188080295180904e-07,6.903375942046179e-07,9.279314808864499e-07,1.2020240722702187e-06
7,1.2794500505107097e-06,3.355401128385145e-07,6.038215551569426e-07,1.2100178120720775e-06,6.783748371444197e-07,5.912154530411061e-07,7.876732925816325e-07,4.654112199470175e-06,4.3926099454116394e-06,9.732874496935071e-07,1.026069308419746e-06,-6.813488399628888e-07,6.821799513396556e-07,7.570398987176506e-07,1.0171676255978589e-06,1.2976610529984865e-06
8,1.5444822471187242e-06,3.872025699239108e-07,6.510790140383801e-07,1.3210438233296176e-06,7.470171897810245e-07,6.275629482584039e-07,8.501260147336301e-07,5.02043032796798e-06,4.786271878258768e-06,1.0468920455367541e-06,1.0958819787838557e-06,-5.511479722215403e-07,7.391022115395119e-07,8.155471439130029e-07,1.1009884294217413e-06,1.3881397959950754e-06
9,1.8324042475532284e-06,4.4062657722022345e-07,6.902164502171398e-07,1.4292728088934574e-06,8.037643920299296e-07,6.567021067495326e-07,9.083886233621048e-07,5.374608885185553e-06,5.100783773269237e-06,1.1096512331838838e-06,1.1568694808031136e-06,-3.9870277595917333e-07,7.892158756883527e-07,8.65566140696052e-07,1.1790739903187586e-06,1.4734511388386985e-06
10,2.144892955670859e-06,4.960130407748218e-07,7.219473195404805e-07,1.5344488619215612e-06,8.49604639912989e-07,6.790213382215834e-07,9.61866797979778e-07,5.710846444556937e-06,5.3419011920912785e-06,1.1616089393216035e-06,1.208842681264786e-06,-2.1872571992866727e-07,8.323319060563418e-07,9.07069548708081e-07,1.2511269389790535e-06,1.5536820659013573e-06
11,2.4836040960346515e-06,5.535661833649851e-07,7.470832026333328e-07,1.636584891395446e-06,8.862438214640949e-07,6.950171117550253e-07,1.010002464870543e-06,6.0231474598877366e-06,5.51706010564216e-06,1.203177710533933e-06,1.2519290370066573e-06,-5.288977590044696e-09,8.68418996924247e-07,9.403008756145941e-07,1.3168979406336763e-06,1.6288528985197443e-06
12,2.8499673119961014e-06,6.13485161090035e-07,7.663965677602406e-07,1.7358761497041658e-06,9.161149128710017e-07,7.052613839481229e-07,1.0523505528327804e-06,6.306223322135389e-06,5.634317737478252e-06,1.2349999340944575e-06,1.286467299838068e-06,2.480435527538098e-07,8.975339611305911e-07,9.657818631977717e-07,1.3762251588687448e-06,1.6988262689298918e-06
13,3.244984316044246e-06,6.759416367665189e-07,7.805778061561102e-07,1.832473741713089e-06,9.422680311322259e-07,7.103541813758353e-07,1.088687437168258e-06,6.556320089430479e-06,5.701744958154143e-06,1.2577387792737424e-06,1.3128090529076335e-06,5.480408000143252e-07,9.198242982978349e-07,9.842366324638096e-07,1.42894615685526e-06,1.7632794776738102e-06
14,3.669072432416461e-06,7.410327933012691e-07,7.902885337413011e-07,1.9262662096752884e-06,9.681514346398433e-07,7.108671501999402e-07,1.1190628599223942e-06,6.771599812018587e-06,5.7271186928073954e-06,1.2719399043992555e-06,1.3312415528657748e-06,9.016113899582206e-07,9.355948945837712e-07,9.965211042248083e-07,1.4747530055428913e-06,1.8217391212263873e-06
15,4.121968984311829e-06,8.087314247370608e-07,7.962281316054763e-07,2.016791960242379e-06,9.973452730535227e-07,7.073270145324246e-07,1.1437102906468255e-06,6.952033657869558e-06,5.717656274082208e-06,1.2780251525205247e-06,1.3420779650141792e-06,1.3156215629810016e-06,9.453021486569828e-07,1.0036466003021587e-06,1.5131778037008467e-06,1.8736997889193037e-06
16,4.602712244418598e-06,8.788729976731934e-07,7.991191298182128e-07,2.1032928351261937e-06,1.0333871606278224e-06,7.002324524500344e-07,1.1629159654879877e-06,7.098985839959737e-06,5.679740781095773e-06,1.2763732607275602e-06,1.3458080590896013e-06,1.7967821587179015e-06,9.495112854096546e-07,1.0067678325177925e-06,1.5436824959129949e-06,1.9187352382650604e-06
17,5.109630557500761e-06,9.511925469998118e-07,7.996280902807949e-07,2.1848808824336393e-06,1.0798388921367072e-06,6.900920627589771e-07,1.1769885027141006e-06,7.2145497887345375e-06,5.618826613978196e-06,1.2674698946449845e-06,1.3431966063320878e-06,2.351566103555738e-06,9.489337268866538e-07,1.0070493290487027e-06,1.5657053985863113e-06,1.956532972513011e-06
18,5.6402439293935055e-06,1.025365612687141e-06,7.983205246022729e-07,2.260781875790697e-06,1.1406223306209946e-06,6.774897814160828e-07,1.1862765424761892e-06,7.30070546971271e-06,5.5395950725410315e-06,1.252060871133407e-06,1.3352749174093383e-06,2.986084424595987e-06,9.444394641556725e-07,1.0055243654919918e-06,1.5787441635248708e-06,1.986935432506704e-06
19,6.191104726491468e-06,1.100986965770692e-06,7.956952308781436e-07,2.330571336413277e-06,1.2204357503616895e-06,6.631283709602054e-07,1.1911419360408712e-06,7.358845604865594e-06,5.446064927006005e-06,1.2311886270039765e-06,1.3232223436864782e-06,3.705937330290382e-06,9.369393617299695e-07,1.0030477546227824e-06,1.5825622091898401e-06,2.0100199742805234e-06
20,6.757686140172841e-06,1.1775034681791765e-06,7.92236400841625e-07,2.3943287447982788e-06,1.324954855229006e-06,6.477904903946439e-07,1.1919193608098644e-06,7.390115129333174e-06,5.341472071001331e-06,1.206103987236678e-06,1.3081987715849859e-06,4.5160734420053734e-06,9.272500888191756e-07,1.0003274802074512e-06,1.577313473068011e-06,2.026119789387927e-06
21,7.334360886812724e-06,1.2541740061892978e-06,7.884043157163208e-07,2.4527100626915652e-06,1.460679919601323e-06,6.322459023024361e-07,1.1888917913895684e-06,7.396117061196853e-06,5.228190697413725e-06,1.1781299172341252e-06,1.2912310609603099e-06,5.420639865811374e-06,9.160661842238175e-07,9.979637026820765e-07,1.563465222890839e-06,2.0357612766182567e-06
22,7.914406008117713e-06,1.3300971505651446e-06,7.845725209475274e-07,2.5069286033845637e-06,1.6345520811714652e-06,6.171849385771215e-07,1.182256161269872e-06,7.3793686946882975e-06,5.107940557164151e-06,1.14853825867189e-06,1.2731862568405636e-06,6.4227879379248375e-06,9.040263079572438e-07,9.964416695742146e-07,1.541675122539095e-06,2.039608363924419e-06
23,8.489901128039414e-06,1.404306877431416e-06,7.80974719972725e-07,2.5585572210258414e-06,1.8535821582586157e-06,6.032019565750402e-07,1.1720991143420507e-06,7.343420444707716e-06,4.982059839298405e-06,1.1184796730592883e-06,1.2547607829321808e-06,7.524431490253766e-06,8.917770989994666e-07,9.961073265344172e-07,1.5127274734512432e-06,2.0384387298663995e-06
24,9.05148862866955e-06,1.4758850473810742e-06,7.776919062792492e-07,2.60916572247225e-06,2.124661456749042e-06,5.907886201055247e-07,1.1584538974931978e-06,7.292668555053119e-06,4.851494843156636e-06,1.0889638268245871e-06,1.2364516524253563e-06,8.725985617969905e-06,8.799617048841319e-07,9.971854696399532e-07,1.477486105518197e-06,2.0330580205821186e-06
25,9.588305590385154e-06,1.544033096920561e-06,7.746862413245223e-07,2.6600415578143547e-06,2.454543481636955e-06,5.803176775144541e-07,1.141440881288644e-06,7.231792758159288e-06,4.716548229255589e-06,1.0608466417514217e-06,1.218543330891106e-06,1.0026110222921331e-05,8.691670279888076e-07,9.998351059355129e-07,1.4368218165096401e-06,2.0241188062028484e-06
26,1.0088503262056837e-05,1.6081007286471563e-06,7.718802327233011e-07,2.7121713646607924e-06,2.8498471641601665e-06,5.720350613252196e-07,1.1213943224580933e-06,7.165033183556715e-06,4.576778546675615e-06,1.0348056315398275e-06,1.201108769085072e-06,1.1421562866604144e-05,8.599069916210988e-07,1.0041925259469284e-06,1.3915603245475374e-06,2.0119765145581686e-06
27,1.0540344833180757e-05,1.667574486102824e-06,7.69245076010377e-07,2.7663436128637884e-06,3.316958470616336e-06,5.660663982376386e-07,1.0989005626273654e-06,7.095843069318724e-06,4.431286346422905e-06,1.011318457377867e-06,1.1840192898064529e-06,1.2907340962617007e-05,8.526377227491149e-07,1.0103656782636143e-06,1.3425459040641985e-06,1.996676530794315e-06
28,1.0933463796526543e-05,1.7220040347753414e-06,7.668654045695308e-07,2.8231814716256424e-06,3.861838968285569e-06,5.624436787265118e-07,1.0747706773330734e-06,7.02705633582057e-06,4.279202174072066e-06,9.906604765853445e-07,1.1670109221991265e-06,1.4477102095715976e-05,8.477748598645372e-07,1.0183746284321242e-06,1.290787016906185e-06,1.978017483108585e-06
29,1.1259834522978074e-05,1.7708727739394346e-06,7.649804527677262e-07,2.883092603044536e-06,4.489812993582163e-06,5.611705692175357e-07,1.0499912694970062e-06,6.961072062465239e-06,4.120088152475483e-06,9.729409665173122e-07,1.1498324253282168e-06,1.6123511143559846e-05,8.457090418198885e-07,1.0280829626482904e-06,1.2374983811662213e-06,1.9556652447854218e-06
30,1.1514148518518119e-05,1.8134754157599888e-06,7.639887992220288e-07,2.946216269749882e-06,5.205362673938333e-06,5.623011257110027e-07,1.0256421117806507e-06,6.899670814084306e-06,3.954178415750128e-06,9.58170214694184e-07,1.1324022819231688e-06,1.7838032391159814e-05,8.46785217436703e-07,1.0391726063458295e-06,1.1839629941481323e-06,1.929330373955034e-06
31,1.1693408276271538e-05,1.8489053403406016e-06,7.643893517095357e-07,3.0124352688612506e-06,6.011923162018346e-06,5.659608537251336e-07,1.0027684724868313e-06,6.843617616924078e-06,3.7825244100320064e-06,9.463240035234342e-07,1.11487395410289e-06,1.961011806910881e-05,8.512550401352555e-07,1.0511515906647122e-06,1.1313488865207888e-06,1.8989356763762397e-06
32,1.1795751485737473e-05,1.876227234815016e-06,7.666853699509034e-07,3.081448030714727e-06,6.911684632973069e-06,5.722982758255141e-07,9.82261417950764e-07,6.792474545509679e-06,3.607034692679463e-06,9.374007468216377e-07,1.0975958675398275e-06,2.142668221891444e-05,8.592694814057138e-07,1.0633769903090478e-06,1.080610714002201e-06,1.8646882626314157e-06
33,1.1819207756000219e-05,1.8947527904026986e-06,7.71340052536788e-07,3.1528328811995845e-06,7.90542476702538e-06,5.814535429077995e-07,9.648013349065978e-07,6.744856785447665e-06,3.4302856319156385e-06,9.314369236947667e-07,1.0810208181433318e-06,2.3272905800126383e-05,8.709130443333307e-07,1.0751225953148671e-06,1.0324713124266676e-06,1.8270422312413587e-06
34,1.1761687470441925e-05,1.9042213541648443e-06,7.78812810294599e-07,3.2260696620485233e-06,8.992381112522273e-06,5.93595167902175e-07,9.508553434986223e-07,6.6989259792212686e-06,3.25509749310725e-06,9.284342276945082e-07,1.0656174791490827e-06,2.513404625704011e-05,8.862334209463137e-07,1.085702986271731e-06,9.874410062196485e-07,1.7865782119903088e-06
35,1.162255884263677e-05,1.9048159079278784e-06,7.895853330609216e-07,3.3005688516966e-06,1.0170110423342759e-05,6.089506655811014e-07,9.407059461439369e-07,6.6527747300186505e-06,3.0841142201588963e-06,9.282703427160061e-07,1.051812517834142e-06,2.699667889336909e-05,9.052418939252892e-07,1.0946117689584963e-06,9.458507766795689e-07,1.7439044373302368e-06
36,1.1404529778983044e-05,1.8971208032991938e-06,8.041074339812669e-07,3.3757853903691828e-06,1.143423503803721e-05,6.277614084648354e-07,9.344901885818919e-07,6.6045841099388624e-06,2.919620750969841e-06,9.306991331893228e-07,1.0399508794065457e-06,2.8848078506610286e-05,9.278761397540342e-07,1.1016003800792165e-06,9.078755570178118e-07,1.6997204961798156e-06
37,1.111444055396624e-05,1.882098139661951e-06,8.227151002691779e-07,3.4514366689283923e-06,1.277806712657427e-05,6.50210488969262e-07,9.32210166746106e-07,6.552591232347761e-06,2.7635611814818823e-06,9.354078869855637e-07,1.0302572498384275e-06,3.067388800289426e-05,9.539437938310323e-07,1.106625755215327e-06,8.735670875090386e-07,1.6549679111339439e-06
38,1.0762686758641012e-05,1.8610252507253731e-06,8.455913639785883e-07,3.5277209339486326e-06,1.419223363312252e-05,6.763972404923289e-07,9.337143337545383e-07,6.4948480224323154e-06,2.6175600722135312e-06,9.420282547680842e-07,1.0228361978931987e-06,3.245585146465117e-05,9.831007155573328e-07,1.109687677680554e-06,8.429220693376671e-07,1.610834174501089e-06
39,1.0361792895629514e-05,1.8353216883303678e-06,8.727632746993575e-07,3.6053167513378343e-06,1.566440271535481e-05,7.063518297489763e-07,9.386822490451512e-07,6.4288653989154415e-06,2.4829064971856516e-06,9.501023190757033e-07,1.0177269173502798e-06,3.4171492803582855e-05,1.0148867952747384e-06,1.110713229165793e-06,8.159469783603824e-07,1.5685862335473303e-06
40,9.924814442963314e-06,1.8063201232065122e-06,9.040994298769869e-07,3.6850516223806928e-06,1.717911368249723e-05,7.400613971257423e-07,9.466183477770168e-07,6.351658141165271e-06,2.360621432142738e-06,9.59075937546223e-07,1.0149348635018162e-06,3.579579091454748e-05,1.048761633531616e-06,1.109585175603618e-06,7.926926049532432e-07,1.5293903027353753e-06
41,9.46404841978908e-06,1.775109074795399e-06,9.393096092550959e-07,3.767459428320613e-06,1.8717660451149507e-05,7.775145785122818e-07,9.568437409335154e-07,6.2605359323039e-06,2.251572241868464e-06,9.683277242114134e-07,1.0143914486008162e-06,3.7303442671477957e-05,1.0841110625694145e-06,1.1062036051857521e-06,7.732679338043653e-07,1.494198044141536e-06
42,8.990259945930099e-06,1.742479336463274e-06,9.779668322139622e-07,3.852533021963427e-06,2.0257979024513612e-05,8.187484395229547e-07,9.684950971140185e-07,6.154078371024991e-06,2.156453434929474e-06,9.772141676080894e-07,1.0159008194335703e-06,3.8670407545388815e-05,1.1202869911221614e-06,1.1004888989591717e-06,7.578162172849663e-07,1.4636950076151258e-06
43,8.512398413449688e-06,1.7089040710699475e-06,1.0195299385720777e-06,3.939697128358414e-06,2.1774720227449388e-05,8.638461042971348e-07,9.805925823388311e-07,6.032436739738755e-06,2.075658008765556e-06,9.851223559858913e-07,1.0191162453058772e-06,3.987410836365197e-05,1.1566912805207692e-06,1.0923712554771802e-06,7.464506888879909e-07,1.4382798134123223e-06
44,8.037579348980563e-06,1.674533412976546e-06,1.0633356802973605e-06,4.0278796734429e-06,2.3240212822113358e-05,9.128707222944789e-07,9.922423794082357e-07,5.896769056984796e-06,2.009247959444944e-06,9.914813831117788e-07,1.0235376307660978e-06,4.0892220102402695e-05,1.1928525471105814e-06,1.0817748371303555e-06,7.391956218235379e-07,1.4180390691734946e-06
45,7.571107047379518e-06,1.6392399913298505e-06,1.108604567644618e-06,4.11563025337324e-06,2.46270898981627e-05,9.657882540375582e-07,1.002908198447412e-06,5.748417360718964e-06,1.957105036829771e-06,9.957247972361146e-07,1.028574108256546e-06,4.170029578936045e-05,1.2285124710900872e-06,1.0686037738541049e-06,7.359584176776094e-07,1.4027306644059647e-06
46,7.116556622642585e-06,1.602712908070703e-06,1.1544886422691149e-06,4.2012181264427115e-06,2.5912073722745846e-05,1.022423148844678e-06,1.0125644668329139e-06,5.588593294290542e-06,1.9191515864338957e-06,9.973096176545572e-07,1.033681457067808e-06,4.2269618295141145e-05,1.2636992818595454e-06,1.0528218494263698e-06,7.365350556440884e-07,1.391798542821668e-06
47,6.6760403514516545e-06,1.564602356948325e-06,1.2001133100984597e-06,4.2826448023319e-06,2.7078646644350144e-05,1.0824322964641337e-06,1.021634069600337e-06,5.418632110668117e-06,1.8954420042687477e-06,9.958170932578001e-07,1.0384399545796121e-06,4.25686307371812e-05,1.2986565897006279e-06,1.0345988496594092e-06,7.406537441947477e-07,1.384418168641362e-06
48,6.250593641411632e-06,1.5247278369340029e-06,1.2446417272140617e-06,4.3576619652593545e-06,2.8116254823835047e-05,1.1452945185762347e-06,1.0308054565504819e-06,5.240301004156289e-06,1.8860154834600227e-06,9.909899160490853e-07,1.0424916259662835e-06,4.256983134867268e-05,1.333626652208369e-06,1.0143299047563532e-06,7.480110308530766e-07,1.3796072590720728e-06
49,5.840515594125547e-06,1.4832711205449417e-06,1.2873842907131676e-06,4.4239610339874455e-06,2.9016393269535984e-05,1.2103580160041005e-06,1.0408569451137797e-06,5.05585262205854e-06,1.890659375144713e-06,9.826584622910552e-07,1.0454582284410023e-06,4.2258465389933365e-05,1.3686771461234278e-06,9.924736663244035e-07,7.58256353197601e-07,1.376424731325991e-06
50,5.445617898638641e-06,1.4408293232929078e-06,1.3278176236686238e-06,4.479563403657742e-06,2.976928408831401e-05,1.2769502983261326e-06,1.0525322092347685e-06,4.867862628786463e-06,1.9088130230973984e-06,9.707139218960337e-07,1.0469535898592524e-06,4.1636495707408985e-05,1.4036793216210605e-06,9.693932549166405e-07,7.709875882522257e-07,1.3741686946305771e-06
51,5.065424519307651e-06,1.3982903304358413e-06,1.3654870287186103e-06,4.5232519361703355e-06,3.036420667323509e-05,1.344460204762306e-06,1.0664789712281245e-06,4.678987333842334e-06,1.93968453358559e-06,9.552125312342845e-07,1.0466403298946785e-06,4.0718731157807766e-05,1.4383706335768203e-06,9.453401843854152e-07,7.858194741605813e-07,1.3724388055769997e-06
52,4.699347181758908e-06,1.356612860614272e-06,1.3999838041135853e-06,4.554796756240389e-06,3.079232189163284e-05,1.4123034784129857e-06,1.0832436215994518e-06,4.491726771074922e-06,1.9825039502257536e-06,9.364799913474923e-07,1.0442495810605684e-06,3.952496595210124e-05,1.472420431997623e-06,9.20522944428053e-07,8.024543548664239e-07,1.3710267273747542e-06
53,4.346847755686959e-06,1.316671047464173e-06,1.431053645199883e-06,4.5747959037278e-06,3.104918902803176e-05,1.4798286967577918e-06,1.103271419050552e-06,4.308179115472084e-06,2.036720910406338e-06,9.150787104829503e-07,1.039542592895557e-06,3.8076116351639856e-05,1.5054777582862114e-06,8.951454630921064e-07,8.206561643900677e-07,1.3697555588236749e-06
54,4.00761942688537e-06,1.2792264035363401e-06,1.4586617269889978e-06,4.584200453748681e-06,3.1135936563994414e-05,1.5463157059816676e-06,1.1268730120876204e-06,4.129802141790684e-06,2.1019766753447e-06,8.916814044025301e-07,1.0322496878952598e-06,3.6397080578332754e-05,1.537196183894536e-06,8.693823071465316e-07,8.40147033537739e-07,1.36839601872473e-06
55,3.6817842650788266e-06,1.244919289640483e-06,1.482907365653258e-06,4.583863660886705e-06,3.105940442283472e-05,1.6111102086250587e-06,1.1541770017922428e-06,3.957356509376896e-06,2.177916542455762e-06,8.669861594421319e-07,1.0220816730036607e-06,3.4520752706818344e-05,1.567213423963543e-06,8.433509506452092e-07,8.605281199263594e-07,1.3666686935069535e-06
56,3.3700051219618324e-06,1.2142369517494891e-06,1.5038736988675722e-06,4.5744138128172745e-06,3.0831632737426646e-05,1.6737838280463259e-06,1.1851031568904598e-06,3.7911864235180816e-06,2.2640614410413935e-06,8.41700818146574e-07,1.0088560278955637e-06,3.248798986874487e-05,1.5950724362951096e-06,8.171630880635212e-07,8.812845011261114e-07,1.3643386387802414e-06
57,3.0733905792855466e-06,1.187505996493271e-06,1.5215462674232365e-06,4.55638869392973e-06,3.0468808279125505e-05,1.7342031861682952e-06,1.2193577452994122e-06,3.6317190187699585e-06,2.35981219569869e-06,8.165517195050192e-07,9.926293527055814e-07,3.0343900948797636e-05,1.6201586134193938e-06,7.910273518134192e-07,9.01830280039145e-07,1.3613631523910397e-06
58,2.7932156482898447e-06,1.1648716831239626e-06,1.535850583695818e-06,4.530288543959333e-06,2.9989709684201607e-05,1.7924609523132455e-06,1.256448328111049e-06,3.479885550757254e-06,2.4644446978987895e-06,7.923080723961163e-07,9.73711348634907e-07,2.813314778358084e-05,1.6417715402960812e-06,7.652723871281489e-07,9.21519851741434e-07,1.3579333651090466e-06
59,2.5306459377171075e-06,1.1462513540231215e-06,1.5467486434380083e-06,4.496386835699587e-06,2.941372880449306e-05,1.848687710501241e-06,1.2957173015276074e-06,3.3372581138119897e-06,2.57699473814141e-06,7.697750994482026e-07,9.525613514937052e-07,2.5896339094081482e-05,1.659287827664391e-06,7.402567607993105e-07,9.396565739878577e-07,1.3543551716150988e-06
60,2.286625540696245e-06,1.1313511644197368e-06,1.5542929529164125e-06,4.454656746431558e-06,2.8758525921919744e-05,1.9028518770205508e-06,1.3363598938447918e-06,3.2058855017207894e-06,2.696120776660912e-06,7.497149701792884e-07,9.29653264824872e-07,2.366836950591519e-05,1.672207530464604e-06,7.162856343903548e-07,9.555782528434103e-07,1.3509200054750746e-06
61,2.0618874482078135e-06,1.119774531685628e-06,1.5586054473497216e-06,4.405199794754675e-06,2.8037832536322602e-05,1.9546539876339645e-06,1.3774190258115044e-06,3.0879662416185587e-06,2.820025125709655e-06,7.327617385031596e-07,9.054126991489156e-07,2.1478258605771952e-05,1.680033869753129e-06,6.93621886685718e-07,9.687957384218355e-07,1.3479037214348471e-06
62,1.8569386206512407e-06,1.111136194632776e-06,1.5598374889001086e-06,4.348916932003475e-06,2.726060219416143e-05,2.003501054689227e-06,1.4178290947797053e-06,2.9855561289378378e-06,2.9464529360493105e-06,7.193894167980476e-07,8.802521697279795e-07,1.934959126395037e-05,1.682224048361417e-06,6.725326759168552e-07,9.790928922814404e-07,1.3456156275141135e-06
63,1.6719860914334838e-06,1.1050955959687755e-06,1.558163164043887e-06,4.28787878644285e-06,2.643201115403755e-05,2.0485241497031896e-06,1.4565511544180148e-06,2.900424943631587e-06,3.0729092489506923e-06,7.099159547457305e-07,8.546005244509734e-07,1.7301202324545886e-05,1.6783892979007705e-06,6.532945268875617e-07,9.865146694180698e-07,1.3443570375736104e-06
64,1.506905223298128e-06,1.1013135074253417e-06,1.5537859179138593e-06,4.225232588282498e-06,2.555527449952711e-05,2.088681559842022e-06,1.4927290843923577e-06,2.8340022611965683e-06,3.1971765415440493e-06,7.04526772617723e-07,8.288687493672194e-07,1.5348021863769397e-05,1.6685802113058682e-06,6.361771977846058e-07,9.912466359531865e-07,1.3443575235131177e-06
65,1.361313413080273e-06,1.0993844630153634e-06,1.5468962492276048e-06,4.164813399872595e-06,2.4633154038486915e-05,2.122956917271937e-06,1.5257727653163408e-06,2.7872995360870542e-06,3.3178580742008834e-06,7.033156305347482e-07,8.034198246704185e-07,1.3501731136345751e-05,1.653366740626967e-06,6.214332600602071e-07,9.935150027648437e-07,1.3457770702404328e-06
66,1.2346672759309265e-06,1.0987870247978548e-06,1.5375823056317597e-06,4.110659515299077e-06,2.366894024676917e-05,2.1505541769898787e-06,1.555342457658826e-06,2.7608502123669333e-06,3.434536304083904e-06,7.063154528666107e-07,7.785725717522579e-07,1.1771004655082744e-05,1.6336406629061891e-06,6.092920739037798e-07,9.936007776334191e-07,1.3486846380981807e-06
67,1.1262688576444927e-06,1.098922761077008e-06,1.5258191292067117e-06,4.0665875988462235e-06,2.2667027810766607e-05,2.170984882883851e-06,1.5812531164490382e-06,2.754750866861556e-06,3.5474443124036963e-06,7.135002681332317e-07,7.546117690029955e-07,1.016165123166289e-05,1.6103333007365696e-06,5.999682168000954e-07,9.918672544770576e-07,1.3529862916945905e-06
68,1.0352051425968472e-06,1.0992854904617768e-06,1.5116135077821968e-06,4.035953286106827e-06,2.163315060895289e-05,2.184036511325389e-06,1.6033252475193e-06,2.7687333343390256e-06,3.6569030164545022e-06,7.247752897586785e-07,7.318122416654016e-07,8.677030606601358e-06,1.58426793686279e-06,5.93666491315788e-07,9.88696291458152e-07,1.358383650427355e-06
69,9.603187934782643e-07,1.0996472504978046e-06,1.4951776614620201e-06,4.021626100320306e-06,2.057437360551743e-05,2.1896888925704525e-06,1.6212384613040341e-06,2.802198896708181e-06,3.7628718623724995e-06,7.399679257442788e-07,7.104625080546795e-07,7.318649865742516e-06,1.5561687130073645e-06,5.905582755681765e-07,9.843893286001503e-07,1.3644205845411814e-06
70,9.002287339656525e-07,1.1001010648766462e-06,1.4769763840177162e-06,4.026028914275286e-06,1.9498986442652025e-05,2.188040079921685e-06,1.634481108257018e-06,2.8542518211527247e-06,3.86491067764346e-06,7.588251458611213e-07,6.908487331519224e-07,6.0866589793759675e-06,1.5267034320046639e-06,5.907416480944042e-07,9.791179659290547e-07,1.370681065720968e-06
71,8.533825597399807e-07,1.1009377531674262e-06,1.4576347028244099e-06,4.051070628997581e-06,1.8416389309370512e-05,2.1792291154058847e-06,1.6424579628556156e-06,2.9237411420661376e-06,3.962563956839685e-06,7.810335248269308e-07,6.732317627174182e-07,4.980176907932017e-06,1.4964632565602548e-06,5.942119609929035e-07,9.72949400917724e-07,1.3770438917637232e-06
72,8.181331029306997e-07,1.1024640494573336e-06,1.437775789106598e-06,4.09804814763738e-06,1.7336922457459595e-05,2.163311872040256e-06,1.6446884160821222e-06,3.0092932826516827e-06,4.055685291091991e-06,8.062679888150271e-07,6.578419075920686e-07,3.997535728450357e-06,1.465877348895549e-06,6.008555652265167e-07,9.659323984444898e-07,1.383727774343998e-06
73,7.927982040967988e-07,1.1048777596010303e-06,1.4178746927592216e-06,4.167690547966489e-06,1.627147896324986e-05,2.140152644858482e-06,1.6409029364181313e-06,3.1093850880293018e-06,4.144265300840678e-06,8.342440447462685e-07,6.448596971709583e-07,3.1365611647355866e-06,1.43517209273383e-06,6.104514345886834e-07,9.581849471886172e-07,1.3910911590674913e-06
74,7.75710802372676e-07,1.1082493464617942e-06,1.3982051251085056e-06,4.2603097181436725e-06,1.5230765818811825e-05,2.1094682108853506e-06,1.6309254186076085e-06,3.222506837771373e-06,4.227984342493237e-06,8.64731757385272e-07,6.343936137957195e-07,2.3949967731437673e-06,1.4044719573607912e-06,6.226655460102614e-07,9.499238671171416e-07,1.399418126511479e-06
75,7.653609968828766e-07,1.112601125208699e-06,1.3788919098959385e-06,4.375939390343536e-06,1.4224260797759226e-05,2.0710264671805486e-06,1.6144846722554366e-06,3.3473546915991293e-06,4.305967120033541e-06,8.975243953146971e-07,6.264751072263518e-07,1.7710420190670172e-06,1.3739475935496643e-06,6.370500458053958e-07,9.414188697581292e-07,1.408834234855041e-06
76,7.606359207459983e-07,1.1179906322672582e-06,1.359989401029531e-06,4.514414743981171e-06,1.3259184345374865e-05,2.024866935892124e-06,1.591176027756768e-06,3.4829241362330857e-06,4.376827551637678e-06,9.323888912643148e-07,6.210586207342509e-07,1.2637412516706128e-06,1.3438374943181284e-06,6.530539545414769e-07,9.328986661907494e-07,1.4193245415594986e-06
77,7.60978988657391e-07,1.1244719632955847e-06,1.341487830335467e-06,4.6753568119398045e-06,1.2339963290972386e-05,1.9714437357161704e-06,1.5606176814967465e-06,3.6284375955165516e-06,4.438744962644465e-06,9.690128029380983e-07,6.180482470274573e-07,8.729803884477949e-07,1.3143332998316286e-06,6.700391405646025e-07,9.244681149888873e-07,1.4307704987509826e-06
78,7.663146549579612e-07,1.1319747856856e-06,1.323243120086051e-06,4.8580827275485265e-06,1.1468403942510984e-05,1.9116562984619395e-06,1.5227177058289725e-06,3.783165809816721e-06,4.489422878204195e-06,1.0069604403193781e-06,6.173747851897006e-07,5.991828851799431e-07,1.2854569275776466e-06,6.8733700592743e-07,9.160750869353461e-07,1.4429545761951093e-06
79,7.767942040142675e-07,1.1402674781522932e-06,1.304918442217673e-06,5.061548111118126e-06,1.0644331477375398e-05,1.8467633993482694e-06,1.4779418959782853e-06,3.9462782182898235e-06,4.526236476061929e-06,1.0456555802210862e-06,6.190537477995854e-07,4.4300666072479635e-07,1.2570235724117054e-06,7.043889374088182e-07,9.075419485718904e-07,1.4555754463290024e-06
80,7.925571261071903e-07,1.1490283196988787e-06,1.2860281570702711e-06,5.284407322961787e-06,9.866346722637787e-06,1.7782182400610286e-06,1.4274414021094582e-06,4.116800806696577e-06,4.546862452310907e-06,1.0844189432201264e-06,6.231558664227698e-07,4.052379569187833e-07,1.2287313831445013e-06,7.208766380951113e-07,8.986583438424658e-07,1.4683190588683607e-06
81,8.136350666526421e-07,1.157903226649776e-06,1.2661155186416387e-06,5.525178103783594e-06,9.132500501118511e-06,1.7075035892218696e-06,1.3729396289266938e-06,4.2936204263993574e-06,4.549980796660295e-06,1.1225780044405136e-06,6.297460530345314e-07,4.868950046308879e-07,1.20034397965739e-06,7.366945843703614e-07,8.892576306549379e-07,1.4809274440810906e-06
82,8.39965350655937e-07,1.1665338203335125e-06,1.2449491696404735e-06,5.782384175000595e-06,8.440744739539776e-06,1.6360374496316383e-06,1.316429932667762e-06,4.475418785465386e-06,4.535383338480365e-06,1.1595695181442555e-06,6.388531159107645e-07,6.894253709666481e-07,1.1717922121449194e-06,7.518245466819365e-07,8.791944822520423e-07,1.4932180137294707e-06
83,8.714303410841113e-07,1.1746307716613124e-06,1.2225488015230658e-06,6.0544834044878916e-06,7.789074955597364e-06,1.5651388187378973e-06,1.2598595262721048e-06,4.660513779855971e-06,4.503451171068938e-06,1.194930180872678e-06,6.504721566278547e-07,1.0147814022675873e-06,1.143094879577077e-06,7.662700413561025e-07,8.682868831493603e-07,1.5050525598904992e-06
84,9.078987414868427e-07,1.1820194129893143e-06,1.1990800856728647e-06,6.339495955366669e-06,7.175440969498383e-06,1.495976851995774e-06,1.2049425355095593e-06,4.846676226416602e-06,4.454685555764568e-06,1.2281945973239977e-06,6.645977984138804e-07,1.4652565732807358e-06,1.1142443360335035e-06,7.800581713718192e-07,8.56329863562006e-07,1.5162614118150495e-06
85,9.492675915469756e-07,1.1885483912693626e-06,1.1747871499468293e-06,6.634527173901347e-06,6.597650918833978e-06,1.4294838133135005e-06,1.1531066889139658e-06,5.030980674628313e-06,4.38987010808133e-06,1.2588202682254914e-06,6.81252849529567e-07,2.043243415293356e-06,1.0851832647213937e-06,7.932582487441595e-07,8.431678766198098e-07,1.5266341941529535e-06
86,9.954818918632105e-07,1.1939600434380189e-06,1.1499375348993794e-06,6.935530850994118e-06,6.053454132255579e-06,1.3663084412940345e-06,1.105499120513123e-06,5.209825819984239e-06,4.31052881799249e-06,1.2862504467854406e-06,7.004819957009853e-07,2.7510688861945938e-06,1.055832441143794e-06,8.059875896529075e-07,8.287875190298416e-07,1.536025836863435e-06
87,1.04652785158454e-06,1.1978630269215254e-06,1.12475618501607e-06,7.237494368371729e-06,5.540782222911991e-06,1.3068697420527393e-06,1.0630141387975076e-06,5.379367589326441e-06,4.218931414730981e-06,1.310083684804556e-06,7.223452672412568e-07,3.590854951620304e-06,1.0261456646697414e-06,8.183741820484863e-07,8.134168102991115e-07,1.5443889258610767e-06
88,1.1024240350528488e-06,1.199802749074405e-06,1.0994344251654313e-06,7.535008726650546e-06,5.057995653530529e-06,1.2514620756314645e-06,1.026353394645105e-06,5.536331206547924e-06,4.117537995373422e-06,1.3301660703467998e-06,7.469259998695792e-07,4.564418090128438e-06,9.961587960621412e-07,8.305034478175319e-07,7.975509517706918e-07,1.5516595291772844e-06
89,1.1632185793847928e-06,1.1993801226560003e-06,1.074178469061214e-06,7.82308365945675e-06,4.6040375902798195e-06,1.2003062259276078e-06,9.96099511664664e-07,5.6787106492048044e-06,4.0084779353079565e-06,1.346506089157757e-06,7.743100970580464e-07,5.673291925575987e-06,9.659560622205619e-07,8.423897705965229e-07,7.818467687310271e-07,1.5576560220254515e-06
90,1.2289709877296449e-06,1.196355875624281e-06,1.0492181648108677e-06,8.097952372977546e-06,4.178479355722881e-06,1.1535282556274616e-06,9.727410540648565e-07,5.805887310889522e-06,3.893504685282775e-06,1.3591069755925028e-06,8.045259796476829e-07,6.918768027872544e-06,9.356345213569721e-07,8.53996551445499e-07,7.669676715057689e-07,1.5620409251967689e-06
91,1.2996968235604813e-06,1.1906447351445164e-06,1.0247793073648674e-06,8.357537987026608e-06,3.781432519435144e-06,1.1111442407887967e-06,9.566314061283258e-07,5.918142720358334e-06,3.774190674273583e-06,1.3678348243577566e-06,8.374884629713692e-07,8.30177961775783e-06,9.053696370245576e-07,8.653404829410183e-07,7.534842798434298e-07,1.5643160405953462e-06
92,1.3753094647026513e-06,1.1821892459899966e-06,1.0010274915580214e-06,8.601382269236222e-06,3.4133095087500407e-06,1.0730728616384717e-06,9.47944325544561e-07,6.0158641125987664e-06,3.6519535340229187e-06,1.3723595436527827e-06,8.729719943227904e-07,9.82261988936618e-06,8.754598892437479e-07,8.766239474173314e-07,7.418442310012985e-07,1.563944430569984e-06
93,1.4556356786958347e-06,1.1708407423295863e-06,9.780149405166598e-07,8.830068794693656e-06,3.0745228710681913e-06,1.0391382236547056e-06,9.466876115902488e-07,6.09879869428648e-06,3.527947885225037e-06,1.3721741277874285e-06,9.10601792648966e-07,1.1480606147388259e-05,8.462594102824253e-07,8.882545123417465e-07,7.32381350953773e-07,1.5606188697394162e-06
94,1.5405055764775468e-06,1.1563823289007316e-06,9.557011788571694e-07,9.044310908489543e-06,2.7652771625638956e-06,1.0090883451709723e-06,9.527692771042266e-07,6.165671587790292e-06,3.4030709911239023e-06,1.3667436849165032e-06,9.49847731082636e-07,1.3273801978832147e-05,8.180987864657379e-07,9.00721104332086e-07,7.253336979407572e-07,1.5544284264184951e-06
95,1.6298282638999907e-06,1.1386982594401799e-06,9.340614050633758e-07,9.243998523205314e-06,2.485505849481337e-06,9.826731701058546e-07,9.660626658837852e-07,6.2143857594577365e-06,3.2780849369837563e-06,1.3557981539278572e-06,9.900221595452091e-07,1.5198902781729375e-05,7.912549294590042e-07,9.144375514855544e-07,7.208447687289582e-07,1.5457438309286063e-06
96,1.7235999560616385e-06,1.1179728423968846e-06,9.132139264047463e-07,9.4277090414945e-06,2.234880189562573e-06,9.5974315164423e-07,9.8642086349782e-07,6.242759444812692e-06,3.153781891216595e-06,1.3395688294970236e-06,1.030302178643197e-06,1.725129820540309e-05,7.659524833238882e-07,9.296689648465868e-07,7.189568286878304e-07,1.5350569858220949e-06
97,1.8218633820010184e-06,1.0947827714202759e-06,8.934820070531031e-07,9.593037862774644e-06,2.012816241293513e-06,9.402771162591437e-07,1.0136308737254202e-06,6.249394932390232e-06,3.031215169091219e-06,1.3187538099495593e-06,1.069809422678506e-06,1.9425153702841078e-05,7.42385086201964e-07,9.466018188171776e-07,7.19627594505882e-07,1.522990956603856e-06
98,1.924654063491456e-06,1.0700091815419608e-06,8.753427806054691e-07,9.737466850246778e-06,1.8184599869450598e-06,9.242985258254404e-07,1.0473401371644692e-06,6.234120388761059e-06,2.911829906413816e-06,1.2942750728479406e-06,1.107732193408457e-06,2.1713357015357565e-05,7.207345873198367e-07,9.655119701144273e-07,7.227683926602002e-07,1.5102938255093236e-06
99,2.0319624209091245e-06,1.044618959562597e-06,8.592946691612387e-07,9.8590751892408e-06,1.650650713437129e-06,9.117561951581439e-07,1.0869951743537601e-06,6.1976994065899124e-06,2.7972660330361236e-06,1.2670392746460448e-06,1.1433870466091695e-06,2.410728774416341e-05,7.011793396484196e-07,9.868462331773957e-07,7.282842364357352e-07,1.4976936241513864e-06
100,2.1437246502452327e-06,1.0194731174841157e-06,8.457506696533302e-07,9.956521013645204e-06,1.5078788851715269e-06,9.024744037028377e-07,1.1318107209613884e-06,6.1410304666106925e-06,2.68897415062706e-06,1.2378513997854467e-06,1.1761592096537443e-06,2.6596306295969783e-05,6.8390004829695e-07,1.0111110160632904e-06,7.361224847265919e-07,1.4857630824482527e-06
101,2.259819909871231e-06,9.952702392650563e-07,8.350140524653496e-07,1.0028264359375012e-05,1.3882705865478503e-06,8.961672252590612e-07,1.1807802357237045e-06,6.0644929408162555e-06,2.5879707246337786e-06,1.2074955606455086e-06,1.2054270479228414e-06,2.91668556146768e-05,6.690873705238006e-07,1.0386967350767704e-06,7.463156995989273e-07,1.474862060100199e-06
102,2.380035932946434e-06,9.725775621119584e-07,8.272778695712114e-07,1.0071767112793447e-05,1.2896122628327474e-06,8.924428446362984e-07,1.2327281442000115e-06,5.968002708125089e-06,2.4948361058284014e-06,1.1768554562113084e-06,1.2306211981724419e-06,3.1801428593176875e-05,6.569557239445859e-07,1.0697813010738947e-06,7.589638675063931e-07,1.4651183392228663e-06
103,2.5039935725879125e-06,9.518567701088245e-07,8.226071051464453e-07,1.008360850782364e-05,1.2094169144786026e-06,8.907900582943428e-07,1.2863690571549496e-06,5.85171043047948e-06,2.4098714336200214e-06,1.146927774233967e-06,1.2513900734429615e-06,3.447785754297387e-05,6.477401431843181e-07,1.1043051367082468e-06,7.741628372741044e-07,1.4564223811291775e-06
104,2.631057934158191e-06,9.334859645585643e-07,8.209316753389478e-07,1.0060575625838675e-05,1.1450508106105705e-06,8.90617509147367e-07,1.3403463318378038e-06,5.716753104580024e-06,2.333322982725715e-06,1.1187096209390103e-06,1.2676864991975264e-06,3.716888654220186e-05,6.416450894731924e-07,1.1419790723738813e-06,7.919476450021556e-07,1.4484269679862359e-06
105,2.760307551656477e-06,9.178173720892234e-07,8.220591772035465e-07,1.0000788886659901e-05,1.0939214014555528e-06,8.913750440476181e-07,1.3932843828751957e-06,5.565515365067616e-06,2.265556298154487e-06,1.0930758192367548e-06,1.2796906606288894e-06,3.984140450177557e-05,6.387879159229803e-07,1.18234115300268e-06,8.12259281395213e-07,1.4406314922392355e-06
106,2.8906495433142506e-06,9.05222148804771e-07,8.257052133365529e-07,9.903979661732497e-06,1.0536707014332371e-06,8.926599944128447e-07,1.4439037180558504e-06,5.40126716517608e-06,2.207057054135807e-06,1.0707603001165915e-06,1.2876599024102183e-06,4.24553360385948e-05,6.392039909738668e-07,1.2248633149238335e-06,8.349113871600784e-07,1.432639746081457e-06
107,3.0210477255205193e-06,8.960544902071912e-07,8.315753515591894e-07,9.770775281008731e-06,1.0223086039597918e-06,8.941867908424923e-07,1.4911803321345675e-06,5.22744896806652e-06,2.158277096700824e-06,1.0524245015254079e-06,1.2918180983538043e-06,4.4963881872652536e-05,6.42891615552935e-07,1.2690205722887035e-06,8.595762903412958e-07,1.4244708753165159e-06
108,3.150660894471044e-06,8.905663590993835e-07,8.395015924697803e-07,9.601511360530995e-06,9.982548195498808e-07,8.956563337667513e-07,1.53447248023982e-06,5.047011507189711e-06,2.119449198754204e-06,1.0387041479482227e-06,1.2923229362254654e-06,4.731708027815068e-05,6.498334425797415e-07,1.314246541661755e-06,8.85797173560997e-07,1.4166654071836947e-06
109,3.2787198074101367e-06,8.888463445066323e-07,8.495426503034759e-07,9.395557891213579e-06,9.802814960831587e-07,8.96684676664623e-07,1.5735550997048796e-06,4.862042181156481e-06,2.090460910581025e-06,1.030170473413677e-06,1.2892723618743772e-06,4.946835266930452e-05,6.599788716950738e-07,1.3598466313882127e-06,9.130246508001886e-07,1.4101025862751683e-06
110,3.404237797249988e-06,8.908180155582214e-07,8.619548303847927e-07,9.151799578870282e-06,9.673695934674203e-07,8.968617836799353e-07,1.608558644906658e-06,4.6736959906354525e-06,2.0708733852328717e-06,1.0272465674576783e-06,1.282717279606686e-06,5.1381080535260184e-05,6.732037139147352e-07,1.4049531959733417e-06,9.407079211690186e-07,1.4057085408178177e-06
111,3.5258712646036486e-06,8.962956228855354e-07,8.770630852432446e-07,8.869809936781323e-06,9.585332457982432e-07,8.958649682288162e-07,1.6398417025102052e-06,4.4823894380461706e-06,2.060127006508056e-06,1.0301508184484472e-06,1.2727145268314942e-06,5.303185750280828e-05,6.892788636957488e-07,1.4485074716103934e-06,9.683982461458825e-07,1.4042561648330464e-06
112,3.6420733438793437e-06,9.050602253505006e-07,8.951472114496381e-07,8.550852779641409e-06,9.527049311577171e-07,8.935383648316885e-07,1.667822882752665e-06,4.288192429042919e-06,2.0577704227653448e-06,1.038883397930464e-06,1.259385776508918e-06,5.440947580823719e-05,7.078929509481562e-07,1.4893026819322821e-06,9.95741207019098e-07,1.4062984616006004e-06
113,3.751319921602975e-06,9.168899477976934e-07,9.16398134037464e-07,8.19834277952076e-06,9.487607822508912e-07,8.899206053408472e-07,1.6928024213458547e-06,4.091282070976003e-06,2.063464729033576e-06,1.0532320980288903e-06,1.2428762832268717e-06,5.551157010476995e-05,7.287288780676103e-07,1.5261561599066992e-06,1.0223471600478494e-06,1.4121790185923949e-06
114,3.852205775282896e-06,9.315104342138105e-07,9.409049241385135e-07,7.817805799209408e-06,9.456848788938472e-07,8.852166639893365e-07,1.7148397962889636e-06,3.892300679905503e-06,2.076754876439981e-06,1.072783172174256e-06,1.223272422671397e-06,5.634061646478977e-05,7.515204418901636e-07,1.5581390287718497e-06,1.0476755332761717e-06,1.4220568163765595e-06
115,3.94351365935342e-06,9.485211755197307e-07,9.68650594941758e-07,7.416444857807999e-06,9.427747125349218e-07,8.797104465040326e-07,1.7337318719311093e-06,3.6925316485445243e-06,2.0968522638198347e-06,1.0969462667989282e-06,1.2006581339754163e-06,5.68989804393353e-05,7.760216304962346e-07,1.5847124263853718e-06,1.0710442095833712e-06,1.4359086319925352e-06
116,4.024445506867303e-06,9.673779377724076e-07,9.995532650646984e-07,7.002406269687163e-06,9.397491027143488e-07,8.736990357329785e-07,1.749049145714594e-06,3.493907794115462e-06,2.1226246548207255e-06,1.1250088814663977e-06,1.175321271582298e-06,5.7183658729060276e-05,8.019206412144526e-07,1.6057106420882289e-06,1.0917689511926938e-06,1.4535122911412738e-06
117,4.095008886222172e-06,9.874335041090683e-07,1.0335376654385599e-06,6.583924572463574e-06,9.366769887643811e-07,8.675215085431227e-07,1.760192906948783e-06,3.2989251542442596e-06,2.1528137880955013e-06,1.1562104313038179e-06,1.147911663481038e-06,5.7183970240075874e-05,8.288060198541264e-07,1.6212093725154445e-06,1.1093484266721071e-06,1.474454578973488e-06
118,4.156351964489663e-06,1.0079786303515158e-06,1.0705527869437355e-06,6.1686039172514445e-06,9.337793736077906e-07,8.615970228252955e-07,1.7665177502692603e-06,3.110502881812398e-06,2.1863984331309005e-06,1.1897774644567073e-06,1.1193810957341266e-06,5.688408027646585e-05,8.56253734801571e-07,1.631350696290782e-06,1.1235739774962769e-06,1.4982141501552723e-06
119,4.210863421094171e-06,1.0282624124742702e-06,1.1105374469800983e-06,5.7629921970680355e-06,9.312571698811814e-07,8.563715612624129e-07,1.7675376538818648e-06,2.931747104079483e-06,2.2229282474311355e-06,1.2248648077851793e-06,1.0907553541933777e-06,5.626856148829955e-05,8.839713069588715e-07,1.6362363815994686e-06,1.134501744530011e-06,1.5242914258943142e-06
120,4.262025155845942e-06,1.0475423185909278e-06,1.1534264169609247e-06,5.372420222175653e-06,9.292505823962776e-07,8.522138862606523e-07,1.7631098742353567e-06,2.7656284019002874e-06,2.262615521426986e-06,1.260470621676155e-06,1.0629282884216972e-06,5.5328490574284296e-05,9.118440483872444e-07,1.635957670738757e-06,1.1423248653367648e-06,1.552276472193594e-06
121,4.3140611699218945e-06,1.065194515593455e-06,1.1991796487531291e-06,5.000989478605237e-06,9.278816417820929e-07,8.493447034382554e-07,1.7534599159378618e-06,2.614767830262977e-06,2.3061234051821226e-06,1.2954673461646264e-06,1.0365808418085722e-06,5.406668656725359e-05,9.398502151802796e-07,1.6306731171819695e-06,1.1472690832339405e-06,1.5817996348358714e-06
122,4.371412390638268e-06,1.0808207846548241e-06,1.2477443076820348e-06,4.651633462099108e-06,9.272615357744749e-07,8.478207021924181e-07,1.7390450253973365e-06,2.481449802037992e-06,2.3542650542195447e-06,1.3287638420595915e-06,1.0121800533072997e-06,5.250104980163395e-05,9.679797511064193e-07,1.6206075881405029e-06,1.1496051615403532e-06,1.612441281419143e-06
123,4.438216641070787e-06,1.0942681206626405e-06,1.2990036875660729e-06,4.326255422283326e-06,9.274486860961829e-07,8.475494453844025e-07,1.7203933944241975e-06,2.367681947685721e-06,2.407873836009929e-06,1.3594743344356387e-06,9.899931702410004e-07,5.0664971010745275e-05,9.962045558804943e-07,1.6059773110820876e-06,1.149691843323044e-06,1.6437139781757355e-06
124,4.518008574685411e-06,1.1055469526912944e-06,1.352781152247201e-06,4.025926406186483e-06,9.284402129715127e-07,8.483114377144258e-07,1.6980223828299392e-06,2.2751471440719258e-06,2.467786605120358e-06,1.3870030447945707e-06,9.701142198362812e-07,4.8604043339336586e-05,1.0244299366726863e-06,1.586975794729057e-06,1.1479337075605345e-06,1.6751060107470276e-06
125,4.613606223904441e-06,1.1146984299734e-06,1.408819947761193e-06,3.751073787484327e-06,9.302094912043916e-07,8.497857009818968e-07,1.6723870420729864e-06,2.2051328904427775e-06,2.5347290429983284e-06,1.411068580868669e-06,9.525397943702333e-07,4.6369440035607984e-05,1.0524647238711674e-06,1.5639000639740297e-06,1.1447102120308917e-06,1.7060849430792276e-06
126,4.727080101666207e-06,1.1217012818432584e-06,1.466717909965049e-06,3.5016237563461128e-06,9.327127374858452e-07,8.515871417178643e-07,1.6437879488707557e-06,2.158518427502994e-06,2.609134842899284e-06,1.4316913541053298e-06,9.372736471280261e-07,4.4010424643039204e-05,1.0801108227863192e-06,1.5372765335199745e-06,1.1403461743140397e-06,1.7360706809578225e-06
127,4.859746985200015e-06,1.1264789924122272e-06,1.5258838513001102e-06,3.277088195132377e-06,9.358357517928094e-07,8.533205181881711e-07,1.6123276962615126e-06,2.1357732566385535e-06,2.6910566229413013e-06,1.4490763058945137e-06,9.243559957639906e-07,4.15695294017467e-05,1.1073430161115366e-06,1.507825097151606e-06,1.1351072617165055e-06,1.7644778303524843e-06
128,5.012070790522067e-06,1.1289444834909996e-06,1.585505521864157e-06,3.076574652804616e-06,9.393392191117763e-07,8.546451455951184e-07,1.5780426761109033e-06,2.13694345725293e-06,2.7801463990485826e-06,1.463386328072662e-06,9.138203807425747e-07,3.9081718899334967e-05,1.1344441946398293e-06,1.476318681913633e-06,1.1292480695391707e-06,1.7908342399100783e-06
129,5.1834977546225986e-06,1.1289766396194758e-06,1.644548262774941e-06,2.8987546135817127e-06,9.428661400496756e-07,8.553302379349931e-07,1.5411506123420403e-06,2.1616800354598958e-06,2.875609513134596e-06,1.4745525023699578e-06,9.056835412657233e-07,3.657563301197128e-05,1.162003548826803e-06,1.4434756557151289e-06,1.1230933230941353e-06,1.8148870878371282e-06
130,5.37238614691057e-06,1.1263486479799245e-06,1.7018722663895601e-06,2.741900270411761e-06,9.460300734322425e-07,8.552741340915914e-07,1.502229233351047e-06,2.209370621666174e-06,2.9762292420225573e-06,1.4822341820810533e-06,8.99952039660144e-07,3.4074870995604335e-05,1.1908124725189748e-06,1.4099383574326434e-06,1.117034185650245e-06,1.8366253442992914e-06
131,5.576008875237658e-06,1.1207404998088167e-06,1.756445082579875e-06,2.6040685747224233e-06,9.485286326500646e-07,8.544812421850064e-07,1.4621927436589474e-06,2.2793711019564063e-06,3.0806026788485987e-06,1.4859360968156393e-06,8.965996832730006e-07,3.159894544143319e-05,1.2217450772610153e-06,1.3763132830514541e-06,1.1114540582374209e-06,1.856214907548619e-06
132,5.7905107842328655e-06,1.111899635230082e-06,1.8075095543563398e-06,2.4833820819201377e-06,9.501700258789702e-07,8.530137480027079e-07,1.422079060407294e-06,2.3712310460778063e-06,3.1874631429264913e-06,1.4852548178313314e-06,8.955504882781864e-07,2.9164062289700298e-05,1.2556409284396005e-06,1.3431861137632623e-06,1.1066794811938227e-06,1.8739117910444786e-06
133,6.0108700551577385e-06,1.0998298810529312e-06,1.8546013495318354e-06,2.378240179007903e-06,9.50796455380861e-07,8.50929312975877e-07,1.3828031246022377e-06,2.4848025420822495e-06,3.2958432045485033e-06,1.4801247659060614e-06,8.966588019534038e-07,2.6783748278172813e-05,1.2931864257923815e-06,1.311070573335849e-06,1.102967047235791e-06,1.8900361413276281e-06
134,6.230985336053262e-06,1.0848174410779427e-06,1.8974394295508558e-06,2.2873117922381608e-06,9.502127922870573e-07,8.482290282399612e-07,1.3450185580498545e-06,2.6202195773887933e-06,3.4050065574607495e-06,1.4708641843662683e-06,8.996638761684677e-07,2.446939161031442e-05,1.334850284361094e-06,1.2803937119993894e-06,1.100519613753617e-06,1.9050077426595239e-06
135,6.443878693610202e-06,1.0672724937709368e-06,1.9358200257303777e-06,2.209327687247889e-06,9.481704350433087e-07,8.448760129990152e-07,1.3091022705250157e-06,2.77779533529295e-06,3.5142051729057318e-06,1.458010901113628e-06,9.041541303384986e-07,2.2230748856317572e-05,1.3809249443150122e-06,1.2515605924297693e-06,1.0995021503378948e-06,1.919333084505591e-06
136,6.641979288428479e-06,1.0475777931374742e-06,1.9696097253984974e-06,2.1428560448505605e-06,9.443938339363117e-07,8.408869038548468e-07,1.275229257205297e-06,2.9578909484161374e-06,3.6223620635895573e-06,1.4421420346658754e-06,9.095808731930546e-07,2.007639240038164e-05,1.4316400788420351e-06,1.2249771003811547e-06,1.1000373487175032e-06,1.9334813983539576e-06
137,6.817563650207686e-06,1.0260574252041183e-06,1.9987882534257716e-06,2.0862439766209902e-06,9.386649857205732e-07,8.363838579378533e-07,1.2434938641821237e-06,3.160781248909448e-06,3.7279040383662837e-06,1.4237805833810102e-06,9.153464873648188e-07,1.8014061363169155e-05,1.487239174368354e-06,1.2010245992037212e-06,1.102216517024766e-06,1.9477978100952426e-06
138,6.9633976985962595e-06,1.0029737330091226e-06,2.0234261960590582e-06,2.0377588735558073e-06,9.309078745618654e-07,8.315410086737177e-07,1.2139707499708444e-06,3.3865044077615492e-06,3.8289291412849e-06,1.403332348022023e-06,9.209305751910708e-07,1.6050862673862552e-05,1.5479360907917184e-06,1.1800979071277966e-06,1.1060979243689792e-06,1.9625499479105277e-06
139,7.0734586607532474e-06,9.785216585192355e-07,2.043571557933522e-06,1.995826752087427e-06,9.211679335751334e-07,8.265049623492779e-07,1.186648140784015e-06,3.634678088414223e-06,3.923608725284249e-06,1.3810466399356634e-06,9.259303996036934e-07,1.4193263493463093e-05,1.6137991308537736e-06,1.1626571251451987e-06,1.1116528699743404e-06,1.977934972504172e-06
140,7.143542243451483e-06,9.528807952230132e-07,2.0591062462164422e-06,1.959240099335401e-06,9.095289048142692e-07,8.213518313328245e-07,1.161335483850736e-06,3.904315023525758e-06,4.0106097052281e-06,1.3570513808693179e-06,9.299786100056961e-07,1.2446948820320166e-05,1.6846820490611741e-06,1.1491740165933683e-06,1.1187366195266814e-06,1.993979845352104e-06
141,7.1716182733718955e-06,9.262644264173705e-07,2.069642991288157e-06,1.9272609711138744e-06,8.960929641085498e-07,8.160553379895272e-07,1.1377047632349934e-06,4.19375504636935e-06,4.089417862755634e-06,1.3314118183259628e-06,9.326821562355558e-07,1.081675982987174e-05,1.7602147304904261e-06,1.1400054953303228e-06,1.1271654941682722e-06,2.010472812578869e-06
142,7.157835093136412e-06,8.988889325089489e-07,2.0745445695753996e-06,1.8995965230536608e-06,8.81014551999749e-07,8.104808974577493e-07,1.1154678109651602e-06,4.500785293792835e-06,4.160458961743688e-06,1.304163066951157e-06,9.336874092548316e-07,9.306835563981e-06,1.8397832010420921e-06,1.1353160097607109e-06,1.1368436322487062e-06,2.026976538793482e-06
143,7.104080855330807e-06,8.709473681201653e-07,2.0730947013910614e-06,1.876239046687582e-06,8.645083870804112e-07,8.044551658756006e-07,1.0945332989371923e-06,4.822805050266339e-06,4.22491670749447e-06,1.2753853706780822e-06,9.328009237938555e-07,7.920868044207695e-06,1.9225152197718017e-06,1.1350994741326265e-06,1.1477993371586688e-06,2.0429040535761613e-06
144,7.0131042796374946e-06,8.426720031114623e-07,2.064720823476921e-06,1.8572156711855173e-06,8.468724107760535e-07,7.978721116509095e-07,1.0750273735591052e-06,5.156802406596295e-06,4.284279587018578e-06,1.2452965587768122e-06,9.300663981949204e-07,6.662347752405161e-06,2.007347652144018e-06,1.1392432052611474e-06,1.1600868380824303e-06,2.057598910653487e-06
145,6.887493752024731e-06,8.143931238180192e-07,2.049147808755199e-06,1.8424131190802161e-06,8.285547132903276e-07,7.907373672723178e-07,1.0571929149152938e-06,5.499105036067784e-06,4.33983518446922e-06,1.2142150056720625e-06,9.257491333193189e-07,5.53477600916024e-06,2.093192979321445e-06,1.1475533230234616e-06,1.1736571598991962e-06,2.0703154587267745e-06
146,6.72916968575172e-06,7.864917801157617e-07,2.02644103548897e-06,1.831609045711269e-06,8.101506672805172e-07,7.831372005759409e-07,1.0412478435500368e-06,5.845133716776884e-06,4.392447772699688e-06,1.182438731543628e-06,9.20227716385295e-07,4.5418491580046884e-06,2.1791200140708454e-06,1.1597200187045187e-06,1.1882865350050257e-06,2.080123875421659e-06
147,6.539750188334532e-06,7.593197275261532e-07,1.9969552567671463e-06,1.8246187477418075e-06,7.922848173678083e-07,7.752052833854096e-07,1.0272976290432076e-06,6.1894067279196e-06,4.442738153339563e-06,1.1502378190063331e-06,9.138884358635032e-07,3.6875998624702047e-06,2.264428121445109e-06,1.1752608194787666e-06,1.2035599716918997e-06,2.0858974400351174e-06
148,6.32129381916149e-06,7.331799968558491e-07,1.961249853005481e-06,1.8213749137283948e-06,7.754857182004177e-07,7.671125200671954e-07,1.015326006788556e-06,6.525797077444978e-06,4.491324470996764e-06,1.1179625589316471e-06,9.071005893599008e-07,2.9764246856761242e-06,2.348621464470392e-06,1.1935111183945435e-06,1.2188809838664046e-06,2.086458915428532e-06
149,6.07671600203039e-06,7.083259990160189e-07,1.920043559706156e-06,1.821863798088099e-06,7.601436867232422e-07,7.590348058858228e-07,1.005183192761588e-06,6.847862365928179e-06,4.5387880741991385e-06,1.0861050621246257e-06,9.002322828517654e-07,2.412885690653364e-06,2.4313914856407127e-06,1.2137072831373366e-06,1.2334662989910263e-06,2.0808158392232e-06
150,5.809697520805568e-06,6.849314963633012e-07,1.8742233476150381e-06,1.8259901807348154e-06,7.465454309929035e-07,7.510831767108626e-07,9.965526993806839e-07,7.149102010317058e-06,4.5854438950757585e-06,1.0552594759279684e-06,8.936526354858938e-07,2.001382184311861e-06,2.512627322493172e-06,1.2350899654210238e-06,1.2463520316285105e-06,2.0683992391455074e-06
151,5.524310420904598e-06,6.630752456763888e-07,1.8248663058150504e-06,1.8335175321674232e-06,7.349219982612075e-07,7.432500410496898e-07,9.890058053406578e-07,7.4231660653806765e-06,4.6311268401484836e-06,1.0260310055629158e-06,8.877033025669728e-07,1.746003855991602e-06,2.5923832756340134e-06,1.256909993842644e-06,1.2565402086266455e-06,2.0492269187197017e-06
152,5.2246767265877415e-06,6.427776501567867e-07,1.7732490609944418e-06,1.8440986978014343e-06,7.25469968272791e-07,7.354417414667826e-07,9.821950627505972e-07,7.664221748036222e-06,4.675145729394577e-06,9.98931389113468e-07,8.826801465405126e-07,1.6506372296957255e-06,2.6707669778502863e-06,1.278406646303944e-06,1.2632868117124633e-06,2.0238508815192873e-06
153,4.9148343402463845e-06,6.240594470793714e-07,1.7208349991242497e-06,1.8572803501025203e-06,7.18373551091291e-07,7.27602066019445e-07,9.760571064519794e-07,7.867601024137468e-06,4.716495336395167e-06,9.743072386110908e-07,8.7887471093368e-07,1.7190674794414847e-06,2.747782613994072e-06,1.2989137969786784e-06,1.2663006343118903e-06,1.9930858735878565e-06
154,4.598732372830422e-06,6.069699494404669e-07,1.6691973061886882e-06,1.8724904511474787e-06,7.138288723898503e-07,7.198212901129295e-07,9.708467265317103e-07,8.030445468387736e-06,4.7541725964131745e-06,9.523520783144617e-07,8.766002922533851e-07,1.9549452855286082e-06,2.8232051894661366e-06,1.318034148670499e-06,1.2656771616242659e-06,1.957814679808783e-06
155,4.280190305236508e-06,5.915706260340302e-07,1.6198538249368438e-06,1.8891341730982673e-06,7.120252742688491e-07,7.123182119155416e-07,9.669945531692493e-07,8.151811514572999e-06,4.7873171228907415e-06,9.332006974059623e-07,8.761239714768384e-07,2.3617803028109035e-06,2.8965487740158398e-06,1.3357047060869552e-06,1.2616798019324353e-06,1.9190272822426714e-06
156,3.962797633326642e-06,5.779067673019069e-07,1.5740840956096034e-06,1.9068076723686376e-06,7.130984553550701e-07,7.053291168534242e-07,9.649511893630095e-07,8.231942344041154e-06,4.815158830613485e-06,9.170227059229678e-07,8.775756738230419e-07,2.943078435797974e-06,2.967120472365046e-06,1.352088453431379e-06,1.254590073260582e-06,1.8778287802774213e-06
157,3.6498434971577996e-06,5.659879131412839e-07,1.5328303825860685e-06,1.9254978702839294e-06,7.171075087134657e-07,6.990173862502714e-07,9.651299061540458e-07,8.271073330213315e-06,4.836979435669355e-06,9.040148487615968e-07,8.809352660850232e-07,3.702521957390015e-06,3.0340547868694823e-06,1.3673636226415084e-06,1.2446603592218625e-06,1.8352461612876323e-06
158,3.344281374662407e-06,5.557656547833578e-07,1.4967100797120468e-06,1.9456202703209955e-06,7.240587640636995e-07,6.93440022320141e-07,9.679091271485508e-07,8.26873451965358e-06,4.8521461608351265e-06,8.943280013968009e-07,8.861069711206243e-07,4.644048410011202e-06,3.09622993220332e-06,1.3815744106498538e-06,1.2320764167550285e-06,1.792051650009689e-06
159,3.048638918105109e-06,5.471164215708396e-07,1.4660878404462682e-06,1.967839467362717e-06,7.339635970080674e-07,6.885680524477309e-07,9.736213887661667e-07,8.224081045341543e-06,4.860012309273072e-06,8.880391301413558e-07,8.93015539238284e-07,5.771773753228356e-06,3.1521706759140008e-06,1.3946422623023757e-06,1.216959205487396e-06,1.748802127411485e-06
160,2.764888767209883e-06,5.39865864836245e-07,1.4411281984417375e-06,1.992796873459973e-06,7.468749212581082e-07,6.843640240096341e-07,9.82508909206171e-07,8.136714340128975e-06,4.859596424160783e-06,8.851785091033009e-07,9.01666244761597e-07,7.08982146859493e-06,3.200093161777836e-06,1.4064319711390293e-06,1.1994809311034512e-06,1.7059882417846855e-06
161,2.4944578149157295e-06,5.338696155862251e-07,1.42181384023912e-06,2.0209716327334626e-06,7.628699927734935e-07,6.808549848365808e-07,9.946702465995134e-07,8.00733553523113e-06,4.849409283935544e-06,8.857565145465625e-07,9.121843701257207e-07,8.602163644979637e-06,3.23801790429942e-06,1.4167368107350982e-06,1.180012735096559e-06,1.6640846144351562e-06
162,2.2384676303148467e-06,5.291059379221448e-07,1.4079990899112248e-06,2.0527313421371997e-06,7.820189899872909e-07,6.781197258327383e-07,1.0100347311100693e-06,7.83811999760241e-06,4.82775748059406e-06,8.897411419947524e-07,9.24850699853856e-07,1.0312458223166471e-05,3.26387936698369e-06,1.4252208277145527e-06,1.1591540286009933e-06,1.6234700379857082e-06
163,1.99801655900305e-06,5.257090657696598e-07,1.3994814863218751e-06,2.0884067381705046e-06,8.043685565304788e-07,6.762065764077913e-07,1.02836321458284e-06,7.632829661665967e-06,4.793262646419944e-06,8.969898314697213e-07,9.400759106059322e-07,1.2223784080709203e-05,3.2757555382739786e-06,1.431425304908376e-06,1.1376181735659282e-06,1.5843484235146149e-06
164,1.7742437176726195e-06,5.239185025410898e-07,1.3959807605686214e-06,2.128275806408914e-06,8.299240791148497e-07,6.750668322603446e-07,1.0492498120268523e-06,7.39660209530229e-06,4.745228980994917e-06,9.072079210888876e-07,9.582939125072742e-07,1.433828368348967e-05,3.2722522203511446e-06,1.4349049712838966e-06,1.1160818146250138e-06,1.5467997476074863e-06
165,1.5682015486176877e-06,5.239876710020882e-07,1.3970496745617407e-06,2.1725228429047625e-06,8.586562098415972e-07,6.745425440902697e-07,1.0721488620565143e-06,7.135468979127211e-06,4.683860644284368e-06,9.199815539307226e-07,9.79849344429767e-07,1.6656794540414047e-05,3.2528597293214737e-06,1.4354715543156566e-06,1.0950999006907653e-06,1.5109504889547933e-06
166,1.380789171773256e-06,5.261197295936614e-07,1.4020498730389771e-06,2.221270088396833e-06,8.905567747411203e-07,6.743899338935448e-07,1.096448200017738e-06,6.85580829369788e-06,4.610364454695217e-06,9.348677826199934e-07,1.0049252180553747e-06,1.917846976040381e-05,3.2180887455226865e-06,1.4333568650255463e-06,1.0751012325912594e-06,1.477095486189651e-06
167,1.2128347836353593e-06,5.304535921170943e-07,1.41026821078382e-06,2.27469485388799e-06,9.256591725340855e-07,6.743474732558425e-07,1.1215231099421294e-06,6.563868888508389e-06,4.526736847258671e-06,9.514947906160423e-07,1.03350383701546e-06,2.1900323125555925e-05,3.1693440085398135e-06,1.4291275055324127e-06,1.056425236112859e-06,1.4456453249033942e-06
168,1.0651702254680931e-06,5.370648597548365e-07,1.4211475547058927e-06,2.333199484769079e-06,9.639606185161163e-07,6.742482311823468e-07,1.1467186168917806e-06,6.265346197041523e-06,4.435178792016306e-06,9.696025154071483e-07,1.0653835157984239e-06,2.4816641118681782e-05,3.108644170444858e-06,1.4234289738287355e-06,1.0393439265733327e-06,1.4169790447766131e-06
169,9.386025109934425e-07,5.459572005627997e-07,1.4344815996431075e-06,2.397617020385514e-06,1.0053410872529897e-06,6.74086116070874e-07,1.17131514212169e-06,5.965092238786479e-06,4.337584304854268e-06,9.890147974732792e-07,1.1002598177969071e-06,2.79182525715522e-05,3.038320546178739e-06,1.4167629550109266e-06,1.0240415341809772e-06,1.3913843764324863e-06
170,8.338661017738186e-07,5.570563707972515e-07,1.450434495885012e-06,2.469405114925569e-06,1.0496015119445709e-06,6.739846043679683e-07,1.194535223480168e-06,5.667155989469804e-06,4.235466599889111e-06,1.0096520518821768e-06,1.137792045687626e-06,3.1191751350299265e-05,2.960721640565696e-06,1.4094035870772509e-06,1.010595312846156e-06,1.3691246965602631e-06
171,7.516122041214422e-07,5.702150137688147e-07,1.469415981350014e-06,2.5507091744099496e-06,1.0965939856500998e-06,6.741512736358489e-07,1.2155543686889922e-06,5.375031633933484e-06,4.130063072944939e-06,1.0315952003975398e-06,1.1775823032231701e-06,3.461880070927018e-05,2.8779214170603804e-06,1.401404283496168e-06,9.99000357005376e-07,1.3504902013472216e-06
172,6.924005680747543e-07,5.852155522536574e-07,1.4919329543501282e-06,2.6442272548154183e-06,1.1462836185148141e-06,6.748775691182096e-07,1.2334923266189499e-06,5.091716996284856e-06,4.022351359634989e-06,1.0550517190183291e-06,1.2191153280278306e-06,3.817551141258849e-05,2.791543259060302e-06,1.3926201742881123e-06,9.891920836868787e-07,1.3357501739612468e-06
173,6.566807460594984e-07,6.017605617787912e-07,1.5184951497950376e-06,2.7529723777148846e-06,1.198671734142436e-06,6.765252831935946e-07,1.2474611613161702e-06,4.819494052290685e-06,3.913106345981407e-06,1.080219522567695e-06,1.2617280214761693e-06,4.1831783423073206e-05,2.702769489814656e-06,1.382762519134074e-06,9.81009173183196e-07,1.3250652509536775e-06
174,6.447748723701237e-07,6.194697279587113e-07,1.5495699596725968e-06,2.8800766791302774e-06,1.2536946459918903e-06,6.79461036689411e-07,1.2566982802913358e-06,4.559777088776907e-06,3.8030566663572486e-06,1.1071865797868914e-06,1.3045934755355712e-06,4.5550614160285836e-05,2.612414604678909e-06,1.3715289829758463e-06,9.741391462437029e-07,1.3184211837625116e-06
175,6.568705465777507e-07,6.379017116628144e-07,1.585547840183165e-06,3.0286754190098385e-06,1.3111785965155855e-06,6.839951262847071e-07,1.2606975098158727e-06,4.31328826322441e-06,3.69298587777353e-06,1.1358949380154586e-06,1.3467129262100778e-06,4.928757632917416e-05,2.520972184906337e-06,1.3587708839189553e-06,9.681267589945852e-07,1.3156132923723577e-06
176,6.930247490354703e-07,6.565746150533603e-07,1.6267113212448015e-06,3.201814333410155e-06,1.3708203635028163e-06,6.903635312274324e-07,1.2592870960621533e-06,4.080430027916955e-06,3.5837321899808234e-06,1.1661142426021404e-06,1.3869718483928551e-06,5.299070455325323e-05,2.428706204298076e-06,1.344579553033601e-06,9.624589366577768e-07,1.3162959149744375e-06
177,7.531630456641886e-07,6.749728003618754e-07,1.673212994738044e-06,3.402311520124356e-06,1.432223883546149e-06,6.987189048132993e-07,1.2526570605787835e-06,3.861602603332534e-06,3.476190746497251e-06,1.1974101116932318e-06,1.4242920631653884e-06,5.6600667141431576e-05,2.335834179271907e-06,1.32924102180654e-06,9.566677833113776e-07,1.3200406558827808e-06
178,8.370808868786816e-07,6.925796789137023e-07,1.7250395477262208e-06,3.6325532450367895e-06,1.4950457093971356e-06,7.09111474565243e-07,1.2412886357288209e-06,3.6573353911149054e-06,3.3713592981184834e-06,1.2291687866914606e-06,1.45782960343296e-06,6.0050369407054895e-05,2.242734111391173e-06,1.3131565244941904e-06,9.503893778297279e-07,1.3263283065726937e-06
179,9.444954163779574e-07,7.089370523716826e-07,1.7819475938471253e-06,3.894296082461129e-06,1.559182545142769e-06,7.215022886017615e-07,1.2257797941166758e-06,3.4681877352735554e-06,3.270358266376308e-06,1.2607390394061187e-06,1.487102867222258e-06,6.326361736510669e-05,2.150066984217727e-06,1.2967812229784873e-06,9.434011839554585e-07,1.334533393344951e-06
180,1.0751395618591397e-06,7.236791374396915e-07,1.8434108928409482e-06,4.188601080734936e-06,1.6248685393241561e-06,7.35829721364091e-07,1.2067177964957298e-06,3.2944706747105854e-06,3.174388255073861e-06,1.2915832196909174e-06,1.5119501399417246e-06,6.615569048574742e-05,2.0587287959820574e-06,1.2805228405040703e-06,9.35661766016472e-07,1.3439988132543962e-06
181,1.2287924094908498e-06,7.365421030384529e-07,1.9086124858668164e-06,4.515934652164635e-06,1.6925925890899668e-06,7.520626174116477e-07,1.1846876929434265e-06,3.135978218937018e-06,3.084659157143868e-06,1.3212744411670276e-06,1.5323750796027373e-06,6.864064418561684e-05,1.9696359290758064e-06,1.2646383564940194e-06,9.272909199047314e-07,1.3541479749613128e-06
182,1.4052212794883527e-06,7.473944203175626e-07,1.9764479219177186e-06,4.8763175887791865e-06,1.7628963802823187e-06,7.701802940364983e-07,1.1602957584886402e-06,2.991899240014663e-06,3.00228240972957e-06,1.3494357782379334e-06,1.5484825436884482e-06,7.06454359896388e-05,1.883491347544081e-06,1.249205474024359e-06,9.185057824601611e-07,1.3645455355700902e-06
183,1.6041285454948251e-06,7.562673657956722e-07,2.0455249002577782e-06,5.2693767553011045e-06,1.836260630468348e-06,7.901354960569161e-07,1.13413532783572e-06,2.86092501872554e-06,2.928104104810616e-06,1.375772137110177e-06,1.5605639043546902e-06,7.212329171732608e-05,1.800714643704947e-06,1.2341259826546364e-06,9.095863345598268e-07,1.374895848233118e-06
184,1.8251171672470048e-06,7.633151100715707e-07,2.114201531628078e-06,5.694254618708978e-06,1.9131749373350593e-06,8.118819079463976e-07,1.1067461162248948e-06,2.7415083315127503e-06,2.8625763762360827e-06,1.4000862526560845e-06,1.569124341629498e-06,7.305704244059417e-05,1.7215767744447569e-06,1.2191423445309154e-06,9.008733515599258e-07,1.3849806974120312e-06
185,2.067633255967036e-06,7.687218291228208e-07,2.180657162225318e-06,6.149418686736097e-06,1.9942499719653503e-06,8.354252724345023e-07,1.0785937530960851e-06,2.6322113665986803e-06,2.805775396064731e-06,1.4221878975730849e-06,1.5747080756351427e-06,7.344977879138977e-05,1.6464158273697887e-06,1.2039293285462934e-06,8.927910300144047e-07,1.3945557074034796e-06
186,2.3309190380727684e-06,7.726589508626284e-07,2.242965055582496e-06,6.632419686444811e-06,2.0801954769786095e-06,8.608047557061923e-07,1.0501235023035705e-06,2.5320012996707504e-06,2.757501377723072e-06,1.4418207965076988e-06,1.5776858121968741e-06,7.331043082785076e-05,1.575757526712939e-06,1.1882261066754249e-06,8.858406189545114e-07,1.40325555486253e-06
187,2.6140019773312858e-06,7.753238801778753e-07,2.2992040939151575e-06,7.1396338849767695e-06,2.1716403883053084e-06,8.880222777680657e-07,1.021911206055628e-06,2.440362702146275e-06,2.7173501410663137e-06,1.4587268049437134e-06,1.5781796082955198e-06,7.26467182933973e-05,1.5102425530776582e-06,1.1718768275492353e-06,8.805112247935734e-07,1.4105730151991901e-06
188,2.915653901638343e-06,7.76985550136972e-07,2.347651773778077e-06,7.666080142300124e-06,2.2689368743213653e-06,9.170003510968602e-07,9.947531974206793e-07,2.357229373010242e-06,2.6847847008464033e-06,1.4727578372966874e-06,1.5760721606208263e-06,7.146954203515175e-05,1.4504243115253967e-06,1.154784022648646e-06,8.771801242664207e-07,1.4159958694264745e-06
189,3.234266917218638e-06,7.779699201099485e-07,2.3870258448371234e-06,8.20539849568342e-06,2.3720616888944076e-06,9.475677304978289e-07,9.69563428524332e-07,2.2828429096932974e-06,2.6592385346231627e-06,1.4838564920565715e-06,1.5710489064804824e-06,6.980112196527943e-05,1.396600059821529e-06,1.1369205348660906e-06,8.76082908603718e-07,1.4192587063068485e-06
190,3.5677180755785576e-06,7.786065350001002e-07,2.4166812003656007e-06,8.749876120755836e-06,2.480565681083025e-06,9.794303098335279e-07,9.47185628844765e-07,2.217616062727208e-06,2.640170650810826e-06,1.491980392405906e-06,1.5626975242418285e-06,6.767945965431861e-05,1.3487773065976238e-06,1.1183903131098054e-06,8.773430091118608e-07,1.4204736622410854e-06
191,3.9133254846056785e-06,7.791969476636979e-07,2.4366443870445767e-06,9.290422780380004e-06,2.593538491083784e-06,1.0121376011164464e-06,9.282827933384356e-07,2.161977536140573e-06,2.6271042283925717e-06,1.4971555673528467e-06,1.5505962775897234e-06,6.515837080024769e-05,1.306752774069607e-06,1.0993957789189288e-06,8.810136043813286e-07,1.4200092457256878e-06
192,4.267872539896882e-06,7.80005963677016e-07,2.4474007509036334e-06,9.816826414857485e-06,2.709641990285386e-06,1.045083701440376e-06,9.13323954434584e-07,2.1161865868891716e-06,2.6198403024449237e-06,1.4995610642616515e-06,1.534327068081052e-06,6.230454380252416e-05,1.2702177608511033e-06,1.0801485395388953e-06,8.870816729740906e-07,1.4182744753796894e-06
193,4.627602914732759e-06,7.812596399563245e-07,2.449512009371892e-06,1.031862159142294e-05,2.827185004122539e-06,1.0775919775460617e-06,9.026046994911085e-07,2.0802119542509474e-06,2.6188024689252707e-06,1.499469784990838e-06,1.5134970156016275e-06,5.919244767911113e-05,1.2388344632040774e-06,1.0608542842734109e-06,8.954291325858578e-07,1.4156137262491281e-06
194,4.988155632600257e-06,7.831658003621968e-07,2.443342090377087e-06,1.078629405028861e-05,2.9441208806742287e-06,1.1090907841259878e-06,8.962596299299133e-07,2.0537213640336686e-06,2.6251429788853492e-06,1.4970882249772275e-06,1.4878659878348136e-06,5.589780655300282e-05,1.2122788314710712e-06,1.0417264175777662e-06,9.058254342466144e-07,1.4123150594204677e-06
195,5.344457073757903e-06,7.859245802014245e-07,2.429073788763096e-06,1.1212291932581533e-05,3.057931620641241e-06,1.139255256881888e-06,8.94271945602233e-07,2.0360998373907113e-06,2.6404219185434354e-06,1.4924385150051696e-06,1.4575280456203962e-06,5.249110228842938e-05,1.1902308885330602e-06,1.022940388516081e-06,9.180110776184554e-07,1.4086030462180021e-06
196,5.690573105627983e-06,7.896899021581157e-07,2.4068783761635202e-06,1.1591531664188467e-05,3.1655212729312404e-06,1.1679852514232135e-06,8.965045981442286e-07,2.026462465885139e-06,2.6661073913350905e-06,1.4853576126085072e-06,1.4229974779762423e-06,4.903327847794096e-05,1.1723122632350899e-06,1.0045807512875711e-06,9.318113560012385e-07,1.4045874649637404e-06
197,6.019612074579511e-06,7.945295669206658e-07,2.377040944476054e-06,1.1921258140742407e-05,3.263289440860369e-06,1.1952521220871571e-06,9.027628500630945e-07,2.0237106472364005e-06,2.703233303352961e-06,1.4755899686531176e-06,1.3851173531667328e-06,4.557471218594152e-05,1.1580389855780016e-06,9.866525594794452e-07,9.471722847937501e-07,1.4002341070064666e-06
198,6.323908053118151e-06,8.004318374594708e-07,2.340022691649011e-06,1.2200243347348047e-05,3.3475179216278507e-06,1.2209372033660478e-06,9.128680522127714e-07,2.0266198324163423e-06,2.7523438004668388e-06,1.4629212305011362e-06,1.3448451800523551e-06,4.215630331531977e-05,1.146831172295212e-06,9.691657948587173e-07,9.641109055536818e-07,1.395354665340418e-06
199,6.595613982725923e-06,8.073267093583777e-07,2.296502516373372e-06,1.242750486701377e-05,3.41512275221476e-06,1.2447581924339814e-06,9.266937349704108e-07,2.033863555300894e-06,2.813672209035598e-06,1.447292242735388e-06,1.3030505084078715e-06,3.8810992404764204e-05,1.138056354800564e-06,9.522330314558186e-07,9.8264203156037e-07,1.3896207204649893e-06
200,6.827540926024163e-06,8.150860121383894e-07,2.2473932881901636e-06,1.2601133341688917e-05,3.464557558708557e-06,1.2663087201304032e-06,9.441285825952576e-07,2.0439513568853883e-06,2.887355938303227e-06,1.42880488894455e-06,1.2604181901430033e-06,3.556500208079676e-05,1.1310518578112676e-06,9.360651595125771e-07,1.002726321691406e-06,1.3826920412504377e-06
201,7.0139210162072816e-06,8.235277898029121e-07,2.1938264298770303e-06,1.2718080518549338e-05,3.4963548126930145e-06,1.2851538730964091e-06,9.650046879374347e-07,2.055231168673814e-06,2.9734369193128795e-06,1.4076090038486326e-06,1.2174398435171521e-06,3.2438759225278204e-05,1.1250988359155174e-06,9.208663359344498e-07,1.0242658388244534e-06,1.374427337633757e-06
202,7.1508225650697225e-06,8.324404935105357e-07,2.1371225945879203e-06,1.2775082863056705e-05,3.5129088654545693e-06,1.300925078020466e-06,9.890840783341077e-07,2.066055556064634e-06,3.071623712741115e-06,1.3838078436609222e-06,1.1744557700568526e-06,2.9447684416836947e-05,1.119419462345033e-06,9.067595362891686e-07,1.0471205118392761e-06,1.3649636307382147e-06
203,7.236105849169384e-06,8.415893875908781e-07,2.0787490367408655e-06,1.2769949760947146e-05,3.5176362958137527e-06,1.3134276088111926e-06,1.0161182564491668e-06,2.0749733293357657e-06,3.1810536973452947e-06,1.3574823129667409e-06,1.1317542331795854e-06,2.6603045417916775e-05,1.1132347713035487e-06,8.937865645105486e-07,1.0711202987848812e-06,1.3545638261135911e-06
204,7.2689759548907475e-06,8.507188953144997e-07,2.020246260381151e-06,1.2702497090213077e-05,3.5140859371070993e-06,1.3227568809166471e-06,1.0458755959595557e-06,2.080810865292691e-06,3.3002242901893106e-06,1.3287342743883137e-06,1.089661554007952e-06,2.3912780092284546e-05,1.105813592982782e-06,8.819507510791228e-07,1.0961143740734386e-06,1.3434194140696492e-06
205,7.249263158667655e-06,8.596130988738428e-07,1.963138026053503e-06,1.2574973058677205e-05,3.505524704430798e-06,1.3293218384319605e-06,1.0780872996715744e-06,2.0827049776447667e-06,3.427050474439469e-06,1.2976459496932757e-06,1.0485120307807463e-06,2.138204088421492e-05,1.0965504144141071e-06,8.713061684924729e-07,1.1220223017232036e-06,1.3316367650322486e-06
206,7.176803460927887e-06,8.681837990619593e-07,1.9088531932109036e-06,1.2392047136960794e-05,3.4950848020607182e-06,1.333703428626897e-06,1.1123902014998001e-06,2.0801969499933704e-06,3.558938828779619e-06,1.2642254306005574e-06,1.008553166839604e-06,1.901345265857867e-05,1.0851584668689388e-06,8.620435401426369e-07,1.1488106402923608e-06,1.3193675179072022e-06
207,7.051638301343437e-06,8.765104879870245e-07,1.858649935344615e-06,1.2160462130382244e-05,3.4861996787990994e-06,1.3364504592062479e-06,1.14830386815737e-06,2.073375800151668e-06,3.6928145747960498e-06,1.2284366939665764e-06,9.699058887799903e-07,1.6807352753819583e-05,1.0718122099929638e-06,8.544931231720536e-07,1.1764698498844706e-06,1.3068664729857664e-06
208,6.875161550690205e-06,8.848416543908899e-07,1.813542677402569e-06,1.1888503392372163e-05,3.483056836795925e-06,1.3379580424656557e-06,1.1852016877609047e-06,2.062941770543304e-06,3.825220131320977e-06,1.1903351721535283e-06,9.325695609654194e-07,1.4762249602496619e-05,1.0570262164933292e-06,8.490640813284735e-07,1.2050441021948025e-06,1.2944248490725203e-06
209,6.651217092428809e-06,8.93590959672758e-07,1.774274690344142e-06,1.1585433039934921e-05,3.4909347366665613e-06,1.338462690114366e-06,1.222311359339933e-06,2.0500803853303843e-06,3.95273516143281e-06,1.1502474676918175e-06,8.964623603000792e-07,1.2875431428831728e-05,1.0413815953812874e-06,8.461678833421495e-07,1.2345952769384674e-06,1.2822988419815652e-06
210,6.386247065331558e-06,9.033012977226918e-07,1.7413390188863228e-06,1.1260911112330935e-05,3.5163638740213464e-06,1.338105599931821e-06,1.2588410152284134e-06,2.0361699902650958e-06,4.072682933855348e-06,1.1088402486101206e-06,8.615113241896915e-07,1.1143454150763313e-05,1.0253521419106594e-06,8.461432443329765e-07,1.2650682164572073e-06,1.2706728111263798e-06
211,6.08851428130338e-06,9.145480965375852e-07,1.7150107442910156e-06,1.092432650374081e-05,3.5670724025190247e-06,1.3369707532527211e-06,1.2941929809073624e-06,2.0224542939850466e-06,4.183694768662633e-06,1.0669895705033347e-06,8.277122977786915e-07,9.562369866350898e-06,1.0092987632896754e-06,8.492049509050625e-07,1.2962034709563896e-06,1.2596673325388183e-06
212,5.766900190579088e-06,9.278189571605205e-07,1.6953833740660535e-06,1.0584038369462539e-05,3.651710403398566e-06,1.3350503737374383e-06,1.328059736371921e-06,2.0098163523149267e-06,4.285750838149616e-06,1.0255778340660322e-06,7.951085636813259e-07,8.127752827337157e-06,9.93523508994227e-07,8.554148287261035e-07,1.3275845482807428e-06,1.2494579642622948e-06
213,5.4298551325244165e-06,9.434321722498829e-07,1.68240331111312e-06,1.0246688259834741e-05,3.7794453081910815e-06,1.3322228099460185e-06,1.3602961235513546e-06,1.9986906462748607e-06,4.379691609112214e-06,9.853825176387557e-07,7.637322991504658e-07,6.834611841323088e-06,9.782827553043762e-07,8.646619011173427e-07,1.3587206384219094e-06,1.2404108949168115e-06
214,5.084866472628538e-06,9.615111284700677e-07,1.675880796917722e-06,9.916840320069179e-06,3.959598669170872e-06,1.3283590269350586e-06,1.3907316744920008e-06,1.989056003763966e-06,4.466490179527137e-06,9.470613001387085e-07,7.335463723585602e-07,5.677261250030195e-06,9.63767375520987e-07,8.766590791536379e-07,1.3890445720006125e-06,1.2330498147577107e-06
215,4.738380351856748e-06,9.81988789048289e-07,1.6754885289949922e-06,9.597168278998762e-06,4.201434984116381e-06,1.323510091533046e-06,1.4190831519680467e-06,1.980477343866434e-06,4.5466453285480285e-06,9.111688632030897e-07,7.044305511773063e-07,4.649218103509807e-06,9.500759935432889e-07,8.909494454668855e-07,1.4179017875096898e-06,1.2279202697345572e-06
216,4.3958834362169245e-06,1.0046285973489915e-06,1.6808002046760153e-06,9.289193443679058e-06,4.514054186260713e-06,1.3179647452431608e-06,1.4449512076320616e-06,1.972204136959211e-06,4.619953765358516e-06,8.78171558039729e-07,6.762560237415285e-07,3.7431913826713154e-06,9.37170462109212e-07,9.069151094024114e-07,1.4446495267271422e-06,1.2255249713393002e-06
217,4.061944668198252e-06,1.0290769563084086e-06,1.69141032473169e-06,8.994305754221806e-06,4.906232643735528e-06,1.312089182411811e-06,1.4678970811126317e-06,1.9632936346861584e-06,4.685701152380711e-06,8.48466570716888e-07,6.489813502240486e-07,2.9512501977159695e-06,9.248315020138467e-07,9.238408904642205e-07,1.468776565512383e-06,1.2262963734059978e-06
218,3.740207786362181e-06,1.0549449678548782e-06,1.707096099603533e-06,8.714663953927443e-06,5.386130509691152e-06,1.3061273123114945e-06,1.487578159406244e-06,1.9527166240194446e-06,4.743096281071531e-06,8.224136835257019e-07,6.22672096346452e-07,2.2651901193738403e-06,9.126591714881809e-07,9.41073550902398e-07,1.4899195852362656e-06,1.2305257909596429e-06
219,3.433415161980279e-06,1.0818620837836816e-06,1.7279137324036094e-06,8.453652598478282e-06,5.960960039376066e-06,1.3001520262318809e-06,1.5038138841617647e-06,1.939445368905758e-06,4.791698033013521e-06,8.003329406576031e-07,5.974882071127778e-07,1.676920140173187e-06,9.001518105152709e-07,9.581727882861228e-07,1.5078038827352675e-06,1.238289620428671e-06
220,3.1435012427764634e-06,1.109449243121752e-06,1.754170986364786e-06,8.215827762221714e-06,6.636773109656541e-06,1.2941193333009008e-06,1.5165510099345965e-06,1.922509729842654e-06,4.831674294352479e-06,7.824592968280125e-07,5.736922792545183e-07,1.1786364143094207e-06,8.868654014055481e-07,9.749106249376508e-07,1.5221585307011181e-06,1.2494306524191848e-06
221,2.871739655237074e-06,1.1372636641682595e-06,1.7863180423790472e-06,8.0065316826058e-06,7.418432679745194e-06,1.2878772329466722e-06,1.5258532803151397e-06,1.9009968531747967e-06,4.863915980921895e-06,7.68902521381942e-07,5.516072918429692e-07,7.627581403847176e-07,8.725821067847906e-07,9.911586665158358e-07,1.5326190647998188e-06,1.2636204842955351e-06
222,2.618912177898171e-06,1.1648058028930064e-06,1.8248126238185657e-06,7.831414444555909e-06,8.309704046381764e-06,1.2811435772999317e-06,1.5319640823640387e-06,1.8740550707669325e-06,4.8900858719998446e-06,7.596230407439175e-07,5.315228373642262e-07,4.2178455772686917e-07,8.573845414249525e-07,1.0068176485667704e-06,1.538691114901281e-06,1.2804988403675635e-06
223,2.3854363495502475e-06,1.1915616685084618e-06,1.8699733652538466e-06,7.695967210297098e-06,9.313305101495672e-06,1.2735382585454298e-06,1.5353095219022418e-06,1.8409967212131282e-06,4.9125148584689686e-06,7.544242613149673e-07,5.136586954037683e-07,1.4821259217391398e-07,8.416023509758106e-07,1.0218090311216637e-06,1.5398462643191387e-06,1.2998214411022665e-06
224,2.171395149173137e-06,1.2170015762686305e-06,1.921847851008169e-06,7.60502480911621e-06,1.0430742641400485e-05,1.2646496434399558e-06,1.5363491451429257e-06,1.8014749112077808e-06,4.933804249435279e-06,7.529661447819312e-07,4.981950131998623e-07,-6.542905480698322e-08,8.25676307593135e-07,1.0360474414510981e-06,1.535668096789416e-06,1.321499637785756e-06
225,1.9765105950587642e-06,1.2405691014005785e-06,1.9801703631174423e-06,7.562258767795555e-06,1.1661898621976016e-05,1.2541080462061839e-06,1.5354166133866686e-06,1.7556085402184894e-06,4.9563092396858346e-06,7.547978773957175e-07,4.852925321190759e-07,-2.2642415088751845e-07,8.100099648418584e-07,1.0494391466051413e-06,1.525917713028489e-06,1.345486471433488e-06
226,1.800170181355853e-06,1.2617500371596872e-06,2.044454527361298e-06,7.569859573931525e-06,1.3004567338790948e-05,1.2416554028600975e-06,1.5326995647045426e-06,1.7039864537890372e-06,4.9819009036913755e-06,7.594105994972817e-07,4.7509040808584875e-07,-3.416206992248385e-07,7.948728477593551e-07,1.0619754047069918e-06,1.5105239526090201e-06,1.3716179191745475e-06
227,1.6415434262413795e-06,1.2802017765405012e-06,2.1141715580431012e-06,7.628502073589911e-06,1.4454239000473601e-05,1.2271497432816111e-06,1.5282775679994234e-06,1.647591739720944e-06,5.012032194126381e-06,7.662868493262959e-07,4.676970464144822e-07,-4.171975360038796e-07,7.803788630046602e-07,1.0737987031499022e-06,1.48960069079695e-06,1.3995348531569925e-06
228,1.4997160311025745e-06,1.2958234788911773e-06,2.1889247044190435e-06,7.73744251678053e-06,1.600416744120157e-05,1.2105436513353462e-06,1.5220977585870151e-06,1.5877053139141577e-06,5.047732699702725e-06,7.749222758677712e-07,4.6316676690239127e-07,-4.5862797592136563e-07,7.665135025818865e-07,1.0851131245196682e-06,1.463531446494232e-06,1.4287041974516143e-06
229,1.3737732397748648e-06,1.3087161968278072e-06,2.268546118867539e-06,7.894634279248245e-06,1.7645440024012013e-05,1.1919714642725826e-06,1.513911139881898e-06,1.5257886841949845e-06,5.0894155333419195e-06,7.848616107942971e-07,4.614842330008277e-07,-4.7085652714867363e-07,7.531962617622765e-07,1.0960355164832425e-06,1.4330092638473922e-06,1.4585059765312285e-06
230,1.2628504409501302e-06,1.3191176943565499e-06,2.3530664921705077e-06,8.09681847490906e-06,1.9366800896642223e-05,1.1718856995087545e-06,1.5032575857747102e-06,1.4633255650661094e-06,5.136798281775228e-06,7.95796549116534e-07,4.6257669274801566e-07,-4.5842704302249606e-07,7.403615481854403e-07,1.106583232472099e-06,1.398926747645505e-06,1.48835626058268e-06
231,1.1661877703136947e-06,1.3273927535080483e-06,2.442559629392006e-06,8.33950766711291e-06,2.1154202472133434e-05,1.1510397165942586e-06,1.4895504592683113e-06,1.4016515236401897e-06,5.189094485615672e-06,8.076354375034265e-07,4.6635663883313794e-07,-4.253940509023788e-07,7.279856177800183e-07,1.1168205365478145e-06,1.3622376547545984e-06,1.5178436948543937e-06
232,1.0831515795375884e-06,1.334038912976007e-06,2.5369401240512e-06,8.617099190871566e-06,2.2990200627573435e-05,1.1302968528291657e-06,1.4722496581516068e-06,1.3418355534548102e-06,5.245236902720425e-06,8.204365928593137e-07,4.7279414726537113e-07,-3.751933663498413e-07,7.160516625780703e-07,1.1269673394603253e-06,1.32391403603227e-06,1.5467987313082748e-06
233,1.0131599067873575e-06,1.3396272914588562e-06,2.6358269645760546e-06,8.923732275784508e-06,2.485346136257976e-05,1.1104199764217888e-06,1.4510789202176724e-06,1.2846500277894447e-06,5.303950365173027e-06,8.34278226886923e-07,4.819547495833739e-07,-3.1069571326699686e-07,7.045384506087331e-07,1.1373339681016618e-06,1.2848851612902748e-06,1.5751887029739315e-06
234,9.555551269750388e-07,1.3446904890274504e-06,2.7385213684798295e-06,9.254931211331859e-06,2.6718907874774108e-05,1.0919546256106793e-06,1.4262033984708856e-06,1.2306139341551953e-06,5.363826724474566e-06,8.49186870008167e-07,4.939584916029194e-07,-2.3439754713739036e-07,6.934420764908603e-07,1.1481814147456268e-06,1.24590821035143e-06,1.6029167900692647e-06
235,9.095549491057073e-07,1.3496511743084918e-06,2.844029343926306e-06,9.608971445747278e-06,2.8559177103157933e-05,1.0752286419500886e-06,1.3982373415725556e-06,1.1800673736308365e-06,5.423526646028811e-06,8.651602456892344e-07,5.089296040786961e-07,-1.4853953230900405e-07,6.827813425918967e-07,1.1596512871098582e-06,1.207522503209748e-06,1.6297481257554414e-06
236,8.743155638600696e-07,1.3548320020716098e-06,2.9510335136517657e-06,9.98691386634728e-06,3.0347534401362164e-05,1.060438653732905e-06,1.3680385652485217e-06,1.1332499944157423e-06,5.481925185985369e-06,8.82240778254778e-07,5.269863676448123e-07,-5.506447228258719e-08,6.726303679511451e-07,1.1717819003664495e-06,1.1701369723134199e-06,1.6554090734881663e-06
237,8.489980160682486e-07,1.3604730624496373e-06,3.0578733181518116e-06,1.0391374951008616e-05,3.206107717579189e-05,1.047756972041648e-06,1.3364296442163388e-06,1.0903698383306114e-06,5.537971462960999e-06,9.005250744601388e-07,5.482308133625353e-07,4.450279340154131e-08,6.632082885511643e-07,1.1845438113749263e-06,1.134123156490069e-06,1.6796738979345927e-06
238,8.327542859393105e-07,1.3666817682926854e-06,3.1627399426405132e-06,1.0824897734971919e-05,3.368203934444811e-05,1.0373933566109736e-06,1.3040263579426517e-06,1.051636110174023e-06,5.590300191467067e-06,9.20074727431906e-07,5.727109247632689e-07,1.491515311643032e-07,6.548998892108309e-07,1.1978486966721205e-06,1.0998322579421633e-06,1.7023130825385273e-06
239,8.246624380849871e-07,1.3733503240299236e-06,3.2641165096301585e-06,1.1288874367250545e-05,3.5195730001556306e-05,1.029589749205628e-06,1.271228413104827e-06,1.0172473854501387e-06,5.636819182960889e-06,9.408325765728533e-07,6.00392640760901e-07,2.583827414646822e-07,6.48152086821287e-07,1.2115602813498072e-06,1.0675875260795728e-06,1.7229634656472835e-06
240,8.236719387707637e-07,1.3801293247453077e-06,3.3611589582353046e-06,1.1783544599251592e-05,3.6586445290521705e-05,1.024566698187815e-06,1.2383010874634821e-06,9.873688431159535e-07,5.674493526701852e-06,9.626413792224221e-07,6.311775147110775e-07,3.720979472695606e-07,6.433734979878302e-07,1.2255250574196992e-06,1.037685498639983e-06,1.7410169919256129e-06
241,8.285849858660835e-07,1.3864894598616114e-06,3.453699523054656e-06,1.2308826597794164e-05,3.7835159850331044e-05,1.022452505238525e-06,1.2054375131326252e-06,9.621180898827802e-07,5.699527543366206e-06,9.853672177228928e-07,6.649336433268992e-07,4.905327354872205e-07,6.408995659372412e-07,1.239575563740865e-06,1.0103620983062018e-06,1.7555922061361178e-06
242,8.380840379575673e-07,1.391840013709868e-06,3.5418606541828165e-06,1.286533068602666e-05,3.8920953680537014e-05,1.0232315560408976e-06,1.1727837281202658e-06,9.415475144918916e-07,5.707966639738565e-06,1.0090178091596423e-06,7.014910365901238e-07,6.143375161238437e-07,6.409827468158363e-07,1.2535020351517017e-06,9.85741508675154e-07,1.7656417642920773e-06
243,8.507885679911929e-07,1.39565937185795e-06,3.6255604105791336e-06,1.3455064804620667e-05,3.982412040247273e-05,1.0267559044381138e-06,1.1405079921628022e-06,9.256419063155052e-07,5.696401050879328e-06,1.0337309780047342e-06,7.406146043805249e-07,7.446414668824566e-07,6.437857890011604e-07,1.2670512961099259e-06,9.63850314887031e-07,1.7701958058774456e-06
244,8.652891613066635e-07,1.3975934488767798e-06,3.7042625181139514e-06,1.40816511739146e-05,4.0528664435430526e-05,1.0328219648702407e-06,1.1088885857783948e-06,9.143823446488134e-07,5.662448830819377e-06,1.0596542021269326e-06,7.819865883469265e-07,8.829796812236218e-07,6.493718241521884e-07,1.2799563459977364e-06,9.446751893138009e-07,1.7686514384561282e-06
245,8.801951500146539e-07,1.397482557186076e-06,3.777088696166825e-06,1.4750164504633854e-05,4.102406854800186e-05,1.0412454575811272e-06,1.0782834061725341e-06,9.078751352252098e-07,5.605030267172494e-06,1.0868374652152253e-06,8.251918535725816e-07,1.0312105580655198e-06,6.576942401365421e-07,1.2919303206782374e-06,9.281764913838883e-07,1.7609573238291667e-06
246,8.942964972719418e-07,1.3953150885135005e-06,3.843080504859944e-06,1.5466802469180926e-05,4.130666657779671e-05,1.051882783046846e-06,1.0489940097632015e-06,9.064637609636006e-07,5.524553076819647e-06,1.1151999445100628e-06,8.696891101342395e-07,1.1915136972128363e-06,6.685881550119656e-07,1.3026308811450632e-06,9.142935233180216e-07,1.747590149523735e-06
247,9.067737501342317e-07,1.3911633447765292e-06,3.901286439349108e-06,1.623843931003128e-05,4.138020253757066e-05,1.0646082511917125e-06,1.0211811948511023e-06,9.107354145293709e-07,5.422915344932007e-06,1.1445347532234115e-06,9.147858097983855e-07,1.3663708031698039e-06,6.81755497068219e-07,1.31170281803687e-06,9.029977184280697e-07,1.7293804382510427e-06
248,9.172574924149415e-07,1.3851697086987754e-06,3.950582512822326e-06,1.7071920871136083e-05,4.125477368202142e-05,1.0792598976252663e-06,9.948984485015285e-07,9.214185106827238e-07,5.303139652449613e-06,1.1745003266515778e-06,9.596741945423032e-07,1.5584315151780252e-06,6.967530215240945e-07,1.318922248454591e-06,8.943056415512637e-07,1.707329255770119e-06
249,9.256838524560654e-07,1.3775974431101063e-06,3.989595221974436e-06,1.7972972854516164e-05,4.094366080923062e-05,1.0955618441399665e-06,9.701550656904917e-07,9.3928596164206e-07,5.168663630859135e-06,1.2046154407694716e-06,1.0035368363496438e-06,1.7702995956255014e-06,7.130022719441334e-07,1.3243048567638052e-06,8.881926940168802e-07,1.6824601793621808e-06
250,9.320986114509497e-07,1.3688892211258158e-06,4.017103038737097e-06,1.8945054328616637e-05,4.045885465990397e-05,1.1130724061153753e-06,9.469037482803274e-07,9.651905395167627e-07,5.022566519580717e-06,1.234316223244251e-06,1.045615834892195e-06,2.004345099823989e-06,7.298304695299946e-07,1.3280495635050048e-06,8.844913135879354e-07,1.6556782200471404e-06
251,9.365632111577066e-07,1.3596399782326419e-06,4.032667546164329e-06,1.998901555920539e-05,3.9808006362504527e-05,1.1311989738926614e-06,9.24971626316686e-07,1.0001932761796753e-06,4.867054825846056e-06,1.2630554770358056e-06,1.08517263773171e-06,2.262611152067472e-06,7.465377644321358e-07,1.3303491702403514e-06,8.828438894655372e-07,1.6276976727797463e-06
252,9.391534512940856e-07,1.3504664645622676e-06,4.036935483593309e-06,2.110383653452994e-05,3.8995190153416066e-05,1.149240954670536e-06,9.040193887666347e-07,1.0456105659396042e-06,4.703365840830431e-06,1.2903473724114825e-06,1.1214357331004942e-06,2.5468034039821848e-06,7.624488803715776e-07,1.3312065150298843e-06,8.827062184491058e-07,1.5991150242303736e-06
253,9.399513423026369e-07,1.341918804343752e-06,4.031362594757195e-06,2.228744261984276e-05,3.802451059909631e-05,1.16639506719892e-06,8.835654323681495e-07,1.1028981634591078e-06,4.532053530803779e-06,1.3157391183395795e-06,1.1536389845514606e-06,2.858292705278378e-06,7.769261814356466e-07,1.330346929926735e-06,8.834162422202092e-07,1.5705243330521132e-06
254,9.389982498109117e-07,1.3345330232643792e-06,4.017564192027698e-06,2.3536459989022593e-05,3.690368571167851e-05,1.1817295776053254e-06,8.63085941279113e-07,1.1734694051965815e-06,4.353528124368199e-06,1.3388154434955088e-06,1.181110892880002e-06,3.1980525033499234e-06,7.894267959575118e-07,1.3272275959944754e-06,8.843540989035142e-07,1.542516062064617e-06
255,9.362577258284488e-07,1.3288823921859938e-06,3.996807068959653e-06,2.4844918504691245e-05,3.564603923285955e-05,1.1942344517261455e-06,8.421687483552188e-07,1.258580178562883e-06,4.1686462034361536e-06,1.3592619787149951e-06,1.2033623394477673e-06,3.5665156219229227e-06,7.996299906262526e-07,1.3211294367458589e-06,8.851098978627754e-07,1.5155877124348706e-06
256,9.316219457051577e-07,1.3254907264396079e-06,3.969976986974533e-06,2.6203087175286788e-05,3.427076036442513e-05,1.2030266626073157e-06,8.206222224100737e-07,1.3593381777886505e-06,3.979055800010349e-06,1.376858312062738e-06,1.220161989904101e-06,3.9634336811519684e-06,8.074821154666161e-07,1.311329490451226e-06,8.855054301274305e-07,1.4900896316866453e-06
257,9.249297479998528e-07,1.3246943216649402e-06,3.9378460783658686e-06,2.759759344547243e-05,3.280161300531321e-05,1.2076163819852436e-06,7.984501686574185e-07,1.476811057408985e-06,3.787090610730223e-06,1.391391888416411e-06,1.2315522028760638e-06,4.3878337881759346e-06,8.130865955161028e-07,1.2973108801578595e-06,8.854679536299655e-07,1.4662073806079864e-06
258,9.159547130195131e-07,1.326603669711903e-06,3.901299985406573e-06,2.901264727703216e-05,3.126448471297025e-05,1.2080649295852405e-06,7.757517857242295e-07,1.6121089970731202e-06,3.595323701789969e-06,1.4026410319990237e-06,1.2377735805545429e-06,4.83810144780379e-06,8.165833798312255e-07,1.2788742516555739e-06,8.849496249754012e-07,1.4439383817366862e-06
259,9.044135314304035e-07,1.3311850022722803e-06,3.8613252522617615e-06,3.043135090078564e-05,2.968438503255406e-05,1.2049562478690887e-06,7.526811861347144e-07,1.766318046053689e-06,3.40610839403117e-06,1.4104105241254197e-06,1.2391403658075317e-06,5.312149318755486e-06,8.181302259984246e-07,1.2560387071799581e-06,8.840113548996061e-07,1.4231118102621942e-06
260,8.900731741787051e-07,1.3383398933148802e-06,3.818732349097769e-06,3.1836497092170755e-05,2.808281161071288e-05,1.1992092536592765e-06,7.29464809342289e-07,1.9403180725855892e-06,3.221354794422576e-06,1.4144941205398493e-06,1.2359555700588297e-06,5.807592679214644e-06,8.179390142498594e-07,1.2288659086385932e-06,8.82936958522925e-07,1.403507132372228e-06
261,8.729063127206227e-07,1.3478847510834752e-06,3.7738361911770683e-06,3.321074361103417e-05,2.6476832042676282e-05,1.191851276832916e-06,7.063806912234752e-07,2.1346180592321944e-06,3.0425895141723167e-06,1.4146259553922377e-06,1.2285802922921608e-06,6.321961884582529e-06,8.162989866295125e-07,1.1974405331513372e-06,8.822017284169867e-07,1.3849892609466913e-06
262,8.531706419822114e-07,1.3595106231905421e-06,3.7263726250129674e-06,3.4536072068344506e-05,2.488018743101354e-05,1.18388550593886e-06,6.836970596002203e-07,2.349273651533756e-06,2.8711612098372454e-06,1.4105560871084068e-06,1.2176347338756376e-06,6.853074694076487e-06,8.135589616693815e-07,1.1620167733942416e-06,8.823135328307426e-07,1.3675096412739059e-06
263,8.313720491130064e-07,1.3728352310619247e-06,3.6757472539096046e-06,3.5792460115190745e-05,2.330487223575755e-05,1.1762372863076242e-06,6.616308583064075e-07,2.5838488999035412e-06,2.7083531761677275e-06,1.4022176950983785e-06,1.204090237312512e-06,7.399445932444143e-06,8.100812358538596e-07,1.1231693286011374e-06,8.836636125779126e-07,1.3510073335581736e-06
264,8.08160526909676e-07,1.387483617486466e-06,3.6214898213838836e-06,3.6955976310236e-05,2.176196047990031e-05,1.1696810500567134e-06,6.403397453805689e-07,2.8373673807362465e-06,2.5553291159957107e-06,1.3898164633968177e-06,1.189124852319895e-06,7.960329085297839e-06,8.062136598214159e-07,1.081802350953657e-06,8.864606047657574e-07,1.3353424966091934e-06
265,7.842104070309813e-07,1.4030846700829023e-06,3.5635609310044384e-06,3.799735425035413e-05,2.026176287835098e-05,1.1647583321422578e-06,6.199384908274804e-07,3.1082594252792406e-06,2.4131333164554407e-06,1.3737431318371908e-06,1.1738925265700656e-06,8.535146325054523e-06,8.022819623396255e-07,1.03898323763322e-06,8.907301195835987e-07,1.3202850955945385e-06
266,7.601133155042758e-07,1.4192035471921733e-06,3.502251248239955e-06,3.888301700814107e-05,1.8813463201339963e-05,1.1617638014099325e-06,6.005482308729256e-07,3.3943513835639596e-06,2.2828568657993796e-06,1.354445478196855e-06,1.1593739896471635e-06,9.122619835941244e-06,7.985825754590388e-07,9.957203205057493e-07,8.963658098955664e-07,1.3056001091590918e-06
267,7.363149488039692e-07,1.4353169040486664e-06,3.4378431448646137e-06,3.9579506016239694e-05,1.7424280268399632e-05,1.1608186624518687e-06,5.823647810112175e-07,3.6929090766297306e-06,2.1657087909349073e-06,1.3324289386856227e-06,1.1463480725337428e-06,9.720346838989834e-06,7.953970046404084e-07,9.528272057469202e-07,9.032262947317263e-07,1.2912267268537198e-06
268,7.131127021922944e-07,1.4508810622022953e-06,3.370443276575554e-06,4.0059632339914125e-05,1.6098747172220888e-05,1.1619812650878856e-06,5.656888104231945e-07,4.000689859875356e-06,2.0628332816597085e-06,1.3082922576637363e-06,1.1354333748076577e-06,1.032524305138963e-05,7.930147121803261e-07,9.109088338769398e-07,9.112123020003529e-07,1.2773557308155555e-06
269,6.906899750097623e-07,1.4653926446257324e-06,3.3001992157456566e-06,4.0307498017792186e-05,1.4838929812336828e-05,1.1653015440333974e-06,5.508795580485462e-07,4.313919566924912e-06,1.975077282768195e-06,1.2826493545380047e-06,1.1271150249750641e-06,1.0934540701738155e-05,7.916996504734889e-07,8.704206031676498e-07,9.202613994432115e-07,1.2642941357251844e-06
270,6.691565073318649e-07,1.4783220966371121e-06,3.227702849024215e-06,4.032056232811656e-05,1.3645591099451166e-05,1.1707738203877213e-06,5.38266696199179e-07,4.628152643311967e-06,1.9028816518439117e-06,1.256022349828433e-06,1.1217199987946087e-06,1.1546739496789907e-05,7.91623296890985e-07,8.317235868913641e-07,9.303037499911815e-07,1.2522748678959314e-06
271,6.485923102970987e-07,1.4890049256043288e-06,3.1541938994292668e-06,4.0108418569895774e-05,1.251939828084694e-05,1.1782790257701135e-06,5.280827451293967e-07,4.9380906045997396e-06,1.8462647916680694e-06,1.2288277002918578e-06,1.1193879517279243e-06,1.2162011938030185e-05,7.928531103378275e-07,7.950828696933132e-07,9.412584798049775e-07,1.2413782389386283e-06
272,6.290972010861523e-07,1.4966581589918617e-06,3.0813706018857748e-06,3.9688722387925415e-05,1.146145083662985e-05,1.1876210375627401e-06,5.204401986302214e-07,5.237484654489554e-06,1.8048585293362974e-06,1.2013900649574337e-06,1.1200791278499826e-06,1.2781850367836558e-05,7.953777113545414e-07,7.606425692883454e-07,9.530526596559122e-07,1.2315835475397522e-06
273,6.108218515718359e-07,1.500530277636756e-06,3.0109476360495284e-06,3.908144114541556e-05,1.0473077108011185e-05,1.1986194162015864e-06,5.153454961030153e-07,5.519287337858409e-06,1.778031513324966e-06,1.1739119631503888e-06,1.123589937020439e-06,1.3408323862277387e-05,7.990985901345765e-07,7.284556528887563e-07,9.655943102915486e-07,1.2229163563345236e-06
274,5.939527715391733e-07,1.5000883557984118e-06,2.9442955347085007e-06,3.8304346821265986e-05,9.555153668409312e-06,1.2111640478550387e-06,5.127286750157414e-07,5.776264549717135e-06,1.7651053077750078e-06,1.1464924979335535e-06,1.1295561570019861e-06,1.4043650214075984e-05,8.038169220948785e-07,6.985593634512051e-07,9.787107470594168e-07,1.2155827880660862e-06
275,5.786790733347061e-07,1.4951385836642746e-06,2.8823717033328777e-06,3.7372819998821645e-05,8.707326747926738e-06,1.2252062170374752e-06,5.124629221932692e-07,6.002027844591912e-06,1.7655613765089513e-06,1.1192769607902393e-06,1.1374794620850092e-06,1.4690339501437608e-05,8.092621183473848e-07,6.710025749325081e-07,9.92097987717827e-07,1.209946384461895e-06
276,5.652134830724213e-07,1.4857996855975488e-06,2.8258668785171693e-06,3.630328779771152e-05,7.927616588566002e-06,1.2407190822779221e-06,5.143746660042978e-07,6.191992723696784e-06,1.7791404914875266e-06,1.0926395277949028e-06,1.1468017544231175e-06,1.5351490377044017e-05,8.151173014767789e-07,6.458004404906673e-07,1.0052923204518466e-06,1.2063853223874878e-06
277,5.538681176763332e-07,1.4723635808621772e-06,2.775391134081227e-06,3.511634900514249e-05,7.212631234602074e-06,1.2576690318487222e-06,5.182612228690333e-07,6.343630228749786e-06,1.8057939520039976e-06,1.067229117545259e-06,1.1570149221129635e-06,1.6030744286338904e-05,8.209973880865866e-07,6.228784641480082e-07,1.0177042513072318e-06,1.2051904316541526e-06
278,5.450846196520697e-07,1.4551788058637097e-06,2.7315621370051872e-06,3.3836721694309185e-05,6.558134600787925e-06,1.2760012187060262e-06,5.239073090676622e-07,6.455778541586656e-06,1.8454922363730574e-06,1.0438322048813283e-06,1.167750108456261e-06,1.6731678036881137e-05,8.264251132543416e-07,6.020510138565771e-07,1.0287489915709768e-06,1.2065278724802479e-06
279,5.393696798054731e-07,1.43463833684805e-06,2.6949021171112914e-06,3.249025903576026e-05,5.959644750225069e-06,1.295607195179593e-06,5.310853358209653e-07,6.527565430022531e-06,1.8980211436474254e-06,1.0231877282004766e-06,1.1787802061965487e-06,1.7456763709086822e-05,8.308671534984277e-07,5.830445218220519e-07,1.0379966499513636e-06,1.2104122702806217e-06
280,5.372090447163095e-07,1.4112136260594818e-06,2.6656220672240174e-06,3.110024395194616e-05,5.412986511217518e-06,1.3162824155691732e-06,5.395531089287495e-07,6.5579466250216844e-06,1.9628853857637037e-06,1.0058949170502996e-06,1.1899504975091415e-06,1.8206851376305655e-05,8.338232338597874e-07,5.655425520604652e-07,1.0452421172721472e-06,1.216731271413329e-06
281,5.390265890958584e-07,1.3854222424552765e-06,2.643547380685465e-06,2.9685133932347012e-05,4.914748746488362e-06,1.337732937513658e-06,5.490605885063192e-07,6.546224624200411e-06,2.03928409014115e-06,9.924116602560705e-07,1.2010976027266823e-06,1.898228039076608e-05,8.349168617124709e-07,5.492301428092921e-07,1.0505071682195398e-06,1.2253380965978147e-06
282,5.451885124389304e-07,1.3577247431490895e-06,2.6282984860625336e-06,2.8258535242315716e-05,4.462452114622903e-06,1.3596455474916273e-06,5.593459127716009e-07,6.49291332736324e-06,2.1261458330345517e-06,9.83081765503753e-07,1.2119984753774903e-06,1.978500024867726e-05,8.339283171861849e-07,5.33857419105405e-07,1.0540181435899308e-06,1.2361281139659203e-06
283,5.560385145300939e-07,1.3284710548325232e-06,2.619510203797296e-06,2.6830778346232087e-05,4.054251724610637e-06,1.381767056300871e-06,5.701158757735855e-07,6.400226072986054e-06,2.222295546506725e-06,9.781599614319677e-07,1.2223796794065252e-06,2.061961895640878e-05,8.30741237922326e-07,5.192962518498807e-07,1.0561380388611278e-06,1.2490741853894256e-06
284,5.719255143390256e-07,1.2979522254142918e-06,2.616813743218609e-06,2.5410885030047985e-05,3.6883239141275755e-06,1.4039640317723457e-06,5.810533068265955e-07,6.272011476934242e-06,2.326686268678878e-06,9.778285524083288e-07,1.2319431742024647e-06,2.1492154223856613e-05,8.252817420975072e-07,5.055273722305128e-07,1.0572660925019308e-06,1.2642647489406544e-06
285,5.931907456524374e-07,1.2664794704999272e-06,2.6195919042519823e-06,2.400797548140237e-05,3.362414688004906e-06,1.426282978072986e-06,5.918722848610068e-07,6.1133302574300254e-06,2.4384750148664633e-06,9.821877820632423e-07,1.240330498844578e-06,2.2407387741328215e-05,8.175329080899367e-07,4.926014390255638e-07,1.0577686080820035e-06,1.2819375160892841e-06
286,6.201442715841872e-07,1.2344248067352627e-06,2.626751373411514e-06,2.2631826048370555e-05,3.0737694659072432e-06,1.4489996322510919e-06,6.023598483100784e-07,5.9299423159742345e-06,2.5568665929640827e-06,9.912204021729237e-07,1.247079708893668e-06,2.3366708135898027e-05,8.075760908825636e-07,4.806273080483304e-07,1.0579381121840129e-06,1.302447913245911e-06
287,6.530518885896883e-07,1.2022020742974128e-06,2.6367077011726134e-06,2.1292724822477915e-05,2.8191863060107117e-06,1.4725890528593962e-06,6.123551120363855e-07,5.727856871835231e-06,2.680896623852742e-06,1.0047927070983177e-06,1.2516835970743635e-06,2.4367244595035387e-05,7.956086145309087e-07,4.697392630854585e-07,1.057953715843676e-06,1.326151066821634e-06
288,6.921104523145984e-07,1.170179885787553e-06,2.6476332087177554e-06,2.0000706702253027e-05,2.5950851989533117e-06,1.4975781087414266e-06,6.217462093292637e-07,5.512927088288004e-06,2.8093951261569286e-06,1.0226933854606436e-06,1.2537174194215106e-06,2.5402097825880197e-05,7.819558414921e-07,4.600394837903731e-07,1.0578629956305802e-06,1.3532964666408966e-06
289,7.374175197388415e-07,1.1385914291471499e-06,2.6578895785122212e-06,1.876426049028367e-05,2.3977404327045367e-06,1.5243502629422021e-06,6.305500474413104e-07,5.290438879744494e-06,2.941179194685238e-06,1.0446399380472964e-06,1.2529398039931787e-06,2.6461137214023915e-05,7.670645011395866e-07,4.5157319736734926e-07,1.0575927643200667e-06,1.3840327479614731e-06
290,7.889663022413227e-07,1.1075291939248555e-06,2.6664173824322085e-06,1.7589220968269914e-05,2.2236219317831233e-06,1.5530108274262249e-06,6.389577968699057e-07,5.064762616685638e-06,3.0752290962284764e-06,1.07027826412742e-06,1.2493314357935918e-06,2.753117802745835e-05,7.514623688810209e-07,4.443338441987216e-07,1.0569988556405617e-06,1.4184474028758158e-06
291,8.466680848189758e-07,1.0770472325198155e-06,2.6728149550129767e-06,1.6478874360465006e-05,2.0696912355518063e-06,1.5833360349820276e-06,6.472461904645926e-07,4.839177402615139e-06,3.2106374328777676e-06,1.0992129341509996e-06,1.2430586411899114e-06,2.859528746147506e-05,7.357103604383704e-07,4.382593493869731e-07,1.0559686037969761e-06,1.4565321099035595e-06
292,9.103630343920696e-07,1.0473110152781423e-06,2.677045088857195e-06,1.5435301107453902e-05,1.9335908533155682e-06,1.6147594277214335e-06,6.556486518722613e-07,4.615848665797733e-06,3.34638818280175e-06,1.1309960835155618e-06,1.2343613177121016e-06,2.963248294095238e-05,7.203526141500457e-07,4.332247712415227e-07,1.0545019221347424e-06,1.4981056295516381e-06
293,9.79784504700634e-07,1.018658870117614e-06,2.6790231597086243e-06,1.4460778418608958e-05,1.813682972272499e-06,1.6463711746365026e-06,6.643016838842958e-07,4.3959129086681865e-06,3.4811483504262306e-06,1.1650647759798232e-06,1.2234128464735914e-06,3.061793985993477e-05,7.058626116210949e-07,4.2907958859062074e-07,1.0526923111743967e-06,1.5427797985126714e-06
294,1.0545072570480827e-06,9.91512880586377e-07,2.6784153153202033e-06,1.3558184722994957e-05,1.7089518064852334e-06,1.676963328457398e-06,6.732635058396807e-07,4.179750497244873e-06,3.6132522626740206e-06,1.200731539089111e-06,1.2102391467168433e-06,3.152305442204946e-05,6.926124971284854e-07,4.257138240679291e-07,1.0506548091761147e-06,1.5900171220144399e-06
295,1.1339479381563346e-06,9.66251323511542e-07,2.6747105448846883e-06,1.2730312295998715e-05,1.6188427792990532e-06,1.705172277606663e-06,6.825496145116947e-07,3.9674663873771955e-06,3.7408714085561463e-06,1.2372490342124873e-06,1.1947393920405696e-06,3.2317312100143177e-05,6.808974359518867e-07,4.230688743376238e-07,1.0484959518451507e-06,1.6392624198777805e-06
296,1.2174304605619102e-06,9.431802705076332e-07,2.6674096951225824e-06,1.1978728686842457e-05,1.5430581722334084e-06,1.7296962849039267e-06,6.921514014014719e-07,3.759357034326344e-06,3.862128737032563e-06,1.2738505877410812e-06,1.1767525614704267e-06,3.297398233065747e-05,6.71005498494638e-07,4.210989300003819e-07,1.0463433855906153e-06,1.690044613775148e-06
297,1.3042512020210381e-06,9.2259964456163e-07,2.656197926664601e-06,1.1303062608626987e-05,1.4813130889865718e-06,1.7494775849233766e-06,7.020430741900601e-07,3.5560965058848014e-06,3.975048821833913e-06,1.309749268235766e-06,1.1561200489874965e-06,3.3476192870792426e-05,6.632598156399957e-07,4.1975599677344275e-07,1.044381255379006e-06,1.741985540608609e-06
298,1.3936942735063908e-06,9.048379187655099e-07,2.640997590711445e-06,1.0701178250980082e-05,1.4331313404769198e-06,1.7637735502893432e-06,7.121838128281758e-07,3.3586166076217126e-06,4.077526106512818e-06,1.3442129652126564e-06,1.1327625714221003e-06,3.3817482960725725e-05,6.579917477618327e-07,4.189958770413506e-07,1.0428365979071552e-06,1.7947703068858106e-06
299,1.4850319090973484e-06,8.901920245071548e-07,2.6218264763935852e-06,1.0169905764325646e-05,1.3977556186419857e-06,1.7721500994155561e-06,7.225043793243953e-07,3.167916531445825e-06,4.167473172609336e-06,1.3767456220835263e-06,1.1067836985360786e-06,3.399648214377701e-05,6.554994833613959e-07,4.187718183651162e-07,1.041915271062221e-06,1.8481393202131868e-06
300,1.5775553678459838e-06,8.788460404801295e-07,2.5985773891073615e-06,9.705721412367604e-06,1.3741685214713547e-06,1.7744632325406655e-06,7.329116218773218e-07,2.985033426637664e-06,4.243103769764056e-06,1.4072282946221628e-06,1.0785492052587148e-06,3.401197336252065e-05,6.560416864567174e-07,4.190342913036165e-07,1.0417599653850665e-06,1.9019106656977629e-06
301,1.670610022556709e-06,8.708499669926652e-07,2.570920689045787e-06,9.305114481619383e-06,1.3611838512964958e-06,1.7708443247937975e-06,7.433387556652405e-07,2.81114409632233e-06,4.303242522412905e-06,1.4358845244619657e-06,1.0486559293228103e-06,3.386330164854158e-05,6.598450245325952e-07,4.197499066270308e-07,1.0424825196197996e-06,1.9559966021160792e-06
302,1.7636049517644479e-06,8.661686294975012e-07,2.5383243155099826e-06,8.9646804915098e-06,1.3575345565260972e-06,1.761658172586701e-06,7.53764200613297e-07,2.647584322575734e-06,4.347586706791032e-06,1.4630877586335102e-06,1.017797310564439e-06,3.3554064286077036e-05,6.6709139185445e-07,4.2089995526301904e-07,1.044210409993964e-06,2.010334273090344e-06
303,1.856062026730232e-06,8.647516761337392e-07,2.5001080701889466e-06,8.681056313310818e-06,1.361884785788151e-06,1.7474100533538033e-06,7.641409220753866e-07,2.495684933186303e-06,4.376761550334663e-06,1.489169752028841e-06,9.86659881177466e-07,3.309444850732648e-05,6.778887128504487e-07,4.2244153042158773e-07,1.0470723820187479e-06,2.064716049371345e-06
304,1.9477863742985627e-06,8.665527030400922e-07,2.4556088062196537e-06,8.450779235424596e-06,1.3727645694770154e-06,1.7286318550126806e-06,7.743109769360913e-07,2.3565273206996084e-06,4.391971781404688e-06,1.51438156651163e-06,9.55901600165916e-07,3.2500254458764244e-05,6.922417208203221e-07,4.2427277031034024e-07,1.051130987856328e-06,2.1186591501205827e-06
305,2.0390747362494117e-06,8.715122041160063e-07,2.404492292919075e-06,8.270099953889902e-06,1.3884890637604035e-06,1.7058081861611098e-06,7.839997212632395e-07,2.2307695926961418e-06,4.394374028632206e-06,1.5389630971131395e-06,9.26119042024933e-07,3.1789299508759506e-05,7.100441390376006e-07,4.2624549075287395e-07,1.0563226446427842e-06,2.171467748016547e-06
306,2.1307274903290585e-06,8.795946556729309e-07,2.347006014726289e-06,8.134822786226773e-06,1.4071404697447933e-06,1.6793449448414056e-06,7.928894091570793e-07,2.118628655635219e-06,4.3846249448211935e-06,1.5631734695056561e-06,8.977839368434022e-07,3.097799704475437e-05,7.311234075703733e-07,4.2823887080041623e-07,1.062467394922884e-06,2.222430987291092e-06
307,2.223765524011935e-06,8.908769013681429e-07,2.283928641024904e-06,8.040301035955277e-06,1.4266570154260682e-06,1.6495264562709625e-06,8.007016174687484e-07,2.0200131754017687e-06,4.3628133216849e-06,1.5872630496616707e-06,8.712109416778512e-07,3.008083667572904e-05,7.553032764133005e-07,4.3024390564148537e-07,1.0693539678213385e-06,2.2709167442328827e-06
308,2.3190459229643327e-06,9.055920251413967e-07,2.2162330114340528e-06,7.981557936070095e-06,1.4450056291483893e-06,1.6164872263490268e-06,8.072394788062457e-07,1.934715366243102e-06,4.328577044889637e-06,1.611432330377313e-06,8.465508502284622e-07,2.911154469895217e-05,7.823993995710362e-07,4.3237920890549955e-07,1.076812553742878e-06,2.3162831298243514e-06
309,2.417022341770838e-06,9.240745351939921e-07,2.1447497600642623e-06,7.953231298059322e-06,1.4603578603290165e-06,1.580284277081147e-06,8.123938258569459e-07,1.8625573665267726e-06,4.2812737915383075e-06,1.6357539408174667e-06,8.238016169654521e-07,2.80828766330741e-05,8.121531339890439e-07,4.348395682668872e-07,1.0846905512379317e-06,2.3578054109834718e-06
310,2.517703009160234e-06,9.466398456173084e-07,2.0700806674290283e-06,7.949227835131966e-06,1.4711950265065644e-06,1.5410384475662125e-06,8.161151234927125e-07,1.803460926973027e-06,4.2202433244556875e-06,1.66006613707992e-06,8.028836477776784e-07,2.700599845116875e-05,8.441785734066229e-07,4.3782982527633836e-07,1.0927888403729206e-06,2.3946935442986215e-06
311,2.6206935610338898e-06,9.73484888570848e-07,1.992741230464224e-06,7.962604380569802e-06,1.4763401676810785e-06,1.49903544274165e-06,8.183508537009099e-07,1.7574695867118172e-06,4.1450837897842135e-06,1.6839275477645226e-06,7.837469462432832e-07,2.5891888631202192e-05,8.779402520978732e-07,4.4151073236069797e-07,1.1008459640657577e-06,2.42605169509447e-06
312,2.7252122371148716e-06,1.0046501283811917e-06,1.9133603951834624e-06,7.986093253856862e-06,1.474954686553919e-06,1.4547533460583061e-06,8.190141736333306e-07,1.7247425796128946e-06,4.0557731585854146e-06,1.7066574202604398e-06,7.66393375980837e-07,2.4753083714302036e-05,9.127373848010005e-07,4.459663103749156e-07,1.1085539204436005e-06,2.450813275593652e-06
313,2.8301393666830813e-06,1.0400046507496378e-06,1.832801811785067e-06,8.012890332736527e-06,1.466507105338475e-06,1.4088436524781966e-06,8.18049261823627e-07,1.7055106425567256e-06,3.952626269601887e-06,1.7274266182340527e-06,7.508232713114099e-07,2.360319403860468e-05,9.476981229446045e-07,4.5120630158703936e-07,1.1156043020193737e-06,2.467837963465086e-06
314,2.9342266482413827e-06,1.0792493585993663e-06,1.752148926926308e-06,8.037290161880635e-06,1.4507137248376628e-06,1.3620947025948809e-06,8.15536570524743e-07,1.6999887166263292e-06,3.836282713546022e-06,1.7454536800754134e-06,7.370409278961608e-07,2.2454948446057906e-05,9.818298336353602e-07,4.5722835032375846e-07,1.1217435218914293e-06,2.4761254600941434e-06
315,3.036415385305555e-06,1.1219607389862827e-06,1.6725779376618718e-06,8.05523050448867e-06,1.4274962641975856e-06,1.3153980530400178e-06,8.117386529487275e-07,1.708304134160147e-06,3.7078770459856983e-06,1.7602825274614171e-06,7.251091176589389e-07,2.131879065339061e-05,1.0141638907308866e-06,4.6411454614359047e-07,1.1267465112561658e-06,2.4749845709688724e-06
316,3.1361031498997178e-06,1.1676283582683926e-06,1.5951955384019907e-06,8.064702703077165e-06,1.3970050059848287e-06,1.2697070772492778e-06,8.070669430763097e-07,1.730568714660131e-06,3.569272467019578e-06,1.7718950588113032e-06,7.151196605711402e-07,2.0202813587697678e-05,1.0439074125066602e-06,4.7206583415636985e-07,1.130368152463047e-06,2.464160466173953e-06
317,3.233221757663795e-06,1.21563845269103e-06,1.5209034529934214e-06,8.065729151348087e-06,1.3596868259498406e-06,1.2259552757115846e-06,8.020003231316105e-07,1.7670787699700752e-06,3.42308535271669e-06,1.7805392514962805e-06,7.07101256221233e-07,1.9113596219390703e-05,1.0704816371436243e-06,4.813449032393614e-07,1.1323876200723442e-06,2.4439485144751076e-06
318,3.3280626421091925e-06,1.2652318630512597e-06,1.4503237232596108e-06,8.059830051676598e-06,1.3163287270998012e-06,1.1849472459416074e-06,7.969887060913327e-07,1.8183841045208333e-06,3.272377528390131e-06,1.7865135646336641e-06,7.009858171995804e-07,1.805705262369061e-05,1.0935102020390945e-06,4.922179120271112e-07,1.1326681467263304e-06,2.415172295404362e-06
319,3.4209525095175006e-06,1.315468762008712e-06,1.3837901560856383e-06,8.049240030819523e-06,1.2680107423466107e-06,1.1472917146356648e-06,7.923840782452345e-07,1.8851005942110594e-06,3.120155684337276e-06,1.790158798829107e-06,6.966360456792605e-07,1.7038574953667394e-05,1.1128561652068013e-06,5.049612937786041e-07,1.1311869473161816e-06,2.3789467942989577e-06
320,3.5120178706073796e-06,1.3652091034096363e-06,1.3213647410163385e-06,8.036202446734953e-06,1.2159638947382131e-06,1.1134118335192518e-06,7.884303454088442e-07,1.96769241381548e-06,2.9689515335017536e-06,1.7919343390619356e-06,6.938658225033027e-07,1.6062295374500493e-05,1.1286337125703187e-06,5.198834274658897e-07,1.1281052715872583e-06,2.3364505171690423e-06
321,3.6012018721633142e-06,1.4131361350168835e-06,1.2628492341008455e-06,8.022570794196666e-06,1.161464067428467e-06,1.0835919343550329e-06,7.852857033728286e-07,2.0664366285716483e-06,2.8206672439748102e-06,1.7923262734573676e-06,6.924410883269151e-07,1.5130059427872705e-05,1.1411051011598924e-06,5.372915324201852e-07,1.1237923928310254e-06,2.288984072010745e-06
322,3.6884606552737683e-06,1.4578366096950756e-06,1.2078368478916017e-06,8.00981167415208e-06,1.1058531351455105e-06,1.0580164241950109e-06,7.830200999563703e-07,2.181508408590812e-06,2.6766323163895795e-06,1.791659041979468e-06,6.921072746927264e-07,1.424109675176251e-05,1.150521545656673e-06,5.574299039483388e-07,1.1186920507008693e-06,2.2381753499623496e-06
323,3.773911969152562e-06,1.4979232434245202e-06,1.155844219921623e-06,7.999338121205828e-06,1.0505551725508687e-06,1.0367929985119533e-06,7.815787835322813e-07,2.3130568674251824e-06,2.537717407783212e-06,1.7900243898101515e-06,6.926685389458097e-07,1.33926807468462e-05,1.1570144758473086e-06,5.804539829618537e-07,1.1131357155883805e-06,2.1859524063041825e-06
324,3.857785822041815e-06,1.5321956922928199e-06,1.1064630217425437e-06,7.992939723060278e-06,9.96996851521272e-07,1.0199478749692956e-06,7.807618473506567e-07,2.4612245492979475e-06,2.404497934772036e-06,1.787351233943876e-06,6.940674991904697e-07,1.258112783906089e-05,1.1605851577622284e-06,6.064370603385143e-07,1.1072439245171105e-06,2.1342303763522983e-06
325,3.940186230196474e-06,1.5597971378077458e-06,1.059440629268146e-06,7.9929819230412e-06,9.465256849132355e-07,1.0073914085339548e-06,7.802608755679114e-07,2.626082023017496e-06,2.277481757899747e-06,1.7835479890646664e-06,6.964019323103961e-07,1.1802528236619156e-05,1.1612028026589495e-06,6.353755408967584e-07,1.1009352136074845e-06,2.084604899201047e-06
326,4.020793219372398e-06,1.5802284028979623e-06,1.0146655393943214e-06,8.002138767622045e-06,9.003728107358537e-07,9.989195070048478e-07,7.797192629088339e-07,2.8075376416217204e-06,2.15723052406372e-06,1.7786412207183104e-06,6.99867731587121e-07,1.1053154983472213e-05,1.1589460196718216e-06,6.671973122747441e-07,1.0940258128811619e-06,2.0382428588466667e-06
327,4.0987584179014225e-06,1.593167919142785e-06,9.72087784007631e-07,8.022723920862043e-06,8.596446505232633e-07,9.942964194303372e-07,7.787483578086168e-07,3.0054030183944296e-06,2.044273012076872e-06,1.7728379878572654e-06,7.046574379396934e-07,1.0329764024929381e-05,1.1540529865801411e-06,7.017716300373654e-07,1.0863740542931412e-06,1.995895121655008e-06
328,4.17294557628518e-06,1.5983327552997863e-06,9.316431863041206e-07,8.056008335564895e-06,8.253424904351717e-07,9.93332708451866e-07,7.769183533496094e-07,3.2196063524574044e-06,1.938967607225987e-06,1.7665110871360234e-06,7.108727900949076e-07,9.62993263607845e-06,1.1468438164401525e-06,7.388994533102455e-07,1.0779437208148038e-06,1.9579253207693184e-06
329,4.2423017996846155e-06,1.5955973276444508e-06,8.932612491887729e-07,8.101960713666443e-06,7.983739118785497e-07,9.958572277176178e-07,7.737921822462461e-07,3.4502511217236015e-06,1.8414876918433956e-06,1.7601091327357144e-06,7.18499038161857e-07,8.952322224793838e-06,1.1376111700469068e-06,7.783134947802949e-07,1.0687311412260454e-06,1.92434549323131e-06
330,4.306055432078234e-06,1.5852112205315891e-06,8.569526356521337e-07,8.159464255435862e-06,7.79543587269725e-07,1.0016161804162075e-06,7.689915787875498e-07,3.697352771793233e-06,1.7519274615751736e-06,1.7539968855308816e-06,7.274268987426544e-07,8.296649782364132e-06,1.1265766533188377e-06,8.197160425651119e-07,1.0586919407966062e-06,1.8948896352995261e-06
