,EMG1,EMG2,EMG3,EMG4,EMG5,EMG6,EMG7,EMG8,EMG9,EMG10,EMG11,EMG12,EMG13,EMG14,EMG15,EMG16
0,3.2026319950068043e-07,1.7947114421496002e-07,2.4794612813949624e-07,1.1160522044490838e-06,4.2312059040080174e-08,3.5726406434330556e-07,1.0420852886491262e-07,2.0249898614367515e-07,1.0156750203979804e-06,-6.267618302523606e-08,1.96545168433192e-07,4.5638331585722945e-07,1.0252854442557246e-06,9.529173646549724e-09,1.8638796083834618e-07,4.3426419029880837e-07
1,6.011548094992121e-07,3.7284234943253615e-07,2.918203870320412e-07,2.452574772302082e-06,8.541909611511756e-08,4.6250643501538145e-07,1.8060338695068685e-07,2.974767975948383e-07,1.4594345065326628e-06,1.2094466827992487e-07,2.83445982400648e-07,1.386066192425162e-05,1.1968178549781643e-06,1.2303895081973575e-07,2.5987675857661245e-07,7.481412061815751e-07
2,8.971088545863659e-07,5.622002758683925e-07,3.4031832841032054e-07,3.7559344765215182e-06,1.2728051591622622e-07,5.646606909436103e-07,2.537040034756506e-07,3.91301823880177e-07,1.9214230505493067e-06,3.001461817774269e-07,3.689142824694062e-07,2.6494485882629064e-05,1.3661347565991483e-06,2.3490082454351589e-07,3.3166565087569464e-07,1.0511818669141328e-06
3,1.208393673944583e-06,7.429441671921486e-07,3.9323472531981224e-07,5.016181402910143e-06,1.6750292788567037e-07,6.631611997607046e-07,3.2314894234018945e-07,4.82591450075995e-07,2.397203267223967e-06,4.7358943606552643e-07,4.518125308615388e-07,3.818612119081768e-05,1.5296578757220654e-06,3.4413994447897973e-07,4.005096369854846e-07,1.341003804192001e-06
4,1.5351735114475187e-06,9.111705924084102e-07,4.5045094981564224e-07,6.223354372540718e-06,2.0591157757451926e-07,7.574900204263707e-07,3.88669925943123e-07,5.702930749442419e-07,2.8823166178124807e-06,6.400336379525597e-07,5.311480248873104e-07,4.8807915473060446e-05,1.6847039845002475e-06,4.498506292235617e-07,4.6538064334981503e-07,1.6155461799919109e-06
5,1.877440100791643e-06,1.0641161518881813e-06,5.119186720066837e-07,7.367616573064775e-06,2.4248653089861525e-07,8.471854868162081e-07,4.50022700976322e-07,6.536864775642878e-07,3.3726388923346586e-06,7.983889903017492e-07,6.059851017593646e-07,5.8276237629750244e-05,1.8298071008529607e-06,5.512790254102045e-07,5.255918497065993e-07,1.8728259279686804e-06
6,2.2349482350929828e-06,1.2003758744474516e-06,5.77658757497247e-07,8.439370110664889e-06,2.772979516464102e-07,9.31882789110034e-07,5.069490045768695e-07,7.32266422284483e-07,3.864931546694139e-06,9.477766309428396e-07,6.754310341514123e-07,6.653492071272944e-05,1.964622394021258e-06,6.479050288603485e-07,5.808323644544511e-07,2.110730170661294e-06
7,2.6072293549999742e-06,1.3198386954553163e-06,6.478082771703399e-07,9.429342362723123e-06,3.104988109402391e-07,1.0113013276837358e-06,5.592011752108357e-07,8.056577946674675e-07,4.357245455147442e-06,1.0874753265665014e-06,7.386906117041229e-07,7.353888613323615e-05,2.089475480049538e-06,7.393989559047791e-07,6.310735149765384e-07,2.326907775526456e-06
8,2.9936531052407355e-06,1.4234396297796395e-06,7.226578045004203e-07,1.0328735629536346e-05,3.4232021651294727e-07,1.0851593424187755e-06,6.066108901097067e-07,8.736415468128794e-07,4.84885048186346e-06,1.2167659572102323e-06,7.95116839015983e-07,7.925330920648712e-05,2.2048797841440043e-06,8.254870890399367e-07,6.764579250636455e-07,2.5187960842855015e-06
9,3.393465140411752e-06,1.5128311934036401e-06,8.026148954768323e-07,1.1129619118239282e-05,3.730418043726413e-07,1.1531392944822716e-06,6.491874438786612e-07,9.362014755074348e-07,5.3396836057933925e-06,1.334856704046192e-06,8.442041907580226e-07,8.366509726694086e-05,2.3113121978867583e-06,9.058638333281532e-07,7.172853568543231e-07,2.683867238381215e-06
10,3.8057699072135784e-06,1.5900235878103348e-06,8.880981490680063e-07,1.1825702533821027e-05,4.0298725711931697e-07,1.2149815997566288e-06,6.871941937217108e-07,9.934828262076688e-07,5.829594449521921e-06,1.441024119389718e-06,8.855532305241563e-07,8.679562592391578e-05,2.4091941289074455e-06,9.802263844180194e-07,7.540144861865636e-07,2.820006419752234e-06
11,4.229404439989763e-06,1.6570580178331817e-06,9.794350342527836e-07,1.2413356886811007e-05,4.325426976785605e-07,1.2705695563347422e-06,7.211163986541953e-07,1.0456703283441528e-06,6.317667132893386e-06,1.5348984379334598e-06,9.189368939898089e-07,8.870858615935737e-05,2.4988531128477814e-06,1.0484244363875348e-06,7.871636954154799e-07,2.9258546627341746e-06
12,4.662694829409643e-06,1.715810552447096e-06,1.0768364532846302e-06,1.2892463822845369e-05,4.621309043391132e-07,1.3198761900494022e-06,7.515171228634118e-07,1.0928975527464573e-06,6.801806178425546e-06,1.6166825250710103e-06,9.444781013336969e-07,8.9509220095932e-05,2.580479527076614e-06,1.110575616700711e-06,8.171825937878046e-07,3.0010609668825474e-06
13,5.103226170395952e-06,1.7679234365442548e-06,1.180460033154868e-06,1.3266664215884312e-05,4.921462158814636e-07,1.3628949282051083e-06,7.788864062200189e-07,1.1352840453737654e-06,7.278768168699629e-06,1.6871883925809358e-06,9.627247726738706e-07,8.933267965302592e-05,2.6542693597483787e-06,1.1669854268499837e-06,8.444192147858919e-07,3.046420176720372e-06
14,5.547691302580575e-06,1.814766721474566e-06,1.290533969114551e-06,1.3542803580328849e-05,5.229091182618747e-07,1.3996788339934668e-06,8.03565096166685e-07,1.1730562850245461e-06,7.744691406486242e-06,1.747756745463228e-06,9.745022305769946e-07,8.832535129054702e-05,2.7207071874303736e-06,1.217941652095125e-06,8.691622782499676e-07,3.063833543839863e-06
15,5.991730603041327e-06,1.857415847892152e-06,1.407498060364218e-06,1.3729653223456161e-05,5.546479065991867e-07,1.4303900322992787e-06,8.257378902239177e-07,1.2066037041991594e-06,8.195818750815623e-06,1.8001255251067453e-06,9.80731926203053e-07,8.662925970164254e-05,2.7806996341864007e-06,1.2635951434216296e-06,8.916606352600858e-07,3.056063387371274e-06
16,6.429805125240379e-06,1.896686528480657e-06,1.5321014732413117e-06,1.3836200227076387e-05,5.874947658596554e-07,1.4552584018102192e-06,8.454716961797792e-07,1.2363957100663818e-06,8.628863526346328e-06,1.8462254348423767e-06,9.823770559352864e-07,8.437677548522152e-05,2.8354602168039845e-06,1.3040321339309073e-06,9.121074170711809e-07,3.0263844465651015e-06
17,6.855356667644585e-06,1.933204066192731e-06,1.6654002120478814e-06,1.3870056451641018e-05,6.215016739486548e-07,1.474497155396313e-06,8.627917109503554e-07,1.2628572776179691e-06,9.040686786266165e-06,1.8879423799915745e-06,9.804133241445396e-07,8.169257935800899e-05,2.886336402088765e-06,1.3394589284505717e-06,9.306302070050615e-07,2.9783016504793535e-06
18,7.2614695604400365e-06,1.9674610212622594e-06,1.8086306458568636e-06,1.3836823423017277e-05,6.566610734830228e-07,1.488259792328942e-06,8.777821600772875e-07,1.286340905277721e-06,9.427515735924068e-06,1.926970667599516e-06,9.75770028271248e-07,7.869568871226792e-05,2.9347307908402293e-06,1.3703103208287137e-06,9.472842179887585e-07,2.9153544224875366e-06
19,7.641952690514375e-06,1.9998503341924655e-06,1.962992806926278e-06,1.3740797629251496e-05,6.929125114928377e-07,1.4966723062068712e-06,8.906779111349395e-07,1.3071802213900761e-06,9.784351303505422e-06,1.9647634362512217e-06,9.693124655841546e-07,7.54986740247476e-05,2.9820865840090512e-06,1.3971642185726516e-06,9.620356547454964e-07,2.8408966503280534e-06
20,7.992317909373726e-06,2.0306779330068455e-06,2.129435130299158e-06,1.3586337869162664e-05,7.301580317080298e-07,1.499905615773354e-06,9.018941796268683e-07,1.3256983261941265e-06,1.0105060385550608e-05,2.002470117313837e-06,9.618479335887054e-07,7.220493630599379e-05,3.0298590693243108e-06,1.420570232869e-06,9.747498193249663e-07,2.7578747000422246e-06
21,8.309862820170643e-06,2.0601505246484087e-06,2.3085134085608687e-06,1.337897686604774e-05,7.683034612765217e-07,1.4982041291606076e-06,9.119602843068781e-07,1.3421426117160697e-06,1.038284823229045e-05,2.0408534216297293e-06,9.541190166775745e-07,6.890543504590271e-05,3.079424447594408e-06,1.4409670023856837e-06,9.852268820088481e-07,2.6687610670797224e-06
22,8.592734304866083e-06,2.0883335404512353e-06,2.500319896720341e-06,1.3125946487374474e-05,8.073056911966305e-07,1.4918211843987876e-06,9.213912652655329e-07,1.3566573629990006e-06,1.0610699511182036e-05,2.0802867891244237e-06,9.467900354126113e-07,6.567609466294372e-05,3.131903721042518e-06,1.458680848839771e-06,9.93277029025209e-07,2.575696017275592e-06
23,8.839244699781345e-06,2.1151068563224898e-06,2.7044812133453756e-06,1.283620256498081e-05,8.472123394890534e-07,1.480944683661228e-06,9.305853864845031e-07,1.3693414806762682e-06,1.0782831663953792e-05,2.1208630515336238e-06,9.4041154599416e-07,6.257687647131976e-05,3.187959182783012e-06,1.4738997164153767e-06,9.987368728191778e-07,2.480743976467149e-06
24,9.048493779303445e-06,2.1401686016129653e-06,2.9202686198490324e-06,1.2520159558719827e-05,8.881669614932632e-07,1.465760775462045e-06,9.397975135485388e-07,1.3802902358805191e-06,1.0897689926883862e-05,2.1625051041248267e-06,9.353874171843234e-07,5.9652704205209666e-05,3.247670163718724e-06,1.4866120908981974e-06,1.0014276403760896e-06,2.3861355358767364e-06
25,9.221423030165241e-06,2.163101180716145e-06,3.146801236730565e-06,1.218931386296342e-05,9.303416318279706e-07,1.4466304530455188e-06,9.491471399515617e-07,1.3895639596304426e-06,1.0959768604534754e-05,2.2049479262468075e-06,9.320046226348728e-07,5.693541336446608e-05,3.310532841044762e-06,1.4965780318240648e-06,1.0011534677258119e-06,2.2943388176458917e-06
26,9.361015872052342e-06,2.183468850878241e-06,3.3831949974615927e-06,1.1855806575221032e-05,9.738344889662688e-07,1.4241703337219056e-06,9.586121634367647e-07,1.3971607892945927e-06,1.0977930824412232e-05,2.2476253920391987e-06,9.305126823845158e-07,5.4445666171646083e-05,3.3756263408406397e-06,1.5033444444818166e-06,9.97770361534831e-07,2.2078662019204696e-06
27,9.471641580453647e-06,2.200927526617131e-06,3.628497080415501e-06,1.1531922478996456e-05,1.01860345767028e-06,1.399140718733452e-06,9.68032723455443e-07,1.4030501431201013e-06,1.0962173917373807e-05,2.2896225651993345e-06,9.311702547945627e-07,5.219444630741592e-05,3.4419647191562232e-06,1.5062844346840206e-06,9.913273705313123e-07,2.128985900636224e-06
28,9.558196115817427e-06,2.2153299925594205e-06,3.881474953306213e-06,1.122954696659079e-05,1.064434078162943e-06,1.372265631199117e-06,9.77152498757294e-07,1.4072060229556102e-06,1.0921851748474178e-05,2.3297596390541033e-06,9.342334834832827e-07,5.018425801888265e-05,3.5088796327286578e-06,1.5047155895974298e-06,9.822103373193274e-07,2.0596159571309084e-06
29,9.625470150586508e-06,2.226734583933065e-06,4.1405938991450635e-06,1.0959594811361506e-05,1.1109190973910168e-06,1.344126894460733e-06,9.856543418534975e-07,1.4096047144909021e-06,1.0865706075162866e-05,2.3667647490650715e-06,9.39935680503284e-07,4.841005560281357e-05,3.576225141802945e-06,1.4981188177745096e-06,9.711267717161697e-07,2.001439781177594e-06
30,9.677882559553677e-06,2.2352451712074666e-06,4.404324876991428e-06,1.0731459449772555e-05,1.1574644742653574e-06,1.3151478528418301e-06,9.931442341178763e-07,1.4102927877720742e-06,1.0802481611809103e-05,2.399519596419869e-06,9.48467501033751e-07,4.6859826302561916e-05,3.644307277156919e-06,1.486331962366179e-06,9.589292309547853e-07,1.956050488114658e-06
31,9.719564895853191e-06,2.2408272266788614e-06,4.671437471978206e-06,1.0552668004277647e-05,1.203324788977368e-06,1.285607563072349e-06,9.99118011504662e-07,1.4095433021082779e-06,1.074118164492783e-05,2.42732291512791e-06,9.599463649893683e-07,4.551489949685793e-05,3.713549692898879e-06,1.4695874127624819e-06,9.46463135643472e-07,1.9249463276902954e-06
32,9.754609616089283e-06,2.2432979548293958e-06,4.9409200131683055e-06,1.0428916635883446e-05,1.2476521436123333e-06,1.2556462288693945e-06,1.0029965624172114e-06,1.4079121549833406e-06,1.0690582239335559e-05,2.449982379801483e-06,9.744006255602271e-07,4.435013223058274e-05,3.7840490499326524e-06,1.4483957297334842e-06,9.345131708412354e-07,1.909412134961078e-06
33,9.787090163259676e-06,2.242458966585552e-06,5.211607723091642e-06,1.0364400542617258e-05,1.2895394531329433e-06,1.2252885356478946e-06,1.0042580784298805e-06,1.406110653499677e-06,1.0658260430811894e-05,2.467618005293239e-06,9.917610184558518e-07,4.333405629793938e-05,3.855245529870032e-06,1.4233537070867198e-06,9.237715006527708e-07,1.9104373670622413e-06
34,9.820626281162167e-06,2.2382406100867355e-06,5.481815414836551e-06,1.0362177420845853e-05,1.3280209255896391e-06,1.1945312370130861e-06,1.0025931708500564e-06,1.4048205246989972e-06,1.0649819841466382e-05,2.4803589920465202e-06,1.0118310029033363e-06,4.242904238720085e-05,3.925835799010498e-06,1.3949681306504516e-06,9.148142338420623e-07,1.9286892680548245e-06
35,9.857966670935846e-06,2.2307992234775124e-06,5.749164784209377e-06,1.0424386821161056e-05,1.3620397673960171e-06,1.1634484888509419e-06,9.979881197208856e-07,1.4045737358396e-06,1.0668630368032689e-05,2.4882311714932775e-06,1.0342650355178796e-06,4.159179116512522e-05,3.993996848328615e-06,1.3635861544481053e-06,9.081131797864747e-07,1.964489610412956e-06
36,9.901350669088145e-06,2.220535124359821e-06,6.010682756979095e-06,1.0552267651854444e-05,1.3905030052160273e-06,1.1322024485591736e-06,9.906986459925745e-07,1.4057238949691736e-06,1.071578129397979e-05,2.491276296241032e-06,1.0585785176102987e-06,4.0775255872087605e-05,4.057917645026312e-06,1.3294374955095645e-06,9.040484420050533e-07,2.017830684167908e-06
37,9.953523110790761e-06,2.2080433064437847e-06,6.263159457268618e-06,1.0745948573733177e-05,1.4124871236837743e-06,1.1009746826395975e-06,9.811288833356369e-07,1.4084518067945135e-06,1.0789972370059443e-05,2.489671075238126e-06,1.08414571626177e-06,3.993339892335184e-05,4.116362483661344e-06,1.292713399405007e-06,9.028942918516989e-07,2.0884706490684535e-06
38,1.0018366817994063e-05,2.1940619351472143e-06,6.503615372408719e-06,1.100402193764683e-05,1.4274437366414205e-06,1.0699570674514386e-06,9.696759130871864e-07,1.4127379133072293e-06,1.0887441618038514e-05,2.483684822908484e-06,1.110173867351656e-06,3.902818291191442e-05,4.168881387653048e-06,1.2536430095177614e-06,9.047925094519873e-07,2.1760541388079433e-06
39,1.0100447579927146e-05,2.1794411901121374e-06,6.729644882886815e-06,1.1323035326423313e-05,1.4352236292557088e-06,1.0394214949078613e-06,9.566431625519931e-07,1.4183176467824711e-06,1.1002048447964865e-05,2.4735568464743713e-06,1.1357212327581192e-06,3.8035221458712355e-05,4.215557802227731e-06,1.2125299708763512e-06,9.097429235407127e-07,2.2801495245193198e-06
40,1.0203810536184312e-05,2.165095714971517e-06,6.939459922056544e-06,1.1697161108003328e-05,1.4359457545424152e-06,1.0097531094181765e-06,9.422787218279605e-07,1.4246745385322876e-06,1.1125527226320694e-05,2.4594058325808174e-06,1.1598118961347177e-06,3.694441931794592e-05,4.2564860845227495e-06,1.1697218375171986e-06,9.176500978318588e-07,2.400146932786517e-06
41,1.0330966661111423e-05,2.1519298317357985e-06,7.131582958304056e-06,1.211817282500504e-05,1.4298800703674134e-06,9.814058517426285e-07,9.268698574378041e-07,1.4311280540759914e-06,1.1248108880622103e-05,2.4411484681675184e-06,1.1816233362449537e-06,3.575509811293815e-05,4.291312644736118e-06,1.1256074429243594e-06,9.284198907345118e-07,2.535107169961065e-06
42,1.048259992326502e-05,2.140794909490847e-06,7.30426821251377e-06,1.2575605099268401e-05,1.4174151526020874e-06,9.548342482481363e-07,9.10779324264834e-07,1.4370534299599248e-06,1.1359712776167378e-05,2.418411860587546e-06,1.2006430391261788e-06,3.44688104849906e-05,4.319158809653675e-06,1.0806994616020978e-06,9.420147948196605e-07,2.683695092975627e-06
43,1.0657716536626279e-05,2.132553436324854e-06,7.45493003191827e-06,1.3057023559187498e-05,1.3990177062877527e-06,9.30429927807536e-07,8.943899147398667e-07,1.442118432229441e-06,1.1451367529850643e-05,2.3905319022566676e-06,1.2166601236286448e-06,3.308501235119806e-05,4.338989792294851e-06,1.035665607063146e-06,9.58406341456416e-07,2.844182204508718e-06
44,1.0853754720094262e-05,2.1282365863205843e-06,7.5800290990449775e-06,1.354853330193284e-05,1.3751355845382313e-06,9.084601804274022e-07,8.780357573629358e-07,1.4463275074333585e-06,1.1516129615815036e-05,2.356694734760202e-06,1.2295981945656936e-06,3.160231817825714e-05,4.350155224149415e-06,9.912218996333988e-07,9.77510604021718e-07,3.0144620184706934e-06
45,1.1066441801013383e-05,2.1291562577671763e-06,7.675596072571707e-06,1.4035738537205225e-05,1.346149136860177e-06,8.890295440514226e-07,8.619885198969055e-07,1.449850160356652e-06,1.15490897080449e-05,2.3161881631761328e-06,1.239401400874493e-06,3.0022954660006878e-05,4.35273243443799e-06,9.480097668610649e-07,9.992002033507188e-07,3.1921415489109177e-06
46,1.1289457314716775e-05,2.1368255679045983e-06,7.738039692929708e-06,1.4505390371808025e-05,1.3124351243738918e-06,8.720871998869108e-07,8.464500947024273e-07,1.4528127723875322e-06,1.154656137849941e-05,2.2686928895646088e-06,1.2460757263479724e-06,2.8356695834974944e-05,4.347485890508594e-06,9.065570449245232e-07,1.023330296227656e-06,3.3746925089442655e-06
47,1.1514207382194364e-05,2.1527380860140273e-06,7.764831566380437e-06,1.4947711515749045e-05,1.2744722670189048e-06,8.574673479642258e-07,8.315097856946915e-07,1.4551762299373045e-06,1.150484174103992e-05,2.2144592810143108e-06,1.2497098340877039e-06,2.6622911926704486e-05,4.335531872949957e-06,8.672721351340598e-07,1.0496997306739252e-06,3.559484490064053e-06
48,1.1730083497345917e-05,2.178227583956851e-06,7.754984055030036e-06,1.535868466083649e-05,1.2329125763989123e-06,8.449423312719504e-07,8.17122247807121e-07,1.4566964523963903e-06,1.1419311453387385e-05,2.1542402441403626e-06,1.2503749205671104e-06,2.4850695435407663e-05,4.318014967211805e-06,8.30424556554614e-07,1.0780040570244495e-06,3.743637825462661e-06
49,1.1925566611205516e-05,2.214469247106497e-06,7.70932839954796e-06,1.574106352934491e-05,1.1885748185618641e-06,8.342820186632282e-07,8.031321892077576e-07,1.4569817338409406e-06,1.1284691865114505e-05,2.0891023273586995e-06,1.2480330744581968e-06,2.307699124132049e-05,4.2960341870167734e-06,7.961248815803089e-07,1.1078720645148615e-06,3.9238280720554745e-06
50,1.209037407575635e-05,2.262445406926826e-06,7.630488502788517e-06,1.6103307411818726e-05,1.1423413714745876e-06,8.253025459020172e-07,7.893008442705794e-07,1.455653846700079e-06,1.1096384102945908e-05,2.020338510998941e-06,1.2425997524840968e-06,2.1343014230451536e-05,4.270658818047052e-06,7.643146712391372e-07,1.1389475507409752e-06,4.0962715538875725e-06
51,1.221795026593485e-05,2.3227960197394556e-06,7.5224892758428585e-06,1.645678325330837e-05,1.095028411011394e-06,8.17872373162942e-07,7.753388557908851e-07,1.452500974556929e-06,1.0851985636731346e-05,1.949478195205743e-06,1.2341534283714445e-06,1.969017101362764e-05,4.242757280668575e-06,7.347865899667374e-07,1.1708844199962658e-06,4.257122467585932e-06
52,1.2306666166919274e-05,2.3956670133580204e-06,7.390125359794609e-06,1.6812625319906418e-05,1.0473172201227369e-06,8.118654993217008e-07,7.609718019490503e-07,1.4475063265748372e-06,1.0552324956290612e-05,1.8782150551273719e-06,1.2230974925051635e-06,1.8157131684167598e-05,4.212811602645282e-06,7.072593730278553e-07,1.2032422613353734e-06,4.403196285457289e-06
53,1.23586461828629e-05,2.480640306020402e-06,7.238297858642622e-06,1.7179934833793054e-05,9.997416739141332e-07,8.071099734820739e-07,7.459979151599972e-07,1.4408034875042771e-06,1.0201899456096112e-05,1.8082185439754041e-06,1.2101180996668756e-06,1.6778793171967092e-05,4.18101506555012e-06,6.814830403201498e-07,1.2353901454810923e-06,4.532549969133581e-06
54,1.2377100571596781e-05,2.5767346555368337e-06,7.071453183273799e-06,1.7565756982008525e-05,9.527053607791322e-07,8.03388480375058e-07,7.303277120858101e-07,1.4327228075084748e-06,9.808663567901165e-06,1.7409987113629316e-06,1.1960026325193416e-06,1.55864471269659e-05,4.147504275169975e-06,6.573012589434753e-07,1.2664954828292192e-06,4.644572858084541e-06
55,1.2364449630938537e-05,2.6824504351815632e-06,6.893158496037356e-06,1.7975557916176667e-05,9.065131352587519e-07,8.004607823862993e-07,7.140324468767256e-07,1.4239751910257597e-06,9.383108684502804e-06,1.677892613772126e-06,1.181467341174712e-06,1.4608061960614704e-05,4.112470845753558e-06,6.346380778370782e-07,1.295643370762822e-06,4.739652781871902e-06
56,1.2322439295717248e-05,2.795809504287387e-06,6.705873909399146e-06,1.841297359567945e-05,8.613856676826196e-07,7.980526961913926e-07,6.973447243598505e-07,1.415791728797743e-06,8.936856107974792e-06,1.6200544382488903e-06,1.167088681960631e-06,1.3868313345632193e-05,4.076197316357286e-06,6.134571736848847e-07,1.3220067015970503e-06,4.818628596152794e-06
57,1.2253072319924373e-05,2.914344619456304e-06,6.511055722843509e-06,1.8878980957050007e-05,8.174767755792662e-07,7.958498811883042e-07,6.805643294824518e-07,1.4098349380589015e-06,8.481277801359723e-06,1.5684407134270106e-06,1.153338161824323e-06,1.3388644631135299e-05,4.039136668842264e-06,5.937412219198152e-07,1.344889864546803e-06,4.88219289129498e-06
58,1.2158682660291464e-05,3.0351145026325895e-06,6.309537525292679e-06,1.9371518941278178e-05,7.74908575472414e-07,7.935238120864881e-07,6.639583749720054e-07,1.4079325122084168e-06,8.026742065486112e-06,1.5238741587673307e-06,1.1406312058228065e-06,1.3187556349956828e-05,4.001942119357442e-06,5.754908258811918e-07,1.3637135472918686e-06,4.930406533118455e-06
59,1.204109133977586e-05,3.1548497934588385e-06,6.1019240699791675e-06,1.9886004935824125e-05,7.337694546620655e-07,7.907268369226699e-07,6.477615733919258e-07,1.4118220572864221e-06,7.582646354241304e-06,1.4871002433956875e-06,1.1293211154925308e-06,1.3281001273205329e-05,3.96529893421198e-06,5.587341484317216e-07,1.378085178452283e-06,4.9624672030324795e-06
60,1.1900888409378237e-05,3.2701774591456678e-06,5.8889008218771475e-06,2.0415882403956832e-05,6.94091844892879e-07,7.870651099920036e-07,6.322480186115626e-07,1.4230347551112776e-06,7.15763660596043e-06,1.4587278623877697e-06,1.119681349819945e-06,1.368276681260812e-05,3.929737017116162e-06,5.435577598750167e-07,1.3878154343641377e-06,4.976766246325874e-06
61,1.1737191400772279e-05,3.3778242298974456e-06,5.671500557673463e-06,2.0952282743527103e-05,6.558829825303313e-07,7.821400733058662e-07,6.177629408118599e-07,1.4429137052575444e-06,6.759451543644912e-06,1.439147884375842e-06,1.1119208766149523e-06,1.4404788077293912e-05,3.8956974836245785e-06,5.301365903527011e-07,1.3928176096017736e-06,4.971169406864675e-06
62,1.1547623565354433e-05,3.4747939236734003e-06,5.451226566387073e-06,2.1483162659483343e-05,6.191691007672604e-07,7.756557646183167e-07,6.046740649854843e-07,1.4726751398295328e-06,6.394599742487236e-06,1.428547472661926e-06,1.1061821100044617e-06,1.5457156777383042e-05,3.863693045491144e-06,5.187100704280607e-07,1.3930946550758264e-06,4.943494410591917e-06
63,1.1328848307907336e-05,3.55855021839348e-06,5.229922547735442e-06,2.199317068870272e-05,5.839850583659136e-07,7.675100300724445e-07,5.933037542081814e-07,1.5134581118976694e-06,6.068240263236764e-06,1.4269701082062812e-06,1.1024979695508232e-06,1.6847660692535278e-05,3.834241030286288e-06,5.095234069390718e-07,1.3888673359448309e-06,4.892218688054147e-06
64,1.1077904748934892e-05,3.6272244440167754e-06,5.009481059761981e-06,2.2464947340554625e-05,5.503522239308804e-07,7.57820460800579e-07,5.839060378102204e-07,1.5663770606173851e-06,5.784199278353836e-06,1.434325923907288e-06,1.100773616774268e-06,1.8581214321075292e-05,3.807590468860051e-06,5.02791310163866e-07,1.3806783424091258e-06,4.81725550814542e-06
65,1.0793644881394897e-05,3.6798148933944044e-06,4.791615438424622e-06,2.28813085836908e-05,5.182894101521776e-07,7.46874750711835e-07,5.766841054721228e-07,1.6325823511478634e-06,5.544974057739828e-06,1.4503602854537381e-06,1.1008423749389295e-06,2.0659669222224637e-05,3.783524095658519e-06,4.986936029165992e-07,1.3693509462764052e-06,4.72032580966777e-06
66,1.047753673279645e-05,3.7162288500629103e-06,4.577850317534742e-06,2.322737030167959e-05,4.878340894329542e-07,7.350245396397271e-07,5.717982904983737e-07,1.7132922386404698e-06,5.351783938801462e-06,1.4746205789727552e-06,1.1025617200826203e-06,2.308192474198146e-05,3.761453355104829e-06,4.973835417558149e-07,1.355796881238119e-06,4.604565957934974e-06
67,1.0133749608656061e-05,3.736995410954519e-06,4.3696715878486815e-06,2.349207244229602e-05,4.59076510479259e-07,7.225910452790965e-07,5.69342548352717e-07,1.8097436409787581e-06,5.204691495755235e-06,1.5064060612762227e-06,1.1058857174880539e-06,2.5844004938428557e-05,3.7407465291874227e-06,4.989869298780934e-07,1.3407935453118567e-06,4.473599843691467e-06
68,9.7686962429942e-06,3.7427612911121305e-06,4.168635014723319e-06,2.3668871509910636e-05,4.322022487083636e-07,7.098485320108456e-07,5.69314949612923e-07,1.923055082883086e-06,5.102734697699655e-06,1.5447062237754058e-06,1.1108846957646133e-06,2.8939084629826088e-05,3.7210263908491677e-06,5.035881218072233e-07,1.3248840806663846e-06,4.330730537497052e-06
69,9.39015683763928e-06,3.734029674799944e-06,3.976307497888912e-06,2.3755605767686855e-05,4.07483711556417e-07,6.970689788234459e-07,5.716004260473451e-07,2.0540786878023094e-06,5.044132306855705e-06,1.5882074727214452e-06,1.1176945037044019e-06,3.235757310935409e-05,3.7022612407031798e-06,5.112104461662179e-07,1.3083889005515913e-06,4.178706690049666e-06
70,9.00619803756609e-06,3.7113730949364578e-06,3.7940924558994593e-06,2.3753802636620315e-05,3.8521088140806946e-07,6.84564760110914e-07,5.759614769939837e-07,2.2033316393677947e-06,5.026629461594003e-06,1.6354593334713328e-06,1.126396560430056e-06,3.6087166356575984e-05,3.6846703834245802e-06,5.217937558469061e-07,1.2914205770964654e-06,4.019951179720144e-06
71,8.624237691509947e-06,3.6758089497919887e-06,3.6231099681381462e-06,2.3667772864779057e-05,3.656227715060899e-07,6.726983256844995e-07,5.820455592590895e-07,2.371021561918103e-06,5.047873746699054e-06,1.6852020414950362e-06,1.136913491129425e-06,4.011264757284892e-05,3.668519672689002e-06,5.351797612135812e-07,1.2739133303972668e-06,3.856801306524626e-06
72,8.250486010866753e-06,3.6290133260449696e-06,3.464261071131824e-06,2.3503665495534062e-05,3.488799803106186e-07,6.618580052688413e-07,5.894152898437252e-07,2.5571160666738474e-06,5.105660840278164e-06,1.7366804756563805e-06,1.1490421530820805e-06,4.44152882725468e-05,3.6538533059831712e-06,5.511145131526402e-07,1.2557564134093696e-06,3.6914539860703714e-06
73,7.889691874203644e-06,3.5733267777967537e-06,3.3183922603608396e-06,2.3268412109312257e-05,3.3507464212540656e-07,6.524063523699158e-07,5.975741228588328e-07,2.7614061732425866e-06,5.1979526011823666e-06,1.7897066475991935e-06,1.1626046966859605e-06,4.8971872317130946e-05,3.6402898313898335e-06,5.692637478816511e-07,1.2370118186285637e-06,3.5257059309233253e-06
74,7.54500719893421e-06,3.5115603766416785e-06,3.186350783513022e-06,2.296832301157915e-05,3.242635809483086e-07,6.446209107534735e-07,6.059747378689578e-07,2.9835359577364954e-06,5.322662997215859e-06,1.8444672973101868e-06,1.1775306028818231e-06,5.375345735191735e-05,3.6270645609516523e-06,5.892365948090645e-07,1.218060232677272e-06,3.3608033906030247e-06
75,7.2179703768180605e-06,3.446650610367085e-06,3.0688801961735606e-06,2.2607420320016472e-05,3.1650577475476776e-07,6.38657862380952e-07,6.140582251400953e-07,3.222989852950746e-06,5.4773414392334754e-06,1.9013302743709907e-06,1.1937858552567365e-06,5.872389558598398e-05,3.6133141380884836e-06,6.10624548923201e-07,1.1995564269589248e-06,3.197561772080327e-06
76,6.90875874417734e-06,3.3813236301242636e-06,2.9664596228432808e-06,2.2186531491011698e-05,3.1187627344191185e-07,6.345576099744076e-07,6.213495087767592e-07,3.4790517319389743e-06,5.658926916936994e-06,1.960798036999584e-06,1.2112788037467117e-06,6.383788310317093e-05,3.59844332743944e-06,6.330608855166234e-07,1.1822475628695346e-06,3.0366233663457683e-06
77,6.6166956035204585e-06,3.3178853139539315e-06,2.8791505267751806e-06,2.1704240877327166e-05,3.1045042490462286e-07,6.322775696871946e-07,6.275342684708096e-07,3.7507447653546756e-06,5.863614029030442e-06,2.0234685089933175e-06,1.2298329048619934e-06,6.903902152993673e-05,3.58248266406893e-06,6.562799199751538e-07,1.1667894308467147e-06,2.8786212476734182e-06
78,6.340772424898863e-06,3.2581022879460567e-06,2.8065076913511597e-06,2.115929392290333e-05,3.1229314051952126e-07,6.317302018784257e-07,6.324451218691836e-07,4.036710196365946e-06,6.086710663428643e-06,2.0898682537461234e-06,1.2491736634450467e-06,7.426076358545696e-05,3.5663577743174135e-06,6.801252950807765e-07,1.1536374722694143e-06,2.7241951058445685e-06
79,6.079977442736267e-06,3.203125904256564e-06,2.7476032524341375e-06,2.05529716749154e-05,3.1747262570853066e-07,6.328438712082056e-07,6.35997730960201e-07,4.335017278232925e-06,6.322422952179691e-06,2.1602538632327425e-06,1.2688832622334201e-06,7.94330777629319e-05,3.55186289168695e-06,7.044796397504035e-07,1.1430175356136424e-06,2.574015467717343e-06
80,5.833421425852356e-06,3.153477790440552e-06,2.701093047968372e-06,1.989040871213095e-05,3.2606562076507203e-07,6.356438633167094e-07,6.381704676568372e-07,4.643037765769228e-06,6.563770209646206e-06,2.234502831923269e-06,1.2883523702562815e-06,8.449255808897335e-05,3.541248047376574e-06,7.291766478602904e-07,1.1349736434713858e-06,2.4288578060002255e-06
81,5.600354910223839e-06,3.1090849861772666e-06,2.6652566834099587e-06,1.9180728172641348e-05,3.38132163351572e-07,6.402871999432152e-07,6.390529211998871e-07,4.9574662767071205e-06,6.802925482080535e-06,2.3120683181798652e-06,1.3067997639832183e-06,8.938978361895375e-05,3.5367757600271113e-06,7.53977277144629e-07,1.129492350685818e-06,2.289544998849559e-06
82,5.380124636238481e-06,3.069338443554789e-06,2.6380762025310122e-06,1.8436340236143087e-05,3.5369055492971976e-07,6.470189169611943e-07,6.388890811879174e-07,5.274325917605298e-06,7.031973848986288e-06,2.3919415410710815e-06,1.3234066323811598e-06,9.408977625904784e-05,3.5405879620915158e-06,7.786013732613616e-07,1.1266091430425812e-06,2.156740520984066e-06
83,5.17209140406406e-06,3.033197101794361e-06,2.61743248076123e-06,1.767169794862917e-05,3.7272937960237325e-07,6.560908875360837e-07,6.380329998587815e-07,5.588802542015232e-06,7.243750522581219e-06,2.4726332161229935e-06,1.3375070980859317e-06,9.856541188804037e-05,3.554673485305923e-06,8.027801048828641e-07,1.126374286462851e-06,2.0308604031065783e-06
84,4.9755760181208905e-06,2.9992904851918097e-06,2.601352222688174e-06,1.6901634790514834e-05,3.9524877465445757e-07,6.676984020890194e-07,6.368420069510893e-07,5.895024254379954e-06,7.432447681329745e-06,2.552234476233643e-06,1.3486888410226157e-06,0.00010278684157707981,3.5807385235016387e-06,8.263390858468683e-07,1.1287321346298245e-06,1.912211909446913e-06
85,4.789867192462746e-06,2.965921229279132e-06,2.58814483744885e-06,1.613958052570473e-05,4.212847775132904e-07,6.819630902079892e-07,6.35615703754262e-07,6.186093125859512e-06,7.593862937172364e-06,2.6286371260461793e-06,1.356726554375155e-06,0.00010671358371862639,3.6201528128627077e-06,8.492751903734094e-07,1.1334486711277816e-06,1.8011293233503785e-06
86,4.614216112250071e-06,2.931081085774858e-06,2.5764240764588086e-06,1.539627428004672e-05,4.508873817358192e-07,6.989393413835469e-07,6.346193220504187e-07,6.454641172445142e-06,7.725241637640112e-06,2.6999389749064924e-06,1.3614577698057848e-06,0.00011029529268034696,3.6740311208598017e-06,8.717401452359604e-07,1.1401153878224424e-06,1.6979518404881367e-06
87,4.447767159354892e-06,2.8926900142025644e-06,2.5651718842334407e-06,1.4679497933584762e-05,4.840719043693846e-07,7.186027203643523e-07,6.34112109267364e-07,6.693891679157191e-06,7.824759763236752e-06,2.7648902308493673e-06,1.362812831685335e-06,0.00011347917130236977,3.7433077809529935e-06,8.939258581750142e-07,1.1481965099628495e-06,1.6029576139104749e-06
88,4.289534098708579e-06,2.8489960847511284e-06,2.553852310426402e-06,1.3994706928898539e-05,5.20779360344862e-07,7.408286474687629e-07,6.343177677200362e-07,6.898780844579175e-06,7.89084116623097e-06,2.8231270089560675e-06,1.3610211755695615e-06,0.00011621565065526338,3.828681520823986e-06,9.159486474905903e-07,1.1570732440940086e-06,1.5163453708698377e-06
89,4.138541541476328e-06,2.798914069207203e-06,2.5424150450596153e-06,1.3345908895504557e-05,5.608564647973784e-07,7.653937439223224e-07,6.353833879155515e-07,7.066539681046908e-06,7.921506523666742e-06,2.875083765676432e-06,1.3567154485564737e-06,0.000118456062605792,3.930423416811492e-06,9.37804507303284e-07,1.1660631220476638e-06,1.4382045317627712e-06
90,3.994058919788119e-06,2.742163569580133e-06,2.5311657592446604e-06,1.2736299747938867e-05,6.040450474407909e-07,7.91992513782589e-07,6.374024177303467e-07,7.196433694930752e-06,7.91402280501768e-06,2.921696356723353e-06,1.350743942062476e-06,0.00012014554157011271,4.048201457125627e-06,9.593716517150246e-07,1.1744628841161985e-06,1.3684611026295164e-06
91,3.855740879141589e-06,2.6791237969974654e-06,2.520623374888318e-06,1.2168589814986161e-05,6.499740256801101e-07,8.202378440755597e-07,6.404936321715425e-07,7.2888150610125826e-06,7.865437872249867e-06,2.9640315725004856e-06,1.3438778797751271e-06,0.0001212241146029897,4.1810248860398615e-06,9.804473381897866e-07,1.1816351042321068e-06,1.3068970735543007e-06
92,3.72358754005585e-06,2.6104501255788484e-06,2.5113702378447906e-06,1.1645103925051452e-05,6.981544408447443e-07,8.49644870220521e-07,6.448459273647432e-07,7.343978729139914e-06,7.774207099787859e-06,3.0029127073808113e-06,1.3366792257379664e-06,0.00012164209124106119,4.327236878963383e-06,1.0008212949720588e-06,1.1870785405367797e-06,1.2532575169549077e-06
93,3.597794706321585e-06,2.5367476590050042e-06,2.5038451573408468e-06,1.1167699574299647e-05,7.479751899270186e-07,8.796479471285353e-07,6.506767034270247e-07,7.361459524597285e-06,7.641898427747198e-06,3.038624549991964e-06,1.329549779913325e-06,0.00012137560355626337,4.484514315518989e-06,1.0202984392896903e-06,1.1904333248788905e-06,1.2073211380683434e-06
94,3.4786114791969473e-06,2.4585838167527016e-06,2.4982181727003335e-06,1.0737500325407414e-05,7.986914352503054e-07,9.09656929665046e-07,6.581657940977053e-07,7.340135929714589e-06,7.473632039955763e-06,3.070776056111422e-06,1.3228010757317397e-06,0.00012042487126207286,4.649936916563928e-06,1.0386345461995024e-06,1.191431809354652e-06,1.16891331609402e-06
95,3.366243620492732e-06,2.376738480156272e-06,2.4944930890967018e-06,1.0354428083945812e-05,8.494065475697895e-07,9.390792896772858e-07,6.674249918744532e-07,7.278889768440347e-06,7.276965972731973e-06,3.0983372837410745e-06,1.316631694136583e-06,0.00011879971662067976,4.820164926160086e-06,1.0554763497275833e-06,1.1898568027860597e-06,1.1379634676778253e-06
96,3.2607458635727146e-06,2.292365191925197e-06,2.4927143521792977e-06,1.0016641153179924e-05,8.990674506589063e-07,9.673255097502043e-07,6.784764840856866e-07,7.1773170485759645e-06,7.060076909824476e-06,3.119838850672434e-06,1.3110571518339742e-06,0.0001165135208472345,4.991672771465757e-06,1.070371722575766e-06,1.1855570032321869e-06,1.1145551178742973e-06
97,3.161856819773722e-06,2.206919290510742e-06,2.493087990976733e-06,9.720185007864182e-06,9.4650242162307e-07,9.938632328875543e-07,6.9122420271165e-07,7.036238658244995e-06,6.830350917174461e-06,3.1336681258672017e-06,1.305876580812049e-06,0.00011359369287745689,5.160945799874112e-06,1.0828957101004068e-06,1.1784832424943865e-06,1.09884974230143e-06
98,3.0688580113747145e-06,2.1219393043341484e-06,2.4959809919734946e-06,9.459064033709372e-06,9.905178394716245e-07,1.0182424859187977e-06,7.054417443712847e-07,6.857976352785419e-06,6.593814960196508e-06,3.1383128242972175e-06,1.3006980267457093e-06,0.00011009548863796278,5.324619015313396e-06,1.0928747846712022e-06,1.168675992444359e-06,1.0909539608702409e-06
99,2.9806330939646447e-06,2.0388174189530003e-06,2.501837350377928e-06,9.225695582840488e-06,1.0300066576634697e-06,1.0400441886016267e-06,7.207911655664486e-07,6.646389480448004e-06,6.355107687297491e-06,3.1324828612730432e-06,1.2950493984478186e-06,0.00010610638209471222,5.479617428583645e-06,1.1005086429335477e-06,1.1561851790933659e-06,1.0908460878423217e-06
100,2.8959833074219368e-06,1.9586558082800335e-06,2.5110345764078208e-06,9.011777258468476e-06,1.0639790862866074e-06,1.0588455123415748e-06,7.368774932023609e-07,6.4066685467646616e-06,6.117628941031263e-06,3.1152505640042884e-06,1.288582672214947e-06,0.0001017393644977346,5.6233354030987765e-06,1.106257506022841e-06,1.14097556107406e-06,1.0983697633457862e-06
101,2.8140380877767956e-06,1.8822589428892498e-06,2.5236995423197354e-06,8.809596035783044e-06,1.0915526269105642e-06,1.0742273087432513e-06,7.533020241072219e-07,6.144897648988089e-06,5.883789256787322e-06,3.086318398116124e-06,1.281272416313296e-06,9.711885371637952e-05,5.753844964388105e-06,1.1106312366936766e-06,1.1229372683447718e-06,1.11329395906068e-06
102,2.7345532623064854e-06,1.8102451300757602e-06,2.539547257081163e-06,8.613401505544866e-06,1.1120507375000326e-06,1.0857848432829778e-06,7.696699807007342e-07,5.867447404618081e-06,5.6554365609219434e-06,3.046205585426751e-06,1.2734541632018401e-06,9.236512654710732e-05,5.870090018110344e-06,1.1140416335681285e-06,1.1020449098533416e-06,1.1354257433959424e-06
103,2.657984746094743e-06,1.7431859130895078e-06,2.5578413415541953e-06,8.42024810788401e-06,1.1251911363176343e-06,1.0931771649341508e-06,7.85606828831612e-07,5.580338938848937e-06,5.434291365514356e-06,2.996060317698147e-06,1.2656648077797897e-06,8.758346725195997e-05,5.971928845977641e-06,1.1167383520086732e-06,1.0785221276512407e-06,1.1646786985805617e-06
104,2.5853306167593156e-06,1.6816751789227396e-06,2.5775068286971014e-06,8.230046090136457e-06,1.1311611898064995e-06,1.0962462710977391e-06,8.008409352903949e-07,5.288740338433081e-06,5.221991531941581e-06,2.9372005962895566e-06,1.2584644630057052e-06,8.286037032305715e-05,6.059833131718428e-06,1.1187877655924834e-06,1.0528828021989543e-06,1.2010246805753405e-06
105,2.517839471902287e-06,1.6263063905202484e-06,2.597313081041017e-06,8.045008881511093e-06,1.130480817362829e-06,1.0951434027806821e-06,8.152814771870279e-07,4.996696539842813e-06,5.019768114027213e-06,2.870776197378264e-06,1.2523789195055526e-06,7.826445288530301e-05,6.134281965966921e-06,1.1200803775040578e-06,1.0258771909859868e-06,1.2443753690655786e-06
106,2.4567254787541765e-06,1.5775917029999e-06,2.61601711229332e-06,7.868800140177234e-06,1.1237725362547634e-06,1.0903538486004575e-06,8.290005476577629e-07,4.707146372717983e-06,4.828308979862184e-06,2.797678474241191e-06,1.247860028261814e-06,7.384878460587921e-05,6.195324071389554e-06,1.12041342615405e-06,9.983878053141467e-07,1.2944841355236588e-06
107,2.4029644621509258e-06,1.535852539596626e-06,2.6324339715013263e-06,7.705570835101979e-06,1.1116367854711826e-06,1.082567294042539e-06,8.421250632790567e-07,4.422215852551118e-06,4.64814743132154e-06,2.718576481644961e-06,1.2451947976433086e-06,6.96532360011415e-05,6.242829650338495e-06,1.1196431572923538e-06,9.712925676634082e-07,1.3509089341330139e-06
108,2.357170012850714e-06,1.5011201776821319e-06,2.6455007464920494e-06,7.559027029151378e-06,1.094688852741124e-06,1.0724747945631032e-06,8.547140701290033e-07,4.1436206573203854e-06,4.480149982896771e-06,2.6340919387828017e-06,1.244447367248222e-06,6.570667759954333e-05,6.2774054211586055e-06,1.117778022196111e-06,9.45350317829454e-07,1.4130212434921206e-06
109,2.3195346325884667e-06,1.4730835658025336e-06,2.6544279759411433e-06,7.431706654768918e-06,1.0736427772316648e-06,1.0606289265127162e-06,8.66703917682449e-07,3.872938078539606e-06,4.3254657263415625e-06,2.5451013063556305e-06,1.2454608988662604e-06,6.202894301904025e-05,6.301460581610982e-06,1.1149443208989806e-06,9.211497800032374e-07,1.4800320096775181e-06
110,2.289824385957101e-06,1.4510795776137403e-06,2.6589441743592606e-06,7.324625750987208e-06,1.0493519573231399e-06,1.047414976264968e-06,8.779609140547167e-07,3.6116580702529188e-06,4.184991444394108e-06,2.4529222455756232e-06,1.2478666279948473e-06,5.863241229157061e-05,6.319832782172208e-06,1.1113242535168928e-06,8.991265305007333e-07,1.551061557483185e-06
111,2.267413216408544e-06,1.4341046522558091e-06,2.6594893863016686e-06,7.237296279964986e-06,1.022792346366129e-06,1.0331157879367076e-06,8.883912362008255e-07,3.3610958630696462e-06,4.058938108041644e-06,2.3592158068581563e-06,1.2511072303253688e-06,5.552309570401808e-05,6.339551112160923e-06,1.1071640319966872e-06,8.796387162977424e-07,1.6253073930105582e-06
112,2.251361597179636e-06,1.4208548695641558e-06,2.657154635432509e-06,7.16791876312864e-06,9.949794211251457e-07,1.018038501754832e-06,8.979829322550834e-07,3.1222542939611205e-06,3.946792080773435e-06,2.265742061893934e-06,1.2545465460088696e-06,5.2701174267021206e-05,6.368783826698704e-06,1.1027920818524332e-06,8.63028786400228e-07,1.7021931408917053e-06
113,2.2405669599716665e-06,1.4098601855410333e-06,2.653323468524006e-06,7.1135586961229765e-06,9.668622189676404e-07,1.0026120852303477e-06,9.067423855553102e-07,2.8957037916119567e-06,3.847457079671434e-06,2.1742001692299016e-06,1.2576488086183475e-06,5.016089274210242e-05,6.415560800771443e-06,1.0985548920424904e-06,8.495917963512667e-07,1.7812888346927393e-06
114,2.2339822853803933e-06,1.3997577355806883e-06,2.64923439142411e-06,7.070315678519487e-06,9.3927058236735e-07,9.87365685897508e-07,9.14640667880395e-07,2.681597968265456e-06,3.759312831732611e-06,2.086178462762674e-06,1.2600680900698329e-06,4.788949893684097e-05,6.486943058289379e-06,1.0947229248549407e-06,8.394890052080064e-07,1.8620530585775559e-06
115,2.2308136017729256e-06,1.3895724821213035e-06,2.6457526657025404e-06,7.0335914825363e-06,9.129106167383262e-07,9.72822556050775e-07,9.216439190251067e-07,2.4798319931650205e-06,3.6802792387695455e-06,2.003079589768724e-06,1.2615674762060277e-06,4.586539668218129e-05,6.588917130675619e-06,1.091450580784795e-06,8.326951186828752e-07,1.943671094576022e-06
116,2.2305677858848223e-06,1.3787798931474763e-06,2.643399987656395e-06,6.9984905516915526e-06,8.88353878742058e-07,9.594127905938183e-07,9.277519402186886e-07,2.290141961639695e-06,3.6080383600953643e-06,1.9259895249034614e-06,1.2619223432736818e-06,4.40566921375223e-05,6.726807878096105e-06,1.0887736432429761e-06,8.289976447218134e-07,2.0251373952223607e-06
117,2.2329141912681013e-06,1.3671168534713233e-06,2.6424260911510677e-06,6.960301870721297e-06,8.660081053133138e-07,9.474344279944001e-07,9.329656510716702e-07,2.112034879261973e-06,3.540212186732235e-06,1.8555888060367971e-06,1.260921376583707e-06,4.242150254979214e-05,6.9057301783528525e-06,1.0866355099462127e-06,8.280309807145471e-07,2.1054785871208643e-06
118,2.237462659448955e-06,1.3543824093045095e-06,2.6427489704879123e-06,6.914943010091909e-06,8.460923596983493e-07,9.370361650736963e-07,9.372263903118628e-07,1.9447152341845145e-06,3.4743295614908517e-06,1.7921535501459557e-06,1.2583532164345474e-06,4.0911082348346195e-05,7.130644982231968e-06,1.0849738053550569e-06,8.293465100463784e-07,2.1839033451179596e-06
119,2.2435761083801972e-06,1.3404458084047547e-06,2.6438300173775e-06,6.859211463223923e-06,8.286406764087135e-07,9.282375178587575e-07,9.404080424565472e-07,1.7871858721962362e-06,3.4078723762945745e-06,1.735602097946989e-06,1.2539493609026626e-06,3.9476250197578624e-05,7.405958939440614e-06,1.083843000760465e-06,8.325036053475059e-07,2.2598098693853937e-06
120,2.2502503621123623e-06,1.3253853823023403e-06,2.644673608463191e-06,6.7907961384261775e-06,8.135522487526636e-07,9.209873669358023e-07,9.423609791784245e-07,1.6384802098249848e-06,3.3386440186079476e-06,1.6855712893723374e-06,1.2474365498527399e-06,3.80752759914145e-05,7.735088971276301e-06,1.083489247891197e-06,8.371252411051122e-07,2.3327859117455353e-06
121,2.256080358767503e-06,1.3095606944069115e-06,2.6440540506366395e-06,6.708186228182423e-06,8.006686531533637e-07,9.152088809600124e-07,9.429693580830748e-07,1.4978766023109e-06,3.2650751425986957e-06,1.6415597344523418e-06,1.2387129933551564e-06,3.667851830667783e-05,8.120378557195719e-06,1.0843021991055248e-06,8.428761714938054e-07,2.402643103299889e-06
122,2.2593641369251445e-06,1.293541183804099e-06,2.6408860918447545e-06,6.610638075570428e-06,7.898210233362512e-07,9.108638323376365e-07,9.422040482998326e-07,1.3650049003145038e-06,3.1860939695190308e-06,1.6030952287739308e-06,1.2279493065351021e-06,3.526646526699007e-05,8.563237445706258e-06,1.0866655894299028e-06,8.49409813741881e-07,2.4693286732632777e-06
123,2.2583471778940386e-06,1.2779336671783368e-06,2.6345473486007003e-06,6.498206917153185e-06,7.808584184118479e-07,9.080752236003134e-07,9.401250273116234e-07,1.239827647622201e-06,3.1010057135796203e-06,1.569815574977205e-06,1.215495109963231e-06,3.3824634881308706e-05,9.064271824803262e-06,1.0908275704715723e-06,8.563893830514428e-07,2.532693320780056e-06
124,2.2515402791186118e-06,1.2632246976183465e-06,2.6250277945870346e-06,6.371752784532672e-06,7.737195779366641e-07,9.071831504561103e-07,9.368056044294395e-07,1.1225198042745974e-06,3.00980368611485e-06,1.5414754265030444e-06,1.2017237332407006e-06,3.2342299834127364e-05,9.623391050191644e-06,1.0968712926557942e-06,8.636010730824214e-07,2.5923205135145347e-06
125,2.2380202876655168e-06,1.2497586830886151e-06,2.6129300333131845e-06,6.2328733592890675e-06,7.685056453969786e-07,9.086447856840594e-07,9.322775812521255e-07,1.0133031740080542e-06,2.913476190736468e-06,1.5179874919156235e-06,1.1869848658999584e-06,3.081559361893663e-05,1.0239778135543938e-05,1.1047551889044144e-06,8.710404149166762e-07,2.6475374942437315e-06
126,2.2176108075313773e-06,1.2378553721843213e-06,2.5994133039416835e-06,6.083757892906679e-06,7.654676478312833e-07,9.128783591631702e-07,9.265865006029639e-07,9.123174493073923e-07,2.813854770736034e-06,1.4994764632915844e-06,1.1716371753192393e-06,2.924900095113906e-05,1.0911563930043089e-05,1.1143540384973396e-06,8.788675710693151e-07,2.6976035947481037e-06
127,2.190855257442535e-06,1.2279434352035054e-06,2.586127679145608e-06,5.926925154236108e-06,7.649211980454848e-07,9.20166556748041e-07,9.198582347253071e-07,8.195751252257401e-07,2.7131933599327597e-06,1.4862168567665648e-06,1.1560656965967336e-06,2.7652240915818794e-05,1.1635384048727576e-05,1.125465040290091e-06,8.872778135927467e-07,2.7420791259970335e-06
128,2.158768414679492e-06,1.2205878375453326e-06,2.575119089795066e-06,5.7647986470607764e-06,7.671523936853616e-07,9.306341508887027e-07,9.12260632517742e-07,7.349758809070775e-07,2.613858292474645e-06,1.4784541818121367e-06,1.1406864130252173e-06,2.6036072100274796e-05,1.2406133110926674e-05,1.1377996301120045e-06,8.964209491835912e-07,2.781188951915226e-06
129,2.122468448776383e-06,1.2163915284159176e-06,2.568682885713921e-06,5.599201022792485e-06,7.723650736856548e-07,9.442556122160859e-07,9.039280803895007e-07,6.583493080712435e-07,2.518252496365495e-06,1.4762414216078132e-06,1.1259347626867523e-06,2.441104181550583e-05,1.3216828885608175e-05,1.1510062095563508e-06,9.064093795522759e-07,2.815800495853654e-06
130,2.0828831350880685e-06,1.215854713334472e-06,2.5691716591857815e-06,5.431047042406525e-06,7.806756971387855e-07,9.608591671539753e-07,8.949370471517438e-07,5.89496299192679e-07,2.428799755806552e-06,1.4793760468857806e-06,1.1122016625489009e-06,2.278813922390487e-05,1.4058379571903219e-05,1.1647112000780183e-06,9.173341479743816e-07,2.846973652866865e-06
131,2.040668285377655e-06,1.2193013665324106e-06,2.5787911961194588e-06,5.260466445367812e-06,7.921104087842147e-07,9.801271685263687e-07,8.852842958454145e-07,5.281833060105497e-07,2.3478117483247944e-06,1.4874251340938168e-06,1.0997751363094568e-06,2.117821881179881e-05,1.4919689201595126e-05,1.1785153713285126e-06,9.29246103730209e-07,2.875564917259529e-06
132,1.9962976509057306e-06,1.2268930186854027e-06,2.599492378567283e-06,5.087282727092018e-06,8.06595717640388e-07,1.0015995415795224e-06,8.748461273151852e-07,4.7410190390572774e-07,2.2773528508873287e-06,1.4997673565524967e-06,1.0888543570063091e-06,1.9590588653447408e-05,1.5788607346007967e-05,1.1919500603414552e-06,9.421340920684636e-07,2.9022663192929866e-06
133,1.950201809701392e-06,1.2386459653185169e-06,2.6330550215989464e-06,4.911611226533059e-06,8.23967276941483e-07,1.0246827570619362e-06,8.634073112207587e-07,4.268619596032048e-07,2.2192528630823433e-06,1.5155998000926517e-06,1.0795682525181746e-06,1.803320012522804e-05,1.6653159471110103e-05,1.2044763893360805e-06,9.559323586552798e-07,2.927870337550789e-06
134,1.9028841530166673e-06,1.254399307177886e-06,2.68123438059598e-06,4.734370358158795e-06,8.439658908218942e-07,1.048662581279328e-06,8.50794374923136e-07,3.860506261119539e-07,2.175148356973384e-06,1.5339299756856404e-06,1.0719262988341336e-06,1.651439776829096e-05,1.7501914933985037e-05,1.2155692991878166e-06,9.705676127527617e-07,2.9533655419487123e-06
135,1.8549720554497662e-06,1.27377392151011e-06,2.7457245819951713e-06,4.557519497141865e-06,8.661969076043752e-07,1.0727533601510462e-06,8.370106606563134e-07,3.5132765486111357e-07,2.1464205271818566e-06,1.5535739973660561e-06,1.065742546322631e-06,1.504404678260762e-05,1.8323070651880885e-05,1.2248341226275093e-06,9.859945535063618e-07,2.9798281324815702e-06
136,1.8071796512845927e-06,1.29617839519774e-06,2.8279170078430142e-06,4.383923961091697e-06,8.900940050438051e-07,1.0962241016838614e-06,8.222596044468074e-07,3.2248464582982963e-07,2.134107785586668e-06,1.5731960423994326e-06,1.0606056555177598e-06,1.3632826403134337e-05,1.910308067563497e-05,1.2320743199490504e-06,1.0021524002693893e-06,3.008279777144166e-06
137,1.7602235577151867e-06,1.320864374241952e-06,2.928663155809721e-06,4.216934240263802e-06,9.149160419475376e-07,1.1185217752480577e-06,8.068812287229192e-07,2.99419615523289e-07,2.1388860805507034e-06,1.591488701696088e-06,1.0559322003669472e-06,1.229057035149333e-05,1.98262566650722e-05,1.2372643677187896e-06,1.0188878028096997e-06,3.0395554040931005e-06
138,1.7147532452861074e-06,1.3469751115503237e-06,3.048205550709626e-06,4.05986301077213e-06,9.397764950580706e-07,1.1392766354630584e-06,7.913086394883653e-07,2.820781565381229e-07,2.1610796291953525e-06,1.6074725451991172e-06,1.0510893971357884e-06,1.1025190336692505e-05,2.0475934088219238e-05,1.2404526726774877e-06,1.035934614586088e-06,3.0741944441541e-06
139,1.671296951782029e-06,1.3735752687114943e-06,3.186253220417116e-06,3.915519141905149e-06,9.637411434402363e-07,1.1582318702158125e-06,7.760579030739946e-07,2.704239527778949e-07,2.200668580856221e-06,1.6206816398806623e-06,1.0455204265310172e-06,9.842508312808691e-06,2.1036576122548797e-05,1.241716411027612e-06,1.0529486502005003e-06,3.112390847177977e-06
140,1.6301915495496092e-06,1.3997392043028905e-06,3.342054340887433e-06,3.785921122370943e-06,9.860089440334222e-07,1.1751942230552993e-06,7.616818841034655e-07,2.6442045381799045e-07,2.257304177492286e-06,1.63105332478542e-06,1.0387937732063185e-06,8.746366461712764e-06,2.1495773313039963e-05,1.2412273989610573e-06,1.0695793234958202e-06,3.1539786280386706e-06
141,1.5915177592231782e-06,1.4246743311298527e-06,3.5143722460635284e-06,3.6722333212912923e-06,1.006070601348182e-06,1.190001169844037e-06,7.486859321546471e-07,2.64008292705754e-07,2.330301814691826e-06,1.6386223027843825e-06,1.0305639743431143e-06,7.738796575347008e-06,2.184534722841775e-05,1.2392858384336237e-06,1.0855977655789763e-06,3.198519056816628e-06
142,1.555122822536342e-06,1.447721510089293e-06,3.70149756126037e-06,3.574824346239834e-06,1.0237221118508366e-06,1.2025184042915095e-06,7.374766826959874e-07,2.6910057379919857e-07,2.418650707548407e-06,1.6433189917765176e-06,1.020559227219998e-06,6.8203323750771486e-06,2.2081444925876673e-05,1.2362267146548694e-06,1.1010113517860715e-06,3.245546783517442e-06
143,1.5207711412054802e-06,1.4682362522859367e-06,3.9014844582000675e-06,3.4933164982952918e-06,1.0389398306998224e-06,1.2126959993698491e-06,7.283811730388448e-07,2.795935334580273e-07,2.521099439883687e-06,1.6450704038433865e-06,1.0086865261991366e-06,5.9903031833515266e-06,2.220388334682708e-05,1.2323052674007239e-06,1.1160505102431574e-06,3.29479152374383e-06
144,1.4883501751606637e-06,1.4855699227093128e-06,4.112526570162468e-06,3.4266530481799633e-06,1.0517248522958667e-06,1.2205676217788197e-06,7.216900533275747e-07,2.9536562439510253e-07,2.636219108105704e-06,1.644092577030316e-06,9.951279932686018e-07,5.246990051443974e-06,2.2214488073697263e-05,1.2276464205002335e-06,1.1310493054476705e-06,3.3462380705344207e-06
145,1.4580105927956504e-06,1.4992357740157236e-06,4.3332241770976665e-06,3.3732670993006236e-06,1.0620165366741557e-06,1.2261174788765176e-06,7.17652918547245e-07,3.162641850560427e-07,2.762439914519923e-06,1.641089274309041e-06,9.8028564663247e-07,4.587699749585728e-06,2.2114588046829074e-05,1.2222686458562578e-06,1.1463192541692267e-06,3.400094996599991e-06
146,1.4301640420495524e-06,1.5090549918291768e-06,4.562622810889375e-06,3.331315548961594e-06,1.069679388801218e-06,1.2291537105857295e-06,7.16433352303455e-07,3.4211445630889783e-07,2.8982378619367164e-06,1.6371838329913707e-06,9.646322290709045e-07,4.008804738106235e-06,2.1903777778407438e-05,1.216199661590144e-06,1.1620587783503958e-06,3.456663449535246e-06
147,1.4053593214177239e-06,1.5150826166441643e-06,4.800055740928975e-06,3.2989361728960548e-06,1.0744954377942822e-06,1.2293296770884576e-06,7.180788363677718e-07,3.7277592300505707e-07,3.0423746993357585e-06,1.6336436926243874e-06,9.48587398163166e-07,3.5058034153341953e-06,2.158164577034938e-05,1.2096077236552943e-06,1.1782906570914142e-06,3.5160445271775857e-06
148,1.384136164530339e-06,1.5173996864185876e-06,5.044870847310814e-06,3.274538908100916e-06,1.0761658399183716e-06,1.2262975204555757e-06,7.225133447787795e-07,4.082080830275866e-07,3.1938624921910075e-06,1.6315945392360386e-06,9.324659917738521e-07,3.0734690478737475e-06,2.1150863986891754e-05,1.202805252176748e-06,1.194815028763729e-06,3.57780603596759e-06
149,1.3669263962125888e-06,1.5159980271237544e-06,5.296086145289448e-06,3.257056327872364e-06,1.0744077554144527e-06,1.2198862919193258e-06,7.295390883909888e-07,4.484803798347007e-07,3.3517177926214594e-06,1.6318780454997525e-06,9.164742352306574e-07,2.7060419374600515e-06,2.0618935962153052e-05,1.1961108671487426e-06,1.2111910865621887e-06,3.640818762671333e-06
150,1.3540078267181824e-06,1.5108066850259971e-06,5.552017180916812e-06,3.2459872119296223e-06,1.0691368463838329e-06,1.2102032152705624e-06,7.388459021718205e-07,4.937541295965542e-07,3.5149353692491275e-06,1.6350576976447509e-06,9.007169663138399e-07,2.3973538036170414e-06,1.999789056761978e-05,1.1897005948684274e-06,1.2267923960232472e-06,3.703401657365781e-06
151,1.3454937507847975e-06,1.5017518344851184e-06,5.8100392471451755e-06,3.2411549042473543e-06,1.0605914729869647e-06,1.1976219834789753e-06,7.500207548655664e-07,5.442873854549566e-07,3.682824323986891e-06,1.6415007517435568e-06,8.852121466734953e-07,2.1409472816407982e-06,1.930297473750417e-05,1.18355533989233e-06,1.2409603192030715e-06,3.7637840680364136e-06
152,1.3413340842256142e-06,1.4888193942797217e-06,6.066626962295886e-06,3.2423987516393344e-06,1.0492971259318424e-06,1.1826918110708604e-06,7.625504880833488e-07,6.004064958667748e-07,3.855429748716112e-06,1.6515093176755632e-06,8.699010342524751e-07,1.930333113690696e-06,1.8551524158482164e-05,1.1774829726509002e-06,1.2531839728303248e-06,3.820652365070394e-06
153,1.3413207031084264e-06,1.4721523964900615e-06,6.317583243586065e-06,3.2495824695680622e-06,1.0359245307121675e-06,1.166031082922106e-06,7.758233878554215e-07,6.624227608150011e-07,4.033710473379269e-06,1.6654519507713573e-06,8.546737928360414e-07,1.7593424415699834e-06,1.7762154195907572e-05,1.171144779331741e-06,1.2631568487887943e-06,3.8734150764526215e-06
154,1.345083630377299e-06,1.452101658777894e-06,6.558303216457646e-06,3.26297289588711e-06,1.0211653662962021e-06,1.1482543646096345e-06,7.891454862278494e-07,7.30571513433621e-07,4.219321229411807e-06,1.6837666226162043e-06,8.394752392563168e-07,1.6224653636636422e-06,1.6953661301876135e-05,1.1641065066240637e-06,1.2706525313373298e-06,3.922042664392779e-06
155,1.3520548918834665e-06,1.429124310929814e-06,6.784021701158178e-06,3.2836481810601008e-06,1.005681416432419e-06,1.1299471848491995e-06,8.017905741734923e-07,8.050096876543957e-07,4.414124868833451e-06,1.7068133465131392e-06,8.244262556218365e-07,1.515087240551375e-06,1.6143475157603514e-05,1.1559699690570441e-06,1.2753603571180912e-06,3.966657217785704e-06
156,1.3614489783033371e-06,1.4036441565950653e-06,6.9900144926472454e-06,3.313658930846575e-06,9.900939540308531e-07,1.111669503679026e-06,8.130768881503649e-07,8.8583771029519e-07,4.619761944251253e-06,1.7347264197808728e-06,8.098096187912223e-07,1.4334781637137604e-06,1.5346300099399265e-05,1.1465014527992412e-06,1.2768526533865948e-06,4.007115482935427e-06
157,1.372340953300272e-06,1.376074924032515e-06,7.171749942510727e-06,3.3558932214905848e-06,9.749694914639836e-07,1.093942875813671e-06,8.224459930323446e-07,9.730931860245103e-07,4.837463936441164e-06,1.7673659509437037e-06,7.959625503770526e-07,1.3745285388568743e-06,1.4573578952577966e-05,1.13561330341571e-06,1.2747055583162576e-06,4.0427050246802774e-06
158,1.383835100048141e-06,1.3469857572793372e-06,7.3250907064657575e-06,3.4136816132360424e-06,9.607954881554292e-07,1.077189521616817e-06,8.295332715994324e-07,1.0667028932207384e-06,5.0679601495249755e-06,1.8043112550580572e-06,7.832315744017888e-07,1.3354500562261062e-06,1.3833748597731038e-05,1.123241834324891e-06,1.2686699293809646e-06,4.071972611329006e-06
159,1.395246581284349e-06,1.317228448912158e-06,7.44665398168941e-06,3.4903128778154487e-06,9.479542228750581e-07,1.0616584853638758e-06,8.342115937949778e-07,1.1664499622889985e-06,5.311272989781773e-06,1.8448237334361952e-06,7.719736341479349e-07,1.3136168363103521e-06,1.3132864281154847e-05,1.1093250957789959e-06,1.2587373042212737e-06,4.092727649925278e-06
160,1.4062260065514319e-06,1.2879104194511808e-06,7.534276659861718e-06,3.5887627251044875e-06,9.366947747713417e-07,1.0474263336934708e-06,8.365906926902063e-07,1.2720112385265595e-06,5.56648914473318e-06,1.8878276934387922e-06,7.625070833771115e-07,1.306539250742392e-06,1.2475262517282076e-05,1.0939406953537518e-06,1.2450601949252086e-06,4.102347175184104e-06
161,1.4167853141121305e-06,1.260237323852441e-06,7.587360865968903e-06,3.7116936539000273e-06,9.271170358583914e-07,1.0345078146744087e-06,8.369810167379213e-07,1.3830385402985664e-06,5.831724186049557e-06,1.932023176861572e-06,7.55031293751396e-07,1.3118894560625908e-06,1.1864049608374293e-05,1.0774100687955877e-06,1.2279048958785684e-06,4.098407352907514e-06
162,1.427214551156531e-06,1.235343392817374e-06,7.606875047424911e-06,3.861431569794177e-06,9.191892755614522e-07,1.0229785207420036e-06,8.358207198207369e-07,1.4992076738971656e-06,6.1043036444804975e-06,1.9761721054071113e-06,7.495786965058957e-07,1.3275024171454345e-06,1.130127719002932e-05,1.0602183420481514e-06,1.207735448181466e-06,4.079420331610493e-06
163,1.4379251892970456e-06,1.214194876662597e-06,7.594934672129222e-06,4.039768666287681e-06,9.127884192365992e-07,1.012974768853561e-06,8.33570478029012e-07,1.620181538452756e-06,6.381041169903089e-06,2.019437232199312e-06,7.460034211763635e-07,1.3513126955506371e-06,1.0787879629643616e-05,1.0428628024263985e-06,1.185274451179436e-06,4.045391301491618e-06
164,1.4492856573349981e-06,1.1975530989204132e-06,7.554017118802859e-06,4.247804724069863e-06,9.077461838556943e-07,1.004588652771729e-06,8.306241240336342e-07,1.7455021133678935e-06,6.658464841659467e-06,2.061501829975471e-06,7.439850332868528e-07,1.381278432985471e-06,1.032360274660102e-05,1.0257896146676426e-06,1.1614278742202266e-06,3.997993585935265e-06
165,1.4614979074364873e-06,1.1859631894635074e-06,7.486043757584856e-06,4.486010924352539e-06,9.039095319157301e-07,9.97801961332421e-07,8.272552549879102e-07,1.8744937625584832e-06,6.932811424979799e-06,2.1023482029313054e-06,7.43059219597194e-07,1.4154230440789013e-06,9.907009821984014e-06,1.009404235322941e-06,1.1371362333746106e-06,3.940276355957398e-06
166,1.4745502607014966e-06,1.1797706932695382e-06,7.391843056616167e-06,4.754400034693438e-06,9.012063545503359e-07,9.92500973238594e-07,8.235881239610076e-07,2.0062222182507686e-06,7.199753972486126e-06,2.14201286365205e-06,7.427058891653855e-07,1.4520191591434782e-06,9.53545082185892e-06,9.940818898722406e-07,1.1132526314138165e-06,3.876027409489023e-06
167,1.4882791459517504e-06,1.179146014796569e-06,7.271385302449362e-06,5.052551755709946e-06,8.996796101516351e-07,9.884845786358116e-07,8.196272485004162e-07,2.139502054277495e-06,7.4542149195134554e-06,2.1806281172000003e-06,7.424688725481966e-07,1.489694214237621e-06,9.204964893525165e-06,9.801600938811562e-07,1.0904961121230337e-06,3.809064736926957e-06
168,1.5025192936289137e-06,1.1840711848999353e-06,7.1245840291274724e-06,5.3794510616853625e-06,8.994804464328549e-07,9.854454130912776e-07,8.153474103768944e-07,2.2729970815425496e-06,7.690704925874608e-06,2.2185604362872563e-06,7.420069406450159e-07,1.5272743292842754e-06,8.910257998843163e-06,9.679133890874827e-07,1.0694443878660794e-06,3.742717293896194e-06
169,1.5172486682767824e-06,1.1943048288461773e-06,6.952113537574147e-06,5.733426995998984e-06,9.008466563734592e-07,9.82979417201544e-07,8.107452302557796e-07,2.4054382251873043e-06,7.904007208842673e-06,2.256386389011234e-06,7.410460756837156e-07,1.5635242559187033e-06,8.64487439716995e-06,9.57525958430184e-07,1.050515351854897e-06,3.679622753075022e-06
170,1.5326104844966985e-06,1.2093729983039289e-06,6.755822568065318e-06,6.1123456288080015e-06,9.040786825281056e-07,9.806324872933008e-07,8.058058724074546e-07,2.535863383981182e-06,8.089575224920518e-06,2.294787034860723e-06,7.393524878498814e-07,1.597014632739203e-06,8.40162168873525e-06,9.490776173545882e-07,1.0339541015246376e-06,3.621773017135401e-06
171,1.54877460906135e-06,1.2285738847096176e-06,6.538692350744574e-06,6.5137086374191296e-06,9.094985757216481e-07,9.77992210469304e-07,8.004791124923185e-07,2.6637133085290453e-06,8.243443493340036e-06,2.334510587382953e-06,7.367905805703403e-07,1.6261460959221563e-06,8.173264838580387e-06,9.425378797097718e-07,1.0198761775923423e-06,3.5706618947496542e-06
172,1.5657547041384834e-06,1.2509742378086395e-06,6.3046034961838414e-06,6.934421587541319e-06,9.173908126481668e-07,9.748380881687021e-07,7.947413644837528e-07,2.788664778088693e-06,8.361885345590648e-06,2.37635349367908e-06,7.333720954515805e-07,1.6493051650878928e-06,7.95333382081912e-06,9.37796058049906e-07,1.0083800517116488e-06,3.527474199044072e-06
173,1.583316711849397e-06,1.275441775688589e-06,6.058117065407031e-06,7.370663968399141e-06,9.279534679588719e-07,9.712573175013565e-07,7.886809337270605e-07,2.910302493331465e-06,8.441295105705493e-06,2.4210270954734464e-06,7.292401038626e-07,1.665104535867204e-06,7.736744719547777e-06,9.347391060709045e-07,9.996573324075458e-07,3.4932933903651725e-06
174,1.600963787993617e-06,1.3007405511873266e-06,5.804198901150298e-06,7.81828938572428e-06,9.412822161020194e-07,9.675986838245705e-07,7.825005464136474e-07,3.027934036913519e-06,8.479167088348408e-06,2.468945308466062e-06,7.246175125041704e-07,1.6725642628800207e-06,7.519973976003916e-06,9.333041533823338e-07,9.939965743541133e-07,3.469242063621458e-06
175,1.6179253282709213e-06,1.3256107050204974e-06,5.547771171270781e-06,8.273536375293697e-06,9.57369604161075e-07,9.642991302048986e-07,7.764261318839418e-07,3.140706801553732e-06,8.476091845596686e-06,2.5200894394001063e-06,7.19728372373929e-07,1.6711440718016517e-06,7.300644826141984e-06,9.334742479841906e-07,9.9167259873566e-07,3.4564497748652865e-06
176,1.6331836016457205e-06,1.3488093516854373e-06,5.293200980687917e-06,8.733621965451245e-06,9.760884717456766e-07,9.617367342499727e-07,7.706104272004671e-07,3.247873791188017e-06,8.436852218881554e-06,2.5739702121418943e-06,7.147220247327309e-07,1.6606742521220884e-06,7.076679683157622e-06,9.35291737126226e-07,9.928200063190684e-07,3.4558323946134166e-06
177,1.6456153801340693e-06,1.3692665875903447e-06,5.0439748788307005e-06,9.196974203692471e-06,9.971723033977541e-07,9.601796427072528e-07,7.651054143050249e-07,3.349003906903722e-06,8.369278290569705e-06,2.6296155184646005e-06,7.096707664265663e-07,1.641253321603968e-06,6.845697658619083e-06,9.389048724753518e-07,9.973736212144923e-07,3.467794102350749e-06
178,1.6542104215480252e-06,1.386398835536629e-06,4.802642058078376e-06,9.662898538548015e-06,1.0202174341648247e-06,9.598110777062209e-07,7.598955105176963e-07,3.4440752591417314e-06,8.281983965229014e-06,2.6856373009147506e-06,7.046478219964459e-07,1.6131719802053132e-06,6.605292181331874e-06,9.445544245069121e-07,1.0050951662053758e-06,3.492013310365733e-06
179,1.6582301951647528e-06,1.4003059631189608e-06,4.570866875856262e-06,1.0130685768846882e-05,1.0446978852346535e-06,9.607804150723694e-07,7.54957241136465e-07,3.5334741814647797e-06,8.182841287396757e-06,2.7404552042974953e-06,6.997981846023433e-07,1.5769395771145722e-06,6.3538848301495425e-06,9.52497951585193e-07,1.015669765189616e-06,3.5274013587230827e-06
180,1.6572105315468415e-06,1.4116214018939029e-06,4.34946362393022e-06,1.0598771914407455e-05,1.0700061124827064e-06,9.631967823403788e-07,7.503121955550193e-07,3.6179435225213723e-06,8.078642586745061e-06,2.7925552955598857e-06,6.953156277770466e-07,1.5334095601156121e-06,6.091304993710274e-06,9.62983132348406e-07,1.028791132834076e-06,3.5722343070499774e-06
181,1.6508191349117017e-06,1.421174464760034e-06,4.138535085523493e-06,1.106470223841541e-05,1.0955110148553621e-06,9.670598742216886e-07,7.460263538706703e-07,3.698532453602694e-06,7.97528423922849e-06,2.840592372474096e-06,6.913516395599727e-07,1.4838810451722082e-06,5.818738283198499e-06,9.76278558149008e-07,1.0441370434342409e-06,3.6244458014027743e-06
182,1.6387053006130209e-06,1.4297687433968712e-06,3.937874760995163e-06,1.1525892487547876e-05,1.1205639459202537e-06,9.722236068736673e-07,7.421545291721957e-07,3.7765817836676933e-06,7.87796058025856e-06,2.8833476741368665e-06,6.879640637873816e-07,1.4300546252670694e-06,5.5382961195660086e-06,9.9266065176678e-07,1.061279544774546e-06,3.682036586873265e-06
183,1.6205399899259714e-06,1.4381389712037742e-06,3.747486388691699e-06,1.1980598521951925e-05,1.1444853202060955e-06,9.784143930747577e-07,7.386892260678942e-07,3.85372343682218e-06,7.791240097222005e-06,2.919680659836506e-06,6.851576509844127e-07,1.3738307573460633e-06,5.252585362086667e-06,1.0123268322226633e-06,1.0796897880123983e-06,3.7434271286400733e-06
184,1.596278313544296e-06,1.4469855090801362e-06,3.5678482835552257e-06,1.2428685189804108e-05,1.166623895938481e-06,9.852363857026435e-07,7.355587028179707e-07,3.931820743541119e-06,7.718966796423786e-06,2.948463868514224e-06,6.82967687776526e-07,1.3170561552504026e-06,4.96446415274205e-06,1.0353072079977598e-06,1.0988580531397456e-06,3.807532220918362e-06
185,1.566436675263431e-06,1.4570411142582094e-06,3.3997392121923593e-06,1.287204013052471e-05,1.1864597840979856e-06,9.92169067109632e-07,7.326746420030966e-07,4.0127812753175085e-06,7.66401015843798e-06,2.9684466081159015e-06,6.815074363298409e-07,1.2613490620105756e-06,4.676901588517318e-06,1.0614483344712899e-06,1.1183528326714694e-06,3.873557646115911e-06
186,1.532176642476118e-06,1.4691198555967398e-06,3.2438676207377693e-06,1.3314477733501028e-05,1.2036850134127405e-06,9.986302389939123e-07,7.299872798183849e-07,4.098242674397586e-06,7.628000420140854e-06,2.978255510309724e-06,6.809547523314032e-07,1.2080457012181239e-06,4.392783949469758e-06,1.0904680243278704e-06,1.1377218069183589e-06,3.940733308391968e-06
187,1.4951540785061938e-06,1.4840627714216473e-06,3.1007603637775334e-06,1.3760965211971515e-05,1.218243733229162e-06,1.0040664472050616e-06,7.274956904236126e-07,4.18922981537819e-06,7.611130939069682e-06,2.976704328614102e-06,6.815164428468952e-07,1.1582237769720635e-06,4.114676421321115e-06,1.1220061481609467e-06,1.1563458592990298e-06,4.008067546577851e-06
188,1.4572291743933286e-06,1.5026103804156236e-06,2.9710373078772457e-06,1.421622173723383e-05,1.2303183485495704e-06,1.0079715748379309e-06,7.252170870359353e-07,4.285934758055609e-06,7.6120172953650296e-06,2.963154808218402e-06,6.834010227817902e-07,1.1127489377352474e-06,3.844626935946129e-06,1.155612470513062e-06,1.1733799584692332e-06,4.074060776103417e-06
189,1.4202222668374935e-06,1.5253272503666424e-06,2.8557009604299926e-06,1.468319776737941e-05,1.2402615786688276e-06,1.0099133586188215e-06,7.23158706267783e-07,4.387700539617403e-06,7.627694960322101e-06,2.937606840693516e-06,6.867945823113932e-07,1.0723207248061626e-06,3.5840321102140233e-06,1.1906979812251476e-06,1.1878307968916e-06,4.136469065200716e-06
190,1.3858528971067978e-06,1.552593087782065e-06,2.7561032452167337e-06,1.5162044527845864e-05,1.2484954031716118e-06,1.0096677736994878e-06,7.21301793339813e-07,4.493158588459311e-06,7.653874844036894e-06,2.900524344881947e-06,6.918447712335813e-07,1.037522704519749e-06,3.3336166822290897e-06,1.2265092187801078e-06,1.1987608546855429e-06,4.192326686738498e-06
191,1.3557993528240133e-06,1.5845863054966732e-06,2.6736525107706825e-06,1.564963283800524e-05,1.255394844881374e-06,1.0073087138318114e-06,7.195890458589595e-07,4.600419446055963e-06,7.68540042977763e-06,2.852622414577684e-06,6.986672971793823e-07,1.0088609241979032e-06,3.0935723251614396e-06,1.2621436868839077e-06,1.2055318931866356e-06,4.238319948560263e-06
192,1.331711475425445e-06,1.621292016144101e-06,2.6095114380010668e-06,1.6139359965450116e-05,1.2611875747722566e-06,1.0031204183244462e-06,7.179476973266895e-07,4.707249644948247e-06,7.716722549849282e-06,2.794812098928781e-06,7.073605090535869e-07,9.867718887791004e-07,2.86379259298946e-06,1.296572646296008e-06,1.2079667288413355e-06,4.271434430818147e-06
193,1.3151193599114667e-06,1.6625874546999327e-06,2.5644436403639195e-06,1.662133908607806e-05,1.265901419572427e-06,9.974593080708443e-07,7.163584012882285e-07,4.811228973522409e-06,7.74218263408145e-06,2.728264521622671e-06,7.180139537588756e-07,9.7161779108458e-07,2.644155273688986e-06,1.3286565552512481e-06,1.206359648059045e-06,4.289643657003332e-06
194,1.3073285958290318e-06,1.7083156618862376e-06,2.538800999563556e-06,1.708327238002054e-05,1.2693452134014465e-06,9.90695524762255e-07,7.149066673308347e-07,4.909949111285729e-06,7.7558939033788e-06,2.654425056527031e-06,7.307158151557653e-07,9.636748159591378e-07,2.434799069466581e-06,1.3572208417594665e-06,1.2013366822225119e-06,4.292308207884624e-06
195,1.3094055934569433e-06,1.75825485379127e-06,2.5325624920155405e-06,1.751198088460671e-05,1.2711146892517992e-06,9.83206198983037e-07,7.137784850240177e-07,5.001298424383663e-06,7.751294712971769e-06,2.5749160013139786e-06,7.455398408635671e-07,9.631484654505164e-07,2.2362196672164916e-06,1.3812349287355055e-06,1.1936455666647159e-06,4.280031836446585e-06
196,1.3222404630774412e-06,1.812011676433021e-06,2.545390660097604e-06,1.789524842163142e-05,1.2706816904060888e-06,9.753804455783061e-07,7.132146896998932e-07,5.083750182151516e-06,7.721036980293146e-06,2.491353560488672e-06,7.624987897432547e-07,9.702477733853797e-07,2.0490778646931247e-06,1.3999958373140317e-06,1.1840121970091267e-06,4.25401854779284e-06
197,1.346593026339013e-06,1.8689186064220693e-06,2.576741627289584e-06,1.8223554379775997e-05,1.267592478028318e-06,9.67637583571067e-07,7.13435918344045e-07,5.156505783081956e-06,7.657815345994862e-06,2.405202138877678e-06,7.815169938663257e-07,9.852174895125614e-07,1.8738960800829954e-06,1.4131571857466137e-06,1.1731384245071359e-06,4.21536936674873e-06
198,1.3830812669559954e-06,1.9280295919842005e-06,2.6260169971139514e-06,1.849105340546284e-05,1.2616643994465099e-06,9.604203750396086e-07,7.14567674746345e-07,5.219448806593114e-06,7.555796696971032e-06,2.3178235014191793e-06,8.024503460609007e-07,1.0082540874108596e-06,1.710943800928216e-06,1.4205638757029992e-06,1.1617507714622113e-06,4.164851495543048e-06
199,1.432141683430444e-06,1.9882643839532388e-06,2.692662346625405e-06,1.8694971762623048e-05,1.2530209705619093e-06,9.541421361411776e-07,7.166108126269735e-07,5.272982198234822e-06,7.411812502840663e-06,2.230636159919462e-06,8.251054810533253e-07,1.0394065460396756e-06,1.5603993737667241e-06,1.4220713787928794e-06,1.1505662696104693e-06,4.103199320963033e-06
200,1.4939802433617286e-06,2.0486225750300265e-06,2.776138772192139e-06,1.8833468158190834e-05,1.24194414517433e-06,9.491485956109535e-07,7.194726259249933e-07,5.317810290526233e-06,7.225809318801672e-06,2.145144871780527e-06,8.492516059785463e-07,1.0785552148976035e-06,1.4225700358641796e-06,1.4175612526640955e-06,1.1402148700157015e-06,4.031501440997007e-06
201,1.5685168882634117e-06,2.1083316748168414e-06,2.875787431121315e-06,1.8903782656403023e-05,1.2286957759117484e-06,9.457128847730356e-07,7.230350789512348e-07,5.3546768107255245e-06,7.000330346100439e-06,2.0627786868891635e-06,8.746433756934184e-07,1.1254553173747393e-06,1.2979132219129572e-06,1.4071179754769635e-06,1.1312173946750985e-06,3.95132849283727e-06
202,1.65534825097284e-06,2.166875336720377e-06,2.990654792598275e-06,1.890255736930316e-05,1.2134466907419452e-06,9.440069510069144e-07,7.272012423813513e-07,5.3840783489662855e-06,6.739237574756435e-06,1.984687677587125e-06,9.010129697961925e-07,1.17981901183359e-06,1.1868629053085756e-06,1.3911669408496984e-06,1.123970724028641e-06,3.864637581239098e-06
203,1.7537569507813715e-06,2.223940400421264e-06,3.119327942045436e-06,1.8827921873579672e-05,1.196280917921415e-06,9.44053448439073e-07,7.318812800210546e-07,5.405976941917822e-06,6.4468064470467935e-06,1.9116600732549723e-06,9.280265212976958e-07,1.2413913454660034e-06,1.0896579738534217e-06,1.3704616223224682e-06,1.1186888156356783e-06,3.773570903278319e-06
204,1.8627733163591165e-06,2.2793350857980927e-06,3.2598226372134315e-06,1.868151823569772e-05,1.1771793182504326e-06,9.457185906544927e-07,7.369766769458623e-07,5.4195386268018375e-06,6.128058977184917e-06,1.844204355137793e-06,9.552620922348404e-07,1.3099820288815762e-06,1.0062918435387447e-06,1.3459378832825943e-06,1.1153702754105863e-06,3.6801808759681893e-06
205,1.981274696288784e-06,2.332900627297863e-06,3.409582040615887e-06,1.8469287737524568e-05,1.1560217389958587e-06,9.487642760218836e-07,7.424214370767546e-07,5.423035922539634e-06,5.789549786368557e-06,1.7827222381170001e-06,9.822227401080475e-07,1.3855086718949485e-06,9.365527856210667e-07,1.3185314579101422e-06,1.1138675729222903e-06,3.5861357209431456e-06
206,2.1080615024126504e-06,2.3844252398978123e-06,3.5655672407449536e-06,1.8200808255324203e-05,1.1327004341832916e-06,9.529154332638233e-07,7.482172078701434e-07,5.414067235577062e-06,5.4394242882905645e-06,1.7276203025282918e-06,1.0083677791792225e-06,1.4680321769588822e-06,8.800775945532926e-07,1.2890864776996378e-06,1.1140279519547814e-06,3.49250627234532e-06
207,2.2418168897281875e-06,2.433553548096484e-06,3.7243008540462044e-06,1.7887595508067513e-05,1.1072862454060775e-06,9.578715055405566e-07,7.544139026466714e-07,5.389993918341945e-06,5.0866606246531575e-06,1.6792669582806652e-06,1.0331873178073848e-06,1.5576732075340952e-06,8.363942110417558e-07,1.258368056790735e-06,1.115783435336909e-06,3.3997490635818223e-06
208,2.380957879503607e-06,2.479680889338804e-06,3.881841844338409e-06,1.7541093136609285e-05,1.080108498765053e-06,9.632519035025716e-07,7.610804774065119e-07,5.348358860325311e-06,4.740098510030137e-06,1.6378701352455923e-06,1.0563325702127132e-06,1.6544833794480935e-06,8.049851566861142e-07,1.2270507915807988e-06,1.119125609515188e-06,3.3079285469699337e-06
209,2.523521450376925e-06,2.5219092433658315e-06,4.033951882648418e-06,1.717093441984481e-05,1.0517083931735067e-06,9.685434862088488e-07,7.682788772361659e-07,5.287220280032846e-06,4.407812071009775e-06,1.6034159717899876e-06,1.0776981077061204e-06,1.7584007909418427e-06,7.853917561243671e-07,1.195642238155568e-06,1.1240309950511835e-06,3.217064816128668e-06
210,2.667159402379235e-06,2.5591676389538676e-06,4.176629269209945e-06,1.6783885987227392e-05,1.0227310882012975e-06,9.731116824855947e-07,7.760548422508267e-07,5.205464286007253e-06,4.096958928019922e-06,1.5757110104771725e-06,1.0973480672383486e-06,1.8692490015385614e-06,7.77377155617354e-07,1.1644377696935535e-06,1.13039480923451e-06,3.127478153097377e-06
211,2.809172761514534e-06,2.590428773440975e-06,4.306734421481709e-06,1.6383828515203017e-05,9.938327839422135e-07,9.763090587181257e-07,7.844755339053114e-07,5.103084596716323e-06,3.8138279695355907e-06,1.5544846821154438e-06,1.1153797613319748e-06,1.9867221584281274e-06,7.811463483307054e-07,1.1335543357684263e-06,1.1379772317128725e-06,3.0400966081938303e-06
212,2.9466285289050903e-06,2.6148690138974076e-06,4.4222809851442115e-06,1.597269495021978e-05,9.656276717215923e-07,9.776392157652388e-07,7.936603880685131e-07,4.98131840107922e-06,3.563856446962377e-06,1.5395170135102177e-06,1.1318703796985016e-06,2.1103526860292826e-06,7.974803781976771e-07,1.1030134733202957e-06,1.1464184796642917e-06,2.956678178111217e-06
213,3.076717970645343e-06,2.6319614604754217e-06,4.522258612532498e-06,1.5551727201986447e-05,9.386571951276218e-07,9.76827087684176e-07,8.037683569636489e-07,4.842541832176897e-06,3.351640495265141e-06,1.5307127055953192e-06,1.1468576436352404e-06,2.2394832147894527e-06,8.276294231162496e-07,1.0728449841875545e-06,1.155368211610115e-06,2.879825392855337e-06
214,3.197216012104559e-06,2.641575392818194e-06,4.606134944659659e-06,1.5122430010780586e-05,9.133628828410647e-07,9.737590376628914e-07,8.149758027015929e-07,4.68991421896906e-06,3.1810070379269456e-06,1.5280182540323121e-06,1.1602843309357953e-06,2.3733395946493266e-06,8.730873128097883e-07,1.0431774243155952e-06,1.1646128726938237e-06,2.812702162051258e-06
215,3.306585802621633e-06,2.6440526401350488e-06,4.673400266748582e-06,1.4687020897269855e-05,8.900781501783766e-07,9.68438885324859e-07,8.27443546151372e-07,4.526842089570954e-06,3.0551301533481134e-06,1.5312407477092679e-06,1.1720031316337596e-06,2.5112232624471467e-06,9.354717307777182e-07,1.0142619131716063e-06,1.1740494406846604e-06,2.758558461817633e-06
216,3.4035934320138602e-06,2.640141833518806e-06,4.723643617481596e-06,1.4248503910696893e-05,8.690654990671514e-07,9.609917689386196e-07,8.4127751703906e-07,4.356414266378687e-06,2.976652217637633e-06,1.5399361319167333e-06,1.1818721513832963e-06,2.6526178814643445e-06,1.0164788219598138e-06,9.86409758981896e-07,1.1835406097063349e-06,2.7203562588973435e-06
217,3.4869434497288994e-06,2.630749062197773e-06,4.757172817567181e-06,1.3810574011447994e-05,8.505580107590446e-07,9.516085161064523e-07,8.565301955063185e-07,4.181025490276988e-06,2.9477841101763892e-06,1.5534510334573698e-06,1.1898073430517364e-06,2.797043200542867e-06,1.1177865270529828e-06,9.599040147571668e-07,1.1928178831413978e-06,2.700684424800595e-06
218,3.5554169487824487e-06,2.616627159800657e-06,4.775463622222514e-06,1.3377434026420904e-05,8.34738608117441e-07,9.404639482633977e-07,8.732318649378546e-07,4.002350927837978e-06,2.9703461599315537e-06,1.5710870828415048e-06,1.195799786858902e-06,2.9437669289100933e-06,1.2409461813464068e-06,9.349424423033716e-07,1.2015285032709023e-06,2.701867632988327e-06
219,3.608294199189567e-06,2.5982218394558944e-06,4.780864316940421e-06,1.2953514166769512e-05,8.216849122408435e-07,9.277387368482386e-07,8.913844698093913e-07,3.821608351231334e-06,3.0457205461892514e-06,1.5922410710607526e-06,1.1999884502823618e-06,3.091607864013402e-06,1.3873354315634553e-06,9.116019240098261e-07,1.209342346082202e-06,2.7260811117372437e-06
220,3.645548088345393e-06,2.5758155075327376e-06,4.7757851077703125e-06,1.2543127204520195e-05,8.113402735006436e-07,9.137260076946574e-07,9.108976059536834e-07,3.6398512208504276e-06,3.1747442124818272e-06,1.6164068699891648e-06,1.2026696865404018e-06,3.238977370989205e-06,1.5581313267473764e-06,8.898434320484518e-07,1.21596104358109e-06,2.7753507519262436e-06
221,3.6676694975923626e-06,2.5498664559697527e-06,4.76198950917186e-06,1.2150076696118419e-05,8.035111935603413e-07,8.988781584700618e-07,9.315216162528176e-07,3.4581111929525537e-06,3.3576155436673014e-06,1.643149377098642e-06,1.2041704611833567e-06,3.384144499028229e-06,1.7542548850372053e-06,8.696067809485389e-07,1.2210427722615519e-06,2.8514277352195482e-06
222,3.6753561306807806e-06,2.521268255637531e-06,4.7403835457821454e-06,1.1777129816179969e-05,7.97900140807097e-07,8.837284420776931e-07,9.528483795833367e-07,3.2774207577546318e-06,3.593848281323019e-06,1.6721880884976207e-06,1.2047281422578166e-06,3.5255435409660745e-06,1.976322535261134e-06,8.509191096414529e-07,1.2241874943033875e-06,2.955677939258361e-06
223,3.6692843925827467e-06,2.4913413289164284e-06,4.711317793619202e-06,1.1425373301387142e-05,7.942052509346e-07,8.687773340310984e-07,9.743990070169295e-07,3.0988075579890233e-06,3.882242574731269e-06,1.7035065179909431e-06,1.2044708279411656e-06,3.6618830978151943e-06,2.224636191775824e-06,8.338860296846722e-07,1.2249902735658524e-06,3.0890690558469134e-06
224,3.650009530770752e-06,2.4615748032549963e-06,4.675131431665444e-06,1.1093809687814074e-05,7.922525610790214e-07,8.544420941486451e-07,9.957501090546957e-07,2.923293850077293e-06,4.2208668223476035e-06,1.737307723577803e-06,1.2035069767247456e-06,3.7919392240393142e-06,2.4991699025958233e-06,8.186174572983698e-07,1.2230893164864474e-06,3.252137956890236e-06
225,3.6179947946199014e-06,2.433289410248075e-06,4.632553216855295e-06,1.0779520152652463e-05,7.920645752981088e-07,8.410519129962719e-07,1.0166167642594277e-06,2.7519193506959307e-06,4.607045377697748e-06,1.7737908076252626e-06,1.2020862187092265e-06,3.914191244384101e-06,2.799511798025441e-06,8.052038080005226e-07,1.2182347699428454e-06,3.4448838110914047e-06
226,3.5737662502534235e-06,2.407438424200544e-06,4.584690336456265e-06,1.0478219547321626e-05,7.938071162102221e-07,8.288534705476458e-07,1.036841213368875e-06,2.5857942136076326e-06,5.037282763477903e-06,1.812907669998231e-06,1.2006736737800541e-06,4.0266390174271e-06,3.124821812476501e-06,7.937079212662567e-07,1.2103728497154338e-06,3.666670209429071e-06
227,3.518089283918948e-06,2.3846125610889454e-06,4.532637518744556e-06,1.0184847843782485e-05,7.976618444993132e-07,8.180281573243945e-07,1.056308756025147e-06,2.4261400278448116e-06,5.5071073139466575e-06,1.8542366159717464e-06,1.199840845175322e-06,4.1269688485094074e-06,3.473896594805309e-06,7.841468016982338e-07,1.199640741131314e-06,3.916161366209593e-06
228,3.4519884714954236e-06,2.365103218816754e-06,4.477035412468472e-06,9.894133471758506e-06,8.037313396053771e-07,8.086977145954623e-07,1.074865006585367e-06,2.274259678749077e-06,6.010920441023012e-06,1.8969732483502608e-06,1.2001022491611872e-06,4.2129574525968215e-06,3.845318624478944e-06,7.764992979024012e-07,1.186260958893001e-06,4.191262714421124e-06
229,3.3765185545171724e-06,2.348903141327325e-06,4.417851683051663e-06,9.601234481040668e-06,8.120210988618593e-07,8.009151423109516e-07,1.0923053477480914e-06,2.1314144760823393e-06,6.541952296673357e-06,1.9399884880726676e-06,1.2018276637816026e-06,4.28295772647454e-06,4.237583786940431e-06,7.707149703351669e-07,1.1704603425046158e-06,4.489065560589632e-06
230,3.292415108599175e-06,2.335683129437077e-06,4.354320286690095e-06,9.302480523255484e-06,8.224680576685225e-07,7.946575607313971e-07,1.1084383807488563e-06,1.998655265199435e-06,7.092378340121315e-06,1.981911881246109e-06,1.2051943660715264e-06,4.336360969309297e-06,4.64913974405094e-06,7.667217158284474e-07,1.1524845597629096e-06,4.805830340560473e-06
231,3.199876676172985e-06,2.3248340015193986e-06,4.2849424195740944e-06,8.996097540610424e-06,8.350030660673415e-07,7.89805867866322e-07,1.1231312063349111e-06,1.8766927514778005e-06,7.653571510314426e-06,2.0212529596842685e-06,1.2101501730042753e-06,4.3738862197379095e-06,5.078346176905599e-06,7.644475990770427e-07,1.132627413109256e-06,5.1370183594975365e-06
232,3.0985953596278107e-06,2.315619084159517e-06,4.2076772428133174e-06,8.682653812936348e-06,8.496114962507007e-07,7.861315368353616e-07,1.136259372151945e-06,1.7658580934249086e-06,8.216490749462947e-06,2.056632800378652e-06,1.2164278526352458e-06,4.397487257701788e-06,5.523373527606616e-06,7.638242374702214e-07,1.111212695585196e-06,5.47733366805868e-06
233,2.988005325809415e-06,2.307392964002653e-06,4.120420085637414e-06,8.364942165913441e-06,8.66307514710213e-07,7.833453465184922e-07,1.1476311583874813e-06,1.6661843738460997e-06,8.77222823440785e-06,2.0870562619969954e-06,1.223588283371148e-06,4.409812287804589e-06,5.981972452560065e-06,7.647966546703033e-07,1.0885876352117728e-06,5.820829060996539e-06
234,2.867722814260074e-06,2.2997472384349224e-06,4.021646332662612e-06,8.047247033435606e-06,8.850343371462653e-07,7.811933475612129e-07,1.1569800665038919e-06,1.5776183765783574e-06,9.312392427662651e-06,2.11195140471893e-06,1.2310310337877423e-06,4.41354209948333e-06,6.451114149401758e-06,7.673749568635939e-07,1.0651255411544092e-06,6.161223315820276e-06
235,2.738079982842691e-06,2.2924686252076934e-06,3.910969854459369e-06,7.734272297520036e-06,9.055966645098384e-07,7.795315288034547e-07,1.163986427504159e-06,1.5002290109698185e-06,9.828816662087046e-06,2.1308756129895702e-06,1.2380030886470252e-06,4.411057904514832e-06,6.926774099659187e-06,7.716618025063904e-07,1.0411627588759304e-06,6.492426198266171e-06
236,2.6004698447833515e-06,2.285363215984345e-06,3.7893702413147486e-06,7.4301232785305545e-06,9.276585551985068e-07,7.78353825906078e-07,1.1682998874261338e-06,1.4342269341735793e-06,1.0312841698316289e-05,2.1431952943828455e-06,1.2436692002077845e-06,4.404476353683225e-06,7.404114936187655e-06,7.777981157067534e-07,1.0169270215981603e-06,6.809072939448037e-06
237,2.4572247477392726e-06,2.2781121040975686e-06,3.6589855913138113e-06,7.137617765964364e-06,9.507560885074389e-07,7.77784628138459e-07,1.1696254702544358e-06,1.3798492592493487e-06,1.0755119927227899e-05,2.14809638069548e-06,1.247212357422339e-06,4.395887768771497e-06,7.877946062253857e-06,7.858680623240343e-07,9.925713333087233e-07,7.106854216901668e-06
238,2.3110836880001807e-06,2.270206739364837e-06,3.522593665163115e-06,6.8580410259116805e-06,9.74305510811137e-07,7.780369091869109e-07,1.1678498103791886e-06,1.3372944497236577e-06,1.1146283495800699e-05,2.1449142696875667e-06,1.2479139629818753e-06,4.3879138970633274e-06,8.343194377912715e-06,7.958307254021578e-07,9.682821730316449e-07,7.3825080634492936e-06
239,2.1646400454701595e-06,2.2608977386067537e-06,3.3830444544260196e-06,6.591315091538875e-06,9.976207420001083e-07,7.79355408702084e-07,1.1630840505130225e-06,1.3066989418869521e-06,1.1477961266989932e-05,2.1334791823228954e-06,1.2452326625631637e-06,4.384583731374515e-06,8.795286788623373e-06,8.075045402082616e-07,9.443453806101678e-07,7.633496816552009e-06
240,2.020097509178096e-06,2.2492360937725956e-06,3.2428528536900933e-06,6.336405783669939e-06,1.019938830045843e-06,7.819854412322898e-07,1.1555983060542889e-06,1.288074439214176e-06,1.1743672430511782e-05,2.1142276890912203e-06,1.2388676344625662e-06,4.3919622250579245e-06,9.230430308761444e-06,8.206024803565816e-07,9.211232659450365e-07,7.857578462084408e-06
241,1.879329449481779e-06,2.234320892294389e-06,3.1039898064455596e-06,6.091764982232102e-06,1.0404837020232834e-06,7.861716366113583e-07,1.1457383445894882e-06,1.2812609315340572e-06,1.1939428761405341e-05,2.088029832832306e-06,1.228728960579531e-06,4.417948303156978e-06,9.645717102726985e-06,8.347807124383266e-07,8.989751759658199e-07,8.052482966496052e-06
242,1.7440413609961066e-06,2.215591342960014e-06,2.967798657723883e-06,5.8557153542524346e-06,1.0585743633132315e-06,7.921475978233579e-07,1.1338657680821692e-06,1.2859432619988775e-06,1.2063854361456573e-05,2.055854791251155e-06,1.2148574667942356e-06,4.471353510230245e-06,1.0038971481974594e-05,8.496402180197842e-07,8.781721544823871e-07,8.215705641655313e-06
243,1.6158574242403812e-06,2.1929254082211887e-06,2.834998440762791e-06,5.62675038906462e-06,1.073677035646183e-06,8.000928196427962e-07,1.1203008220400125e-06,1.301680184305351e-06,1.211750738021276e-05,2.018519445114577e-06,1.197435293766866e-06,4.56094479729008e-06,1.0408344732817146e-05,8.646848103196904e-07,8.588531808279365e-07,8.344242760886077e-06
244,1.4962752102656395e-06,2.166541184839333e-06,2.705811423646603e-06,5.403725773225151e-06,1.0853607082935473e-06,8.100797594189795e-07,1.1052829283819248e-06,1.3279125446236164e-06,1.2101468237820253e-05,1.9766809227507284e-06,1.1768697232566974e-06,4.694945533216287e-06,1.0751682466607476e-05,8.793085512432979e-07,8.410479370799108e-07,8.434191640550428e-06
245,1.3865645926710245e-06,2.136836860047757e-06,2.5802246333143998e-06,5.185976338437392e-06,1.0932662651740508e-06,8.220450330848667e-07,1.0889819026276443e-06,1.363974124538136e-06,1.2016311798696494e-05,1.930992798317797e-06,1.1538069691975267e-06,4.880861907877277e-06,1.1065875411855646e-05,8.928853642799509e-07,8.247200039541869e-07,8.48059817480236e-06
246,1.2877156335110504e-06,2.1042562247799923e-06,2.458287440336755e-06,4.9734323954692855e-06,1.0971659293963723e-06,8.35804883813128e-07,1.0715543652524196e-06,1.4091138454967066e-06,1.1862647758682965e-05,1.882251149319173e-06,1.1290303284026352e-06,5.125318100748191e-06,1.1346879161077083e-05,9.049220009815316e-07,8.097550870203259e-07,8.478190513383863e-06
247,1.2004515819585508e-06,2.0691875479790353e-06,2.3402875750174266e-06,4.766721377820802e-06,1.0970451305830406e-06,8.511222729192472e-07,1.0531966103620917e-06,1.4624944279781388e-06,1.1642729227005174e-05,1.831441172350543e-06,1.1033281740841693e-06,5.433901564110868e-06,1.159077164002063e-05,9.151206460917733e-07,7.959251195064819e-07,8.423067621653925e-06
248,1.1252666737832124e-06,2.0318924953731637e-06,2.2267258744389624e-06,4.567160175224878e-06,1.0930922561561732e-06,8.677773811050311e-07,1.034135921698828e-06,1.5231423782102228e-06,1.1361573358779486e-05,1.7796796002133098e-06,1.0774186148067777e-06,5.811124687698745e-06,1.1795088552453522e-05,9.23343763928569e-07,7.829400140806326e-07,8.31446062831728e-06
249,1.0624732127597757e-06,1.992490620078362e-06,2.1181411612347236e-06,4.376596619150518e-06,1.0855810477530201e-06,8.855605380474177e-07,1.0145856648745993e-06,1.5899015644307357e-06,1.1026865806326858e-05,1.7280830894583172e-06,1.0519220794883378e-06,6.2604462330502576e-06,1.1959509119130723e-05,9.296290450810416e-07,7.705940732497576e-07,8.155427912979077e-06
250,1.0122393265137367e-06,1.9510189947520315e-06,2.0148990397476154e-06,4.197153941767951e-06,1.0747696010312551e-06,9.042056929541002e-07,9.947562778756655e-07,1.6615015685635478e-06,1.064803028768565e-05,1.6776275685137374e-06,1.0273444244728842e-06,6.784242781674246e-06,1.2085782787760913e-05,9.342363132580537e-07,7.588738282237475e-07,7.952119786744891e-06
251,9.745855159193092e-07,1.907536752888258e-06,1.917073836978847e-06,4.0309772763042315e-06,1.060927684403732e-06,9.233765961158231e-07,9.749187346504243e-07,1.736746705070401e-06,1.0235023687803581e-05,1.6291008475377448e-06,1.004059012566937e-06,7.383662889635697e-06,1.2177121317019348e-05,9.375855054140631e-07,7.47940099360914e-07,7.712253183934753e-06
252,9.493522925202128e-07,1.8622030705190222e-06,1.8244560990620246e-06,3.880071621403612e-06,1.0444378162284552e-06,9.427607945594076e-07,9.554291762353108e-07,1.814624221974164e-06,9.797201311492303e-06,1.5831487448616472e-06,9.822868202921956e-07,8.058383926131939e-06,1.2237094345554538e-05,9.401010980437835e-07,7.380432709245934e-07,7.44371172014934e-06
253,9.361847905235033e-07,1.815265847939564e-06,1.7365974358787037e-06,3.746263293058045e-06,1.0258466383172039e-06,9.622035596304438e-07,9.366826519977922e-07,1.8941894722196201e-06,9.34273387504193e-06,1.5402969822837765e-06,9.621117215217447e-07,8.806383392359081e-06,1.2268295026607989e-05,9.421050718120067e-07,7.294524020043948e-07,7.153708523986489e-06
254,9.345542879290493e-07,1.7669515400209731e-06,1.6528891094978375e-06,3.631256783448519e-06,1.0058196645531944e-06,9.817516373246045e-07,9.190350838556523e-07,1.97441701829932e-06,8.878894324211242e-06,1.5009787032737264e-06,9.435604838603336e-07,9.623813035218418e-06,1.2271569711229171e-05,9.438139886371945e-07,7.224295227332417e-07,6.8483962885500094e-06
255,9.43801758707426e-07,1.7173374124991095e-06,1.5727095745302892e-06,3.5367304621326955e-06,9.850344292626015e-07,1.0015694053415181e-06,9.027533322078045e-07,2.0541991580240463e-06,8.412660412168198e-06,1.4656656884332369e-06,9.267052312419995e-07,1.0504970446688434e-05,1.2246274203408239e-05,9.453569738892436e-07,7.172540009289264e-07,6.532694376345458e-06
256,9.631923251545451e-07,1.6663511435070542e-06,1.495546728031013e-06,3.4643903687016724e-06,9.641073621717408e-07,1.021842545077891e-06,8.880389586088621e-07,2.1323500105686774e-06,7.950803129388665e-06,1.4349885904473953e-06,9.117176491919257e-07,1.1442269761582658e-05,1.2191115238730085e-05,9.467613715956917e-07,7.142368914831957e-07,6.210327471887368e-06
257,9.91981828023422e-07,1.6139431008982215e-06,1.4210319540356003e-06,3.4158937069534512e-06,9.435943439944517e-07,1.0427404443947863e-06,8.750906478671357e-07,2.207540800540362e-06,7.499389741415811e-06,1.4097127142294572e-06,8.988382871662323e-07,1.242607428062789e-05,1.2105018565186482e-05,9.479751044742889e-07,7.136682741873672e-07,5.884100202283035e-06
258,1.0294729606560605e-06,1.5602949454036058e-06,1.3489568835230118e-06,3.3926332353744876e-06,9.239811313891087e-07,1.0643966032477118e-06,8.641164393875988e-07,2.2783550611332912e-06,7.063244560657669e-06,1.3906100126648272e-06,8.883024640205672e-07,1.3444343299899061e-05,1.1987776802574114e-05,9.48974095147845e-07,7.157543373163042e-07,5.556253494191939e-06
259,1.0750080973359463e-06,1.5059012599331572e-06,1.2793230983937982e-06,3.39552313881615e-06,9.056344529025103e-07,1.0868989996239967e-06,8.552808653490509e-07,2.34353444270302e-06,6.645825223122929e-06,1.3783166842620055e-06,8.803061362117444e-07,1.4482187350671777e-05,1.1840229391943183e-05,9.498779536473957e-07,7.20601500787883e-07,5.228814766210042e-06
260,1.1278866890960206e-06,1.4514825876876307e-06,1.2123977147944091e-06,3.4249631212501197e-06,8.887786048781648e-07,1.1102771640424069e-06,8.486517381424346e-07,2.4022534902679207e-06,6.249509262259348e-06,1.3732451342291547e-06,8.750181797157482e-07,1.552147793913238e-05,1.1663852853816404e-05,9.509553792326209e-07,7.282142167995057e-07,4.903959047719839e-06
261,1.187286716153341e-06,1.3978052788797819e-06,1.148755172675156e-06,3.4809942225917095e-06,8.735140588419266e-07,1.13444159474499e-06,8.4418184319811e-07,2.4542728407231185e-06,5.875921160529274e-06,1.3755892140050558e-06,8.725731046413485e-07,1.6540680548494922e-05,1.1460022360313064e-05,9.525050874263454e-07,7.384798045177554e-07,4.584213365481239e-06
262,1.2522456921253488e-06,1.3455223747720222e-06,1.0893040375216948e-06,3.56352073817484e-06,8.598612262470872e-07,1.15911512399265e-06,8.417086160298792e-07,2.4999459348327392e-06,5.526028792987518e-06,1.3854185785096133e-06,8.730223023355361e-07,1.751521913777242e-05,1.1229283918687873e-05,9.547332607366647e-07,7.511647230875283e-07,4.272279956852184e-06
263,1.3216668914561108e-06,1.2951038586029014e-06,1.0352706340326254e-06,3.6725049303270194e-06,8.478054321604966e-07,1.1838191232948922e-06,8.409544321813878e-07,2.5401124644296663e-06,5.200080599111713e-06,1.4027867235111517e-06,8.762947731282474e-07,1.841872879644881e-05,1.097078090004698e-05,9.577383484734147e-07,7.65962049581496e-07,3.970606307273839e-06
264,1.3943648364285295e-06,1.246851654990175e-06,9.88112672762141e-07,3.808091862593324e-06,8.372935401142972e-07,1.2079158876172914e-06,8.415268581925717e-07,2.575897885314633e-06,4.897550826776537e-06,1.4277294014142787e-06,8.822190469169268e-07,1.9225244545965085e-05,1.068215703432245e-05,9.615702182528196e-07,7.825846040685812e-07,3.6811110088329285e-06
265,1.4691910291214984e-06,1.2009576482605572e-06,9.493791250015041e-07,3.970613955464528e-06,8.281758950171506e-07,1.2307042118355214e-06,8.429448115737266e-07,2.608437142091354e-06,4.617129109564012e-06,1.4601501284197198e-06,8.905726517793202e-07,1.9911927178420096e-05,1.0360397290605444e-05,9.662486438905617e-07,8.008143911659271e-07,3.405274508718594e-06
266,1.5451772771882854e-06,1.1575655102155868e-06,9.205671641520049e-07,4.160462492209406e-06,8.201533285096525e-07,1.2515096484958968e-06,8.447209182454914e-07,2.6386025770620926e-06,4.356832011787045e-06,1.4997319515744177e-06,9.010717288271248e-07,2.046157943209033e-05,1.0003443266779645e-05,9.7172273334664e-07,8.204616651639058e-07,3.144404481230581e-06
267,1.621624199073155e-06,1.1168189739755039e-06,9.030349759407055e-07,4.377912550821247e-06,8.127913242507925e-07,1.2696739948910073e-06,8.464524524727935e-07,2.666886124927271e-06,4.114449868254335e-06,1.5459756544834998e-06,9.133022674712243e-07,2.0863905520143274e-05,9.611769996745301e-06,9.778739394568517e-07,8.413240807343487e-07,2.8997610294790337e-06
268,1.6981347129794102e-06,1.0789019178512304e-06,8.979834941959636e-07,4.62302993327949e-06,8.056176060286225e-07,1.2845369468083436e-06,8.478369598175883e-07,2.693514106636187e-06,3.888240566518136e-06,1.5983079436130601e-06,9.266867070190752e-07,2.1114387698574912e-05,9.189083297048607e-06,9.846028884285412e-07,8.632116530498236e-07,2.6724581308424918e-06
269,1.774605413667864e-06,1.0440784679044904e-06,9.064702621230759e-07,4.895709902901514e-06,7.982525616657766e-07,1.295543495582833e-06,8.486357116216071e-07,2.7186684004428217e-06,3.6772826312718223e-06,1.656115553867818e-06,9.405583291669191e-07,2.1211147753248375e-05,8.741704184649236e-06,9.919055469278392e-07,8.859672435917355e-07,2.4633272851673428e-06
270,1.8511978069144918e-06,1.0127187917272779e-06,9.294229014519155e-07,5.195782932844379e-06,7.904808784064971e-07,1.302336834978087e-06,8.486768734140852e-07,2.742616870124806e-06,3.4811408622628727e-06,1.718694724062139e-06,9.543470223723182e-07,2.1153127856143613e-05,8.277005769869636e-06,9.998539623659945e-07,9.094373763814543e-07,2.2729153263559946e-06
271,1.9283136966562463e-06,9.85270432419107e-07,9.676279302325154e-07,5.5230792204591665e-06,7.822093007502432e-07,1.3046788817924871e-06,8.479212222737431e-07,2.7656999900028463e-06,3.299295233785188e-06,1.7852178192908404e-06,9.677589812231322e-07,2.094245326441953e-05,7.802001934975335e-06,1.0085246080976056e-06,9.334633762914662e-07,2.101547341636012e-06
272,2.006532363763703e-06,9.621722576048164e-07,1.0216933711897255e-06,5.877390626176841e-06,7.73358522240728e-07,1.3023450140434691e-06,8.465455112589764e-07,2.7882604009010635e-06,3.1308789089909177e-06,1.8546999128368028e-06,9.80785971166557e-07,2.0588962737845682e-05,7.3230053095438e-06,1.0179763362766744e-06,9.57909270366799e-07,1.9492902531701607e-06
273,2.086441089091068e-06,9.437999326410943e-07,1.0920162200325198e-06,6.258347101197212e-06,7.638128425135001e-07,1.2952088057567631e-06,8.449796797703289e-07,2.81059795263453e-06,2.9747527167970558e-06,1.9259463106468428e-06,9.935528115833378e-07,2.0112649900085702e-05,6.846199777527008e-06,1.0282816625063802e-06,9.826613533626333e-07,1.8158500946660678e-06
274,2.168401939266241e-06,9.304878717812017e-07,1.1787770792481936e-06,6.665233634548478e-06,7.534862020958992e-07,1.2834611272941284e-06,8.43841973930609e-07,2.832946253587508e-06,2.829808309309963e-06,1.9976393092227374e-06,1.0061517395103576e-06,1.954230343312217e-05,6.378215642124991e-06,1.0395363468332995e-06,1.0076307022291865e-06,1.7005958950912802e-06
275,2.252382641746671e-06,9.22531355675944e-07,1.281977283525875e-06,7.09671700890809e-06,7.424298541526851e-07,1.2677204961843889e-06,8.43795215988467e-07,2.8554278670113293e-06,2.6953708859141775e-06,2.068661704816031e-06,1.0185565862624794e-06,1.8911591038824188e-05,5.926183204140674e-06,1.0518169653787843e-06,1.0328014263787529e-06,1.6027841496861241e-06
276,2.337902038438068e-06,9.201209464012129e-07,1.4014972973135075e-06,7.550490843502113e-06,7.308772847649003e-07,1.2489147160018123e-06,8.454209212146071e-07,2.878000958349487e-06,2.5713556558504154e-06,2.1384833925096676e-06,1.0306036480868054e-06,1.8254904978153578e-05,5.497441487946841e-06,1.0651011504794877e-06,1.0582248463346977e-06,1.5218438824096655e-06
277,2.4240695245923253e-06,9.232994042146782e-07,1.5371071904300474e-06,8.022979999900277e-06,7.191880567371457e-07,1.228035785530933e-06,8.491600219928969e-07,2.900474903363051e-06,2.4579995791911273e-06,2.207341395153741e-06,1.0419966423250189e-06,1.7604560384546048e-05,5.099158624484756e-06,1.0791901397544322e-06,1.0839066761260563e-06,1.4575091921859037e-06
278,2.5097176013190533e-06,9.320038413753211e-07,1.6884495665484812e-06,8.509213009564425e-06,7.077358218515698e-07,1.2059519754538364e-06,8.552994822674826e-07,2.9226530328812686e-06,2.355494489625974e-06,2.2760905190931657e-06,1.0523636748989406e-06,1.6989488155976538e-05,4.7379426734226e-06,1.0936936164267345e-06,1.109711051416251e-06,1.4097086949029814e-06
279,2.5935758209070783e-06,9.461480278826447e-07,1.855071873048583e-06,9.002754304685256e-06,6.968279224867653e-07,1.1833637593772396e-06,8.639888388697296e-07,2.944569208471107e-06,2.2638631577214867e-06,2.3458176674390933e-06,1.0613896550873007e-06,1.64348583055097e-05,4.419545786944428e-06,1.1081020798282926e-06,1.1353998907484273e-06,1.3783253843723245e-06
280,2.6743597199496424e-06,9.656573749298161e-07,2.0364459130711877e-06,9.49563768057765e-06,6.866883818792756e-07,1.1608476760573688e-06,8.752819960226064e-07,2.9667037171063833e-06,2.1829699015116317e-06,2.417438514870938e-06,1.0689276254361135e-06,1.596225695389483e-05,4.148766170372067e-06,1.1218894491259404e-06,1.1607721193698022e-06,1.363012280011472e-06
281,2.7507270315845397e-06,9.904233086605185e-07,2.231879872709069e-06,9.978660432571172e-06,6.774707504260229e-07,1.138900522759207e-06,8.891873796339236e-07,2.9900567381443767e-06,2.1125008255447676e-06,2.4914424540578477e-06,1.0749979905179342e-06,1.559017588142994e-05,3.929503189975467e-06,1.1345643755363651e-06,1.1857529739042648e-06,1.3631357299211897e-06
282,2.8211940994311564e-06,1.0202529277717485e-06,2.4403956127664587e-06,1.0442377043110698e-05,6.692826863707507e-07,1.117950989927357e-06,9.05694546180872e-07,3.0160210347912417e-06,2.052006302988291e-06,2.5678058144273467e-06,1.0797059182784103e-06,1.5334429852520758e-05,3.7648773353627073e-06,1.1456546201764527e-06,1.2103288556133127e-06,1.3778034977322808e-06
283,2.8841364099929415e-06,1.0548915256402857e-06,2.6607062206672514e-06,1.0878449295760784e-05,6.622242991573576e-07,1.098353109272786e-06,9.247462476536576e-07,3.0460820382809267e-06,2.0010625502775724e-06,2.646012734179019e-06,1.0831453660977593e-06,1.5208238891463413e-05,3.6574053024538177e-06,1.1546552066498245e-06,1.2344033519030754e-06,1.4059091874068076e-06
284,2.937922250906171e-06,1.0940720910641362e-06,2.89131175214113e-06,1.1280677876095726e-05,6.564217066079872e-07,1.0803791839492188e-06,9.461679500531006e-07,3.08147714899697e-06,1.9594217450326826e-06,2.7251005569551625e-06,1.0853368440330807e-06,1.5222043880913664e-05,3.609166743929015e-06,1.1610113298157348e-06,1.2577230489957266e-06,1.4461409884957786e-06
285,2.9811421845191442e-06,1.1375036482285195e-06,3.130630895657011e-06,1.1645384159343187e-05,6.5203097550924e-07,1.0641973688658374e-06,9.696107111306752e-07,3.122996964176237e-06,1.9270077534408578e-06,2.8036731448309236e-06,1.0862196761209534e-06,1.538327749009225e-05,3.621816111611994e-06,1.1642204436408943e-06,1.279908397324542e-06,1.4969819421084888e-06
286,3.0128525322881692e-06,1.1847986581968965e-06,3.3771013906443007e-06,1.1971131678973184e-05,6.492131853168173e-07,1.04982583458595e-06,9.945610644927461e-07,3.1709440038110163e-06,1.9037517434643317e-06,2.879965928771665e-06,1.085654254610788e-06,1.5696257579883597e-05,3.696451134918242e-06,1.164013803172362e-06,1.3005357396855866e-06,1.5567943853607464e-06
287,3.0327375524175877e-06,1.2354338920194711e-06,3.6292403897835624e-06,1.2257814321720245e-05,6.48099064218732e-07,1.0371179523857967e-06,1.020431218701507e-06,3.22509522630832e-06,1.8894044073770079e-06,2.9520680119042155e-06,1.0833800225295756e-06,1.616217404668086e-05,3.833544779540613e-06,1.1604718577439563e-06,1.3192143164496869e-06,1.6239884957986287e-06
288,3.0411141336703574e-06,1.2888246246267176e-06,3.8856966473170895e-06,1.2505276822027598e-05,6.487531431642507e-07,1.0258323539254105e-06,1.0466770192125712e-06,3.284640286485973e-06,1.8834625490343233e-06,3.018220629818841e-06,1.0789804630611006e-06,1.6778984049469265e-05,4.03304042719885e-06,1.1539826637310635e-06,1.3356309828471305e-06,1.6971689644580018e-06
289,3.0387716078301262e-06,1.3444806765320265e-06,4.145349376189472e-06,1.2712087120701893e-05,6.511463776577467e-07,1.0157474186889956e-06,1.0728535437806155e-06,3.3481543539502413e-06,1.8851884891500837e-06,3.0770600997726884e-06,1.0719630473685732e-06,1.7541193939168e-05,4.294471400845056e-06,1.1450826966103207e-06,1.3495778139407837e-06,1.7752094215981183e-06
290,3.0267014552036014e-06,1.402154606348105e-06,4.407452232613763e-06,1.2875250207724732e-05,6.551627876181284e-07,1.0067384349086454e-06,1.098572680796852e-06,3.4135698729417463e-06,1.8936272786763279e-06,3.1277530968894312e-06,1.0619654257102903e-06,1.8439768228961634e-05,4.6169366114574e-06,1.134329421714961e-06,1.3609536696126326e-06,1.85726474540822e-06
291,3.0057820130865655e-06,1.4619170343721968e-06,4.671666931002273e-06,1.2990969226625078e-05,6.606529675508465e-07,9.98792030746482e-07,1.1234294954549885e-06,3.4781836739306452e-06,1.9076517224805836e-06,3.1700152936189465e-06,1.0489745215511792e-06,1.9462184194608802e-05,4.998947181639243e-06,1.122272861660777e-06,1.3696992542574148e-06,1.9426840843508774e-06
292,2.9765127821843586e-06,1.5241295156931683e-06,4.937789931612987e-06,1.3055787960066783e-05,6.675022075689179e-07,9.919634867899407e-07,1.1469863552525231e-06,3.538828901492631e-06,1.9261142410875806e-06,3.2040693747419937e-06,1.0334140016122909e-06,2.0592259933119247e-05,5.438345462252585e-06,1.109412006846737e-06,1.3757277843007778e-06,2.030842076049131e-06
293,2.9389240621427074e-06,1.589320797871471e-06,5.205243501644321e-06,1.3067491516530675e-05,6.75653029880728e-07,9.862906976809664e-07,1.1688109194910627e-06,3.5921899321464376e-06,1.948037333526595e-06,3.2305893000782584e-06,1.016030699894748e-06,2.1809612216758226e-05,5.9324612210891555e-06,1.096115777963819e-06,1.378955287174513e-06,2.121119737557527e-06
294,2.892695620449473e-06,1.658003759784277e-06,5.47270214736966e-06,1.3025592108293055e-05,6.850547447704091e-07,9.817234784869e-07,1.188484988003684e-06,3.635100370993896e-06,1.9726868606139476e-06,3.2505733961978613e-06,9.976654308183187e-07,2.3089055726829027e-05,6.478405118471039e-06,1.0826601202467545e-06,1.3793593706361278e-06,2.2131565793820716e-06
295,2.837400607011897e-06,1.730504003478043e-06,5.7380919715895256e-06,1.2931445472767119e-05,6.955912078965252e-07,9.781154334342486e-07,1.2055740941476793e-06,3.664751928777052e-06,1.999479584160031e-06,3.2650872582151574e-06,9.790664386210326e-07,2.440022711247723e-05,7.073235143544713e-06,1.0693990179155941e-06,1.3769357266548656e-06,2.3070369526166314e-06
296,2.772799541890275e-06,1.8068907073774017e-06,5.998835093907257e-06,1.2788052831364838e-05,7.070555891681136e-07,9.75268836617278e-07,1.2196879319003476e-06,3.678893755842268e-06,2.0278139391398343e-06,3.274966794761076e-06,9.608110226995287e-07,2.5707412391440583e-05,7.713862805283405e-06,1.0568863190300631e-06,1.3716267817550077e-06,2.4031006962448356e-06
297,2.6991377735613345e-06,1.887038719985298e-06,6.25209754527866e-06,1.2599600378780227e-05,7.191867657409427e-07,9.730202182094652e-07,1.2306878502208057e-06,3.6760887031099716e-06,2.0569285782342125e-06,3.280707049563089e-06,9.433109037504657e-07,2.6969564996835462e-05,8.396775664840484e-06,1.0458232845344424e-06,1.3633739399003394e-06,2.5015784409599073e-06
298,2.61737016566534e-06,1.9707171672958455e-06,6.494875327935713e-06,1.2370758173797914e-05,7.317315672618938e-07,9.713341037924614e-07,1.238861260488832e-06,3.6559406293996347e-06,2.085813814113925e-06,3.2826226103185155e-06,9.268592381096838e-07,2.8141480877608126e-05,9.117677109921371e-06,1.0369151211954601e-06,1.3522150921274019e-06,2.6023812671293705e-06
299,2.5292266584748956e-06,2.0575769389924723e-06,6.723903264303977e-06,1.210577494380507e-05,7.444662216063068e-07,9.703209910652284e-07,1.2448758585050644e-06,3.6191296396527433e-06,2.1131444610115272e-06,3.281055650972881e-06,9.116985103325062e-07,2.917806305016466e-05,9.87107962254488e-06,1.0307683454414515e-06,1.3382499830035521e-06,2.7050821961428135e-06
300,2.4370619201562677e-06,2.1470757868096663e-06,6.935629321996542e-06,1.1807795558556763e-05,7.571552721038125e-07,9.701461900455982e-07,1.2495638150482625e-06,3.5671526590368673e-06,2.1372590782276704e-06,3.276386894090536e-06,8.98102642562385e-07,3.0041589848710974e-05,1.0650023791416514e-05,1.027841537121813e-06,1.3215610155650668e-06,2.8089660144834926e-06
301,2.3435087360453523e-06,2.2384541630236916e-06,7.126583005647491e-06,1.1479089040849068e-05,7.695202797573903e-07,9.7092502300971e-07,1.2537290225260284e-06,3.501821093780008e-06,2.1562980122558353e-06,3.268875627644188e-06,8.864111561491936e-07,3.070792762304296e-05,1.1446169095556457e-05,1.0284354460055671e-06,1.3022772268983851e-06,2.913049650593773e-06
302,2.2510925040922214e-06,2.3308179677391322e-06,7.294127102514633e-06,1.1122125692848717e-05,7.812869555472754e-07,9.726950792749683e-07,1.25807363922901e-06,3.4247827974881586e-06,2.1685097061545678e-06,3.2585486581812137e-06,8.769593110632825e-07,3.1167290041146294e-05,1.2250087672312697e-05,1.0327371631649646e-06,1.2807079658864554e-06,3.0160458668316493e-06
303,2.1620039498788793e-06,2.423387514064587e-06,7.437145061624282e-06,1.0740600426620888e-05,7.922805628545114e-07,9.754217465407974e-07,1.2631866609201555e-06,3.3373559612582432e-06,2.1725322499895644e-06,3.2452984339158364e-06,8.699688450908629e-07,3.141914827182051e-05,1.3051289620698618e-05,1.0408785774206969e-06,1.2573873383103885e-06,3.116441718978587e-06
304,2.0780538929487655e-06,2.5158483554581765e-06,7.556182302958969e-06,1.0339775909561343e-05,8.024827655310972e-07,9.789671817239666e-07,1.2695400810018219e-06,3.240631611972409e-06,2.167504246434021e-06,3.2291042150514673e-06,8.65486786060621e-07,3.146502262691414e-05,1.3837914874843526e-05,1.0529423168657698e-06,1.2330305084995654e-06,3.212871581831104e-06
305,2.0006870735037934e-06,2.6085625969206547e-06,7.652876983866256e-06,9.926198599667583e-06,8.120055467249529e-07,9.830405330884365e-07,1.277499118089865e-06,3.1355667025578286e-06,2.153086537685004e-06,3.210156401509247e-06,8.63373678546398e-07,3.1304421257854e-05,1.4596532125467286e-05,1.06890428290349e-06,1.2084446224118387e-06,3.3045551946278496e-06
306,1.9309849131622445e-06,2.702504249393774e-06,7.728936037618558e-06,9.507027864111708e-06,8.210025104342185e-07,9.87198861313588e-07,1.2873217062817233e-06,3.0229792484416097e-06,2.1295298487883954e-06,3.1888348463993687e-06,8.633179398138939e-07,3.093620257456185e-05,1.5312617435966407e-05,1.0885779040026963e-06,1.1844001325340967e-06,3.391382901611696e-06
307,1.8696710619740953e-06,2.7989898297355177e-06,7.785300144155361e-06,9.089146779340554e-06,8.295696171752503e-07,9.909383965527536e-07,1.299107527269483e-06,2.9035955037726646e-06,2.0977532660490167e-06,3.1656529318003996e-06,8.648805379289534e-07,3.036274581145379e-05,1.597216501568996e-05,1.1116334717514506e-06,1.161502673439646e-06,3.4735806053669985e-06
308,1.817146064709842e-06,2.8993277749551483e-06,7.821991135495291e-06,8.678354427307462e-06,8.377060676215838e-07,9.938321184314108e-07,1.3127216005454049e-06,2.7782485809519307e-06,2.0592539949243274e-06,3.141156524433173e-06,8.675817160758563e-07,2.9593621167812492e-05,1.6564174542074796e-05,1.1376565895844717e-06,1.1401269228986591e-06,3.5512986692530447e-06
309,1.7735460840058902e-06,3.0044923283580894e-06,7.838461283243646e-06,8.279092812761064e-06,8.453729857593042e-07,9.956345265347907e-07,1.3277529376136892e-06,2.648132713181816e-06,2.015779494236719e-06,3.1156945867682065e-06,8.709877891430706e-07,2.8647681969592992e-05,1.7082614965059585e-05,1.166152021126998e-06,1.1204473086004995e-06,3.624453853834345e-06
310,1.7387757322510883e-06,3.1149081390989457e-06,7.83399874401122e-06,7.894823612402677e-06,8.525995057947048e-07,9.963238003012848e-07,1.343550565245659e-06,2.5149309824371886e-06,1.968939314739659e-06,3.0891833430289336e-06,8.747093515579754e-07,2.7553375144071307e-05,1.7526339622427445e-05,1.1965185672995354e-06,1.102551688938437e-06,3.692742656680512e-06
311,1.7125111258344451e-06,3.2303597334905858e-06,7.808009188924736e-06,7.528672834655097e-06,8.595567239574236e-07,9.960855855467341e-07,1.3593462712080189e-06,2.3807271973409225e-06,1.9199686477893963e-06,3.061073728409416e-06,8.783337929976717e-07,2.6347148709901168e-05,1.7896805314691515e-05,1.2281051221288565e-06,1.0865406180347672e-06,3.7555720742185106e-06
312,1.6942600782331952e-06,3.349985595706083e-06,7.760169282734745e-06,7.183947926294279e-06,8.665603990938984e-07,9.952327063022072e-07,1.3744304346561545e-06,2.24777068073405e-06,1.8696785265232022e-06,3.0305397176472878e-06,8.814384963250059e-07,2.507034888954687e-05,1.8195104305019396e-05,1.260344841458058e-06,1.0725134877758907e-06,3.8119433700522203e-06
313,1.683509306309934e-06,3.4723042358088817e-06,7.690459805476657e-06,6.86437286638384e-06,8.739983345973438e-07,9.940941157045653e-07,1.388321725545496e-06,2.1182343817895092e-06,1.8185169989785857e-06,2.9967743225021182e-06,8.837409065439594e-07,2.3765577595207913e-05,1.8420425504744503e-05,1.292822924761829e-06,1.0604737767552624e-06,3.860532889868666e-06
314,1.6798619888503755e-06,3.5952016882516002e-06,7.59910613045189e-06,6.574018464172127e-06,8.822181735909797e-07,9.929581183413917e-07,1.4008648287562737e-06,1.9940557716839946e-06,1.7666802027291335e-06,2.959278537823373e-06,8.852478828379364e-07,2.247357397810154e-05,1.8570611952148176e-05,1.3251800672046561e-06,1.050263770674669e-06,3.900072347887599e-06
315,1.6830702643949754e-06,3.7158986114160097e-06,7.486517974085944e-06,6.317005647496095e-06,8.914392411831953e-07,9.920707339220752e-07,1.4121989833374696e-06,1.876877449615825e-06,1.7142654424528819e-06,2.918016493869275e-06,8.862289415275758e-07,2.123120958452309e-05,1.8643326608658458e-05,1.3569416056677022e-06,1.0415971102559037e-06,3.929853133729166e-06
316,1.6929512569582987e-06,3.831025525297664e-06,7.353398981760893e-06,6.0971597965833305e-06,9.01711477002013e-07,9.916044705629034e-07,1.4226108743930866e-06,1.768086437884101e-06,1.6614743763391741e-06,2.87338094076687e-06,8.870430461958967e-07,2.0070640174954587e-05,1.8636387099844203e-05,1.3874476927365215e-06,1.0341613954071525e-06,3.950006766180478e-06
317,1.7092390481236031e-06,3.936877396110828e-06,7.201103693015472e-06,5.917786194757036e-06,9.129041697146483e-07,9.91596639960689e-07,1.4323736183405882e-06,1.6689116672840244e-06,1.6087943878168922e-06,2.8260650936929206e-06,8.879931309393399e-07,1.90193108545704e-05,1.8547421566587452e-05,1.415966567121615e-06,1.0276877965151198e-06,3.961317347137931e-06
318,1.7314770872029456e-06,4.029835316406304e-06,7.0319936056075295e-06,5.781596704733239e-06,9.247311491883796e-07,9.91921784216858e-07,1.4416647777643334e-06,1.580472468817495e-06,1.5570174862643516e-06,2.7769421839325065e-06,8.892601983650471e-07,1.8100314797469833e-05,1.8373678376151875e-05,1.4419059519470106e-06,1.0219481487493345e-06,3.964679586320849e-06
319,1.7590580820195802e-06,4.1069216892397305e-06,6.849357776170914e-06,5.690658664991728e-06,9.36816306373952e-07,9.923285171524878e-07,1.450569364582611e-06,1.5037372997487869e-06,1.5070613066426555e-06,2.726912507523452e-06,8.908712546493811e-07,1.7332731380106454e-05,1.8112571539185552e-05,1.4649279266118666e-06,1.0167391492154102e-06,3.960617121117625e-06
320,1.7913846443268955e-06,4.166360419193403e-06,6.656753349164836e-06,5.646250946294274e-06,9.48751996557251e-07,9.925350837283868e-07,1.459102138215187e-06,1.4394689222948721e-06,1.4597376184460559e-06,2.676705647004115e-06,8.927067685634447e-07,1.673193570254485e-05,1.7763158831668608e-05,1.4848618963131504e-06,1.0118730239857237e-06,3.949154530551365e-06
321,1.8279563406541425e-06,4.207867961688808e-06,6.4571596830655935e-06,5.6487536970014926e-06,9.601106891749985e-07,9.92320994367958e-07,1.4671841728271763e-06,1.3882074855108196e-06,1.415614471991596e-06,2.6268281820371762e-06,8.945415677479143e-07,1.6310003711880847e-05,1.732814906556388e-05,1.501509929937525e-06,1.0071418012018469e-06,3.929936727525415e-06
322,1.8682719715444214e-06,4.232414530448244e-06,6.252548796135868e-06,5.697820260208157e-06,9.704177465593436e-07,9.915306297913733e-07,1.4746054283794183e-06,1.3503216774590984e-06,1.3749811724009556e-06,2.577752426194464e-06,8.960669553470226e-07,1.607614123221068e-05,1.681524279854488e-05,1.5145058661001559e-06,1.0022813621279567e-06,3.902359314802456e-06
323,1.9117354893083697e-06,4.241519301344198e-06,6.044082832342818e-06,5.792822340743179e-06,9.791081879035635e-07,9.899813904477409e-07,1.4810626919032935e-06,1.3261593258650735e-06,1.3379179236451205e-06,2.5301195126854222e-06,8.969281155140159e-07,1.6036878027028247e-05,1.623654712293238e-05,1.5232950571808888e-06,9.969690147921172e-07,3.865646956511552e-06
324,1.9577653798926156e-06,4.2365738872696445e-06,5.832637637819002e-06,5.933295793519211e-06,9.855193494222996e-07,9.873586600972451e-07,1.486254470806993e-06,1.3161937404784196e-06,1.3045274720956502e-06,2.484767936844036e-06,8.968461987575625e-07,1.6195856997540878e-05,1.560611556545044e-05,1.5272267836906707e-06,9.90823109996694e-07,3.81896193439652e-06
325,2.0059980104906e-06,4.21865933733384e-06,5.619293775672394e-06,6.119146889897988e-06,9.889723505549186e-07,9.83197867154043e-07,1.489930820026141e-06,1.3210177281700582e-06,1.2752450360426225e-06,2.442653411066133e-06,8.957384979293066e-07,1.6553358237461934e-05,1.4937243437421372e-05,1.5257567852952017e-06,9.834145235588252e-07,3.7616633877565154e-06
326,2.056401907627396e-06,4.188809594449659e-06,5.405663748195648e-06,6.350499902848785e-06,9.889104896486034e-07,9.770046617017274e-07,1.491879200612573e-06,1.341241956509682e-06,1.2509600568041486e-06,2.404728271553988e-06,8.937097495802069e-07,1.7105886736842455e-05,1.424109692332728e-05,1.5186869942327445e-06,9.743218131668506e-07,3.693695841541313e-06
327,2.1092843585087607e-06,4.148360326831747e-06,5.194032653008882e-06,6.627207443255929e-06,9.85023963021747e-07,9.684673149809223e-07,1.4919029816525364e-06,1.377467261072554e-06,1.2328437043827081e-06,2.371762316275296e-06,8.909536684678072e-07,1.784612906413073e-05,1.3526668766046046e-05,1.5062729124994624e-06,9.632199838345734e-07,3.6158333872228127e-06
328,2.1652181170712757e-06,4.099105697378784e-06,4.98725360524559e-06,6.94829476918749e-06,9.77331093111945e-07,9.57610801635558e-07,1.4898169544509495e-06,1.430329623973804e-06,1.2221242492583288e-06,2.344180632518895e-06,8.876711603284725e-07,1.8763712276111346e-05,1.280115201154319e-05,1.4891246381739362e-06,9.500160977108752e-07,3.5295771480054436e-06
329,2.2248740006168846e-06,4.043177493491173e-06,4.7883512889795064e-06,7.311650528154719e-06,9.661962698720116e-07,9.447757562107908e-07,1.485452785268478e-06,1.5004904744048437e-06,1.220005550293393e-06,2.3220577893708855e-06,8.84048698211363e-07,1.984708654388496e-05,1.207030883388588e-05,1.4680085669936318e-06,9.349635700468749e-07,3.4368642483182036e-06
330,2.2888006951223714e-06,3.982753211223312e-06,4.600002449514454e-06,7.713908695820728e-06,9.522496752512562e-07,9.304685380785939e-07,1.4786870444460301e-06,1.588542358381568e-06,1.2276241874483376e-06,2.3052413285463244e-06,8.803106610682783e-07,2.1085808714827092e-05,1.1338867340310371e-05,1.44369639976552e-06,9.186013874741602e-07,3.3397832136590918e-06
