,EMG1,EMG2,EMG3,EMG4,EMG5,EMG6,EMG7,EMG8,EMG9,EMG10,EMG11,EMG12,EMG13,EMG14,EMG15,EMG16
0,1.1112202380965723e-07,5.749190890792626e-08,-1.40303049341819e-07,3.869163546845238e-07,1.3451751985609984e-07,-9.810638000801929e-08,5.19066295134483e-07,1.2326430113359664e-06,-1.0438596121187691e-07,6.102564712746887e-07,3.4505278204760464e-07,1.0900663350647522e-07,1.7118121217354742e-07,2.389148733523217e-07,1.245541363091796e-07,3.3413636398159307e-07
1,1.8958123542380858e-07,1.198285133329136e-07,1.1386419833162126e-07,4.740349575917006e-07,2.0152416075380135e-07,7.08390819346552e-08,5.900922779089791e-07,1.5569771467316493e-06,1.663751120797955e-07,6.589821584640884e-07,4.37585314950611e-07,4.5438790745562703e-07,4.2943621611453325e-07,3.7039205038501967e-07,2.3729202466750893e-07,4.085614372133833e-07
2,2.66509073325726e-07,1.8335144255448124e-07,3.597534941533767e-07,5.593145975127704e-07,2.6783655648225175e-07,2.35320405252172e-07,6.636354526995321e-07,1.8748925421314278e-06,4.2854895491747673e-07,7.085729398026358e-07,5.291707841260292e-07,7.819252366742579e-07,6.787217902764198e-07,4.957611580929824e-07,3.468889893259287e-07,4.829203367566484e-07
3,3.414915709631994e-07,2.477949947868338e-07,5.927638750508167e-07,6.410829722911247e-07,3.318333869984665e-07,3.935923232393617e-07,7.396318213717135e-07,2.1836214501952223e-06,6.794436237695067e-07,7.576751126539087e-07,6.18002965119068e-07,1.0879933930016583e-06,9.173488240577069e-07,6.14666981016017e-07,4.519261030824407e-07,5.550944944472171e-07
4,4.141543073931097e-07,3.1288806577534036e-07,8.0893150800347e-07,7.177056770704546e-07,3.922605425419221e-07,5.440742493126046e-07,8.179606518264941e-07,2.4801833513249136e-06,9.168494960150804e-07,8.050852320920964e-07,7.02749148769164e-07,1.3694868178970768e-06,1.1435977710956986e-06,7.267071359806534e-07,5.511052228694297e-07,6.232836182249332e-07
5,4.841174970112948e-07,3.783609205820825e-07,1.005175249061539e-06,7.876794999643762e-07,4.4816623751119177e-07,6.854204301579368e-07,8.984282142177668e-07,2.7615098268555024e-06,1.1389209460222784e-06,8.499228517174713e-07,7.824876601266298e-07,1.6241380059685025e-06,1.3558071700527693e-06,8.314105955138825e-07,6.4334732549357e-07,6.862206619807453e-07
6,5.509423333786299e-07,4.43959035450135e-07,1.1794567661360224e-06,8.498001999794654e-07,4.988401691595201e-07,8.165584056316877e-07,9.80717122189325e-07,3.0245926134959124e-06,1.343963832145573e-06,8.916577527849154e-07,8.56542380310955e-07,1.8506385597916608e-06,1.5524960487245361e-06,9.282298062898018e-07,7.278511193729085e-07,7.431464448939215e-07
7,6.141128592146464e-07,5.094304280522715e-07,1.3308688470377565e-06,9.03291474685183e-07,5.439132522064976e-07,9.367280840015208e-07,1.0643339148081837e-06,3.2665057540510743e-06,1.5303843173666869e-06,9.299593690265407e-07,9.243913976523845e-07,2.048378470609162e-06,1.7324468344568724e-06,1.016520733542445e-06,8.040850271610867e-07,7.936483391982635e-07
8,6.73066176391672e-07,5.744800255985712e-07,1.459634533610929e-06,9.477849342464904e-07,5.834510993060673e-07,1.045529688780846e-06,1.148599138900818e-06,3.4843144345174112e-06,1.696841713453701e-06,9.645455088212873e-07,9.856583532963005e-07,2.2170087874759113e-06,1.8947476086481525e-06,1.0955641116958046e-06,8.717418845153065e-07,8.376043259473798e-07
9,7.27254755402498e-07,6.387392915680745e-07,1.5669736132277876e-06,9.83162796885444e-07,6.178501946235875e-07,1.1429492803360192e-06,1.2326925254912145e-06,3.6750314131124156e-06,1.8424559850442437e-06,9.951519987605646e-07,1.0400606970864264e-06,2.35629774331646e-06,2.0388586839102693e-06,1.164699338883798e-06,9.306972059391165e-07,8.75162691432316e-07
10,7.762193428579509e-07,7.01782144721314e-07,1.6548031929264818e-06,1.0093963688426527e-06,6.476274027625758e-07,1.2293468242915325e-06,1.3157017580501882e-06,3.835768654390439e-06,1.9669352053981685e-06,1.0215282536410891e-06,1.087310640439357e-06,2.4664884367029094e-06,2.164755813316446e-06,1.223529325148375e-06,9.80993400942387e-07,9.066140801486572e-07
11,8.196538494317922e-07,7.631448261080947e-07,1.725317479974937e-06,1.0265190645395945e-06,6.732855566998809e-07,1.3054130220380106e-06,1.39660573832577e-06,3.964091083829647e-06,2.070612002748816e-06,1.0434404479310615e-06,1.1270988122285033e-06,2.548838147958188e-06,2.273040436047609e-06,1.2720410594530034e-06,1.0228436688663425e-06,9.322920688439849e-07
12,8.574432366761663e-07,8.222991643353878e-07,1.7806315950503863e-06,1.0347132642914258e-06,6.952954984861178e-07,1.372078389112272e-06,1.4742459244165686e-06,4.058444645676684e-06,2.1544493248384744e-06,1.0607826688002688e-06,1.159208993818427e-06,2.605829086490972e-06,2.3648060482296477e-06,1.3105337950526648e-06,1.0566159000246752e-06,9.526451557686809e-07
13,8.896475659104161e-07,8.786211356398869e-07,1.822619044755023e-06,1.0343885902529294e-06,7.141183610053551e-07,1.4303550205506457e-06,1.5473995617831874e-06,4.118489177450408e-06,2.220004225962282e-06,1.0737323819245064e-06,1.1836763389421536e-06,2.640871135819757e-06,2.4413105889957826e-06,1.339433387941344e-06,1.0827589843824097e-06,9.68372367820675e-07
14,9.164170144959986e-07,9.314462373773836e-07,1.8528610766930336e-06,1.0262178986221113e-06,7.302006393164545e-07,1.4811678714126687e-06,1.614939877055518e-06,4.1452275946399364e-06,2.2692968919111524e-06,1.0827813115528162e-06,1.2008413720677992e-06,2.6577461416600495e-06,2.503774099499528e-06,1.3591807259631393e-06,1.1017007007350818e-06,9.804433027062727e-07
15,9.378964683584322e-07,9.802030379307813e-07,1.872638710551947e-06,1.0111632467684307e-06,7.439359251543356e-07,1.525265097418628e-06,1.675995244990859e-06,4.140944437740511e-06,2.304614586722866e-06,1.0886005105807688e-06,1.2112563829435775e-06,2.660113131409113e-06,2.5534045851571424e-06,1.370295842640731e-06,1.1138188145086567e-06,9.89960745758591e-07
16,9.54219081495846e-07,1.0245066722682246e-06,1.8830214556366634e-06,9.904692792126535e-07,7.556217135266548e-07,1.5632141538619305e-06,1.7300723240040278e-06,4.1090241729844776e-06,2.328301228324999e-06,1.0918552888783665e-06,1.215593151061716e-06,2.651223764261607e-06,2.59142910737351e-06,1.373534073538633e-06,1.1195237311237124e-06,9.979844960771923e-07
17,9.65591943713333e-07,1.0641262388648602e-06,1.8850411675567318e-06,9.655763604822645e-07,7.654335089047265e-07,1.5954441075655751e-06,1.777136797849938e-06,4.053651064876994e-06,2.3425478279306897e-06,1.0930924221947312e-06,1.2146070315676677e-06,2.633882439008819e-06,2.6189869548556233e-06,1.369958723247444e-06,1.1193406373369865e-06,1.0054528898476687e-06
18,9.723708843841204e-07,1.098864568013714e-06,1.8798312205163565e-06,9.379751654774765e-07,7.734197773868525e-07,1.6222943256701265e-06,1.8176152568468083e-06,3.979355589995776e-06,2.349241050962294e-06,1.092715768843641e-06,1.2090518837586548e-06,2.610546261042236e-06,2.637040086485874e-06,1.360847746433988e-06,1.1139094744773936e-06,1.0131936799777106e-06
19,9.750452897615502e-07,1.1284946992421894e-06,1.8686476884073997e-06,9.090803474084095e-07,7.795198739209589e-07,1.6440058797773525e-06,1.8522574989397695e-06,3.890482607194333e-06,2.349917779159314e-06,1.0910511694240772e-06,1.199616214567088e-06,2.5833480428484745e-06,2.6465104133389936e-06,1.3475007211794568e-06,1.1039731189904107e-06,1.0219219181652606e-06
20,9.74153983640491e-07,1.1528460743481056e-06,1.8527939320766443e-06,8.801634593389495e-07,7.836258891484057e-07,1.660660821601391e-06,1.8819120164395225e-06,3.7907689992151443e-06,2.3457589578009613e-06,1.0885039397160177e-06,1.1869918974670488e-06,2.5539926720738326e-06,2.6485608990236577e-06,1.331079936358152e-06,1.0903810191548823e-06,1.032191275438019e-06
21,9.702042612481389e-07,1.1719506963071266e-06,1.8335085894636428e-06,8.523273930429885e-07,7.856906751198182e-07,1.672154309033057e-06,1.90743700842429e-06,3.6831875182625256e-06,2.3375868520471073e-06,1.0856726746797427e-06,1.1719239344818698e-06,2.5236703649621377e-06,2.644736660644986e-06,1.3125698667702283e-06,1.0740376464043555e-06,1.0443459345151801e-06
22,9.636218536055345e-07,1.1861020910451962e-06,1.811844378079163e-06,8.264975937872865e-07,7.858092658016209e-07,1.6782168596722097e-06,1.9298388962385476e-06,3.5700601188993625e-06,2.3259469372638435e-06,1.083274871619683e-06,1.1551169177578277e-06,2.4930368815938467e-06,2.636840782387722e-06,1.2928167473147513e-06,1.0558232145967288e-06,1.0585121442792366e-06
23,9.54722942726541e-07,1.1957783449024753e-06,1.7885535428904425e-06,8.034214324669935e-07,7.842017930570666e-07,1.6784763929980223e-06,1.950437871960528e-06,3.453297537553375e-06,2.311235074036718e-06,1.0819853607234002e-06,1.1371407483225485e-06,2.462218736894426e-06,2.6266473156468145e-06,1.2725779783844327e-06,1.0365505224839813e-06,1.0746608113166394e-06
24,9.437298876454132e-07,1.2015022631900974e-06,1.7640278453617708e-06,7.836796261762628e-07,7.811567004162234e-07,1.6726156867441305e-06,1.970889269657452e-06,3.3346161037747377e-06,2.2937091632113945e-06,1.082365290506637e-06,1.118470175819744e-06,2.4309241591051095e-06,2.6156384945233373e-06,1.2525692203370366e-06,1.0169207766847918e-06,1.092737594578303e-06
25,9.308328030379128e-07,1.2037810000614295e-06,1.7383461004688597e-06,7.677086752289699e-07,7.770387655694899e-07,1.66061172436825e-06,1.9930944404927735e-06,3.215674800587682e-06,2.2734345690536973e-06,1.0848670749940266e-06,1.0995839780747711e-06,2.398757418148709e-06,2.6048814331863495e-06,1.2334778922505174e-06,9.974633183759246e-07,1.1127548100040756e-06
26,9.162311202161305e-07,1.2031553495674415e-06,1.7114062578039412e-06,7.558201065114273e-07,7.723181602826075e-07,1.6428816864008412e-06,2.0190651658557816e-06,3.0981312910839437e-06,2.250362109637796e-06,1.0898140245147281e-06,1.0809908721413141e-06,2.36558358385851e-06,2.595005795675461e-06,1.2158983949682563e-06,9.785028215850855e-07,1.134783633229466e-06
27,9.001122207773025e-07,1.2002328159623619e-06,1.6830418056290979e-06,7.482087687782934e-07,7.675156895410034e-07,1.6201766573564631e-06,2.0507683536596555e-06,2.9836151154804278e-06,2.224498535219956e-06,1.0973527642036475e-06,1.0631782557834386e-06,2.3316804252876224e-06,2.5862302062685954e-06,1.2002316717350287e-06,9.601700249277995e-07,1.1589402740597453e-06
28,8.825966094493886e-07,1.1956418858340475e-06,1.6530854027847886e-06,7.449501318014165e-07,7.631027058147486e-07,1.593302579776701e-06,2.0900010387517338e-06,2.8736188613870026e-06,2.195941924350597e-06,1.1074495577100112e-06,1.0465606894831866e-06,2.297658829711699e-06,2.5784760398901448e-06,1.186636641161867e-06,9.424705122713099e-07,1.185416654527614e-06
29,8.637065748855853e-07,1.18995377856091e-06,1.6214538091959671e-06,7.459920449716699e-07,7.594471342516687e-07,1.5629160918272254e-06,2.1383181642305003e-06,2.76934682269092e-06,2.1647517816062006e-06,1.119935626326539e-06,1.031452184970407e-06,2.2643405553632953e-06,2.5715685184269317e-06,1.175075303769126e-06,9.254235286399422e-07,1.2144878193412354e-06
30,8.434125013751144e-07,1.1835964705120059e-06,1.588284663525854e-06,7.511607455384746e-07,7.568069878281787e-07,1.5295017304644407e-06,2.1969686723272022e-06,2.6715861465292087e-06,2.130822130379697e-06,1.1345161517368083e-06,1.018076666461774e-06,2.232721003888013e-06,2.5654286254443124e-06,1.165419370564769e-06,9.092003423416298e-07,1.246462028444141e-06
31,8.217330300952197e-07,1.176779127881765e-06,1.5540295957425946e-06,7.601862611826984e-07,7.553395124854331e-07,1.4934236302746656e-06,2.2668343660085686e-06,2.5806265528258356e-06,2.0938702306206826e-06,1.1507296192897255e-06,1.0066135775826882e-06,2.2039962151548558e-06,2.560173177053022e-06,1.1575216113742832e-06,8.941519510227189e-07,1.2815939777475369e-06
32,7.987746202841276e-07,1.1694710325987457e-06,1.519401405451497e-06,7.727204755922738e-07,7.551026564216764e-07,1.4549697029377606e-06,2.3484083497381887e-06,2.4962190650526003e-06,2.05356112633412e-06,1.167962046453068e-06,9.97201900129846e-07,2.1795240672108348e-06,2.556101501656499e-06,1.1511916568065474e-06,8.807143812848706e-07,1.3200003939951016e-06
33,7.746866247060788e-07,1.161469187432958e-06,1.4851924193877913e-06,7.883369798158519e-07,7.560386296273772e-07,1.414418654670691e-06,2.4418146507180638e-06,2.417596936667667e-06,2.009715305293639e-06,1.1855524474980087e-06,9.899042804658754e-07,2.160647821957888e-06,2.5535757545549255e-06,1.1461522787161677e-06,8.692922518277486e-07,1.3616130334718426e-06
34,7.496263797085535e-07,1.152552422938363e-06,1.452082270602894e-06,8.06541499507953e-07,7.579728674088244e-07,1.3721337410081602e-06,2.546843915161913e-06,2.3436048714804162e-06,1.9624812416042342e-06,1.2028965075627171e-06,9.846995407362797e-07,2.148531832758781e-06,2.552827418885687e-06,1.1420835656334193e-06,8.602044883524191e-07,1.4061579995638535e-06
35,7.237620062186864e-07,1.142620576337672e-06,1.4205447240841043e-06,8.268040608259669e-07,7.606503348040149e-07,1.3286052393981916e-06,2.6629620067592284e-06,2.272924051204441e-06,1.91234826136683e-06,1.2194750634024298e-06,9.81481837994695e-07,2.1441293455489586e-06,2.5537646896266372e-06,1.1387228169971991e-06,8.536738195230045e-07,1.4531471932892286e-06
36,6.972837285212404e-07,1.1316866791695874e-06,1.3908794253282286e-06,8.485708509075558e-07,7.637679164308443e-07,1.2843808985949482e-06,2.789338333165353e-06,2.2043044268735556e-06,1.859960311574412e-06,1.2348206386749005e-06,9.800507593067307e-07,2.1481532163271425e-06,2.555879721950395e-06,1.135890621037256e-06,8.498252525292805e-07,1.5019339013774176e-06
37,6.704267999414304e-07,1.1197734782241808e-06,1.3633143709103709e-06,8.712417762908635e-07,7.669888651407844e-07,1.239930880827984e-06,2.9250217362916085e-06,2.136711215704835e-06,1.8059203973723416e-06,1.2484641925289438e-06,9.801261263463165e-07,2.1609718873838896e-06,2.5583034053618106e-06,1.1333981057929453e-06,8.486986691577286e-07,1.5518997743062468e-06
38,6.434797675232928e-07,1.1068699307997595e-06,1.3380831362129286e-06,8.941875198834046e-07,7.699837437380641e-07,1.1955626527089758e-06,3.0691979959625663e-06,2.0693719547002067e-06,1.7508122242388846e-06,1.2599266424654555e-06,9.813737440962349e-07,2.182545849980543e-06,2.5599733726409304e-06,1.1309434893064414e-06,8.502642347107359e-07,1.6026912984881778e-06
39,6.167458253992902e-07,1.092954635924295e-06,1.3154057678796314e-06,9.168580875309528e-07,7.724730087021891e-07,1.1514480190883651e-06,3.221300410437814e-06,2.0017976744357577e-06,1.6953529126853659e-06,1.2688337578269295e-06,9.833972400732547e-07,2.212470973418794e-06,2.5598499125515695e-06,1.1281382126929593e-06,8.544586840004631e-07,1.65429916412537e-06
40,5.905017172087779e-07,1.077995458964318e-06,1.2954153884074682e-06,9.389171164128661e-07,7.74206578180719e-07,1.1076982420979386e-06,3.3809010083034016e-06,1.933833737484666e-06,1.6404375118798792e-06,1.2751225777618698e-06,9.856801470744928e-07,2.2500450198951863e-06,2.557090546555004e-06,1.1246621975841122e-06,8.612584821293875e-07,1.706913846746673e-06
41,5.649915543197045e-07,1.0619255664224557e-06,1.2781451625419563e-06,9.602991356782113e-07,7.749471080445333e-07,1.064376472744413e-06,3.5475145047196667e-06,1.8656782009561123e-06,1.5870102213201758e-06,1.2791995475546411e-06,9.875223000193906e-07,2.2942629375935083e-06,2.551073325681045e-06,1.1203848797889972e-06,8.706953925159002e-07,1.7607217607007934e-06
42,5.40429706955425e-07,1.0446996257542364e-06,1.2635976696897889e-06,9.811564939950541e-07,7.745526101471485e-07,1.021434598189902e-06,3.7204443456483984e-06,1.7977582287011858e-06,1.5358850057100134e-06,1.281960590505185e-06,9.880419697510412e-07,2.3437704018696686e-06,2.5412412081642625e-06,1.115325763284609e-06,8.827712458588883e-07,1.8158282275242071e-06
43,5.169990224995673e-07,1.0264506969425426e-06,1.2518156044894454e-06,1.0017340150473027e-06,7.730777541381308e-07,9.78667649535563e-07,3.898646218467127e-06,1.7305048069799327e-06,1.4876353596396825e-06,1.2846450269679442e-06,9.862880708154688e-07,2.3968451640495654e-06,2.526903297044902e-06,1.1095440431565223e-06,8.97383829917572e-07,1.8723013682364399e-06
44,4.948478631833618e-07,1.0075751125601645e-06,1.24289057554412e-06,1.0222524191816579e-06,7.707539249846218e-07,9.35792418566265e-07,4.080543946907414e-06,1.6642264110486691e-06,1.4425559835940457e-06,1.2885699778712387e-06,9.81475961171972e-07,2.451461296058922e-06,2.507127449914722e-06,1.1031047819296372e-06,9.143419030107211e-07,1.9301900742637614e-06
45,4.7408719759649815e-07,9.886201425236575e-07,1.236908088399358e-06,1.0429070098801322e-06,7.678540394696472e-07,8.926628976589474e-07,4.263882027313917e-06,1.5991391995477085e-06,1.4006882365371897e-06,1.294903506711914e-06,9.732600245279975e-07,2.5055042950217806e-06,2.480710326521988e-06,1.096107677282813e-06,9.334146945780183e-07,1.9894395116884517e-06
46,4.5480797731571396e-07,9.700908663387223e-07,1.2339030547907373e-06,1.063992399343103e-06,7.645635530742726e-07,8.494598998797088e-07,4.4456851090864615e-06,1.5353862962176807e-06,1.3619202529148958e-06,1.304568673466615e-06,9.618305376930046e-07,2.5570542816930573e-06,2.4462644770599047e-06,1.088721475143587e-06,9.543323744804132e-07,2.0497565548269528e-06
47,4.3711828156779646e-07,9.523311702040269e-07,1.2338955813035373e-06,1.0859850965693834e-06,7.609447668570912e-07,8.066704111434814e-07,4.6222313683679145e-06,1.4730146627304555e-06,1.3260833830368877e-06,1.318217776441059e-06,9.477334640081116e-07,2.6045226124715497e-06,2.402499257355391e-06,1.081237340825282e-06,9.767394766584605e-07,2.1105092346757796e-06
48,4.211566603636492e-07,9.354870934234461e-07,1.2369269505807661e-06,1.1094548435785833e-06,7.569765331831274e-07,7.649056534463412e-07,4.78905314209987e-06,1.4120808926790453e-06,1.2929777514864517e-06,1.3362299205289762e-06,9.315889317893694e-07,2.6465922253261728e-06,2.3485602404451273e-06,1.0740932326625166e-06,1.0001708635669988e-06,2.170690264023626e-06
49,4.0705965783845586e-07,9.195108655000182e-07,1.2429879745296832e-06,1.1349041870793411e-06,7.525997290649636e-07,7.24758353046251e-07,4.94116310078662e-06,1.3528861623147468e-06,1.2623875872825445e-06,1.3587659920779297e-06,9.139262644145064e-07,2.6821181130781495e-06,2.2842685249815943e-06,1.0677982398755687e-06,1.0241189636316777e-06,2.2289399839550295e-06
50,3.949182756165065e-07,9.042158956243594e-07,1.2518970409562382e-06,1.1626706458021633e-06,7.47721953412793e-07,6.867635199243364e-07,5.073625229723955e-06,1.2961071372666294e-06,1.234120208436336e-06,1.385870868878521e-06,8.951648779712191e-07,2.710115271197517e-06,2.2102332298810584e-06,1.0628520505922884e-06,1.0482170549389392e-06,2.2836792558158605e-06
51,3.847720643756992e-07,8.893940590103083e-07,1.263231824918923e-06,1.1928807451191464e-06,7.421874923238797e-07,6.513828142548971e-07,5.182380145180412e-06,1.2426841987396756e-06,1.2080009350182165e-06,1.4175165533254273e-06,8.75684381347371e-07,2.7298412087297393e-06,2.1277745770043573e-06,1.0597749356260315e-06,1.0724319062198e-06,2.333354798423626e-06
52,3.7665015002992805e-07,8.749270424688425e-07,1.2763293004350356e-06,1.225417415286006e-06,7.357786988092873e-07,6.189815020448173e-07,5.265014566357623e-06,1.1935780508043943e-06,1.183809736845779e-06,1.4535317667515846e-06,8.559234035220376e-07,2.7409302453937786e-06,2.038620945911497e-06,1.0591626988817763e-06,1.0970895369785452e-06,2.3766410246347042e-06
53,3.706158645246845e-07,8.607986117626985e-07,1.290352825515674e-06,1.259908664971112e-06,7.283104580097417e-07,5.89830459683988e-07,5.321038563198453e-06,1.1495961395697447e-06,1.161262721948757e-06,1.4934975816092168e-06,8.364054373890695e-07,2.74347814393728e-06,1.9445248775243487e-06,1.061651042326725e-06,1.1227052623269506e-06,2.4125307390400367e-06
54,3.667634298854614e-07,8.470375582185517e-07,1.304424967848895e-06,1.2957297755978357e-06,7.197730992683872e-07,5.641287688043292e-07,5.351414349446165e-06,1.1113651001731978e-06,1.14009637189932e-06,1.5366847586753241e-06,8.176636276415773e-07,2.737961011601711e-06,1.8470275867992368e-06,1.0678205729387946e-06,1.1497580091939678e-06,2.440432875403101e-06
55,3.651733958801463e-07,8.337043425266233e-07,1.3177542150762782e-06,1.3320176620740085e-06,7.104036651917029e-07,5.420063558639417e-07,5.357588545406081e-06,1.0793763996068595e-06,1.120151607208088e-06,1.582029114932562e-06,8.001768461394865e-07,2.7249878327759293e-06,1.7474792790687157e-06,1.0781128681365775e-06,1.1785498357276319e-06,2.460276592381509e-06
56,3.658759048644395e-07,8.20913990821285e-07,1.329646318806055e-06,1.3677626064399654e-06,7.006216639276102e-07,5.235117986885959e-07,5.340731527786552e-06,1.0540312281020003e-06,1.1013486733316835e-06,1.628150327681088e-06,7.843769639696162e-07,2.705044401962275e-06,1.647195967628929e-06,1.092777535897474e-06,1.2091691314371517e-06,2.4724614058751414e-06
57,3.688413690804058e-07,8.087966789713662e-07,1.3393917117502198e-06,1.4020222593197435e-06,6.908834434546899e-07,5.086499618266699e-07,5.301669986998681e-06,1.0356775901037987e-06,1.0835875896537045e-06,1.673471405081747e-06,7.706540121110459e-07,2.6784565606241767e-06,1.5475452890891238e-06,1.1118496612159637e-06,1.24149340647407e-06,2.477656267631354e-06
58,3.739937418083298e-07,7.974079792117724e-07,1.346191241945692e-06,1.434125998819585e-06,6.815723260236257e-07,4.974764219299214e-07,5.241260897231495e-06,1.0246584543663735e-06,1.0667006564649001e-06,1.7164533072950998e-06,7.593297455785583e-07,2.645597241471682e-06,1.4499003173625018e-06,1.1351593966512318e-06,1.275203530491513e-06,2.476649364996617e-06
59,3.81247811079341e-07,7.866715969695491e-07,1.3492634802373852e-06,1.4636622707071128e-06,6.72996985893065e-07,4.901499394213324e-07,5.160669938224022e-06,1.0213849167520168e-06,1.0505338652799692e-06,1.7558225161098027e-06,7.506424729180722e-07,2.607068644533259e-06,1.3555396392806014e-06,1.162388730295135e-06,1.3098080255027216e-06,2.4703283288199695e-06
60,3.905477227710885e-07,7.763776897416252e-07,1.3480554198940823e-06,1.4902525844155564e-06,6.654646798583838e-07,4.868826924949998e-07,5.061381571362396e-06,1.0264249138919703e-06,1.0350750998673474e-06,1.7906428580854685e-06,7.44740734801555e-07,2.5636615577439477e-06,1.2655550534221556e-06,1.193169203940125e-06,1.3446477839010254e-06,2.4596487256744125e-06
61,4.0186477069773907e-07,7.662485789321423e-07,1.3423831015641096e-06,1.5133242425696388e-06,6.593273580937426e-07,4.878550964119803e-07,4.945097061102838e-06,1.0405688980234748e-06,1.0204978380332234e-06,1.8202462376727958e-06,7.416745490143381e-07,2.516202881086862e-06,1.1807889137341841e-06,1.2271322955606835e-06,1.3788720825418967e-06,2.4454716222899253e-06
62,4.151609484504893e-07,7.560824372730746e-07,1.3324376457157662e-06,1.5320411677998327e-06,6.549433514052309e-07,4.931715060321911e-07,4.81368502175391e-06,1.064812457850174e-06,1.0071217931412063e-06,1.8441593777757864e-06,7.414045435566477e-07,2.4655026525234446e-06,1.1018171370889865e-06,1.2638552397544804e-06,1.4114151081327615e-06,2.4283543952408747e-06
63,4.3036765898860104e-07,7.45898768621885e-07,1.3187066249686318e-06,1.5454086990885352e-06,6.526063752446108e-07,5.028529246885056e-07,4.66922508772916e-06,1.1002548316384062e-06,9.953556848107708e-07,1.8620826950998065e-06,7.43828834225694e-07,2.4124466377927056e-06,1.028977209804675e-06,1.3028120258933599e-06,1.4409967926423869e-06,2.408499963108999e-06
64,4.473944692384877e-07,7.35968542319259e-07,1.301859133735619e-06,1.552508162321848e-06,6.525068472888189e-07,5.168491493751207e-07,4.514070620720043e-06,1.1480490841540344e-06,9.85626148256927e-07,1.8738493876387552e-06,7.48800800097097e-07,2.3580972698830705e-06,9.624142283126348e-07,1.343431761320615e-06,1.4661903923069907e-06,2.3859403500310166e-06
65,4.661357960491632e-07,7.267072453388191e-07,1.2825993788091486e-06,1.5527730123255005e-06,6.547215284639644e-07,5.350698105525768e-07,4.350801105489398e-06,1.2094800335349067e-06,9.783033426972933e-07,1.8793124962173185e-06,7.561152604652027e-07,2.303643088052467e-06,9.020993930499784e-07,1.385177342933185e-06,1.4856191878553625e-06,2.3607772051299985e-06
66,4.864545768872739e-07,7.185233532026383e-07,1.2615419046440564e-06,1.5461717854207807e-06,6.592273295961957e-07,5.574054788272588e-07,4.182017615227093e-06,1.2860214868810655e-06,9.736907623167016e-07,1.8782584957394938e-06,7.654834240288938e-07,2.2502194253187183e-06,8.478271549545124e-07,1.427540663551392e-06,1.4982525916891314e-06,2.333281025375952e-06
67,5.081654417980035e-07,7.11720457928809e-07,1.2391788384730207e-06,1.5332016026482532e-06,6.659536404739921e-07,5.837122438542071e-07,4.010140584121457e-06,1.379243824730263e-06,9.720746043959658e-07,1.8705224535148624e-06,7.765322002179412e-07,2.198847744592196e-06,7.992746628655455e-07,1.4700076529905183e-06,1.5036540192430502e-06,2.3038346585179386e-06
68,5.310401908958344e-07,7.064774068867076e-07,1.215904230937877e-06,1.5147076909139393e-06,6.74835840726531e-07,6.137767259232521e-07,3.837432728487004e-06,1.4906394523900652e-06,9.737375402813662e-07,1.856269825008612e-06,7.888167722439841e-07,2.1505712321725864e-06,7.561371009865186e-07,1.5120720130521348e-06,1.502031262672913e-06,2.272783576603324e-06
69,5.548107429333225e-07,7.02872005069906e-07,1.1920381896101787e-06,1.4916257500809144e-06,6.858073533584691e-07,6.472845218862775e-07,3.666213995865523e-06,1.621489230478353e-06,9.789162994016111e-07,1.8361582741871832e-06,8.018446143353402e-07,2.1064893883566806e-06,7.18207281251579e-07,1.55324948594158e-06,1.4940558303378195e-06,2.2402861621736375e-06
70,5.791441237594364e-07,7.008970882159956e-07,1.1678630139689213e-06,1.4647604828022384e-06,6.987390555273959e-07,6.838025664091464e-07,3.498961612707923e-06,1.7728108924432578e-06,9.877496593556602e-07,1.8112330574161855e-06,8.151342131689563e-07,2.0675522091523775e-06,6.853239285120179e-07,1.5930196597902348e-06,1.4806115070316828e-06,2.2063237657461226e-06
71,6.036281582064615e-07,7.004496945552388e-07,1.143674348756304e-06,1.4346880096935438e-06,7.134073470033388e-07,7.227744885113068e-07,3.3381146434458952e-06,1.9453344813934335e-06,1.0002405265547105e-06,1.7827039812804857e-06,8.28268695415258e-07,2.0343614329348065e-06,6.573164406485935e-07,1.6307350572038066e-06,1.4626632683105364e-06,2.170924385816238e-06
72,6.278308967329753e-07,7.013399366998967e-07,1.1198213280060981e-06,1.4017713982700011e-06,7.295221376660321e-07,7.635155522163504e-07,3.1857794023950876e-06,2.1394453370910775e-06,1.0162473570798778e-06,1.7517468055414725e-06,8.408947789784614e-07,2.0071558702696045e-06,6.34052672335068e-07,1.6655585189568818e-06,1.44120844816835e-06,2.134418252986117e-06
73,6.514206142089583e-07,7.033625066946868e-07,1.0967421444797084e-06,1.3661903271465353e-06,7.467582664824346e-07,8.052123195156248e-07,3.04356974671401e-06,2.3551096177793954e-06,1.0354862573432513e-06,1.7193457543672986e-06,8.526916325506196e-07,1.985891375919636e-06,6.154830282243103e-07,1.6964120568061264e-06,1.4171824791413944e-06,2.0974845957125766e-06
74,6.74236604863633e-07,7.063826283536348e-07,1.0750073942877388e-06,1.3279744912164272e-06,7.647780278742263e-07,8.469382598509269e-07,2.9125306768651357e-06,2.59183917116628e-06,1.0575060924621601e-06,1.68623279934754e-06,8.63332172221129e-07,1.9702604807457064e-06,6.01584623745424e-07,1.7219598287207568e-06,1.3913354515793973e-06,2.0609301425293536e-06
75,6.962292016698748e-07,7.103551478175069e-07,1.0553262263858662e-06,1.2871398996065268e-06,7.832632953539746e-07,8.876715667487723e-07,2.7930698648534974e-06,2.848760471212953e-06,1.081654219275863e-06,1.6529844988131038e-06,8.724613706435561e-07,1.9596196702032636e-06,5.922944867623066e-07,1.7407934144512697e-06,1.3641628032287074e-06,2.0254078388357644e-06
76,7.17330868983799e-07,7.152643076564163e-07,1.0384649725959144e-06,1.2439133516474425e-06,8.019108681749823e-07,9.263297059422195e-07,2.684985522042868e-06,3.124818558155968e-06,1.1070829201737843e-06,1.6201792780511502e-06,8.797488245088202e-07,1.9529439369129407e-06,5.87519941113245e-07,1.7519275079456181e-06,1.3359059166303406e-06,1.9913681123916266e-06
77,7.373828176555174e-07,7.210342726008461e-07,1.0251214615031272e-06,1.1988607741003985e-06,8.204097489186732e-07,9.618795957620722e-07,2.5876161542279916e-06,3.41903220213694e-06,1.1328466991225202e-06,1.5884431076049453e-06,8.849615405422824e-07,1.9489635113349594e-06,5.871772355703825e-07,1.7553384437972562e-06,1.3065939940613927e-06,1.959237829597134e-06
78,7.561382869819502e-07,7.274737295066373e-07,1.0158394393163688e-06,1.1527930961443117e-06,8.384731980322949e-07,9.935218109296219e-07,2.4999948180774153e-06,3.7306477509175973e-06,1.158118757062613e-06,1.5583544612100325e-06,8.879451738294119e-07,1.946521210333052e-06,5.911916783829275e-07,1.7520671268531111e-06,1.2761492703595767e-06,1.9295316950529296e-06
79,7.732776486121337e-07,7.343105300278498e-07,1.0109770437786255e-06,1.1065372415404055e-06,8.558782410421872e-07,1.0208395558113564e-06,2.4209095761987275e-06,4.05911092170587e-06,1.1824147315718676e-06,1.5303475460532857e-06,8.885657334199178e-07,1.9449527164916145e-06,5.994798398254014e-07,1.7438248760926613e-06,1.2445396929955404e-06,1.9027440463167765e-06
80,7.884325479504705e-07,7.413115590271242e-07,1.010707498194811e-06,1.0607612729677065e-06,8.724560605147488e-07,1.0438029121030117e-06,2.348910078328236e-06,4.403864325157969e-06,1.2056051768249306e-06,1.504691114294706e-06,8.867293589424979e-07,1.9442067993820954e-06,6.119469894495487e-07,1.7325705595484487e-06,1.211838096945006e-06,1.879162532490802e-06
81,8.012666805360257e-07,7.483709414226872e-07,1.0150520132973532e-06,1.0159527503831308e-06,8.880813640660133e-07,1.0626224927728922e-06,2.282405028659378e-06,4.764007406344945e-06,1.227701308732284e-06,1.4814780139508928e-06,8.824650299204409e-07,1.944702169588222e-06,6.284934344014583e-07,1.7203281315304315e-06,1.1781624410651549e-06,1.858801850124482e-06
82,8.116036400208864e-07,7.554668399877301e-07,1.0239264800786919e-06,9.725006182717683e-07,9.026969357060756e-07,1.0775535585169435e-06,2.2199232460368065e-06,5.137916486988742e-06,1.248664186574126e-06,1.4606229201478002e-06,8.759813034044515e-07,1.9471816137742214e-06,6.490416919080117e-07,1.70904489209919e-06,1.1436717513906682e-06,1.8414596731106371e-06
83,8.195318717800101e-07,7.625586420554913e-07,1.0371671877737668e-06,9.307768606140253e-07,9.163398705744855e-07,1.0888011351922844e-06,2.160422465987676e-06,5.523004415999215e-06,1.2683753800304503e-06,1.441925245423449e-06,8.676431118737046e-07,1.9526866926102093e-06,6.735905795421119e-07,1.7004088903043918e-06,1.108674958626007e-06,1.8267442549535076e-06
84,8.253958103710825e-07,7.695380079107254e-07,1.0545676322467982e-06,8.911810780938641e-07,9.291209654450906e-07,1.0965887986972649e-06,2.1034548884370276e-06,5.915731389660134e-06,1.2866469990361412e-06,1.4251571998598397e-06,8.578668135994314e-07,1.962518753436243e-06,7.022565513609802e-07,1.6957807080208154e-06,1.0737058868000192e-06,1.8140851248384097e-06
85,8.296562797604589e-07,7.762498386162586e-07,1.0759869197505945e-06,8.54164335234674e-07,9.41149359798992e-07,1.101283411032611e-06,2.049110389218313e-06,6.311792867424165e-06,1.3032035625594628e-06,1.4101116778861508e-06,8.470036742516388e-07,1.978075187862177e-06,7.352599167508771e-07,1.6962281962145e-06,1.0394773219591695e-06,1.8028638300808338e-06
86,8.327488904097051e-07,7.825542748643336e-07,1.101470971055803e-06,8.202159026077345e-07,9.524615182614976e-07,1.1034187686683164e-06,1.997816237303397e-06,6.70633640799379e-06,1.3177197297125269e-06,1.396606351863616e-06,8.353092181732803e-07,2.0006245479617138e-06,7.728541442164261e-07,1.7025411932696085e-06,1.0067651453250355e-06,1.7926043454761022e-06
87,8.35040681298059e-07,7.88360014878692e-07,1.131270210058299e-06,7.898019744013172e-07,9.630204775161133e-07,1.1035860502013458e-06,1.9501292137717044e-06,7.094120219192037e-06,1.3299191362382572e-06,1.3844505467858683e-06,8.230033014037287e-07,2.0311230652691147e-06,8.152639037633432e-07,1.7152544881190782e-06,9.762820790883356e-07,1.7830267042034916e-06
88,8.368249361027987e-07,7.935841723746211e-07,1.1657656491279953e-06,7.633257498499447e-07,9.727634023134605e-07,1.1023083278635804e-06,1.9065825037743883e-06,7.469612779414452e-06,1.339635138084238e-06,1.373391963394271e-06,8.1032028977122e-07,2.07011373602629e-06,8.626851861835793e-07,1.7347313308488117e-06,9.48578250038199e-07,1.7739090330858512e-06
89,8.383062885565062e-07,7.981289578527925e-07,1.2054029736859538e-06,7.411593752795542e-07,9.816197393208724e-07,1.0999949266376092e-06,1.8675626418513884e-06,7.827137322825247e-06,1.3467831049562677e-06,1.3630895471028931e-06,7.974735246045592e-07,2.1177018668830245e-06,9.15298864146132e-07,1.7612098546642904e-06,9.23996146616922e-07,1.7649189005510362e-06
90,8.396201071658404e-07,8.019528543727978e-07,1.2506651670149674e-06,7.236789688056021e-07,9.89469356583298e-07,1.0969704810088672e-06,1.8332212154483454e-06,8.161218398309429e-06,1.3513264644399832e-06,1.3531142151845073e-06,7.845735392487757e-07,2.173566328453764e-06,9.732340474012757e-07,1.794734454448455e-06,9.026712407226263e-07,1.7556122995736397e-06
91,8.408795627656133e-07,8.051513833309802e-07,1.3020362781339702e-06,7.112400022594055e-07,9.96081396992753e-07,1.0935555415471964e-06,1.8034580517011001e-06,8.467133520372788e-06,1.3533516220950346e-06,1.3429588128987047e-06,7.715728357689093e-07,2.2369522561311355e-06,1.0364957665130189e-06,1.8350665979693492e-06,8.845481093046579e-07,1.7456154030218002e-06
92,8.421843114489748e-07,8.079379840696742e-07,1.3599255734931057e-06,7.041526590128212e-07,1.0010848602519273e-06,1.0901209163820045e-06,1.7779328733790314e-06,8.741406791473444e-06,1.3531685437122678e-06,1.3320964263901458e-06,7.582618275514849e-07,2.306632616353654e-06,1.1049227409410819e-06,1.8816768286655264e-06,8.694057844684848e-07,1.7348329317497286e-06
93,8.435807957492854e-07,8.105379626005519e-07,1.4245734364891538e-06,7.0271742273199e-07,1.0039747331963795e-06,1.0870386536137788e-06,1.7560622699241812e-06,8.98194432579297e-06,1.351247576343987e-06,1.320073307078272e-06,7.443344377544601e-07,2.3808851826161057e-06,1.1782179069466414e-06,1.933788951738342e-06,8.569379540841356e-07,1.7235008933153305e-06
94,8.450213921533534e-07,8.130877592273342e-07,1.4959732036668498e-06,7.072604498417732e-07,1.0041636706352385e-06,1.0846250218876217e-06,1.7370524999323042e-06,9.187768935260712e-06,1.3480390204416003e-06,1.3065579445854624e-06,7.295201064559524e-07,2.4575190089846043e-06,1.2560203244572141e-06,1.990453159662706e-06,8.469126072773989e-07,1.7120130813885003e-06
95,8.463704914872021e-07,8.156182354722947e-07,1.573836623617964e-06,7.181069778954032e-07,1.0011156181591962e-06,1.0831819347152312e-06,1.7199882068879087e-06,9.35853561911452e-06,1.3438945098518588e-06,1.2913633735201607e-06,7.137179726728716e-07,2.5339702635558802e-06,1.3379384619803786e-06,2.050648496362883e-06,8.392955238882228e-07,1.7006894420168618e-06
96,8.474765723079631e-07,8.18132676495749e-07,1.6576300993213118e-06,7.355394151214904e-07,9.945087899994432e-07,1.0830402589830893e-06,1.703933374442053e-06,9.493974886589635e-06,1.3391295295683806e-06,1.2744765652889287e-06,6.970678317928442e-07,2.6075295287205417e-06,1.423515731662935e-06,2.1133120359119016e-06,8.342083817476355e-07,1.6897765779316572e-06
97,8.482699253927518e-07,8.207038484198251e-07,1.746679077669766e-06,7.597784257891046e-07,9.843078487948402e-07,1.0845028734668684e-06,1.6880117494143322e-06,9.593265161570286e-06,1.3340760072470568e-06,1.25603559113663e-06,6.799200501750553e-07,2.6756779397113114e-06,1.512176793026146e-06,2.177288914492843e-06,8.31800717349099e-07,1.6797126404829825e-06
98,8.488169933992075e-07,8.234867765992453e-07,1.8402834530778364e-06,7.909591602078793e-07,9.70720409973465e-07,1.0877591972454304e-06,1.6714108239456223e-06,9.654471070413603e-06,1.329049659268627e-06,1.2362750832835545e-06,6.62721211322011e-07,2.7363567969824195e-06,1.6031966732944378e-06,2.2413650079638456e-06,8.321800196069686e-07,1.6713316236291306e-06
99,8.4929690974473e-07,8.266330282853131e-07,1.9377560576206846e-06,8.291048632264328e-07,9.541285472841556e-07,1.0928480031641102e-06,1.6532968530818221e-06,9.674535131679233e-06,1.324275556448036e-06,1.2155533963915306e-06,6.459132871358536e-07,2.788104967947925e-06,1.6957420044553777e-06,2.3043821836909986e-06,8.353844378405221e-07,1.6657413989155548e-06
100,8.499326744755212e-07,8.301919462988303e-07,2.0383424702672746e-06,8.74116476156962e-07,9.350700899894591e-07,1.099654166063837e-06,1.6327834063764697e-06,9.65003904245346e-06,1.3198173282194137e-06,1.1944051558057629e-06,6.299013946077364e-07,2.8301826984591793e-06,1.7889872967881798e-06,2.3653189869370222e-06,8.413510269426501e-07,1.6640052153521777e-06
101,8.509534469654059e-07,8.340602784871092e-07,2.1411233394669627e-06,9.257612126606723e-07,9.142239653934367e-07,1.107917902954228e-06,1.609061172738499e-06,9.578225561994478e-06,1.3155616280019104e-06,1.1734696778721374e-06,6.150415082829831e-07,2.862651038762805e-06,1.882142506820188e-06,2.42335473744776e-06,8.499124408014212e-07,1.666920828715942e-06
102,8.526007891904114e-07,8.379698552994393e-07,2.245050756073534e-06,9.836604146754855e-07,8.923283812505332e-07,1.1172544017665296e-06,1.5816136337515635e-06,9.457765268237586e-06,1.311323791090486e-06,1.1533592215792073e-06,6.01618200982747e-07,2.8862145042959013e-06,1.974299261893499e-06,2.4779338653195075e-06,8.608217874112022e-07,1.6749809635609138e-06
103,8.551425561191255e-07,8.415082924889416e-07,2.3491042041613078e-06,1.0472871974827143e-06,8.700929786176425e-07,1.127213550287926e-06,1.5504173480884837e-06,9.289210536055192e-06,1.3070390356727993e-06,1.1346028022303027e-06,5.898324015166758e-07,2.9018459575505367e-06,2.0642586047733598e-06,2.5287480228488854e-06,8.737665994834514e-07,1.6884227724050417e-06
104,8.588983295584867e-07,8.442019466306654e-07,2.452428027155508e-06,1.1159541616250909e-06,8.481749248324272e-07,1.1373964333467702e-06,1.516039289798284e-06,9.075198841497413e-06,1.302855072108372e-06,1.1176227985090694e-06,5.79804273678477e-07,2.9104206735316835e-06,2.150510772689753e-06,2.575598376293147e-06,8.883684270827384e-07,1.7073187591557534e-06
105,8.642462493776098e-07,8.45646325416077e-07,2.554375530066746e-06,1.1887897293634956e-06,8.271581903550639e-07,1.1475669900236171e-06,1.4795251281461478e-06,8.820438596986668e-06,1.2990296642061615e-06,1.1026756791335189e-06,5.71583715521376e-07,2.9124903995846464e-06,2.23137530241756e-06,2.6181831344975084e-06,9.041826163881513e-07,1.7316892994837593e-06
106,8.715712716973398e-07,8.455876683111515e-07,2.654468114104577e-06,1.264720989398073e-06,8.075003674375748e-07,1.157698420206961e-06,1.4421043233289379e-06,8.53149751967964e-06,1.2957868587671034e-06,1.089806620673725e-06,5.651631030843444e-07,2.908165080110412e-06,2.3052163904218084e-06,2.655916914852412e-06,9.207224491537447e-07,1.7615382270328196e-06
107,8.812021262841799e-07,8.438879383482013e-07,2.752300804149091e-06,1.342460553781956e-06,7.894978259240016e-07,1.167941606007714e-06,1.4048991808148155e-06,8.21634997085205e-06,1.293255237077478e-06,1.0788920804294802e-06,5.604924035507169e-07,2.8970429639097706e-06,2.3706320209481716e-06,2.6879098675680885e-06,9.375093279135452e-07,1.7967515090082686e-06
108,8.933825812223643e-07,8.404384584763958e-07,2.8474098861015102e-06,1.4204954188042445e-06,7.73294889323146e-07,1.1785249962279688e-06,1.3687850476198892e-06,7.883666460488231e-06,1.2914113048328968e-06,1.0697726629523423e-06,5.574998410360863e-07,2.878220230618479e-06,2.4265667635002903e-06,2.7130986663940058e-06,9.5410624147861e-07,1.8369505957271142e-06
109,9.082751461700062e-07,8.35142216577496e-07,2.9391062367866362e-06,1.4970988373538977e-06,7.58925466852183e-07,1.1896487298130572e-06,1.3343911654616604e-06,7.541966023922315e-06,1.2900234796381943e-06,1.062418898120585e-06,5.561003589809282e-07,2.8504707011876474e-06,2.4723700183576056e-06,2.730389259580005e-06,9.701335008316705e-07,1.881398325354109e-06
110,9.259878191702009e-07,8.279837260617615e-07,3.0263559598821746e-06,1.570409268395543e-06,7.463556603718876e-07,1.2014447854272076e-06,1.3021501617131219e-06,7.198854314115718e-06,1.2887361857969603e-06,1.0570579334664271e-06,5.56184247722117e-07,2.81260796943078e-06,2.507802416074828e-06,2.7387411973466397e-06,9.85296151059252e-07,1.9289853057516384e-06
111,9.466017814062833e-07,8.190765698622366e-07,3.107854320680738e-06,1.6385948629193222e-06,7.354980237362928e-07,1.2139844482804317e-06,1.2723213058533825e-06,6.8605700486592455e-06,1.287298870098953e-06,1.0541734312695607e-06,5.576170965416997e-07,2.7639172696419732e-06,2.532933901160126e-06,2.7372423731761326e-06,9.993935897589166e-07,1.978337301518893e-06
112,9.701682028105738e-07,8.086091027093366e-07,3.182284540972331e-06,1.7000596251338513e-06,7.26220888111707e-07,1.227273832416434e-06,1.2449666004933087e-06,6.531901598399827e-06,1.285739453359419e-06,1.054353678224003e-06,5.602533068220136e-07,2.7044726923715363e-06,2.547929600141086e-06,2.7252360751054296e-06,1.0122643440613238e-06,2.0280376718154728e-06
113,9.966585161503655e-07,7.967794102177587e-07,3.2485685771170493e-06,1.753635278423247e-06,7.18390081696006e-07,1.2412439307908285e-06,1.2199331541340721e-06,6.216276762429549e-06,1.2843206241099658e-06,1.0581134688148718e-06,5.639264466170203e-07,2.6351702139199303e-06,2.552814397289542e-06,2.7024994055799146e-06,1.0236974134285905e-06,2.0768400440532574e-06
114,1.0258982430430971e-06,7.838191457063786e-07,3.3059969958147093e-06,1.7987107540898866e-06,7.119078478010314e-07,1.2557742088658262e-06,1.196930037510626e-06,5.915790942100718e-06,1.2833388172287744e-06,1.065808720006849e-06,5.684251081864545e-07,2.5574535597212696e-06,2.5472879023663774e-06,2.6693698639061917e-06,1.0334242023497764e-06,2.1237317402949996e-06
115,1.0575295131971228e-06,7.700363210857104e-07,3.3542940844706635e-06,1.835243540130326e-06,7.066853891885975e-07,1.2707309640519816e-06,1.175699796416543e-06,5.631183108131853e-06,1.2829590474592848e-06,1.077610043737894e-06,5.734883583606139e-07,2.472930146752383e-06,2.5306225725741114e-06,2.6266669554025836e-06,1.0412501177433204e-06,2.1678181982408737e-06
116,1.0910101563097811e-06,7.558015043740169e-07,3.393658780616622e-06,1.8636353563996922e-06,7.025742581128547e-07,1.2859520260666525e-06,1.1561592600253643e-06,5.361922952946956e-06,1.283224549192624e-06,1.0934878654231968e-06,5.788155372603625e-07,2.3831221779820525e-06,2.5017666706041788e-06,2.5753933099363955e-06,1.0472215293185549e-06,2.2081729422778664e-06
117,1.125625256329413e-06,7.415140724241282e-07,3.4247145363291284e-06,1.8845398561892408e-06,6.993363679389343e-07,1.301163280805472e-06,1.1383982891869908e-06,5.106450600689414e-06,1.2841940585526e-06,1.1132411699984932e-06,5.841046317961474e-07,2.2893810885869126e-06,2.4598051027514375e-06,2.516444709213557e-06,1.051662449933254e-06,2.243859675083097e-06
118,1.1604903351728173e-06,7.275717346365463e-07,3.4483211143430782e-06,1.8987037523941799e-06,6.966687607816044e-07,1.3159137836220048e-06,1.1225665700026348e-06,4.862452967036492e-06,1.2860092383055672e-06,1.13655869566598e-06,5.891494707967644e-07,2.1928755245753327e-06,2.4046511473669698e-06,2.4506009951070427e-06,1.0550419009479635e-06,2.2741006852883324e-06
119,1.194569202862181e-06,7.1432851932921e-07,3.4653271376410957e-06,1.9068662338772878e-06,6.942252728071352e-07,1.329577511065732e-06,1.1087612247020574e-06,4.627099103793982e-06,1.2888183072298706e-06,1.1630541221062054e-06,5.939161477621355e-07,2.0946725592124034e-06,2.337482692725466e-06,2.378757075646313e-06,1.0578122280438619e-06,2.2983675139571833e-06
120,1.2267529998709116e-06,7.020632426445136e-07,3.4763696151866868e-06,1.9096538839687687e-06,6.915938252022004e-07,1.3413473977176746e-06,1.096964621701871e-06,4.397293698649086e-06,1.292680249563022e-06,1.1922984171169296e-06,5.984885433521761e-07,1.9958704153905353e-06,2.2605407796670973e-06,2.3020749118669383e-06,1.0603494020079614e-06,2.3163417149918164e-06
121,1.2560167875452778e-06,6.909775802507486e-07,3.4817137820339972e-06,1.907449237129805e-06,6.882884718397432e-07,1.3502123342137088e-06,1.0870072656872547e-06,4.170027314825862e-06,1.297516896812234e-06,1.2238738240174533e-06,6.029484676895515e-07,1.8975988419345975e-06,2.1765051840232447e-06,2.2219113188076637e-06,1.0629634552966412e-06,2.3278982729238833e-06
122,1.281614118662751e-06,6.81201127005255e-07,3.4810976928494585e-06,1.9003067240213127e-06,6.838488522684145e-07,1.3550628262722705e-06,1.0785671269570067e-06,3.942802102760599e-06,1.3030708949539733e-06,1.2573744586512266e-06,6.073454222578585e-07,1.800863837605173e-06,2.0879850060882958e-06,2.139663369885914e-06,1.0658995525593163e-06,2.333187901361559e-06
123,1.3032095013953794e-06,6.727957535991649e-07,3.4736901583302365e-06,1.8879650461521528e-06,6.780194368342904e-07,1.3549988526949848e-06,1.0712303201889274e-06,3.714042666781856e-06,1.3088693318784836e-06,1.292319826725373e-06,6.117579584617302e-07,1.706396120828706e-06,1.997313629529771e-06,2.0566423306889643e-06,1.0693032004558687e-06,2.3327336305906555e-06
124,1.3208663902763305e-06,6.657617312135905e-07,3.4582930547674982e-06,1.8699173324239763e-06,6.708505439420626e-07,1.349667251535389e-06,1.064560543877438e-06,3.48338482195783e-06,1.3142781455785134e-06,1.3280503206813211e-06,6.163325004804718e-07,1.6145873552465522e-06,1.906486199526665e-06,1.9739879756902583e-06,1.0731804430205927e-06,2.3274219462569256e-06
125,1.3349148709182293e-06,6.600317396937038e-07,3.433744110947651e-06,1.8455010567230654e-06,6.626204286179957e-07,1.3393667974529007e-06,1.0581386795762167e-06,3.251713972481781e-06,1.3187170807011058e-06,1.3636822364262131e-06,6.212742624317932e-07,1.5254939532760923e-06,1.8171403157342782e-06,1.892670026012567e-06,1.077430074300416e-06,2.3183376484766056e-06
126,1.3457853121442482e-06,6.554759704088648e-07,3.3993793172927226e-06,1.814026057156141e-06,6.536782984054488e-07,1.324866867723446e-06,1.0516283115270736e-06,3.0208867021818732e-06,1.321929762706635e-06,1.3981531095702015e-06,6.268245493574445e-07,1.4388892480308691e-06,1.7305900861033124e-06,1.813561496567528e-06,1.0819491416229502e-06,2.3065260216637267e-06
127,1.3538633253599974e-06,6.519463414335824e-07,3.355380508642943e-06,1.7749632079867932e-06,6.443424150032922e-07,1.3071398391968125e-06,1.0448970150592809e-06,2.7932678535703507e-06,1.3241094852771163e-06,1.4303293586724252e-06,6.332299698010521e-07,1.3543836956593702e-06,1.6478869028275553e-06,1.737465056409891e-06,1.0866972803956533e-06,2.292873208591899e-06
128,1.359382723248404e-06,6.493176416390672e-07,3.3028174339564946e-06,1.7281510066710832e-06,6.348619509287082e-07,1.2871927174066907e-06,1.038094577815436e-06,2.5713316335662785e-06,1.3258580757640925e-06,1.4591474450039156e-06,6.407427655932311e-07,1.2716187598454083e-06,1.5698545937461618e-06,1.6650468335761767e-06,1.0916609574792832e-06,2.278173929647024e-06
129,1.3623832836687765e-06,6.474913685861735e-07,3.2433511599899927e-06,1.6739276084016598e-06,6.254259008778782e-07,1.2659970092435185e-06,1.031586538546212e-06,2.357422497649067e-06,1.3280918167924696e-06,1.4837732874110914e-06,6.496499601026218e-07,1.1904379057966208e-06,1.4970921396536953e-06,1.596746769269108e-06,1.0967792034105095e-06,2.2632145032718815e-06
130,1.362761877465626e-06,6.463915218643147e-07,3.178769761839222e-06,1.6131319143484645e-06,6.162062831505659e-07,1.2444570482550602e-06,1.0258337433938122e-06,2.1536055526598618e-06,1.3319099156730037e-06,1.503712644238698e-06,6.602480491632406e-07,1.110922198381733e-06,1.4299588506650218e-06,1.5327558293771354e-06,1.1018983082823989e-06,2.248705751558198e-06
131,1.3603754537861706e-06,6.459648234755561e-07,3.1105644849151685e-06,1.5469929109344297e-06,6.073862928163863e-07,1.2233928723428065e-06,1.0213804268852869e-06,1.961619282801376e-06,1.3384043439626103e-06,1.518799682850291e-06,6.727680824192219e-07,1.033308119872208e-06,1.3685739837334235e-06,1.4730815337567362e-06,1.1067630897343619e-06,2.2351311680261957e-06
132,1.3551120755691553e-06,6.461677092862056e-07,3.039694268442274e-06,1.4769691973642866e-06,5.99156366734713e-07,1.2035148836017384e-06,1.0189183342823228e-06,1.7829758958751121e-06,1.3484967952322312e-06,1.5290688530274975e-06,6.873263460028364e-07,9.578783006404406e-07,1.3128753128472159e-06,1.4176339615891976e-06,1.1110121175595742e-06,2.22267693237794e-06
133,1.3469214751831864e-06,6.469634211629979e-07,2.9666036555516335e-06,1.404600653861459e-06,5.917168539356621e-07,1.1854137210224665e-06,1.019281391628904e-06,1.619086829512878e-06,1.3628862990768497e-06,1.5346190253518253e-06,7.03915820471636e-07,8.848803263360678e-07,1.2626995784368477e-06,1.3662780907507548e-06,1.1141739020005432e-06,2.211253070925016e-06
134,1.3358528451356514e-06,6.483771652538883e-07,2.8914430422911367e-06,1.3314063741231094e-06,5.852981809976248e-07,1.169605469750452e-06,1.0233396117841365e-06,1.47127866535066e-06,1.3820873381532788e-06,1.5356094696773986e-06,7.224173904860057e-07,8.144852317299923e-07,1.2178006971511934e-06,1.318862187659223e-06,1.1156790701255098e-06,2.2004789230786134e-06
135,1.3220888565253917e-06,6.505841583895731e-07,2.814352422111388e-06,1.258818273486395e-06,5.801530520286731e-07,1.1565686880049657e-06,1.0318714338905756e-06,1.3407193230249805e-06,1.4064809189860919e-06,1.5323637859031073e-06,7.426384855197296e-07,7.467933604005062e-07,1.1778257156569856e-06,1.2752446183411999e-06,1.1148848849875563e-06,2.1896296645005213e-06
136,1.3059131129823422e-06,6.539284394609161e-07,2.7356669282599635e-06,1.1881169486215786e-06,5.76502128387116e-07,1.1467028683003793e-06,1.0454814377072483e-06,1.2283381477651572e-06,1.436311053368859e-06,1.5254212363154442e-06,7.64383740565367e-07,6.818978860485347e-07,1.1423487059191104e-06,1.2353020214770622e-06,1.1111827682394363e-06,2.177683015643964e-06
137,1.2875990675601957e-06,6.588290372739159e-07,2.655989651011759e-06,1.1203680924358025e-06,5.744828207708976e-07,1.1402594321196567e-06,1.064567460302768e-06,1.13480414801358e-06,1.4716317972672845e-06,1.51547749347676e-06,7.874896701682795e-07,6.199543887201204e-07,1.1109617267371782e-06,1.198873597834017e-06,1.104232487699505e-06,2.1635375091454315e-06
138,1.2673000782508873e-06,6.656659937775486e-07,2.576170999200971e-06,1.0563879018436084e-06,5.741494236894973e-07,1.1373105096015768e-06,1.0893254164648821e-06,1.060594851052129e-06,1.5122885261820109e-06,1.503274815157303e-06,8.117758815234869e-07,5.611993778125448e-07,1.0833083151037114e-06,1.1656682034814182e-06,1.0941492075622786e-06,2.1463007074820217e-06
139,1.2450437917497223e-06,6.747497916230269e-07,2.497196446870207e-06,9.967515144496976e-07,5.755171344313033e-07,1.1377359224916446e-06,1.119797341125703e-06,1.0061203555399026e-06,1.558002079563149e-06,1.4894918069421582e-06,8.369790367382415e-07,5.0600467537044e-07,1.0590206046075676e-06,1.1352429279430743e-06,1.081457886256315e-06,2.1254514774791876e-06
140,1.2208467909292052e-06,6.863484954574715e-07,2.4199788484320106e-06,9.418398787907353e-07,5.786054559835082e-07,1.1412024384252003e-06,1.1559306988189438e-06,9.718032668741415e-07,1.6084787271076225e-06,1.4746896944660432e-06,8.627208793164914e-07,4.5502978071537953e-07,1.0376567379601365e-06,1.107097483532905e-06,1.0668824404147018e-06,2.1007970075448532e-06
141,1.194838023080709e-06,7.006937827457012e-07,2.345241630997136e-06,8.91895046062608e-07,5.834380948143916e-07,1.147180631832007e-06,1.1975801887721094e-06,9.580711719679614e-07,1.6633930341631531e-06,1.459382135944342e-06,8.884866055826063e-07,4.093022053094481e-07,1.018721415836063e-06,1.0807887937765973e-06,1.0511540939975336e-06,2.072335799225403e-06
142,1.1672593160178945e-06,7.179629791590023e-07,2.273625093376795e-06,8.470486909578616e-07,5.900024056591178e-07,1.1550582295320559e-06,1.24445569785248e-06,9.653266731451185e-07,1.7222761548699207e-06,1.4441595015983094e-06,9.136100346511743e-07,3.700973453858287e-07,1.0017430906314524e-06,1.0559607761733116e-06,1.0349174263292412e-06,2.040170516039267e-06
143,1.1383606657053636e-06,7.382590241669037e-07,2.2057912468362912e-06,8.073474186304628e-07,5.98212581322027e-07,1.1643134255041029e-06,1.296076670940243e-06,9.939347733804992e-07,1.7844814468854438e-06,1.4296883111640007e-06,9.373042946401654e-07,3.3876954516749425e-07,9.86339288541864e-07,1.0323201332393994e-06,1.0187331206346218e-06,2.0045164985703877e-06
144,1.1083426673413622e-06,7.615781046835379e-07,2.1423252024987647e-06,7.727931082342837e-07,6.079005150702423e-07,1.1746289347262669e-06,1.3517418673401306e-06,1.044192893085232e-06,1.8492402756043325e-06,1.4165587306940602e-06,9.58775870215104e-07,3.167221836611734e-07,9.722256167332266e-07,1.009623694885816e-06,1.0031312204864203e-06,1.965748976645449e-06
145,1.0774173071655022e-06,7.877814950685282e-07,2.08355679249356e-06,7.433576158619322e-07,6.188397705573131e-07,1.1858954750597609e-06,1.4105013148413066e-06,1.116298445333015e-06,1.915698255792981e-06,1.4051428190913643e-06,9.774010123424364e-07,3.05474300487254e-07,9.591641629305475e-07,9.876522273419518e-07,9.886118490820915e-07,1.9243765923537467e-06
146,1.0459005854496823e-06,8.166061158044318e-07,2.0294667460020863e-06,7.189738348304582e-07,6.308069428210263e-07,1.1981668043007137e-06,1.4711463383049604e-06,1.2103444898811425e-06,1.9829354871175192e-06,1.3955620521933012e-06,9.928642914351069e-07,3.0667913432913665e-07,9.469047801358864e-07,9.661788247015813e-07,9.75571233013898e-07,1.8809178387194355e-06
147,1.0142342648534579e-06,8.476922518731686e-07,1.979714442413766e-06,6.995309137128324e-07,6.436310382266164e-07,1.2116063301352606e-06,1.5322449828175685e-06,1.3262999196470245e-06,2.0500330405581747e-06,1.3877097088742656e-06,1.0051591570886675e-06,3.2210411281649544e-07,9.352004409951006e-07,9.450167962242103e-07,9.642428167093263e-07,1.8358495323457383e-06
148,9.829195474651511e-07,8.805893925915583e-07,1.9338065121385474e-06,6.848631694353541e-07,6.571708296804534e-07,1.2263975014879765e-06,1.5922499919684602e-06,1.463992920040666e-06,2.116131711737288e-06,1.3812945973375765e-06,1.0144428751847074e-06,3.5364515908314905e-07,9.239155526364115e-07,9.241382482405824e-07,9.546919408492347e-07,1.7896977853426218e-06
149,9.524177273697422e-07,9.147755735017319e-07,1.8913642209949501e-06,6.747335153098429e-07,6.712737684449763e-07,1.2426207233837223e-06,1.6496843554215066e-06,1.623183161192695e-06,2.1803927903066367e-06,1.3759670881126205e-06,1.0208560475611677e-06,4.0332857535221665e-07,9.131188151114602e-07,9.037353229853149e-07,9.468377812597541e-07,1.743063861794271e-06
150,9.230927411281722e-07,9.49739999712955e-07,1.8523231918380366e-06,6.688161382367745e-07,6.85799802596587e-07,1.2601491716179522e-06,1.7033472410811803e-06,1.8037062112530544e-06,2.2418936261730146e-06,1.371533762999279e-06,1.0244404072521895e-06,4.732678697794114e-07,9.030273232764078e-07,8.841498201542648e-07,9.405055928444276e-07,1.6964909478307818e-06
151,8.952205732874912e-07,9.85078977673825e-07,1.8169399186380903e-06,6.666863486161088e-07,7.006691295037364e-07,1.2786008024183005e-06,1.7524387457343545e-06,2.005608643907013e-06,2.299550584374196e-06,1.3681021132863065e-06,1.0251484369825234e-06,5.656641249657455e-07,8.938583014481186e-07,8.657418748462737e-07,9.355052336473065e-07,1.6503160579108152e-06
152,8.690137802960401e-07,1.0205071438040255e-06,1.7856308264930887e-06,6.67853873470505e-07,7.158510305525301e-07,1.2973573967188763e-06,1.7965306051868523e-06,2.229225809028318e-06,2.352115126579228e-06,1.3659952189974719e-06,1.0228478899615966e-06,6.828710019303737e-07,8.857661977047361e-07,8.488054189296361e-07,9.316874707433453e-07,1.6046072428190788e-06
153,8.446207529277551e-07,1.0557626952727957e-06,1.758777815058155e-06,6.718337256420368e-07,7.313043465609689e-07,1.3156528616372192e-06,1.8353869177635156e-06,2.4751782611987278e-06,2.3982632075117053e-06,1.365526137666898e-06,1.017328819066515e-06,8.274071246365431e-07,8.788819416402538e-07,8.33556462094326e-07,9.289465896968198e-07,1.5592262833425964e-06
154,8.221180933480099e-07,1.0904916424914413e-06,1.7366496775057931e-06,6.781828784693465e-07,7.469425061598748e-07,1.3326795513059496e-06,1.8687503485730374e-06,2.7442740875883222e-06,2.4367749557749403e-06,1.3668744668171796e-06,1.0083736618052524e-06,1.0019016940605278e-06,8.733799037891256e-07,8.201495064681888e-07,9.271848618247722e-07,1.5140252801978947e-06
155,8.015153346320038e-07,1.1242146177720487e-06,1.7194317046667687e-06,6.86466356258612e-07,7.626364467626661e-07,1.3476143049547103e-06,1.8962493441421127e-06,3.037320060171779e-06,2.4667607184935723e-06,1.3701142384423352e-06,9.958553531046876e-07,1.2090716368534429e-06,8.695830391162747e-07,8.086905133518807e-07,9.262706465623655e-07,1.4690468316077557e-06
156,7.827800693281543e-07,1.1563919243596258e-06,1.707219229515124e-06,6.962094475155201e-07,7.782041219635433e-07,1.3595835722469787e-06,1.9174715172563327e-06,3.354873142940124e-06,2.4878282290349303e-06,1.3752432684318147e-06,9.797906921291463e-07,1.4516949072717507e-06,8.680602494374318e-07,7.992555712165657e-07,9.260009871178537e-07,1.4245811712198623e-06
157,7.658734269789036e-07,1.1865341255239773e-06,1.6999441419415603e-06,7.069186326290428e-07,7.933810121727796e-07,1.3677176005507255e-06,1.9321524500096913e-06,3.6969993351977273e-06,2.500022455591144e-06,1.3821600894985497e-06,9.603504661629474e-07,1.732507800935515e-06,8.695937198788289e-07,7.918880109346463e-07,9.260753138827119e-07,1.3811063252628131e-06
158,7.507664370438396e-07,1.2143243211635671e-06,1.6973259228596944e-06,7.18194032582189e-07,8.078058641015809e-07,1.3713276033401034e-06,1.9403596702570475e-06,4.0631074381174015e-06,2.503517137393789e-06,1.3906372803649115e-06,9.378562899801747e-07,2.0540748439231933e-06,8.750205902162793e-07,7.865423941762952e-07,9.261192918994325e-07,1.339197575661974e-06
159,7.374258492703613e-07,1.2397210412461174e-06,1.6988652527375587e-06,7.298621573508513e-07,8.210492513386936e-07,1.3700599771587274e-06,1.942479043780462e-06,4.451872033140705e-06,2.4983100057253012e-06,1.4003025733062978e-06,9.127420076716573e-07,2.4186733891855372e-06,8.850770249745507e-07,7.830305121968341e-07,9.257697461426555e-07,1.2994449023560182e-06
160,7.257747857386994e-07,1.2629615576667384e-06,1.7038425519432993e-06,7.420002858953501e-07,8.326878542374002e-07,1.363909273054792e-06,1.9389813528325784e-06,4.861196246938642e-06,2.4841335221404892e-06,1.4106470014029183e-06,8.854811151957927e-07,2.8282172794972e-06,9.003239040350234e-07,7.810196761099181e-07,9.247712662848294e-07,1.2624490113086755e-06
161,7.156536892164159e-07,1.2844239883993973e-06,1.711351630109903e-06,7.548108450493633e-07,8.42367079313124e-07,1.353118839489987e-06,1.9302147555021842e-06,5.2881561732411695e-06,2.4605779873161213e-06,1.4210578421791132e-06,8.565418429439267e-07,3.2842578361424104e-06,9.211327223798373e-07,7.800671377769265e-07,9.230546345327915e-07,1.2288943785621685e-06
162,7.068106383105738e-07,1.304460891766259e-06,1.7203592475405721e-06,7.684667091683773e-07,8.498253502937976e-07,1.338074050130023e-06,1.9163809849652644e-06,5.728914849133488e-06,2.4273867191298595e-06,1.430814564252499e-06,8.26381639086232e-07,3.7879982451558484e-06,9.476876544824249e-07,7.797058768308501e-07,9.207848265526765e-07,1.199542330769954e-06
163,6.989054916269163e-07,1.3233641903988704e-06,1.7297070786068085e-06,7.830392058685361e-07,8.549401188837632e-07,1.3192467988476034e-06,1.8976212561018397e-06,6.178622406686352e-06,2.384802905255376e-06,1.4390433305925503e-06,7.954573800688393e-07,4.340196303231245e-06,9.799877276304271e-07,7.795930419585209e-07,9.183267134968209e-07,1.1750932283314795e-06
164,6.915053157526475e-07,1.341455377944636e-06,1.7381317669140228e-06,7.984927763788317e-07,8.578035290694047e-07,1.2971531941827964e-06,1.874150654359863e-06,6.631293365398395e-06,2.3337202417410867e-06,1.4447152179898412e-06,7.642545241985504e-07,4.940955393039316e-06,1.0178474051935404e-06,7.79600113839481e-07,9.161055132698787e-07,1.1560634742018328e-06
165,6.840859888492512e-07,1.3591453930339148e-06,1.744444085165019e-06,8.147172596110949e-07,8.587275578866228e-07,1.2722636211138842e-06,1.8464258644832029e-06,7.079651618934903e-06,2.275545252335742e-06,1.44676407667851e-06,7.332970075999912e-07,5.589552608461619e-06,1.0608948969168615e-06,7.797540978715523e-07,9.144608749847635e-07,1.142761731034078e-06
166,6.760726799240744e-07,1.3768645976018234e-06,1.7477849984456831e-06,8.315748342842572e-07,8.58129116710554e-07,1.2448888166567862e-06,1.8152498366370153e-06,7.515051266078521e-06,2.2119470626126905e-06,1.4442861766053682e-06,7.031078528827016e-07,6.284410102470213e-06,1.1085930971927035e-06,7.801320670748651e-07,9.136198969280939e-07,1.135307854278107e-06
167,6.669589280979296e-07,1.394923776714266e-06,1.7477869367486006e-06,8.489006467017044e-07,8.564047117212839e-07,1.215144319360409e-06,1.7816962835020506e-06,7.927702930552065e-06,2.1446950939829405e-06,1.4366995670164898e-06,6.741772921493578e-07,7.023149955793718e-06,1.1603226490606635e-06,7.808071074138434e-07,9.13770014991159e-07,1.1336486523466062e-06
168,6.564804526002674e-07,1.413441700194452e-06,1.7445682717152346e-06,8.6646648073602e-07,8.538934795765409e-07,1.1830674335271506e-06,1.7468910995210252e-06,8.30738163774325e-06,2.075614337151835e-06,1.4238169993245455e-06,6.469677799941289e-07,7.802626143080546e-06,1.2155018660154232e-06,7.818387222006145e-07,9.15113549890106e-07,1.1375875047020924e-06
169,6.447081458739893e-07,1.432388817479974e-06,1.738554203618041e-06,8.839756919274226e-07,8.508704016988432e-07,1.1488451587644983e-06,1.7118797595406802e-06,8.644598461421779e-06,2.0065566179879606e-06,1.4058634830359211e-06,6.219232067980719e-07,8.618868291408828e-06,1.2736414252724638e-06,7.832843500699331e-07,9.178525687161841e-07,1.146855224685995e-06
170,6.31970569344309e-07,1.4516646706363216e-06,1.730220218806735e-06,9.010893352331924e-07,8.475078277686668e-07,1.1129887511129848e-06,1.6777070916439801e-06,8.931943159728815e-06,1.939305034255659e-06,1.383416335962135e-06,5.994606828693337e-07,9.466877063465785e-06,1.3342678792507183e-06,7.852068394144447e-07,9.221478782065915e-07,1.1611876208913546e-06
171,6.1869665182384e-07,1.4711182001797018e-06,1.7199429605214293e-06,9.17460520966724e-07,8.438386808173301e-07,1.076298624703153e-06,1.6455389901901654e-06,9.16501170795359e-06,1.875438836842388e-06,1.3572470794789896e-06,5.799425062087134e-07,1.0340300576423122e-05,1.396783012744716e-06,7.876857221887824e-07,9.28104521116737e-07,1.1803230681401147e-06
172,6.05324198987564e-07,1.4905142910431625e-06,1.7079930607271136e-06,9.327790304516886e-07,8.397534367769196e-07,1.0396619470397802e-06,1.6166563296676326e-06,9.342331735785434e-06,1.8162319502690125e-06,1.3281554140698757e-06,5.636479625853819e-07,1.1231228828125635e-05,1.4603927987149354e-06,7.908303767636633e-07,9.357685675422138e-07,1.2039293630771578e-06
173,5.922914741862674e-07,1.5095030384430142e-06,1.6945639461865752e-06,9.468091683868531e-07,8.350401878144772e-07,1.003871049315123e-06,1.592368460940729e-06,9.464171177561075e-06,1.762597994544068e-06,1.2968837148986709e-06,5.507595771202158e-07,1.213038558959477e-05,1.5241685296690875e-06,7.947364320573326e-07,9.451094917567747e-07,1.231565034731092e-06
174,5.800415262911039e-07,1.5276263907809678e-06,1.6798619527557226e-06,9.594172025722428e-07,8.294618079570974e-07,9.695636990915733e-07,1.5739488903047677e-06,9.530869343612816e-06,1.7150679632692451e-06,1.2640843187108016e-06,5.41356884260072e-07,1.3027685873997333e-05,1.5871898353251572e-06,7.993982043574764e-07,9.56025267039557e-07,1.2627357434857098e-06
175,5.690253899873426e-07,1.5443531989026136e-06,1.6642814699498802e-06,9.70609659485958e-07,8.228231979622678e-07,9.372581894905967e-07,1.5626144422571672e-06,9.541842770790054e-06,1.673808503338774e-06,1.2302875783442627e-06,5.354321792662909e-07,1.3912696883273754e-05,1.6486550195269915e-06,8.046538911487748e-07,9.683697252275131e-07,1.297003379423463e-06
176,5.597079488233995e-07,1.5590863819338795e-06,1.648484797866675e-06,9.805525205720461e-07,8.150038646030613e-07,9.074210471406177e-07,1.5595074648502386e-06,9.49589072500235e-06,1.63865727626217e-06,1.1958832515963599e-06,5.329279465974807e-07,1.477441868359437e-05,1.7078666064154785e-06,8.10183128129162e-07,9.819598328528752e-07,1.3340157543663543e-06
177,5.525436861123038e-07,1.5711096279074378e-06,1.6332637316766226e-06,9.89509485585056e-07,8.059881685687801e-07,8.805044852074257e-07,1.5656345753115883e-06,9.392263862060401e-06,1.6091772302017956e-06,1.1611728929253292e-06,5.33753302964833e-07,1.560039255953299e-05,1.7640924684236676e-06,8.155495466359915e-07,9.966010541376563e-07,1.3733972276949088e-06
178,5.479314101373965e-07,1.5795886348287014e-06,1.6193108875994966e-06,9.977111969484878e-07,7.959036951790288e-07,8.56920485244019e-07,1.5817662924680246e-06,9.231654980491539e-06,1.584818023589786e-06,1.1264882475102552e-06,5.377724202162695e-07,1.637622587325951e-05,1.816410880522068e-06,8.202624371307799e-07,1.0121377496382965e-06,1.4146047503027294e-06
179,5.461852496017486e-07,1.583759053742156e-06,1.6071171937555227e-06,1.0052390800583737e-06,7.850212841598751e-07,8.369748691765968e-07,1.6083697550667246e-06,9.01677504379173e-06,1.5651562716385486e-06,1.092238804697446e-06,5.44796888645622e-07,1.708677190668123e-05,1.8636759510663713e-06,8.238182992318718e-07,1.0284182911033998e-06,1.4568535532481476e-06
180,5.475266950548468e-07,1.5831978961655413e-06,1.5970617313447849e-06,1.011992293548312e-06,7.736816617711087e-07,8.208098851591381e-07,1.6456400700109295e-06,8.752458437060583e-06,1.5499845817007928e-06,1.0588097314148475e-06,5.545887688559625e-07,1.7718797979762694e-05,1.9046096929384176e-06,8.25756742034352e-07,1.0451829403811501e-06,1.4991212912236447e-06
181,5.520883607393935e-07,1.5779422064632452e-06,1.589539477911349e-06,1.0177550257589354e-06,7.621893032111556e-07,8.083874785760691e-07,1.6936158127182754e-06,8.445280804709266e-06,1.5391489269732112e-06,1.026429160667938e-06,5.668712846224762e-07,1.8263479317585474e-05,1.937927607611992e-06,8.257421166692788e-07,1.0620493740896073e-06,1.5402133356875672e-06
182,5.599256424590938e-07,1.5683687306594037e-06,1.5849495248307756e-06,1.022327700840182e-06,7.507442877214041e-07,7.995215235758402e-07,1.752316996510245e-06,8.102850456401833e-06,1.5323519155679099e-06,9.951349206024048e-07,5.813662350874922e-07,1.871685593542564e-05,1.962502303375391e-06,8.235648829659426e-07,1.0786394057367897e-06,1.578867838636896e-06
183,5.710410570607534e-07,1.5549559751417656e-06,1.5835580842120413e-06,1.0256483484973252e-06,7.394372889535444e-07,7.939271289467633e-07,1.8218454093475985e-06,7.73309255937697e-06,1.5291182274602627e-06,9.648525416694664e-07,5.978372147405934e-07,1.9077769778375493e-05,1.977616706193338e-06,8.190395224793704e-07,1.0946989856771979e-06,1.6138234879931928e-06
184,5.854082753111475e-07,1.5380831023690904e-06,1.5853919832430181e-06,1.0278562205020567e-06,7.282996873755368e-07,7.912363033346106e-07,1.902394231611162e-06,7.3436996120325375e-06,1.5288555409054127e-06,9.355368061876752e-07,6.160781115084683e-07,1.9345079114307264e-05,1.983190704165317e-06,8.119512815427123e-07,1.1101119374394576e-06,1.6438161460816321e-06
185,6.029722723764872e-07,1.5179153301289678e-06,1.5902285492561654e-06,1.0292979870463346e-06,7.173761529808212e-07,7.910017294630592e-07,1.9941492934592685e-06,6.941686797829808e-06,1.530928436675408e-06,9.072795703155346e-07,6.358712180697446e-07,1.95168591829047e-05,1.979741137805348e-06,8.021578788144232e-07,1.1248442888883935e-06,1.667642714897365e-06
186,6.236507611150674e-07,1.4943982545033676e-06,1.597593176872406e-06,1.0304737403493881e-06,7.067557586291007e-07,7.927387742997616e-07,2.0971292623256446e-06,6.533008602140111e-06,1.5347730463214881e-06,8.802903703679486e-07,6.569689985228817e-07,1.959215420387457e-05,1.9680637979113733e-06,7.897539828773715e-07,1.1388875851515397e-06,1.684367323647184e-06
187,6.473576025438901e-07,1.467389814361295e-06,1.6067146260843883e-06,1.0319177782636904e-06,6.965339016375058e-07,7.959628997730816e-07,2.2110562171858896e-06,6.1223745438677875e-06,1.5400024381975398e-06,8.547922568355797e-07,6.7907226214072e-07,1.957307378408987e-05,1.9489796828232945e-06,7.751225143079608e-07,1.1522367105653705e-06,1.6934892702026573e-06
188,6.740014642119766e-07,1.4368639593323647e-06,1.6165155937260525e-06,1.034062118173018e-06,6.867558789211053e-07,8.001629289993145e-07,2.335321989167017e-06,5.71342679899241e-06,1.5464003594284977e-06,8.309462717423192e-07,7.018013300710212e-07,1.946509707647283e-05,1.9233482127544864e-06,7.588207095121122e-07,1.1648976123320436e-06,1.694927735169458e-06
189,7.03447252204377e-07,1.403060460649226e-06,1.6257202482796398e-06,1.0371588504350059e-06,6.774100864509749e-07,8.047468321634731e-07,2.469027639527062e-06,5.309215208563207e-06,1.5538315363250399e-06,8.088405060950552e-07,7.246978271264371e-07,1.927550989461643e-05,1.8921292095335999e-06,7.414289715097162e-07,1.1768728917395304e-06,1.6889378042823573e-06
190,7.355024973939185e-07,1.366502287036513e-06,1.633068562436332e-06,1.0413046410873214e-06,6.684709623176911e-07,8.090448011314674e-07,2.6110333489569794e-06,4.912696805311807e-06,1.5621449257640219e-06,7.885311007379259e-07,7.472431052841514e-07,1.9011111618703553e-05,1.8562882599721272e-06,7.234944735053385e-07,1.1880924229053102e-06,1.6761189978685248e-06
191,7.699417559317279e-07,1.3278733719098232e-06,1.6375415257931472e-06,1.0465604741448528e-06,6.59935561648953e-07,8.124237090701264e-07,2.759988715584293e-06,4.5270079855852495e-06,1.5710605594174935e-06,7.700924709666155e-07,7.689014826355726e-07,1.8676304555673878e-05,1.8166306074036756e-06,7.055659778309916e-07,1.1983638896195756e-06,1.6574618100690147e-06
192,8.065034644631908e-07,1.2878460969473817e-06,1.638501114575487e-06,1.053085666720152e-06,6.51836636429379e-07,8.14487598864842e-07,2.91433352201516e-06,4.155409704420686e-06,1.5800518902690017e-06,7.536083124606883e-07,7.892157447036546e-07,1.827255713181258e-05,1.7737665989494848e-06,6.882640747421349e-07,1.2074240801007802e-06,1.6342601948661325e-06
193,8.448332786142037e-07,1.2470087731044619e-06,1.6357374794688268e-06,1.061165109226864e-06,6.442602877348732e-07,8.152224417883093e-07,3.072275652367132e-06,3.8009810853037096e-06,1.5882992938478499e-06,7.391247529894959e-07,8.078714562938745e-07,1.7799757890363278e-05,1.7282835442420306e-06,6.723394152934501e-07,1.2150238788460233e-06,1.6079023910357073e-06
194,8.844293090242576e-07,1.2059261199022692e-06,1.6294613177403366e-06,1.0711129007759436e-06,6.373647243350783e-07,8.149370245195899e-07,3.231767942020242e-06,3.4662681278978425e-06,1.5947264050669128e-06,7.266526552795657e-07,8.246528741655187e-07,1.725867151104982e-05,1.6809521429636771e-06,6.586600866969158e-07,1.2209347009796937e-06,1.5797194590070304e-06
195,9.246333308032546e-07,1.165189480932257e-06,1.6202353809855256e-06,1.0831752185085636e-06,6.313615006099288e-07,8.140442195360273e-07,3.390456133257228e-06,3.153079047357814e-06,1.5981176259627888e-06,7.162215846425085e-07,8.393706156572973e-07,1.6652870025432604e-05,1.6327469648362745e-06,6.481260545848344e-07,1.2248976224739376e-06,1.5509449102953366e-06
196,9.64643280501191e-07,1.1253606581598267e-06,1.608841721763156e-06,1.0975051838674758e-06,6.264490913039858e-07,8.128748187808226e-07,3.545574527815457e-06,2.8624804828221787e-06,1.5973856073168387e-06,7.079016439009488e-07,8.518627537045933e-07,1.5988956399940235e-05,1.5846712368027855e-06,6.415817258174505e-07,1.2266221834646344e-06,1.5226776754934234e-06
197,1.0035176894321932e-06,1.0869089668919209e-06,1.5961525451282575e-06,1.1141449586814095e-06,6.227433641451389e-07,8.116409085930164e-07,3.6939598385065455e-06,2.594944113504354e-06,1.5919330580707148e-06,7.017552262272989e-07,8.620404789650444e-07,1.527503201424136e-05,1.5375519832286092e-06,6.397644247772496e-07,1.225860642465274e-06,1.495801036782585e-06
198,1.0402015673642103e-06,1.0502433191690208e-06,1.5830514580609133e-06,1.1329730865571332e-06,6.202599711187186e-07,8.105165834592159e-07,3.832421682015607e-06,2.3505711976400893e-06,1.5818465667898936e-06,6.977770835688367e-07,8.698918448393981e-07,1.4518688808026942e-05,1.4919436656922542e-06,6.432746801437089e-07,1.222457923863259e-06,1.4709168751072379e-06
199,1.0736117936096501e-06,1.0157746979464455e-06,1.5703660714113722e-06,1.1536597625179304e-06,6.189606913090972e-07,8.097298408295427e-07,3.958368914451443e-06,2.1292939295133396e-06,1.5677572636979377e-06,6.958759758811418e-07,8.75466240286365e-07,1.3726373572936039e-05,1.4481341726337478e-06,6.525673195647774e-07,1.2163056978325145e-06,1.4483317313091022e-06
200,1.1027671380848387e-06,9.839187362241842e-07,1.5588160430679256e-06,1.1756575129359926e-06,6.188100149987907e-07,8.095852645639747e-07,4.0702726858313295e-06,1.9309366762297764e-06,1.550549688192464e-06,6.958999560661651e-07,8.789068112177237e-07,1.29046355156533e-05,1.4061937829843136e-06,6.679676280352631e-07,1.2073044096764427e-06,1.4280860036191575e-06
201,1.1269269423302298e-06,9.55043122615588e-07,1.5490316834845939e-06,1.1982343676667457e-06,6.197801445704981e-07,8.104185843000071e-07,4.167672262356868e-06,1.7551327614245563e-06,1.5312196776914304e-06,6.976804376450412e-07,8.804629402703995e-07,1.2061806602485782e-05,1.3660943216460208e-06,6.897012345950742e-07,1.195413786278361e-06,1.410020905419944e-06
202,1.1457011765015097e-06,9.294108194338446e-07,1.5415847480427124e-06,1.220562727496947e-06,6.218420110021589e-07,8.125282721741429e-07,4.250756128310478e-06,1.601240243879489e-06,1.5108682997813408e-06,7.010593209927008e-07,8.804125321947964e-07,1.1208490732382429e-05,1.3279017279734243e-06,7.179524536285099e-07,1.1806785313086234e-06,1.3938630692607852e-06
203,1.1590669319581906e-06,9.071782773141507e-07,1.53693202306056e-06,1.2418344307966987e-06,6.249911124231293e-07,8.161126797783574e-07,4.319755414208378e-06,1.4683775415274914e-06,1.4906047551485318e-06,7.058965565142668e-07,8.789855527819553e-07,1.0356614239495647e-05,1.2918957305538747e-06,7.529503901409297e-07,1.1632200485925186e-06,1.3793275043255684e-06
204,1.1672438512992832e-06,8.884612333269046e-07,1.535319042390874e-06,1.2613596661189422e-06,6.292523395202274e-07,8.212245762066996e-07,4.374468208801366e-06,1.3555386358061596e-06,1.4713632632322218e-06,7.120699979658412e-07,8.763896247966417e-07,9.517905529034556e-06,1.2585156998199063e-06,7.949968015717803e-07,1.1433047483259434e-06,1.3662960192067555e-06
205,1.1704955541624535e-06,8.733913133646309e-07,1.5367733009894084e-06,1.2786576804052508e-06,6.346563441124564e-07,8.277555318160739e-07,4.414146241503796e-06,1.261665155837832e-06,1.4538018541699317e-06,7.194608290129583e-07,8.728981073929387e-07,8.702724776071957e-06,1.228210001061218e-06,8.443868394115685e-07,1.121394734527736e-06,1.3550250281510333e-06
206,1.169025769670833e-06,8.620905604438469e-07,1.5412213176356797e-06,1.2935272084458102e-06,6.412524578675229e-07,8.354580104386725e-07,4.4376808408118225e-06,1.1856532439006949e-06,1.438341896277178e-06,7.279348970151656e-07,8.688841816115075e-07,7.919533219692562e-06,1.2013111831977727e-06,9.01310778973143e-07,1.0980587441082643e-06,1.3461868645611165e-06
207,1.1630423021472997e-06,8.545936944081207e-07,1.5486271825134604e-06,1.3060158568877153e-06,6.49127524620171e-07,8.440062794770121e-07,4.443836066045305e-06,1.126360084679487e-06,1.4253282373987922e-06,7.373657561584957e-07,8.647509450943909e-07,7.174841128779727e-06,1.1779914848788551e-06,9.658322205026958e-07,1.0738278075475335e-06,1.3406741925507719e-06
208,1.1528510002264118e-06,8.507971448674993e-07,1.559024925776689e-06,1.3162846885658743e-06,6.583673208730536e-07,8.530733682402463e-07,4.43139956797929e-06,1.0826086608627375e-06,1.4151997423300059e-06,7.476996452022527e-07,8.608319478185136e-07,6.4734586020634634e-06,1.158283150028377e-06,1.0379163366567908e-06,1.0491099806074834e-06,1.3393682403713238e-06
209,1.1388397965441466e-06,8.504757123164974e-07,1.5724216493090479e-06,1.324505697858237e-06,6.689863341666061e-07,8.623665940471489e-07,4.399340910900012e-06,1.053195416687495e-06,1.4085022508762595e-06,7.589601262675159e-07,8.573647616020749e-07,5.818870582341591e-06,1.142129851523408e-06,1.1174379711490277e-06,1.0241736508113902e-06,1.3430670064780568e-06
210,1.121397171800997e-06,8.533617026237832e-07,1.588657149958888e-06,1.3308419085148982e-06,6.808869026050023e-07,8.715930740462309e-07,4.34713701432861e-06,1.0369380423335242e-06,1.4057382800507814e-06,7.711549959634087e-07,8.545455972494611e-07,5.213491310003085e-06,1.1294558314281664e-06,1.2041968321697585e-06,9.991654978791548e-07,1.3525054098252998e-06
211,1.1008801806221908e-06,8.592354058841384e-07,1.6073195291025578e-06,1.3354150295431516e-06,6.938659440045946e-07,8.804095589552288e-07,4.275244898456984e-06,1.032692865215663e-06,1.4072308610251144e-06,7.842114546471302e-07,8.525806141146708e-07,4.658707012077432e-06,1.1202443853188135e-06,1.2979701534019503e-06,9.741506623304018e-07,1.3683100679470532e-06
212,1.0776763376402147e-06,8.679609290481172e-07,1.6277467923824216e-06,1.3382624827490605e-06,7.076350785894383e-07,8.884319702718672e-07,4.185422192486482e-06,1.0392940943287412e-06,1.4131449112126458e-06,7.980243793205009e-07,8.51681065070539e-07,4.154877300071579e-06,1.1146008363300965e-06,1.3985133804074932e-06,9.491555654936274e-07,1.3909016425202554e-06
213,1.0523141536921662e-06,8.794563788182753e-07,1.6490738097435223e-06,1.3393560029843562e-06,7.218298509215717e-07,8.953183392495873e-07,4.080590389990127e-06,1.055495578730413e-06,1.4236265309799681e-06,8.125308188730956e-07,8.520416196751327e-07,3.7014728018490815e-06,1.1127788180086433e-06,1.5054671348692341e-06,9.242153377750989e-07,1.4204506070352915e-06
214,1.025514988378662e-06,8.936268759535417e-07,1.6703059027701462e-06,1.3386248349614498e-06,7.360434477109542e-07,9.008762149118954e-07,3.9642790768039344e-06,1.0799541609447695e-06,1.4389037610982964e-06,8.276977358129341e-07,8.538187270272848e-07,3.2972903298071416e-06,1.115165635742505e-06,1.618275779429938e-06,8.994703281073364e-07,1.4568805019876468e-06
215,9.981135383190076e-07,9.102824086863646e-07,1.6904573863857991e-06,1.3359118144777724e-06,7.499081205488828e-07,9.051238455741076e-07,3.839972912991606e-06,1.1112390525256642e-06,1.4592443026689455e-06,8.434515224104103e-07,8.570828269159897e-07,2.940578329377909e-06,1.1222306490887493e-06,1.7361807408122413e-06,8.752429492634023e-07,1.4998630457354195e-06
216,9.709055492974132e-07,9.290767166106992e-07,1.7087408518108357e-06,1.3309577206867237e-06,7.631723375480437e-07,9.082639768721466e-07,3.7106496974752794e-06,1.1479134047834512e-06,1.4848214568320407e-06,8.596543902857091e-07,8.617941165609134e-07,2.629088607091498e-06,1.1344602831652982e-06,1.8582162754000504e-06,8.519733852478446e-07,1.5488799616820235e-06
217,9.445438389820798e-07,9.495081883242353e-07,1.7246903771147672e-06,1.3235174961267545e-06,7.757069726613454e-07,9.105920317278377e-07,3.5786453994303202e-06,1.1887017558774773e-06,1.5156410726884648e-06,8.761365717448187e-07,8.678618523555373e-07,2.3601958668611758e-06,1.1523003212028919e-06,1.9831663832159367e-06,8.300914825415377e-07,1.6034292024955622e-06
218,9.19519256713227e-07,9.709587965332334e-07,1.7381216221735137e-06,1.3135238396999946e-06,7.87439179556574e-07,9.123923484367691e-07,3.4458109858084655e-06,1.2326313148055327e-06,1.5515639769504488e-06,8.927216238851631e-07,8.75221125028052e-07,2.131045381510485e-06,1.1760894057143104e-06,2.1095367860701124e-06,8.099639582409997e-07,1.663224318589625e-06
219,8.961806627002708e-07,9.927023808991833e-07,1.748964019303494e-06,1.301153412792706e-06,7.982974272760607e-07,9.138711072513073e-07,3.3137301861378548e-06,1.2790575157332787e-06,1.592304761438013e-06,9.092326257968721e-07,8.838246348112159e-07,1.9385885312259676e-06,1.205979400446533e-06,2.2355392389742487e-06,7.918834150833095e-07,1.7281736616531195e-06
220,8.747553541676522e-07,1.0138884037010647e-06,1.757092755031547e-06,1.2867491683069327e-06,8.082223480044122e-07,9.151501754192268e-07,3.1837873827691695e-06,1.3275766413689488e-06,1.637379003653396e-06,9.254883129326555e-07,8.93565163208482e-07,1.7795815317523543e-06,1.2418774175598831e-06,2.3590309279233017e-06,7.760366837310924e-07,1.7982206403164908e-06
221,8.553559181684622e-07,1.0335857546042413e-06,1.7622694562497536e-06,1.2706665748416459e-06,8.171719669835498e-07,9.162860473176048e-07,3.0571107175644654e-06,1.3778652257781803e-06,1.6860728593170431e-06,9.41266532470751e-07,9.042264664076541e-07,1.6506705073796768e-06,1.2834355826946561e-06,2.4774544240630195e-06,7.624805707009667e-07,1.8732950174130649e-06
222,8.379782432132268e-07,1.0509231654102698e-06,1.7642214927728608e-06,1.2532167498187814e-06,8.250806298421589e-07,9.172556014471856e-07,2.934532900548919e-06,1.42956913809915e-06,1.7374641945121216e-06,9.5624859319664e-07,9.155239637680391e-07,1.5484788256979177e-06,1.3301125934546422e-06,2.5879393812711855e-06,7.511556836810347e-07,1.9533623894034495e-06
223,8.225159063921888e-07,1.0652631193560208e-06,1.7628131198192892e-06,1.2347938064436009e-06,8.318642420611641e-07,9.179244118667937e-07,2.8166463344096323e-06,1.4823549894969962e-06,1.7905030972207806e-06,9.699957187973853e-07,9.271965489146224e-07,1.4696358169043527e-06,1.3813086412351344e-06,2.687653608151022e-06,7.419511362459711e-07,2.038367409375938e-06
224,8.088061155864903e-07,1.0763062149150654e-06,1.7582156344197204e-06,1.2160144797731172e-06,8.37513776369532e-07,9.180658021586589e-07,2.7039551350843296e-06,1.53604296848883e-06,1.8441447291700535e-06,9.81965600211311e-07,9.390348987985348e-07,1.410810415795128e-06,1.4364614020548571e-06,2.774213976730401e-06,7.347962071185711e-07,2.1280542761024556e-06
225,7.966667011990059e-07,1.0840709104842763e-06,1.7509773851280878e-06,1.1976756955938986e-06,8.421745074564887e-07,9.174335586833957e-07,2.5970801507950428e-06,1.5906618420523229e-06,1.8974905873174329e-06,9.915868645610066e-07,9.508164788562767e-07,1.3687567952473802e-06,1.4950031774816145e-06,2.8458287749772942e-06,7.296932310227934e-07,2.221823445691774e-06
226,7.858762296280824e-07,1.0887822139788307e-06,1.741928305515142e-06,1.1805729985730113e-06,8.461232006281449e-07,9.158131766332517e-07,2.496893661054481e-06,1.6463648425658366e-06,1.949841283552726e-06,9.984053097006717e-07,9.622649615644356e-07,1.3403402833688481e-06,1.5562758118113678e-06,2.9010706411071405e-06,7.266528060348168e-07,2.3187158335435386e-06
227,7.761516330240922e-07,1.0907409269237333e-06,1.7319475325795905e-06,1.165350873217135e-06,8.496732646706488e-07,9.130138021293587e-07,2.404437789424686e-06,1.7032588708892384e-06,2.0005759328380717e-06,1.0021839026283989e-06,9.731044127098544e-07,1.3225281060252976e-06,1.619514474109311e-06,2.9385541774721533e-06,7.255971124140585e-07,2.4174676837485005e-06
228,7.672001448811811e-07,1.0902192022827647e-06,1.7217441931342722e-06,1.1524768132690918e-06,8.530911145802925e-07,9.088434019190063e-07,2.3206476510036867e-06,1.7612877720631947e-06,2.0489689441392727e-06,1.0028558312455213e-06,9.831411416620609e-07,1.312361085083139e-06,1.683861262113828e-06,2.9569857922418753e-06,7.263200059721878e-07,2.516530283939179e-06
229,7.587978472707162e-07,1.087397510487097e-06,1.7118057659123474e-06,1.1423026337633247e-06,8.565860938695777e-07,9.030964824253336e-07,2.246086810955454e-06,1.8202296793254963e-06,2.094119674567308e-06,1.0004421446470732e-06,9.923243730157125e-07,1.3070428481035607e-06,1.7483785939309597e-06,2.9557267938774033e-06,7.285635111751068e-07,2.614062493651027e-06
230,7.508009647051211e-07,1.0823334318738526e-06,1.702525227761847e-06,1.1351076062161154e-06,8.60358098639647e-07,8.955614211670244e-07,2.180832894209797e-06,1.8796895727902545e-06,2.1349498385541665e-06,9.950595234149011e-07,1.000770425445436e-06,1.3042248301698238e-06,1.8120768937918222e-06,2.9353798273652542e-06,7.321717715353014e-07,2.7080177581361944e-06
231,7.43098956163441e-07,1.074951135288746e-06,1.694386611314869e-06,1.1310540225526745e-06,8.646163706335248e-07,8.861162748985972e-07,2.124460679649101e-06,1.939017113721324e-06,2.170210853191548e-06,9.869336136884685e-07,1.0086974088730054e-06,1.3022628403382532e-06,1.8739089686766293e-06,2.8977881903631274e-06,7.37162350834617e-07,2.796396278295107e-06
232,7.355972261925043e-07,1.065087155575055e-06,1.6880636911774152e-06,1.1301138588806227e-06,8.695293382295994e-07,8.749185504368069e-07,2.076070362215283e-06,1.997241540114086e-06,2.1986008659186907e-06,9.763294506012686e-07,1.0163029716114926e-06,1.300193465282448e-06,1.9326822435407655e-06,2.8454258837853112e-06,7.436453604988822e-07,2.877625000722798e-06
233,7.282446112855159e-07,1.0526104096329566e-06,1.684367497406514e-06,1.1320831140484258e-06,8.751552710298208e-07,8.625017235319225e-07,2.03443662129457e-06,2.0530798402585513e-06,2.218951935984674e-06,9.635141085794907e-07,1.0236983623661885e-06,1.2974983680517457e-06,1.9869364290721163e-06,2.7807373086078123e-06,7.51703880511803e-07,2.9509584633737177e-06
234,7.210452021665438e-07,1.0375332635267345e-06,1.6841179657431642e-06,1.1366792454345237e-06,8.814071150650985e-07,8.496441172715529e-07,1.998317596374525e-06,2.1049767822822246e-06,2.2303947935431213e-06,9.488394299857898e-07,1.03089917004329e-06,1.2939040571066188e-06,2.0349091653852487e-06,2.7058206130565184e-06,7.613369789913665e-07,3.016718642940587e-06
235,7.140606436434994e-07,1.0200292142653808e-06,1.6880593589856947e-06,1.1435977080951359e-06,8.880515046656012e-07,8.371391757054497e-07,1.966755203876102e-06,2.1512372790933922e-06,2.2325696722910347e-06,9.328111669921833e-07,1.0377972675146432e-06,1.2893322298623318e-06,2.074718604409584e-06,2.6223550049416198e-06,7.724635641378344e-07,3.0761712749395985e-06
236,7.074328053226617e-07,1.0003771774693493e-06,1.6968200711076836e-06,1.1524886121234514e-06,8.947324484618157e-07,8.256580321189123e-07,1.939141579721139e-06,2.1903680354903957e-06,2.225764191434271e-06,9.160206393533811e-07,1.0441354235589633e-06,1.283905653058141e-06,2.104796133924711e-06,2.53164953923996e-06,7.849495957825407e-07,3.1310193796083347e-06
237,7.013774840994793e-07,9.789172577249805e-07,1.710847550210245e-06,1.1629454945578267e-06,9.010265240672979e-07,8.157229769258063e-07,1.9150319672583653e-06,2.221471870248562e-06,2.2107466156022473e-06,8.990255364919774e-07,1.049564395010104e-06,1.2778907835296338e-06,2.1243865796441347e-06,2.4347903091231995e-06,7.986370928973588e-07,3.182801653584193e-06
238,6.961210371693096e-07,9.560687007009674e-07,1.7303463644103396e-06,1.1745445155837134e-06,9.064996599863083e-07,8.077077428406032e-07,1.8938981713616285e-06,2.2443507689716376e-06,2.188491645794854e-06,8.822903201381143e-07,1.053779458840296e-06,1.2716155104376314e-06,2.133786949423714e-06,2.3327894300859187e-06,8.133717713065382e-07,3.23252416637715e-06
239,6.918367704443465e-07,9.323548861581111e-07,1.7552794102810595e-06,1.186873920586389e-06,9.107267218048165e-07,8.01840961214542e-07,1.8750151561290236e-06,2.259221047527146e-06,2.160129786313151e-06,8.661717778245913e-07,1.0566498575960047e-06,1.2654681001532428e-06,2.1341349285770667e-06,2.2266932830229403e-06,8.290101194487351e-07,3.280557826592749e-06
240,6.886251728635402e-07,9.083541421658829e-07,1.7854047261321895e-06,1.1995087909293205e-06,9.133128485928327e-07,7.982292961537707e-07,1.8574796963942056e-06,2.26629103997528e-06,2.126986810119078e-06,8.509252600955987e-07,1.0582710439475501e-06,1.2599460947151649e-06,2.126892935449167e-06,2.1176626913324095e-06,8.453838822117464e-07,3.326630815384655e-06
241,6.865453190525831e-07,8.846199534514103e-07,1.8203137172746945e-06,1.211957744267742e-06,9.139816903923637e-07,7.968814874280137e-07,1.8402515522928047e-06,2.2655310508841016e-06,2.0904473278929004e-06,8.367566383226514e-07,1.0589449673674155e-06,1.255625163440916e-06,2.113383151995899e-06,2.0069595788667257e-06,8.622418694937006e-07,3.3698366999607613e-06
242,6.856923801874839e-07,8.616637779284044e-07,1.8594730611723142e-06,1.2237061354430062e-06,9.126940475038578e-07,7.977321107899769e-07,1.8222263779245796e-06,2.2567482588338725e-06,2.0517767147447364e-06,8.239021272253951e-07,1.0591197160004691e-06,1.253047278029961e-06,2.094602504022505e-06,1.895834021262692e-06,8.792220530835253e-07,3.4087333874066696e-06
243,6.862605646841125e-07,8.399678166406388e-07,1.9022461093141106e-06,1.2344377162717496e-06,9.096631933414725e-07,8.006917380960648e-07,1.802416406771422e-06,2.2398152593031392e-06,2.0121255990385167e-06,8.126432419742057e-07,1.0592910381591796e-06,1.2526577598452727e-06,2.0712722863217717e-06,1.785475469117137e-06,8.95909646874863e-07,3.441575397482114e-06
244,6.885269211954933e-07,8.199546170333403e-07,1.9478476307173636e-06,1.2442673067135536e-06,9.052172994787645e-07,8.056839183368597e-07,1.7801739756814033e-06,2.2148504176265378e-06,1.972592500617146e-06,8.032293556896196e-07,1.0598883502101843e-06,1.2548258332168523e-06,2.0439642377738027e-06,1.677074416128851e-06,9.119427497371868e-07,3.4665805285953537e-06
245,6.927851207311812e-07,8.019516847579123e-07,1.9952515719452472e-06,1.2537491026098446e-06,8.996436909605458e-07,8.126143204887521e-07,1.7552869460820415e-06,2.1822714872931546e-06,1.9341469665941446e-06,7.957945786052839e-07,1.0611901878476254e-06,1.2598702728798978e-06,2.0131837423986312e-06,1.571813892401928e-06,9.270422087339135e-07,3.4821080617132377e-06
246,6.992922937160126e-07,7.862102159191423e-07,2.0431901127905713e-06,1.2636619878445498e-06,8.931412532650677e-07,8.213129921444039e-07,1.7278669485091023e-06,2.142770970516452e-06,1.8974909914434866e-06,7.903245625603066e-07,1.0632846245936024e-06,1.2680623877922035e-06,1.9793834258091955e-06,1.4707404248884402e-06,9.409998092397298e-07,3.48672678499002e-06
247,7.082360713007031e-07,7.729500301138769e-07,2.0903520324835944e-06,1.2747542455134792e-06,8.858537549172854e-07,8.315096236245841e-07,1.6981152504642333e-06,2.097273026129131e-06,1.8630290940380568e-06,7.866539184228414e-07,1.0660948737225966e-06,1.2796279057967146e-06,1.9429714363674543e-06,1.3746584607971008e-06,9.53718246006044e-07,3.479254812563455e-06
248,7.197027461771149e-07,7.623717386576957e-07,2.1356711432870736e-06,1.2875973129050712e-06,8.779199064110351e-07,8.428557185640268e-07,1.6661318262002842e-06,2.046829144004622e-06,1.8309491277517798e-06,7.844928211676966e-07,1.0694817051325504e-06,1.2947284828809846e-06,1.9043450946640442e-06,1.2841078598081236e-06,9.652000524818235e-07,3.458856835238941e-06
249,7.336543180019571e-07,7.546193064541635e-07,2.1784855652611983e-06,1.3025765712262201e-06,8.695000536727507e-07,8.549936456420425e-07,1.6319006864606675e-06,1.99241893928261e-06,1.8012833752454652e-06,7.835065001392814e-07,1.0733487625007235e-06,1.313411714055291e-06,1.8638854289449863e-06,1.1993972742774028e-06,9.754375773346437e-07,3.425190765391178e-06
250,7.499249541569357e-07,7.497353053079142e-07,2.218491853270506e-06,1.3199434746958882e-06,8.60759081404957e-07,8.676182802195167e-07,1.5954596230839894e-06,1.934798463887031e-06,1.7738786278994081e-06,7.834057355668794e-07,1.077645720619058e-06,1.335594574628407e-06,1.8218677600960866e-06,1.120695180689207e-06,9.843350280194098e-07,3.37851954165352e-06
251,7.6822737275404e-07,7.47651356783415e-07,2.2556133988020387e-06,1.3398283261341714e-06,8.518513016664868e-07,8.804734515006559e-07,1.5571018547025717e-06,1.8745404182087103e-06,1.7483721211111261e-06,7.839684276717041e-07,1.0822742154198039e-06,1.3611234970151847e-06,1.7783497110105553e-06,1.048133630685353e-06,9.917119042245342e-07,3.3197122115164323e-06
252,7.881734468995975e-07,7.481955732151535e-07,2.2899178695081234e-06,1.362184968235863e-06,8.429595484092797e-07,8.933368947326284e-07,1.5174047402571672e-06,1.8122080033127706e-06,1.7243036494798452e-06,7.850286971581114e-07,1.087028684809167e-06,1.3898373491328295e-06,1.7331714467778888e-06,9.81824642427072e-07,9.97351871949967e-07,3.2501205539605637e-06
253,8.093151801022745e-07,7.510850631814018e-07,2.3215688215739726e-06,1.3867190457662766e-06,8.343549600617876e-07,9.060255468023376e-07,1.4770421865041402e-06,1.7485190867899724e-06,1.7013392831775002e-06,7.865224019206847e-07,1.0916481942343016e-06,1.4215420471035468e-06,1.686134289068702e-06,9.217921212363251e-07,1.0010857668696041e-06,3.1713588698046237e-06
254,8.311801301698369e-07,7.559052746359036e-07,2.3507193449342346e-06,1.4128449605490606e-06,8.264071540657553e-07,9.183451662392276e-07,1.4365563881400841e-06,1.6843803300886898e-06,1.679424133378129e-06,7.885361857011143e-07,1.0958745702823083e-06,1.4559068150372124e-06,1.6372658385137786e-06,8.679365880396202e-07,1.0028481628662555e-06,3.085018467483826e-06
255,8.532834287327367e-07,7.621042481876923e-07,2.3773521395742363e-06,1.4396821880332904e-06,8.195245966917303e-07,9.29986733271222e-07,1.3962705186488932e-06,1.6207522525927594e-06,1.6587071789460395e-06,7.912855834256684e-07,1.0994186882810881e-06,1.492375587005997e-06,1.5870066302682614e-06,8.200767493202825e-07,1.002624557579086e-06,2.99242112398692e-06
256,8.751467311763357e-07,7.690351706715423e-07,2.4011530649937623e-06,1.4661395850275073e-06,8.140653479352393e-07,9.404731921823904e-07,1.356359767555039e-06,1.5584883345510803e-06,1.6393585746934235e-06,7.950659888458313e-07,1.1019136309559608e-06,1.530205354531742e-06,1.536190331464566e-06,7.779795661621797e-07,1.0003449129706462e-06,2.8945773724790673e-06
257,8.963629145230681e-07,7.760442182321691e-07,2.421456930185386e-06,1.4911475480742608e-06,8.102807278926065e-07,9.492103734120599e-07,1.31700920188307e-06,1.49832235841431e-06,1.6215194832338566e-06,8.001947754703773e-07,1.102955217419527e-06,1.5686449673860874e-06,1.4858718744515284e-06,7.413233868333386e-07,9.958570159791668e-07,2.792330560432208e-06
258,9.166836949674946e-07,7.825642074413248e-07,2.4372470754672013e-06,1.513964026962155e-06,8.083122305848235e-07,9.556191138749355e-07,1.2785937052382575e-06,1.4409789784588496e-06,1.6053272562828587e-06,8.069271769589766e-07,1.1022084374196917e-06,1.6070876155835823e-06,1.4371933864963034e-06,7.096589903720898e-07,9.889899188323008e-07,2.6864952210047823e-06
259,9.360519027148891e-07,7.881837656169414e-07,2.4471762523106314e-06,1.5343575325911521e-06,8.082206051412206e-07,9.592642382207706e-07,1.2418132656567822e-06,1.3872638924559252e-06,1.590821303981794e-06,8.153978630696243e-07,1.099496890206885e-06,1.6450558462667934e-06,1.391305929058991e-06,6.824511623567738e-07,9.796328319345131e-07,2.577945801149102e-06
260,9.545370595689823e-07,7.926752600041215e-07,2.4496210573393755e-06,1.5525293128154155e-06,8.100478642013778e-07,9.598803121177444e-07,1.2077154091692126e-06,1.3380515958824925e-06,1.577781494526697e-06,8.25617505949218e-07,1.094790649404873e-06,1.6821074839974915e-06,1.3492478834936867e-06,6.591805370144664e-07,9.678089769631697e-07,2.4677233042978955e-06
261,9.722248020926713e-07,7.959711231718137e-07,2.442908817564288e-06,1.5688361990122056e-06,8.138800734231759e-07,9.573221144753505e-07,1.1775838891482018e-06,1.2941891770394042e-06,1.5656824953926225e-06,8.37480098109995e-07,1.0880835806627687e-06,1.7178027511677975e-06,1.311841643004249e-06,6.393856098841462e-07,9.537263658662658e-07,2.3571066265528473e-06
262,9.891459251299251e-07,7.981053550354597e-07,2.4257841568698442e-06,1.5835526046375308e-06,8.198283307676061e-07,9.515989779984714e-07,1.1527517924286874e-06,1.2564003504423222e-06,1.5538379685588113e-06,8.50759196161857e-07,1.0792726885706724e-06,1.7517330969117953e-06,1.2797278541314132e-06,6.226117108895338e-07,9.377524285937425e-07,2.247562813054144e-06
263,1.0052614310467822e-06,7.99153079474972e-07,2.3978729510009624e-06,1.5968522408909896e-06,8.279415458403286e-07,9.430117041908698e-07,1.1344331328969291e-06,1.2252520029803798e-06,1.541678725316373e-06,8.651306891270619e-07,1.0681519708869854e-06,1.7835167316518266e-06,1.2534785452253895e-06,6.083735619132102e-07,9.203398303756657e-07,2.1405876593041006e-06
264,1.0204464455677696e-06,7.991811694218462e-07,2.359805518934418e-06,1.6089513919003614e-06,8.381520208100482e-07,9.32186755139477e-07,1.1236241337049503e-06,1.201163382029427e-06,1.5290062878179816e-06,8.802797435663428e-07,1.0545314083679935e-06,1.8127071655125118e-06,1.2336244074830305e-06,5.961667492870331e-07,9.019747775277335e-07,2.037520482242467e-06
265,1.034460596718613e-06,7.9819983185945e-07,2.3129088831815417e-06,1.6202391685036375e-06,8.502875160849923e-07,9.199224507381257e-07,1.1210640388007476e-06,1.1844235382394449e-06,1.5160552763825213e-06,8.960615738093229e-07,1.0383911230759632e-06,1.8387204185485085e-06,1.2205671648065426e-06,5.854849565373391e-07,8.831381141578982e-07,1.939471765545148e-06
266,1.0469597579984735e-06,7.96121600112988e-07,2.258745213975423e-06,1.6312929731162165e-06,8.640977189404288e-07,9.0702987575753e-07,1.1272307629220921e-06,1.1752281114415445e-06,1.5033611714400535e-06,9.125587656326897e-07,1.019954891130851e-06,1.8608753537769803e-06,1.2144939372535721e-06,5.758772932470167e-07,8.642715389888811e-07,1.847390166115765e-06
267,1.0575637156638676e-06,7.92788948550276e-07,2.1988803056851517e-06,1.6428207326102193e-06,8.792552304406341e-07,8.942856035274804e-07,1.1423680329742276e-06,1.1737367698045961e-06,1.4915895920233931e-06,9.299728434488172e-07,9.996554352941412e-07,1.8784255987014818e-06,1.2153823453787824e-06,5.670753216347059e-07,8.457904594927212e-07,1.7620902820819216e-06
268,1.0659346786550773e-06,7.88110758527351e-07,2.1349077506428777e-06,1.6556463104236028e-06,8.953616346298968e-07,8.823974350338713e-07,1.166547208064336e-06,1.1800987365332509e-06,1.4814322926649805e-06,9.484976379572908e-07,9.780293880480711e-07,1.8905033077340758e-06,1.2230948769739418e-06,5.590930219595403e-07,8.281227664076319e-07,1.6841527891309772e-06
269,1.0718232251823348e-06,7.822121860286854e-07,2.068444883796659e-06,1.6707427538491193e-06,9.119777978757802e-07,8.719384463638206e-07,1.1997459952901727e-06,1.1944104005581684e-06,1.4735180414301092e-06,9.68274405055292e-07,9.55590812461878e-07,1.896158083636281e-06,1.2375003745703186e-06,5.521950581863857e-07,8.11699927324471e-07,1.613816276853047e-06
270,1.075071540746539e-06,7.754590283953117e-07,2.0009907404222182e-06,1.6891792203575848e-06,9.286548644156027e-07,8.633345205920512e-07,1.241910665920584e-06,1.216672898908923e-06,1.4682839173138187e-06,9.893659517354288e-07,9.32770358833068e-07,1.8946266223446785e-06,1.2585459237143121e-06,5.467888300642614e-07,7.968913870824612e-07,1.5509559710781459e-06
271,1.0756104108857265e-06,7.683576665032061e-07,1.9338431506642225e-06,1.711934993776725e-06,9.449811703889599e-07,8.569070753007825e-07,1.2929777522783748e-06,1.2468486627153096e-06,1.465872542512399e-06,1.0117141802521992e-06,9.099467413746074e-07,1.8856289541039197e-06,1.2862445828294854e-06,5.43376436676167e-07,7.839459183484819e-07,1.49514359323075e-06
272,1.0734928850062017e-06,7.614376338546797e-07,1.8682122837776588e-06,1.7397149605598105e-06,9.606226973824555e-07,8.528851760156197e-07,1.3528608584313554e-06,1.2849795828842861e-06,1.4661428964967331e-06,1.0351151589540187e-06,8.874731589047915e-07,1.8693756445569839e-06,1.320606081021573e-06,5.425649058677573e-07,7.729719006112419e-07,1.4457673960753316e-06
273,1.068936202424452e-06,7.551736833699988e-07,1.805349703672045e-06,1.7728772860190652e-06,9.752943996012199e-07,8.513796737926552e-07,1.421436044570492e-06,1.3312213466311581e-06,1.4687858599452622e-06,1.059229588556506e-06,8.656532700452049e-07,1.8462788694286502e-06,1.3615586492381563e-06,5.450346830976307e-07,7.639365222464538e-07,1.4021906101616706e-06
274,1.0622957403185614e-06,7.499352323709737e-07,1.7465001977818016e-06,1.8114445812538687e-06,9.887371036260882e-07,8.523783597354425e-07,1.4985554876810705e-06,1.3857361757280883e-06,1.4734236152926058e-06,1.0836155818748611e-06,8.447211592319685e-07,1.8167130393566683e-06,1.4088991585587106e-06,5.51456933142518e-07,7.566922614943177e-07,1.3639062511987577e-06
275,1.0539695100975123e-06,7.459558739820549e-07,1.692800808965937e-06,1.8551323219710693e-06,1.0007955480075074e-06,8.557951338855159e-07,1.584091081475881e-06,1.4485341372028193e-06,1.4795911256267193e-06,1.1077356660452413e-06,8.248365791267991e-07,1.7810552350120987e-06,1.4623035043561799e-06,5.62424729099855e-07,7.510490325329451e-07,1.3306313257096504e-06
276,1.0443258675662085e-06,7.433396906191767e-07,1.6452882960571197e-06,1.9033581320476005e-06,1.0115168047622794e-06,8.615498162787191e-07,1.6779737385239776e-06,1.5193888491102154e-06,1.4866643356887149e-06,1.1309202884271256e-06,8.06079324956734e-07,1.7398381865978785e-06,1.5213634809133821e-06,5.784349538515154e-07,7.468392703433643e-07,1.3022778231993457e-06
277,1.0336953805085903e-06,7.421107646943992e-07,1.6049176664920999e-06,1.955255945861108e-06,1.0211529175303903e-06,8.69598881975917e-07,1.7801573599001905e-06,1.5978658910817296e-06,1.4938825643304994e-06,1.1523515484549416e-06,7.884625204785619e-07,1.6938110749574589e-06,1.5855822857010893e-06,5.999010156072975e-07,7.439143602616198e-07,1.2788094325982944e-06
278,1.0223635557372276e-06,7.422783650178889e-07,1.5724953127947711e-06,2.0097306813146103e-06,1.0300634695255764e-06,8.798758435880987e-07,1.8904847975737146e-06,1.683392073529632e-06,1.5005406083298708e-06,1.1711211146380913e-06,7.719591947582747e-07,1.643926177969332e-06,1.6543956513677792e-06,6.271575460844719e-07,7.421274881166862e-07,1.2601170372534419e-06
279,1.0105513323734568e-06,7.438789803397447e-07,1.5485990164469872e-06,2.065497267729243e-06,1.0385870539901818e-06,8.922054856185849e-07,2.008561490054124e-06,1.7752837116900041e-06,1.506262952028963e-06,1.1863656936530973e-06,7.565161613170106e-07,1.5912935414816273e-06,1.727307667588413e-06,6.604519656230346e-07,7.413772796198106e-07,1.246024749938049e-06
280,9.984586733048696e-07,7.469680711569663e-07,1.5335527469411556e-06,2.1210880228883824e-06,1.0469636371513606e-06,9.062799146650634e-07,2.133717202908231e-06,1.872740049410768e-06,1.5111279052900808e-06,1.1974525156327372e-06,7.420601474827614e-07,1.5370728462649039e-06,1.804036718425465e-06,6.99936366821571e-07,7.416497715867005e-07,1.236380577285955e-06
281,9.863652992920332e-07,7.515632589631317e-07,1.5274850862729831e-06,2.1749349778260543e-06,1.055351997687413e-06,9.217261544779429e-07,2.2649967136629877e-06,1.974842218116275e-06,1.5155296925182002e-06,1.2041076915792103e-06,7.285001290809346e-07,1.4823504145281893e-06,1.88451633329664e-06,7.456622898974052e-07,7.429853704429312e-07,1.2310931232399798e-06
282,9.74669505293767e-07,7.575962397308121e-07,1.530444102540909e-06,2.225523891288682e-06,1.0639178194575001e-06,9.382219555547487e-07,2.401149566689113e-06,2.080549461493456e-06,1.5199262203002786e-06,1.2063546441943718e-06,7.157427735876135e-07,1.4281048338983439e-06,1.9687396290524893e-06,7.975809009718059e-07,7.454212362229884e-07,1.2300464372158878e-06
283,9.638128580390087e-07,7.649262544366179e-07,1.5424333484376027e-06,2.271482541450843e-06,1.0729132396081893e-06,9.555657330845567e-07,2.540668138105572e-06,2.1887552937797197e-06,1.5246452735156114e-06,1.2042970735279858e-06,7.037628682447577e-07,1.3752345414820016e-06,2.0565458157480317e-06,8.555454695891552e-07,7.489638994008479e-07,1.232996759918973e-06
284,9.542000295219895e-07,7.73382239212857e-07,1.563315837768264e-06,2.3115859076189272e-06,1.0826640600241452e-06,9.736315390712768e-07,2.681864892944021e-06,2.298567270793485e-06,1.5297912779747706e-06,1.1979521036695726e-06,6.926845929984597e-07,1.324562747471773e-06,2.1474650332684843e-06,9.193029037252745e-07,7.535771705232731e-07,1.239572340528734e-06
285,9.462129298536293e-07,7.827683854215618e-07,1.5927258309233253e-06,2.3447940041932203e-06,1.0934610960691222e-06,9.922546157376154e-07,2.822935113881081e-06,2.409760794945269e-06,1.5352647082951124e-06,1.187259406755181e-06,6.827743090272185e-07,1.2768127658758056e-06,2.2406739130187653e-06,9.884844029282834e-07,7.59170398556405e-07,1.2493293336980103e-06
286,9.402434775487083e-07,7.928363434505071e-07,1.6301072027457097e-06,2.3703669468387193e-06,1.105449305186255e-06,1.0111783205701195e-06,2.9619883629359736e-06,2.5230618525466786e-06,1.5408819349644866e-06,1.1721960108413438e-06,6.743577590477265e-07,1.232562553096355e-06,2.3350080365961016e-06,1.0626143435210187e-06,7.655847403701832e-07,1.2617897609477958e-06
287,9.366461908062073e-07,8.033032713038553e-07,1.674823428584599e-06,2.3879661651896056e-06,1.11857869086996e-06,1.0301259495301152e-06,3.0970264601539398e-06,2.6399950145894587e-06,1.5464873652667279e-06,1.1528769729040708e-06,6.677498918416151e-07,1.192211345773919e-06,2.4289580192024187e-06,1.1411235997950568e-06,7.725861538788216e-07,1.2764537600055758e-06
288,9.356602134212377e-07,8.139530557015879e-07,1.7262113588211328e-06,2.397636364909624e-06,1.1326087265156816e-06,1.0489092115802113e-06,3.2258359847595846e-06,2.7623846641787615e-06,1.5519849128169904e-06,1.1295937065014304e-06,6.632463709308317e-07,1.1560161799722729e-06,2.5206606691212623e-06,1.223341329540689e-06,7.798771693625099e-07,1.292756738639659e-06
289,9.373865232489556e-07,8.247273270085814e-07,1.7835259466185001e-06,2.3996579630520067e-06,1.147182911979283e-06,1.0674335823450378e-06,3.3459071766922845e-06,2.8918525684651817e-06,1.5573580824248765e-06,1.1028094443780967e-06,6.611469360136059e-07,1.1241443268025748e-06,2.6079218586672705e-06,1.3084521847341392e-06,7.871109007834162e-07,1.309997968800318e-06
290,9.418069766428815e-07,8.357018078942158e-07,1.8458516604446338e-06,2.394322907986291e-06,1.1619649513630892e-06,1.0855906727920672e-06,3.4545941761946456e-06,3.0295998551531132e-06,1.5627388739597626e-06,1.0731331202777699e-06,6.617299207837307e-07,1.0966564367050778e-06,2.6882492126718667e-06,1.3954313683444382e-06,7.93898885519731e-07,1.3273555873368518e-06
291,9.487913170259693e-07,8.469763863137259e-07,1.9121075151665086e-06,2.381724717730087e-06,1.17672633566889e-06,1.1031824797919135e-06,3.5494975041480032e-06,3.1765018271204578e-06,1.56843309012174e-06,1.041255252147011e-06,6.651801160009758e-07,1.073500454219755e-06,2.758929662593178e-06,1.4830057951285626e-06,7.998452470393477e-07,1.3440629673197327e-06
292,9.580970020081816e-07,8.58592287746402e-07,1.9811636733185145e-06,2.3617348054350447e-06,1.1913164801899442e-06,1.1199795398591676e-06,3.6287801335910017e-06,3.33336185476256e-06,1.5748029041163947e-06,1.0078718037948765e-06,6.715518558324439e-07,1.0546145932770466e-06,2.817303136258762e-06,1.5696845160677924e-06,8.046362973907709e-07,1.3596618202766963e-06
293,9.693879495784572e-07,8.705471890606548e-07,2.0519745666411598e-06,2.334253631680077e-06,1.2055962172789812e-06,1.1358334062999478e-06,3.6912014085371573e-06,3.5011308327885172e-06,1.5821015353067604e-06,9.736460721444891e-07,6.80786603817898e-07,1.0400279372645773e-06,2.8612499436172713e-06,1.653857700176088e-06,8.081537048564871e-07,1.3740999808799879e-06
294,9.822467729152612e-07,8.828762538483161e-07,2.1236838353018317e-06,2.299556225803332e-06,1.2194396755110452e-06,1.1506926315725948e-06,3.7358455737834143e-06,3.680968959194976e-06,1.5903837243148856e-06,9.391764866304487e-07,6.927320563437411e-07,1.029808217823875e-06,2.889635641822368e-06,1.733944968450023e-06,8.105326873241282e-07,1.387570330632121e-06
295,9.961804054881538e-07,8.957085988700288e-07,2.1957319216096406e-06,2.2584843248248516e-06,1.232786526070693e-06,1.1644954894196977e-06,3.76170358022616e-06,3.874183584360425e-06,1.5994600746275482e-06,9.049553313019666e-07,7.07135680609252e-07,1.023922389661788e-06,2.902419750989525e-06,1.8085732883405416e-06,8.121096400552371e-07,1.400270635754634e-06
296,1.0106803352626042e-06,9.092431781077632e-07,2.2679584117584106e-06,2.212394617857515e-06,1.2456377602126332e-06,1.1770673791567647e-06,3.7675258636164475e-06,4.082174359077701e-06,1.608876524768623e-06,8.713733610787804e-07,7.236593698172746e-07,1.0221678300796526e-06,2.9003343416655163e-06,1.8767246083391826e-06,8.132823812746162e-07,1.4123082629059963e-06
297,1.0253341506258525e-06,9.236589764874106e-07,2.3406302933705923e-06,2.1629025848607423e-06,1.2579705701419956e-06,1.18811571778431e-06,3.7522398918732404e-06,4.306451359883226e-06,1.6180066852365441e-06,8.387611385156155e-07,7.419442439393581e-07,1.0242164226647897e-06,2.884334789682497e-06,1.9377411193115945e-06,8.143733050623628e-07,1.4237772355672465e-06
298,1.039905679593652e-06,9.390214011623858e-07,2.4143406910444407e-06,2.111570220823507e-06,1.2696921985778077e-06,1.1972582076737722e-06,3.715638899067425e-06,4.548646048322773e-06,1.6262834317590823e-06,8.074026045712773e-07,7.616710325856158e-07,1.0297066476444114e-06,2.8552493211986346e-06,1.9911351187236643e-06,8.155613686854754e-07,1.4348622476747026e-06
299,1.0543216807772185e-06,9.552422402245094e-07,2.489784559798747e-06,2.0597034416990665e-06,1.2807040166278655e-06,1.2040115509678616e-06,3.6588205052507783e-06,4.810374805782539e-06,1.6334220805249414e-06,7.775274584563045e-07,7.825791008305762e-07,1.0382920761232993e-06,2.8138431628302826e-06,2.036343253958706e-06,8.168821247135681e-07,1.4458407069250007e-06
300,1.0685658490519874e-06,9.720850031857015e-07,2.567484187369775e-06,2.0082741326833134e-06,1.2909799706695526e-06,1.2078057110881386e-06,3.58414463415369e-06,5.092909787539061e-06,1.6394389540348283e-06,7.493229724803682e-07,8.044649392327881e-07,1.0496419389335584e-06,2.76107302618233e-06,2.0726459810863225e-06,8.182788434080009e-07,1.456993422482247e-06
301,1.0825512551000644e-06,9.891760020524766e-07,2.64758842230328e-06,1.9579193416548743e-06,1.300563866289613e-06,1.208106461203818e-06,3.494776557317634e-06,5.396792550066677e-06,1.6444391936136411e-06,7.229531388715602e-07,8.271569736669739e-07,1.0634786974170053e-06,2.6982482848187387e-06,2.099264374903417e-06,8.196818101762299e-07,1.4685116170563632e-06
302,1.096061557414605e-06,1.0060591178087755e-06,2.7298396396753817e-06,1.9090143444560796e-06,1.3094934112286665e-06,1.2045773493992991e-06,3.3940436716623613e-06,5.721637057478582e-06,1.6483600805589272e-06,6.985973181389546e-07,8.504474467059923e-07,1.0796361903740396e-06,2.627027040470777e-06,2.1154502225659823e-06,8.210705474836619e-07,1.4804629053455802e-06
303,1.1087768415639181e-06,1.0223374156645836e-06,2.813655365054023e-06,1.861771927722567e-06,1.317699441616789e-06,1.197165124521161e-06,3.2848875708241183e-06,6.0662189719770245e-06,1.650851635870769e-06,6.76509318745909e-07,8.740314554332356e-07,1.09803742733211e-06,2.5493124843038437e-06,2.12051585483124e-06,8.224944612653172e-07,1.4928198062000537e-06
304,1.1203329094457347e-06,1.0377932288857862e-06,2.898157248532745e-06,1.8163266844811847e-06,1.3249537152110174e-06,1.1861072646606593e-06,3.1696079181863814e-06,6.428653447247646e-06,1.6512898856619677e-06,6.570007342744223e-07,8.975467668115898e-07,1.1186464805041201e-06,2.4671552400633425e-06,2.113947845462907e-06,8.240593391582648e-07,1.5054849987847362e-06
305,1.130374620162718e-06,1.0523503237962942e-06,2.9820866209264833e-06,1.7728295948662369e-06,1.3309378662322342e-06,1.1718847743432669e-06,3.0499232949256992e-06,6.806422608784905e-06,1.6488796090491925e-06,6.403449219982203e-07,9.20702964977807e-07,1.1415141187497675e-06,2.3826718241070048e-06,2.0956513131609113e-06,8.25882406658913e-07,1.5182561592529726e-06
306,1.1385781581949706e-06,1.0659166413912455e-06,3.063730632474467e-06,1.7315347479425014e-06,1.3354080932923822e-06,1.1551038878005598e-06,2.9272268119628406e-06,7.196258994176345e-06,1.6428710914253544e-06,6.267126975519828e-07,9.433655693821925e-07,1.1668235822291753e-06,2.29789846596525e-06,2.0661413986600013e-06,8.280259155989908e-07,1.530807872412423e-06
307,1.1446152483092846e-06,1.0782580930044309e-06,3.1409428148782228e-06,1.6928050339406098e-06,1.3383226417515307e-06,1.1363839062299452e-06,2.802853518697019e-06,7.594104215464429e-06,1.6328224716557172e-06,6.161685383054927e-07,9.655209041004307e-07,1.1947853092392897e-06,2.214620501336424e-06,2.0265157432482984e-06,8.304426595344687e-07,1.542782952931253e-06
308,1.1480964553866274e-06,1.0890048473825997e-06,3.21121595491244e-06,1.6570102002979537e-06,1.3398186171355009e-06,1.116348303661005e-06,2.6782035953985053e-06,7.995372923804275e-06,1.6187362178091643e-06,6.087007497180699e-07,9.871918743842692e-07,1.2254647933718623e-06,2.13428370753092e-06,1.9782639255278325e-06,8.32972438062424e-07,1.5538766126563274e-06
309,1.1485873385342846e-06,1.0977816756992539e-06,3.2718391237428203e-06,1.62439767082802e-06,1.340051648204549e-06,1.095636562654574e-06,2.554688550225012e-06,8.395582849149897e-06,1.6009884521911887e-06,6.042568793148016e-07,1.0083772747380606e-06,1.2587202936419484e-06,2.0579634137759717e-06,1.9230496112920084e-06,8.354134247362666e-07,1.5637700777321187e-06
310,1.1457221003345848e-06,1.104359977706809e-06,3.320253391547598e-06,1.595070793334099e-06,1.3390137825412596e-06,1.0748388583634807e-06,2.4336195676755124e-06,8.791144507695194e-06,1.5801509233499426e-06,6.027522345650697e-07,1.0289959392166422e-06,1.2942553680483744e-06,1.986358064174752e-06,1.8625209659885405e-06,8.376409368830378e-07,1.5720563284926857e-06
311,1.139349271935833e-06,1.108714503330433e-06,3.3545835403625526e-06,1.569082345677471e-06,1.3364302899146843e-06,1.054435254525109e-06,2.3161810731302413e-06,9.179900719329232e-06,1.556848206641263e-06,6.040698279447382e-07,1.048845389708608e-06,1.33168215550247e-06,1.9198181537584806e-06,1.798199877110241e-06,8.396758067740882e-07,1.5783411216879612e-06
312,1.1296246092586233e-06,1.1109493610049361e-06,3.374129181753914e-06,1.5464850516775618e-06,1.3317582815088286e-06,1.0348051780589418e-06,2.2034986638589927e-06,9.561061136367677e-06,1.5316691703106155e-06,6.08081621777353e-07,1.0676290933295019e-06,1.3705690235030237e-06,1.8583702453988062e-06,1.7315001693628036e-06,8.41628096060173e-07,1.5823779308752208e-06
313,1.1169817729468823e-06,1.1111671724875521e-06,3.3795540095205553e-06,1.5272627393309112e-06,1.324280308945562e-06,1.0162333218281606e-06,2.0966790803302375e-06,9.934444978979748e-06,1.5050993763527827e-06,6.146715999382078e-07,1.0850092781734547e-06,1.410517169107365e-06,1.8017707236565723e-06,1.6637872847435246e-06,8.435794540862593e-07,1.5840236905299048e-06
314,1.1019803798202475e-06,1.1094004935907635e-06,3.372617541111731e-06,1.511275171300875e-06,1.3132717267524409e-06,9.988948472669385e-07,1.996728519205416e-06,1.0299408922584717e-05,1.4775220414485152e-06,6.237378153391548e-07,1.100620653093128e-06,1.4512509253603053e-06,1.7496803507225695e-06,1.5963414822613624e-06,8.455046601263504e-07,1.583072432508719e-06
315,1.0851305725377953e-06,1.1056524662526483e-06,3.355547619644398e-06,1.4983424691715122e-06,1.2981717424163323e-06,9.828753448024376e-07,1.9043993483405993e-06,1.0654329087993198e-05,1.4493441289500637e-06,6.351872557172393e-07,1.1140805779728567e-06,1.4926385345167061e-06,1.7018831912886424e-06,1.5302506590698875e-06,8.472447543674984e-07,1.5791483988620283e-06
316,1.0668020967090406e-06,1.0999727124518861e-06,3.3304646800151656e-06,1.4883915504362377e-06,1.2786951336715175e-06,9.681872987789247e-07,1.8200951453150543e-06,1.0997056696833265e-05,1.421139830123958e-06,6.489463765145534e-07,1.1250344907505497e-06,1.534609655717232e-06,1.6583790043076563e-06,1.4663563579825362e-06,8.485394143765052e-07,1.5716983989439291e-06
317,1.0472298524379778e-06,1.0924656007330586e-06,3.299208239308619e-06,1.4815066751258883e-06,1.2548944918850417e-06,9.54732976722642e-07,1.743933429004187e-06,1.1325697456524378e-05,1.3936223900161408e-06,6.649960808504465e-07,1.1332165621615941e-06,1.5770070798066416e-06,1.6193157668769964e-06,1.4052818656482098e-06,8.491276335778563e-07,1.5600178707064732e-06
318,1.0265582089555824e-06,1.0832136179330146e-06,3.2634709540542885e-06,1.4778685433737186e-06,1.2271878504041997e-06,9.422771753700575e-07,1.6759474505310989e-06,1.163906140367302e-05,1.3674593479656983e-06,6.833977416397819e-07,1.1385013179273954e-06,1.6194350183018504e-06,1.584855982646542e-06,1.347485974074879e-06,8.488319776605297e-07,1.5433661815748156e-06
319,1.0048846431746658e-06,1.0721944980234088e-06,3.224935072792714e-06,1.4776742133756576e-06,1.1962922968985714e-06,9.305181349616026e-07,1.6162600587095301e-06,1.1936771533727506e-05,1.3431203698072279e-06,7.042578736624513e-07,1.140928404322862e-06,1.6611749456786908e-06,1.5550601406163848e-06,1.2932983478763587e-06,8.475490322622856e-07,1.5212464321327847e-06
320,9.82306023132718e-07,1.0592776884642288e-06,3.185241003264489e-06,1.4810599288316106e-06,1.163041165602686e-06,9.192407868085906e-07,1.565086957053358e-06,1.2219145821319091e-05,1.3208582565739818e-06,7.276515861913542e-07,1.140663219536275e-06,1.7012156569793744e-06,1.5298580219669212e-06,1.242948874161683e-06,8.452189947062924e-07,1.4936744489315036e-06
321,9.589835625443967e-07,1.04431128698002e-06,3.1457913308329325e-06,1.4879988799250574e-06,1.128204015198266e-06,9.084304273112509e-07,1.5226153862935367e-06,1.248693390115514e-05,1.3007701679705333e-06,7.535643712146354e-07,1.1379034887129507e-06,1.7384022684526903e-06,1.5091222415061369e-06,1.196624424407004e-06,8.418717860582997e-07,1.4612160111164431e-06
322,9.352065917412088e-07,1.027250915010264e-06,3.1075298750327454e-06,1.4982158030091991e-06,1.092413906471563e-06,8.982581351762842e-07,1.4888895177281091e-06,1.274102700301065e-05,1.2828595936953026e-06,7.818887276294763e-07,1.1328461899272492e-06,1.7716433679832595e-06,1.4927386823564751e-06,1.1545080991319838e-06,8.37691430305379e-07,1.4248088001879368e-06
323,9.113896144460645e-07,1.0082606401157306e-06,3.0708328672639425e-06,1.51118043288714e-06,1.056196653379348e-06,8.889831333551368e-07,1.4637491530908673e-06,1.2982193900405674e-05,1.2670927679436638e-06,8.124918509300691e-07,1.125759170735245e-06,1.8000714197139076e-06,1.4806220874420144e-06,1.1167342992227894e-06,8.329958743823278e-07,1.3855132130839222e-06
324,8.879791661767353e-07,9.877210183973022e-07,3.0355393402599717e-06,1.5261780320220796e-06,1.0200481087766898e-06,8.808742663934362e-07,1.446786867521895e-06,1.3210819858995705e-05,1.253432102578314e-06,8.452881559464206e-07,1.1170370183501104e-06,1.8231277878097756e-06,1.472727279035726e-06,1.0833026591542456e-06,8.281493500314812e-07,1.3443336910571505e-06
325,8.653540921271022e-07,9.661502362482214e-07,3.0011489066010937e-06,1.5424201774268325e-06,9.844646033109988e-07,8.741837757006286e-07,1.4373143576013795e-06,1.342656212120158e-05,1.2418058751558402e-06,8.802309948268649e-07,1.107156648846343e-06,1.8406300824470393e-06,1.46904134306417e-06,1.0540202948873535e-06,8.234845149778341e-07,1.3021951187404e-06
326,8.438023181556763e-07,9.441110564829065e-07,2.9671833457035043e-06,1.5591504830060017e-06,9.499034695682023e-07,8.69124437337882e-07,1.4343575845513664e-06,1.3627787991380785e-05,1.2321059318934807e-06,9.172705488047537e-07,1.096572574055097e-06,1.8528535545764906e-06,1.4695039419627608e-06,1.0284938125077698e-06,8.192872311982547e-07,1.2599987907305965e-06
327,8.235445066177692e-07,9.221421815392684e-07,2.9335423506189817e-06,1.5757122170715537e-06,9.167722846067585e-07,8.658158159053661e-07,1.4366796488037e-06,1.3810828599737973e-05,1.2243007112579184e-06,9.563349589715678e-07,1.0856348423440483e-06,1.8606038397943004e-06,1.4738811941677872e-06,1.0062035248497543e-06,8.158551097814733e-07,1.2186081253361846e-06
328,8.047402009140933e-07,9.007181234643189e-07,2.9006858806282393e-06,1.5915945080810095e-06,8.854750073011254e-07,8.642320353642732e-07,1.4428522581736708e-06,1.396944251528658e-05,1.2185396576071948e-06,9.97282655639319e-07,1.0746021473684203e-06,1.8652378568257348e-06,1.4816650657052154e-06,9.866526451013575e-07,8.135576329968484e-07,1.1787631462227044e-06
329,7.874752121053478e-07,8.802634016536718e-07,2.8696339241860968e-06,1.6064926495016524e-06,8.564375391508072e-07,8.641873057009146e-07,1.451390662208469e-06,1.4094953398757607e-05,1.2151243600381786e-06,1.0398174355732156e-06,1.0637343111570968e-06,1.8685791534342343e-06,1.4920338541655296e-06,9.69487808971422e-07,8.128037261905484e-07,1.1410311366014584e-06
330,7.717642304361142e-07,8.612054583963933e-07,2.841835622553251e-06,1.6203539379793e-06,8.300872910779093e-07,8.653549869107064e-07,1.4608851608311522e-06,1.4177208272680554e-05,1.2143902513396984e-06,1.0834309188143711e-06,1.0533548324969254e-06,1.8727018426287248e-06,1.50386278330068e-06,9.544998526522156e-07,8.139425387288196e-07,1.1058371924243109e-06
