,EMG1,EMG2,EMG3,EMG4,EMG5,EMG6,EMG7,EMG8,EMG9,EMG10,EMG11,EMG12,EMG13,EMG14,EMG15,EMG16
0,1.33094334903657e-07,1.6765383671787624e-07,-6.147899564159621e-08,-2.954811741714579e-07,1.2854950644278021e-08,1.4116971546942234e-07,3.649486283341753e-07,2.8713826570295923e-07,4.31236850422744e-07,5.966021383862436e-08,9.357027628475988e-09,1.0000205804827038e-06,9.243027118587579e-08,1.59512303286695e-07,-2.4278897173110862e-08,2.3198078445366812e-06
1,1.814788704501005e-07,2.5683543163321686e-07,4.962567737239136e-08,-4.2660862395150766e-08,5.941999766547039e-08,1.8599996538579056e-07,4.5938308308970814e-07,5.332864571059049e-07,5.71933646961681e-07,1.8707699224937423e-07,1.739328321713181e-07,1.4453529949656382e-06,1.9591669641718136e-07,2.571100104634131e-07,3.295899982202904e-08,2.5071510567964153e-06
2,2.2839485504193266e-07,3.440320467379472e-07,1.6504121420884183e-07,1.957282745205723e-07,1.0279275690487753e-07,2.3153620643660093e-07,5.524056270610108e-07,7.768509834192405e-07,7.112277084898727e-07,3.1001461661468966e-07,3.323383202470778e-07,1.874238590765004e-06,2.950552057182929e-07,3.4991005583035754e-07,8.886302251870357e-08,2.7020771411956417e-06
3,2.7326249281804964e-07,4.2795190087495637e-07,2.8477301820197164e-07,4.1714543374950346e-07,1.4148833713813565e-07,2.7724838113441426e-07,6.414037005746155e-07,1.0141594307976255e-06,8.464412998818547e-07,4.269658140811548e-07,4.82673525127736e-07,2.2802271011444155e-06,3.8893835215782335e-07,4.3709596718916967e-07,1.4303340134283058e-07,2.9037507137171107e-06
4,3.157257857141538e-07,5.076448395767944e-07,4.0902823698646316e-07,6.192182896488017e-07,1.7446069926028738e-07,3.226191249771329e-07,7.238715733928396e-07,1.2425768442573714e-06,9.750335993767763e-07,5.365224841563306e-07,6.232887560325955e-07,2.657995166526006e-06,4.769280493036835e-07,5.179249820930683e-07,1.9512164115563885e-07,3.1108312634917047e-06
5,3.5561819854729835e-07,5.825136679506039e-07,5.381584462820598e-07,7.998179437316421e-07,2.0113711558102e-07,3.6715955278592553e-07,7.976621143535689e-07,1.4607089155164848e-06,1.094806216592959e-06,6.375634570354781e-07,7.52707528359463e-07,3.0035744458952468e-06,5.587273362360077e-07,5.918256474198094e-07,2.448238588846311e-07,3.321550388904028e-06
6,3.928683828381356e-07,6.521984287988504e-07,6.725523022312825e-07,9.571982552465525e-07,2.2130747346104202e-07,4.1045282254818415e-07,8.612936485843069e-07,1.6683308018680688e-06,1.2042046339658607e-06,7.294256553439801e-07,8.696206806339172e-07,3.3144209467831484e-06,6.343032542212657e-07,6.584347002363425e-07,2.918736671359836e-07,3.5338824704258165e-06
7,4.274469037612396e-07,7.164182318807836e-07,8.125555324630208e-07,1.0902121921022298e-06,2.3498045993935488e-07,4.5221748609887034e-07,9.141251935784827e-07,1.866134378599083e-06,1.3025427835082703e-06,8.118779210034763e-07,9.729891386199705e-07,3.5894802501362866e-06,7.037371163150552e-07,7.175008019754762e-07,3.360358780398384e-07,3.745611680780611e-06
8,4.5935907565390937e-07,7.748838952131816e-07,9.584834851041445e-07,1.1985700646003406e-06,2.4230416638054534e-07,4.923400252145098e-07,9.562813993067164e-07,2.0554600392946964e-06,1.3899903100832964e-06,8.849543399609373e-07,1.062139112029194e-06,3.829307664868527e-06,7.671318070387402e-07,7.687882416477932e-07,3.7712312537030617e-07,3.954188681035132e-06
9,4.88648886343358e-07,8.273085851080403e-07,1.1107145744033655e-06,1.283038289377728e-06,2.4354464369257885e-07,5.308472409341166e-07,9.883741802263014e-07,2.238111674431699e-06,1.4672834952000045e-06,9.488645249567834e-07,1.1367919649198968e-06,4.036095195114477e-06,8.246206308374112e-07,8.121434830098961e-07,4.150521605046083e-07,4.156518081614711e-06
10,5.154175335658305e-07,8.734590734804345e-07,1.2697461602640967e-06,1.3454675294728254e-06,2.390704457042875e-07,5.67830461121e-07,1.0111748876670173e-06,2.4162348987074817e-06,1.5353324211638102e-06,1.0040289505207184e-06,1.1970562760758204e-06,4.213440673683244e-06,8.764656659142586e-07,8.476481510060017e-07,4.4988540043132824e-07,4.3489208562374795e-06
11,5.398397628523315e-07,9.132105660151826e-07,1.4361182553154706e-06,1.3885967654010688e-06,2.293404630428625e-07,6.033539089874811e-07,1.025392006595411e-06,2.5921772707079818e-06,1.59497051782605e-06,1.051088288115047e-06,1.2434220158242687e-06,4.3658618869072434e-06,9.231272048414172e-07,8.756608190445171e-07,4.818077328039584e-07,4.527342116436766e-06
12,5.621384728403183e-07,9.465886781881664e-07,1.6102674434299395e-06,1.4156869749093411e-06,2.149173774134164e-07,6.37397264841482e-07,1.0316256140939668e-06,2.7682744469788487e-06,1.646962326364674e-06,1.0908027413658686e-06,1.2767571913221184e-06,4.498150295381975e-06,9.65184974720287e-07,8.967269458746143e-07,5.110806869142995e-07,4.6876646676720485e-06
13,5.825388621658053e-07,9.737599899222555e-07,1.7924641383653354e-06,1.430134514443086e-06,1.9647662783444026e-07,6.698677043337034e-07,1.0304535132097952e-06,2.9465842122467955e-06,1.6921966747533294e-06,1.1239242981352356e-06,1.2982501419815793e-06,4.614728885661415e-06,1.0031916877240791e-06,9.114678067972108e-07,5.380209695778776e-07,4.826021637450672e-06
14,6.012450948152525e-07,9.9497535484882e-07,1.982900094991318e-06,1.4352024329037371e-06,1.747749062900974e-07,7.006439651920366e-07,1.0225342756127147e-06,3.128653637779457e-06,1.7318064983397806e-06,1.151160075955271e-06,1.3092733979939214e-06,4.719270062534868e-06,1.0375747190302138e-06,9.205335728190032e-07,5.629951481122499e-07,4.939155307950927e-06
15,6.184268294234047e-07,1.0105418337014188e-06,2.1818205868273872e-06,1.4339092382053966e-06,1.5062515128671325e-07,7.29575089348182e-07,1.0086327793524165e-06,3.3153823632226563e-06,1.7670414949875743e-06,1.17321877572456e-06,1.311230354899026e-06,4.8146388258473685e-06,1.068595552079491e-06,9.246278133074538e-07,5.864171747345854e-07,5.024847380585449e-06
16,6.342110060633346e-07,1.020871394999879e-06,2.3895564247888853e-06,1.4290280730026953e-06,1.2492504061829424e-07,7.564256285118935e-07,9.895661311352382e-07,3.5069603641069183e-06,1.7990605885505145e-06,1.1908409695927947e-06,1.3054478002428706e-06,4.902927700837445e-06,1.0963892819559251e-06,9.245056704852036e-07,6.0874408022529e-07,5.082234449338636e-06
17,6.486897085114824e-07,1.0265647000311847e-06,2.6064743557940076e-06,1.4231224702052824e-06,9.868314366940907e-08,7.808427565969816e-07,9.66148864213844e-07,3.702830777683536e-06,1.8288963729480378e-06,1.204785925980838e-06,1.2931472073711353e-06,4.9854049915852165e-06,1.1210857505640364e-06,9.208967373558495e-07,6.304725036785422e-07,5.111767297097202e-06
18,6.61913777201413e-07,1.0284350468057046e-06,2.832987748296004e-06,1.4185836862459536e-06,7.299028583324423e-08,8.024191834988875e-07,9.391892374537261e-07,3.9016725042467615e-06,1.8575641774899901e-06,1.2157935422126126e-06,1.2754928784004718e-06,5.062433920119965e-06,1.1428984259861634e-06,9.144309978417283e-07,6.521303679421681e-07,5.114865313338545e-06
19,6.738653532282879e-07,1.0274208507366545e-06,3.0696609093367307e-06,1.4176627186666762e-06,4.898285074252406e-08,8.208488974309461e-07,9.09496775196948e-07,4.10139225288524e-06,1.8860905481550899e-06,1.2245585574303357e-06,1.253641623918744e-06,5.133499262377349e-06,1.1620730346036904e-06,9.05637775466866e-07,6.742420069785024e-07,5.0935817720728814e-06
20,6.844490544076303e-07,1.0244754335172405e-06,3.3172681291833076e-06,1.4224694748881345e-06,2.7842505018240683e-08,8.360645205099108e-07,8.778585771165632e-07,4.299090431285995e-06,1.915402005746696e-06,1.231743492560187e-06,1.228720444964351e-06,5.19739636804868e-06,1.1787464535959951e-06,8.950169948871802e-07,6.972743453549408e-07,5.050479830505462e-06
21,6.935386866331595e-07,1.0205462996514845e-06,3.5766749516857425e-06,1.4349482552801886e-06,1.080749900738033e-08,8.48227836399597e-07,8.450181927873931e-07,4.491037213463485e-06,1.946236147866529e-06,1.23794628747116e-06,1.2017448675647383e-06,5.252528002644766e-06,1.1928575954864509e-06,8.831020887477671e-07,7.215918865395411e-07,4.988632763216692e-06
22,7.010877706203935e-07,1.0165993005828456e-06,3.84855162350162e-06,1.4569106917261056e-06,-8.227964299357083e-10,8.576064111995601e-07,8.116799545661129e-07,4.6726963613756794e-06,1.9791413673954408e-06,1.2436031709920716e-06,1.173550727577401e-06,5.29725300006749e-06,1.204181320388605e-06,8.704410541786759e-07,7.474252834936054e-07,4.91153882627209e-06
23,7.072291350260719e-07,1.0136011623362675e-06,4.133049714455975e-06,1.490150895545808e-06,-5.679541792825347e-09,8.645053869110864e-07,7.785014053817924e-07,4.8387854693457875e-06,2.0144545793062533e-06,1.248951609097e-06,1.1447813429607182e-06,5.330255829364213e-06,1.2124583306148748e-06,8.57545353565186e-07,7.748478363519011e-07,4.822808873431175e-06
24,7.122601492215339e-07,1.0124728547455138e-06,4.429603964305464e-06,1.536545907838577e-06,-2.300950095911133e-09,8.693058218058942e-07,7.460799480406467e-07,4.983565031539571e-06,2.052231564280795e-06,1.2541019006399058e-06,1.115893505728726e-06,5.350809657561588e-06,1.2175385287004236e-06,8.448712887890261e-07,8.037609764261686e-07,4.7256988813771135e-06
25,7.165246935355123e-07,1.0140411429130919e-06,4.7368759261812266e-06,1.5980480365880168e-06,1.0927260969346008e-08,8.724795926003317e-07,7.149650029828461e-07,5.101581040005295e-06,2.0922406032186e-06,1.2591455945231821e-06,1.087171920149964e-06,5.358765377967843e-06,1.2194450511698682e-06,8.328049610504644e-07,8.338969452078139e-07,4.622767444180228e-06
26,7.202953983099448e-07,1.0189836784340281e-06,5.052720059134188e-06,1.6765838861612748e-06,3.584955417820501e-08,8.745014134196789e-07,6.856576041511512e-07,5.188603064836974e-06,2.134053510419841e-06,1.2642005691606658e-06,1.0587989022780235e-06,5.354307113505094e-06,1.2183339565948943e-06,8.216252958033339e-07,8.648655853113156e-07,4.515818310101656e-06
27,7.237198509720108e-07,1.0277882509660464e-06,5.374186590335789e-06,1.773957942690574e-06,7.455767311844812e-08,8.757390226883691e-07,6.585745029503561e-07,5.242229539098717e-06,2.1771605527485088e-06,1.2693567423601788e-06,1.0309507076954648e-06,5.337747392021357e-06,1.2144297042595865e-06,8.114889116448372e-07,8.962609915345632e-07,4.406073116513072e-06
28,7.268118198327635e-07,1.040751596555191e-06,5.697593079839976e-06,1.891847302455591e-06,1.2932855795221984e-07,8.764006992717273e-07,6.340183583711964e-07,5.261919051052638e-06,2.2210500675323674e-06,1.2746330213920675e-06,1.0038242965082133e-06,5.309564907714442e-06,1.2080273628730365e-06,8.024815606863214e-07,9.277563929048034e-07,4.294540609696709e-06
29,7.294641079766035e-07,1.0579960557806125e-06,6.018512329113154e-06,2.031872893751522e-06,2.0258283152958218e-07,8.765209451899415e-07,6.121760430418727e-07,5.248529339661086e-06,2.2652026098070818e-06,1.280059068389199e-06,9.775796675972787e-07,5.270572241574802e-06,1.1995226797948084e-06,7.946925474769562e-07,9.590927955794276e-07,4.182434236687095e-06
30,7.315166257898735e-07,1.079476682944187e-06,6.33172166026592e-06,2.1956334171656455e-06,2.9693433123939135e-07,8.759658007788798e-07,5.931280728166409e-07,5.203557497437151e-06,2.308971725305653e-06,1.2858042749751849e-06,9.522810986259153e-07,5.2219437203124435e-06,1.1893629497867479e-06,7.882106921175376e-07,9.900158739639617e-07,4.071285461786622e-06
31,7.328876308581956e-07,1.1049859208214114e-06,6.631438557373055e-06,2.384610945217216e-06,4.152677020701357e-07,8.744937033977316e-07,5.768508551729766e-07,5.128429312222026e-06,2.351418691724795e-06,1.292211498770999e-06,9.279175673489035e-07,5.165051632973404e-06,1.1779357951404727e-06,7.83051794208425e-07,1.0202707944527583e-06,3.962644191116697e-06
32,7.336737542999101e-07,1.1341557136683304e-06,6.911901496014398e-06,2.599998901432296e-06,5.607592196000326e-07,8.718689603737236e-07,5.63220809718446e-07,5.0243105110412006e-06,2.391218606800224e-06,1.2997180529830015e-06,9.045128912467628e-07,5.10132251308229e-06,1.1654925953703449e-06,7.791298661505357e-07,1.0496086735275803e-06,3.85767531893667e-06
33,7.341269459157951e-07,1.1664329110004271e-06,7.1679869455182726e-06,2.8425688636206277e-06,7.368319537270308e-07,8.679298370509887e-07,5.520360981036399e-07,4.89250682582117e-06,2.4267676290681734e-06,1.3087209462064408e-06,8.822223992826229e-07,5.032232454807676e-06,1.1521309656610952e-06,7.763082819303563e-07,1.0777276020354844e-06,3.756935379635886e-06
34,7.345388606010751e-07,1.2010410905902498e-06,7.395563876104462e-06,3.1125916196443454e-06,9.470717661664261e-07,8.625642383529284e-07,5.430363256287488e-07,4.734943829527034e-06,2.4565354661183557e-06,1.3194452497048413e-06,8.612917514747137e-07,4.959260867494171e-06,1.1378177904482512e-06,7.744660672586849e-07,1.1042056619558308e-06,3.660332943630949e-06
35,7.351403078853362e-07,1.2369776920886244e-06,7.591501800308309e-06,3.409768095654693e-06,1.1951255888506763e-06,8.556971360705697e-07,5.359024080220425e-07,4.55430643633524e-06,2.4794404726201736e-06,1.3318781070829753e-06,8.419335575814206e-07,4.883615368326614e-06,1.1224315727239614e-06,7.735073612728088e-07,1.1285045265210847e-06,3.5672260084842308e-06
36,7.360859537899862e-07,1.273048099828175e-06,7.753503592604127e-06,3.733177716952378e-06,1.4846031595157633e-06,8.473579402067795e-07,5.302644320914755e-07,4.353871658708341e-06,2.494933022672834e-06,1.3457889322905687e-06,8.242757921201766e-07,4.8058981492034564e-06,1.1058086087230332e-06,7.733411905201811e-07,1.1500717451635639e-06,3.476658113940916e-06
37,7.37491294092941e-07,1.3079349847322296e-06,7.880042741539063e-06,4.0812410825446385e-06,1.8189949546754575e-06,8.377394577640087e-07,5.257455880454078e-07,4.137242410114446e-06,2.5027457539807083e-06,1.3607775451624354e-06,8.084025814544724e-07,4.72599557550581e-06,1.0877809196200653e-06,7.739106411148647e-07,1.1685124973036294e-06,3.3876519720485503e-06
38,7.394441281921771e-07,1.340379019980437e-06,7.970420736784027e-06,4.4516696867584354e-06,2.2015983256340126e-06,8.271564701356256e-07,5.220058756337008e-07,3.908129506715915e-06,2.5025520702097605e-06,1.3762880564937736e-06,7.944019624707001e-07,4.643167657837367e-06,1.0681755761459348e-06,7.752258445865564e-07,1.183691519390713e-06,3.299453820090855e-06
39,7.419940379071837e-07,1.3694669087404735e-06,8.024541785032827e-06,4.841432906698031e-06,2.6354476856832586e-06,8.159333831636756e-07,5.18734137414288e-07,3.670217322861868e-06,2.493796284917334e-06,1.391629243595966e-06,7.823814030506889e-07,4.556186383186059e-06,1.0468326878566321e-06,7.773234117776885e-07,1.1956705434940186e-06,3.2117104824752903e-06
40,7.451501108988532e-07,1.394805651000627e-06,8.042231536842122e-06,5.246739110208278e-06,3.123249946085933e-06,8.043265916215813e-07,5.15622902128135e-07,3.4270684214468034e-06,2.475776928174368e-06,1.4060566017617458e-06,7.724697739905692e-07,4.463469297887358e-06,1.0237181498061864e-06,7.802287794124073e-07,1.2045919407178086e-06,3.124580407346511e-06
41,7.488581996595295e-07,1.416389810829677e-06,8.022864994696935e-06,5.662941976969408e-06,3.6672912716120442e-06,7.92529461592677e-07,5.123927410205795e-07,3.182037842159144e-06,2.447890104917546e-06,1.418828858029106e-06,7.648023815207112e-07,4.363165976514148e-06,9.990195291009757e-07,7.840064360138178e-07,1.210647060925245e-06,3.0387195186883677e-06
42,7.529783595810551e-07,1.4342720446590448e-06,7.965975095976407e-06,6.084378427795005e-06,4.269295328741351e-06,7.806932364763344e-07,5.088533714159969e-07,2.9382036768486515e-06,2.409886408073421e-06,1.429171212522564e-06,7.594758461024307e-07,4.253212564369141e-06,9.730990650356522e-07,7.888249734475485e-07,1.2140930149041679e-06,2.9550889923384542e-06
43,7.573197712187712e-07,1.4483061726199704e-06,7.872187526106719e-06,6.504338329666896e-06,4.930317196386727e-06,7.689088892447245e-07,5.049251095168385e-07,2.698296419729114e-06,2.361997106472205e-06,1.4362489824560221e-06,7.564905890225769e-07,4.131497393685669e-06,9.463598648168991e-07,7.949302636347469e-07,1.2152094871710789e-06,2.874670779866773e-06
44,7.616933709078965e-07,1.4580841440694895e-06,7.743563037701257e-06,6.915418692559129e-06,5.65076365851282e-06,7.571984680913816e-07,5.005846671238793e-07,2.4646377775383617e-06,2.3048420381507284e-06,1.4392169363477444e-06,7.557083015953789e-07,3.996247914757138e-06,9.191459851554768e-07,8.025395087672272e-07,1.214220105279873e-06,2.798308316952848e-06
45,7.659137817576937e-07,1.4630120020549861e-06,7.5833642053823496e-06,7.310307160346338e-06,6.430448622902186e-06,7.455611360645155e-07,4.957891469710166e-07,2.2392011081260227e-06,2.239253996929393e-06,1.4373123519522978e-06,7.568426333717679e-07,3.846539918622445e-06,8.917313742131565e-07,8.117468742987518e-07,1.2112773551848752e-06,2.7267996020415376e-06
46,7.69778877499539e-07,1.4624475295688998e-06,7.395721158849083e-06,7.682704893194543e-06,7.268457587596743e-06,7.340311031002993e-07,4.90435926473409e-07,2.0238187560322227e-06,2.1663174484779926e-06,1.4300067833335125e-06,7.594740891786977e-07,3.6826829659401e-06,8.643646020288654e-07,8.224846735303619e-07,1.20650054648447e-06,2.6611083611793567e-06
47,7.731075693486236e-07,1.4558600977094669e-06,7.18541229450664e-06,8.027945014932221e-06,8.162759129827112e-06,7.22687836669067e-07,4.843795734926259e-07,1.8203272401041868e-06,2.0875637282583673e-06,1.417164450974756e-06,7.630809451712232e-07,3.5063136077064743e-06,8.373170541910148e-07,8.345153851877501e-07,1.1999941092691954e-06,2.602444360593962e-06
48,7.758338589948809e-07,1.4429877828247407e-06,6.957649419108672e-06,8.343029976347955e-06,9.109788393707842e-06,7.116158311635714e-07,4.775345535128164e-07,1.6304937217808095e-06,2.004905332788647e-06,1.3990293613449736e-06,7.670854045533205e-07,3.3202131743531176e-06,8.109221974101686e-07,8.474394653972194e-07,1.1918296409973022e-06,2.5521133461535154e-06
49,7.780502601432976e-07,1.4239501342223853e-06,6.717777927060038e-06,8.62618761002302e-06,1.0104184114723621e-05,7.008734877428967e-07,4.7002858501214686e-07,1.4558586443575095e-06,1.9202711451812717e-06,1.3760368095618573e-06,7.708858054503214e-07,3.127971596040121e-06,7.855828112802006e-07,8.607341269530851e-07,1.1820222113417071e-06,2.5112427298158394e-06
50,7.799581198511658e-07,1.3992387698463644e-06,6.471020607486171e-06,8.876326162976479e-06,1.1138593144902297e-05,6.905094100886886e-07,4.6226715968259785e-07,1.2976721292982374e-06,1.8353034821744815e-06,1.3486874100935747e-06,7.739139920822742e-07,2.933593269932509e-06,7.617158287248477e-07,8.738179659489076e-07,1.1705413427096166e-06,2.48056576441994e-06
51,7.818251740400172e-07,1.369560242364361e-06,6.222376452366373e-06,9.092697405151824e-06,1.220344436827757e-05,6.805742084119742e-07,4.5484584263763923e-07,1.1569072268035614e-06,1.751267888710769e-06,1.3175720740373442e-06,7.757885541980467e-07,2.741087367627848e-06,7.396788625323072e-07,8.860964784868118e-07,1.1573671141468548e-06,2.4603505661116836e-06
52,7.839871276114182e-07,1.3356823706779857e-06,5.976555213605002e-06,9.274749948675017e-06,1.3286736782950715e-05,6.711062165216655e-07,4.4843944924592916e-07,1.0342764910011945e-06,1.6690748402649964e-06,1.283375632725116e-06,7.76443016934958e-07,2.55411476824268e-06,7.197399979432252e-07,8.96967861489072e-07,1.14255783901557e-06,2.450410698866035e-06
53,7.868068867002559e-07,1.2984378760148145e-06,5.737756581227029e-06,9.421870154901215e-06,1.4373930998606964e-05,6.621569520334873e-07,4.4378884337282316e-07,9.302524318205107e-07,1.5893553969934883e-06,1.246786635692492e-06,7.760584302437426e-07,2.3758042048550647e-06,7.020863416354829e-07,9.058698800225054e-07,1.126295284337774e-06,2.4501128495783875e-06
54,7.906019433947148e-07,1.2587767128086727e-06,5.509325571990961e-06,9.532823092973129e-06,1.5448104331306237e-05,6.538588935153179e-07,4.4172266588891237e-07,8.451055916022578e-07,1.512606918409779e-06,1.2084500937726176e-06,7.748826747170143e-07,2.208777855058042e-06,6.868397538768045e-07,9.124172509078651e-07,1.1088838386348223e-06,2.45839585741894e-06
55,7.956248946518355e-07,1.2176922735313133e-06,5.293519594207033e-06,9.605294863411652e-06,1.649066783891766e-05,6.464434604116085e-07,4.431224981012177e-07,7.789600724809132e-07,1.439353992768732e-06,1.1690223440329535e-06,7.731359741766085e-07,2.0553010526539734e-06,6.740655080447453e-07,9.165142214657576e-07,1.0906793446585294e-06,2.4739068374451474e-06
56,8.02074349642913e-07,1.1760809971612925e-06,5.091492740576134e-06,9.636186311985219e-06,1.748291509941572e-05,6.401707240389937e-07,4.4885864356471836e-07,7.318578328273772e-07,1.3702159771201995e-06,1.1292040376820346e-06,7.710200494432066e-07,1.9174349672862746e-06,6.637755828552003e-07,9.183438473490278e-07,1.0719780990367942e-06,2.4952801087373277e-06
57,8.100782637062491e-07,1.1346793008134407e-06,4.903411576840166e-06,9.622662103640024e-06,1.8408185355650842e-05,6.352439333706628e-07,4.597496954860851e-07,7.037887365089492e-07,1.3058727934786053e-06,1.0896660177224765e-06,7.687160105977176e-07,1.7971463153616002e-06,6.5592338198088e-07,9.182664388057672e-07,1.0529761359582637e-06,2.5213484214208946e-06
58,8.196740492069563e-07,1.0940749836489763e-06,4.728677219150102e-06,9.56330832616162e-06,1.9253611671555583e-05,6.317736337527824e-07,4.765419620311992e-07,6.946657477333424e-07,1.2469895565287134e-06,1.0509345668021487e-06,7.663541544261528e-07,1.6964019958186772e-06,6.504053764825735e-07,9.16690569967623e-07,1.0338559315645871e-06,2.551070986028116e-06
59,8.308274474850798e-07,1.054713431408049e-06,4.566275284905053e-06,9.458856696643862e-06,2.0010156638699847e-05,6.297761929781336e-07,4.998921955051635e-07,7.042997115988276e-07,1.194118591117562e-06,1.0133290198840644e-06,7.640084167740139e-07,1.6172621982923344e-06,6.47088485347338e-07,9.13982526556244e-07,1.014900403323295e-06,2.583292488109545e-06
60,8.43458733318123e-07,1.0168824430989761e-06,4.4151615035761005e-06,9.312402875287586e-06,2.0670628150334875e-05,6.291813731850224e-07,5.303582588954152e-07,7.324332333345705e-07,1.1476054257330493e-06,9.7699664755178e-07,7.616974198079089e-07,1.5619304669443816e-06,6.458390013034455e-07,9.104656347918153e-07,9.96505236225894e-07,2.6165979624648293e-06
61,8.574282003211816e-07,9.807398798291416e-07,4.274547752169373e-06,9.129320245031008e-06,2.1227171434775666e-05,6.298438466605813e-07,5.68402836780573e-07,7.788183289984022e-07,1.1075644373190545e-06,9.420317492140626e-07,7.593707878664344e-07,1.5326989845742418e-06,6.4654115087738e-07,9.064838752229021e-07,9.790842410758958e-07,2.6493228281042854e-06
62,8.725055789834369e-07,9.464345133117949e-07,4.144023108944022e-06,8.91701067851762e-06,2.1670551559939117e-05,6.315653672346234e-07,6.143997991538952e-07,8.432539926957208e-07,1.0739614214440836e-06,9.085784825710051e-07,7.568995648651902e-07,1.5317906594002296e-06,6.491091145352161e-07,9.024413557365317e-07,9.629641534431602e-07,2.679661882996272e-06
63,8.883516574547659e-07,9.142491070263893e-07,4.023504299061432e-06,8.684476087205846e-06,2.1991843690280006e-05,6.341244482168022e-07,6.686366422188992e-07,9.255296022822082e-07,1.0467630906231963e-06,8.768265915210353e-07,7.540700826246573e-07,1.5612078456764286e-06,6.534956296669884e-07,8.987839587116177e-07,9.483454770206485e-07,2.705854830532552e-06
64,9.044972600123048e-07,8.846417145497632e-07,3.9130591662919724e-06,8.441670033947112e-06,2.218489418292158e-05,6.372866038995478e-07,7.313203626335649e-07,1.0253209907661058e-06,1.0260326022333426e-06,8.469424661446619e-07,7.506157689125403e-07,1.6226933139054976e-06,6.597106441846954e-07,8.959825763010843e-07,9.353054635063909e-07,2.726343292678018e-06
65,9.203377293490586e-07,8.581686348751277e-07,3.812710803082889e-06,8.198651724112884e-06,2.2248031405265125e-05,6.40824357636425e-07,8.025785902982966e-07,1.1421219587596592e-06,1.011887073145583e-06,8.190255741180017e-07,7.463299929641218e-07,1.7178137182858445e-06,6.678257533127123e-07,8.945239622904733e-07,9.237973067576976e-07,2.7397949334097426e-06
66,9.351718608358165e-07,8.353777498314764e-07,3.722330723559629e-06,7.964678430485745e-06,2.218480128562337e-05,6.445920311399604e-07,8.824409572497017e-07,1.275260470820247e-06,1.00437605353902e-06,7.931083395919212e-07,7.411781134586602e-07,1.8481038434808943e-06,6.779526343953607e-07,8.948566438608855e-07,9.136652084152188e-07,2.7450994541463475e-06
67,9.482651397787903e-07,8.167459831323972e-07,3.641636291874893e-06,7.747503631955474e-06,2.200385286659512e-05,6.485920014531777e-07,9.708186023978993e-07,1.4240274827737781e-06,1.00338640108608e-06,7.691958679569245e-07,7.353120159600643e-07,2.0151518259735338e-06,6.902230140794423e-07,8.973314716703376e-07,9.04719417377573e-07,2.7414635215839115e-06
68,9.589303744213503e-07,8.026569963874534e-07,3.570227285918764e-06,7.553058106241809e-06,2.1717984965973718e-05,6.529612635243835e-07,1.0675194762597205e-06,1.5878660722996934e-06,1.008603739025193e-06,7.473483193000378e-07,7.290241137184702e-07,2.220527994932581e-06,7.047665533173143e-07,9.021950033369765e-07,8.968482220887854e-07,2.728503954398141e-06
69,9.66655355890907e-07,7.933793632360772e-07,3.507609891127234e-06,7.385410294945311e-06,2.1342417142427964e-05,6.579050687946774e-07,1.1722848951750789e-06,1.766445814279597e-06,1.0195185647479059e-06,7.277364448354666e-07,7.22694582977124e-07,2.4655895245591924e-06,7.216799642563006e-07,9.096269463189665e-07,8.900481276723673e-07,2.706206699109306e-06
70,9.712443143086822e-07,7.890422195827388e-07,3.4532288514967653e-06,7.246857110049801e-06,2.0892479124191628e-05,6.636257458633431e-07,1.2847858187594895e-06,1.959521393581386e-06,1.0354984511430163e-06,7.105955152036368e-07,7.167320223074567e-07,2.7513047950257874e-06,7.409939620988901e-07,9.198243743118254e-07,8.843429926744117e-07,2.674842176411252e-06
71,9.728451776029478e-07,7.896324725949059e-07,3.4065652652313114e-06,7.13821902901414e-06,2.0381444660883323e-05,6.70277129170039e-07,1.4046023575286795e-06,2.166712084955406e-06,1.055898242277368e-06,6.961336994549642e-07,7.115205651253072e-07,3.078216340521054e-06,7.62643731603786e-07,9.330892319036544e-07,8.79739168962596e-07,2.635030863731328e-06
72,9.718072322328224e-07,7.950158493016216e-07,3.3672883211949377e-06,7.059468898625582e-06,1.9819729372065404e-05,6.779641660338544e-07,1.5312452656286323e-06,2.3874110385445353e-06,1.0800983078079766e-06,6.844827095746954e-07,7.073836007244e-07,3.4464994773985888e-06,7.864599675313364e-07,9.498047384738059e-07,8.762614958362375e-07,2.5879678939685427e-06
73,9.685206986028554e-07,8.049543265250329e-07,3.3353312330355696e-06,7.0105610952425465e-06,1.9215806812876015e-05,6.8676071243814e-07,1.6641681593409182e-06,2.6208415284303193e-06,1.1074933595644434e-06,6.756834447031646e-07,7.045624542028718e-07,3.855968376748935e-06,8.121694315934378e-07,9.703079786789558e-07,8.739485551425283e-07,2.535559296360082e-06
74,9.633871598991236e-07,8.190920612221293e-07,3.310748942105558e-06,6.992073836933318e-06,1.857777588496054e-05,6.96713294788296e-07,1.8027386930186428e-06,2.8660825620509952e-06,1.1375447457592472e-06,6.696763795550568e-07,7.032081236022369e-07,4.305950851829481e-06,8.393737389576742e-07,9.948043419552907e-07,8.727914341331838e-07,2.4802443673174316e-06
75,9.568521116913647e-07,8.369364557590836e-07,3.293388798481602e-06,7.005354036222208e-06,1.7914494697140512e-05,7.078551852458347e-07,1.94625558467947e-06,3.1219901096349168e-06,1.1698358810717221e-06,6.663036743414539e-07,7.033682535882989e-07,4.795066833835895e-06,8.675251023689404e-07,1.023388837107203e-06,8.726990610471564e-07,2.424575581697398e-06
76,9.493846125321789e-07,8.578908883157702e-07,3.282612437308284e-06,7.052161913483261e-06,1.723607501597098e-05,7.202376297052897e-07,2.0940648260310286e-06,3.3871924244032444e-06,1.2040213623487559e-06,6.653421174033264e-07,7.049753324752271e-07,5.3210117929297635e-06,8.959532270176518e-07,1.0561016998349126e-06,8.735031077225845e-07,2.370820083446458e-06
77,9.414121905062394e-07,8.813364602817657e-07,3.277263230832676e-06,7.134035347750185e-06,1.6553907622986045e-05,7.339370591761422e-07,2.2456880333151645e-06,3.660249495039842e-06,1.2397025048804894e-06,6.665664561813927e-07,7.078575777458458e-07,5.880480299742097e-06,9.239480663752875e-07,1.092948453689889e-06,8.749715912478e-07,2.3207525596422456e-06
78,9.332666850305827e-07,9.067030604891765e-07,3.2758369873372666e-06,7.251631770453703e-06,1.5880305405752686e-05,7.490385498338319e-07,2.400802951409758e-06,3.939744430357977e-06,1.276312625197447e-06,6.697910238721128e-07,7.117538236229124e-07,6.469303849050923e-06,9.50832919984493e-07,1.1338776420656142e-06,8.768246032258426e-07,2.2756321898075265e-06
79,9.251761604133015e-07,9.334790595400984e-07,3.2766995217386498e-06,7.404243067493965e-06,1.522782176750869e-05,7.656282965042319e-07,2.5590229656672754e-06,4.224103759544965e-06,1.313077049301135e-06,6.748480267512858e-07,7.163159480383483e-07,7.082698918347369e-06,9.759730262568403e-07,1.1787265521727733e-06,8.787761829798278e-07,2.236286416230276e-06
80,9.173085452776279e-07,9.6115465473198e-07,3.278221167950065e-06,7.589558777437055e-06,1.4608396982134258e-05,7.837944434267936e-07,2.7196264516408174e-06,4.511298539269084e-06,1.3490921541609956e-06,6.815640150593916e-07,7.211201960253825e-07,7.715389686724175e-06,9.987507822815644e-07,1.2271665320686169e-06,8.805786731664589e-07,2.2032078748866266e-06
81,9.098365341291445e-07,9.891493059487313e-07,3.278776020521155e-06,7.803666387736424e-06,1.4032521895534785e-05,8.036315081827175e-07,2.881427390031188e-06,4.798740059713549e-06,1.3834785852547478e-06,6.898028148604776e-07,7.257067712734936e-07,8.361413063005533e-06,1.0185899440935237e-06,1.2787056403699985e-06,8.820205104755234e-07,2.176592010448585e-06
82,9.029851811120879e-07,1.016801115777179e-06,3.276699841410822e-06,8.041302646080905e-06,1.3508542026925447e-05,8.252610688496218e-07,3.0428301379407066e-06,5.083459012526117e-06,1.4154638644819112e-06,6.995148684119321e-07,7.296541035877778e-07,9.01367030316685e-06,1.0350321398085508e-06,1.3327505333700473e-06,8.829337575316116e-07,2.1563430605344735e-06
83,8.970431730715272e-07,1.043443749513782e-06,3.270384907570044e-06,8.296351737932602e-06,1.3042154363217243e-05,8.488436667941591e-07,3.2019460891041423e-06,5.362386073350894e-06,1.4443493931639828e-06,7.107082630255027e-07,7.326735919483316e-07,9.66365209259129e-06,1.047750558274228e-06,1.388653214601792e-06,8.832505702517505e-07,2.1420882149608556e-06
84,8.923287299225033e-07,1.068506668861384e-06,3.2585783502888705e-06,8.562492009306683e-06,1.263614243215013e-05,8.745307357823139e-07,3.3565930076515216e-06,5.63254729996699e-06,1.4695112016600766e-06,7.233828479696355e-07,7.346547125366087e-07,1.0301719388059309e-05,1.0564488448346899e-06,1.4456940133321972e-06,8.830212749233728e-07,2.1331476093783325e-06
85,8.89116251262939e-07,1.0915410126138483e-06,3.2407462315027185e-06,8.833892202340252e-06,1.2290388385814868e-05,9.023785350428272e-07,3.5041808321651254e-06,5.8910600535897425e-06,1.490518888126598e-06,7.375039976160624e-07,7.356098659671275e-07,1.0917738087288176e-05,1.0607975854536834e-06,1.5030172457157403e-06,8.82354158714717e-07,2.1284623645992384e-06
86,8.875648257453481e-07,1.1121616381790133e-06,3.217237011594395e-06,9.105869086404829e-06,1.2002049352086316e-05,9.322998519648939e-07,3.641722644146499e-06,6.134862804190967e-06,1.5072447705435744e-06,7.529973227777305e-07,7.356098137555323e-07,1.1501470096953329e-05,1.0605767581195003e-06,1.5595725797913723e-06,8.813511956653943e-07,2.1266110071158524e-06
87,8.876865408369597e-07,1.1300422591530034e-06,3.1890458387079717e-06,9.375327765016777e-06,1.1765699473600636e-05,9.640628079716149e-07,3.766120502211082e-06,6.360390294403563e-06,1.519822014380695e-06,7.69731214069569e-07,7.348051884259189e-07,1.20422969514543e-05,1.0559204752598726e-06,1.614167549552228e-06,8.800899409068754e-07,2.1259967207533105e-06
88,8.893496100550372e-07,1.1450303175524449e-06,3.15731905593734e-06,9.640798051787912e-06,1.1573562141512546e-05,9.972945069778529e-07,3.87460230314214e-06,6.56366142308394e-06,1.52851151318804e-06,7.875161990496723e-07,7.334490372775029e-07,1.2528425836638407e-05,1.047380185326163e-06,1.665691280993597e-06,8.786283901560378e-07,2.125118027646545e-06
89,8.923222184784344e-07,1.1572183714845744e-06,3.1230167284673035e-06,9.902063070355495e-06,1.1416273280419933e-05,1.0314933165882797e-06,3.9650976913976105e-06,6.740913717357197e-06,1.533645795989394e-06,8.061526031755344e-07,7.318361291361702e-07,1.29464686809284e-05,1.0357335388596457e-06,1.7133551391754931e-06,8.770498289116375e-07,2.122750299342183e-06
90,8.963823295649769e-07,1.1668389643530354e-06,3.0869032624342e-06,1.0159553525437197e-05,1.1284270380380151e-05,1.0660678133885152e-06,4.036444776799757e-06,6.889401442177845e-06,1.5356397280157174e-06,8.255216963678926e-07,7.302384672523755e-07,1.3282424088443707e-05,1.021751482985002e-06,1.7567163409658073e-06,8.755517196829357e-07,2.1179658424381967e-06
91,9.014258237058096e-07,1.1740847447013272e-06,3.0496372744761535e-06,1.0413674310223263e-05,1.116919409468697e-05,1.1003712731258108e-06,4.088415718233251e-06,7.007981181635367e-06,1.53494985806271e-06,8.456800919164626e-07,7.288910586864826e-07,1.3524106659534921e-05,1.006101652285664e-06,1.7954939730807642e-06,8.74467881365243e-07,2.1100716525361913e-06
92,9.074620527832521e-07,1.1790375331712613e-06,3.0117693098445813e-06,1.0664092542931434e-05,1.1064440870510134e-05,1.133718870731689e-06,4.1215522537215035e-06,7.097326666856299e-06,1.532009927871174e-06,8.668839631543661e-07,7.27978309603765e-07,1.3663739556096331e-05,9.893448098009584e-07,1.8294113532481135e-06,8.742076754539791e-07,2.098584244155839e-06
93,9.145419586021874e-07,1.1817457662746664e-06,2.973664733072769e-06,1.0909019030751914e-05,1.0964520076034302e-05,1.1654307426330045e-06,4.136811604880847e-06,7.159623202792328e-06,1.5272280481006945e-06,8.894952334052992e-07,7.276133990517283e-07,1.3698940227786605e-05,9.719127070687194e-07,1.8581783652863217e-06,8.751994084828614e-07,2.0832934906255604e-06
94,9.227237436781617e-07,1.1823112997602236e-06,2.9353952344521946e-06,1.1144785675075797e-05,1.0863725856332479e-05,1.194917639684799e-06,4.135101643082029e-06,7.197703084333009e-06,1.521065263481259e-06,9.138387567286682e-07,7.278410840761145e-07,1.363125585739984e-05,9.540803422300922e-07,1.8814851203179774e-06,8.778480619773451e-07,2.064319044345015e-06
95,9.320403720871553e-07,1.1808717616864024e-06,2.8966204252477324e-06,1.1366057280615925e-05,1.0755151300620158e-05,1.221767845257863e-06,4.116893423862736e-06,7.214030977723908e-06,1.5141337385289988e-06,9.401112723823355e-07,7.286471096577081e-07,1.3463442415401627e-05,9.360101456878097e-07,1.898885401593574e-06,8.825103621269217e-07,2.042029338523031e-06
96,9.424305839843926e-07,1.177511177221481e-06,2.8565477089349727e-06,1.1566538189154874e-05,1.0630845443597031e-05,1.2457993766256264e-06,4.082198164464843e-06,7.210202581014841e-06,1.5071775959156827e-06,9.683360771004187e-07,7.299444569891991e-07,1.3198081408746687e-05,9.178406104098516e-07,1.9096650615664862e-06,8.894867236048223e-07,2.016937475293592e-06
97,9.536912713311688e-07,1.1721845737121565e-06,2.8140831532179857e-06,1.173968230491515e-05,1.048300968311153e-05,1.2670777508026868e-06,4.03099993676899e-06,7.187161918823349e-06,1.5009123002225577e-06,9.983288483615258e-07,7.315647889298223e-07,1.2838718352369193e-05,8.997185814075192e-07,1.9128778172164163e-06,8.990078579466919e-07,1.98976594214881e-06
98,9.654631641740163e-07,1.1647458527878744e-06,2.768137443784751e-06,1.1879102674979276e-05,1.030536483350957e-05,1.2858908472708195e-06,3.963767889065019e-06,7.14574929694598e-06,1.4958728597299864e-06,1.029689735330995e-06,7.33311203195302e-07,1.2391893693631064e-05,8.817807853303241e-07,1.907583954541271e-06,9.112367227371289e-07,1.961535325961765e-06
99,9.772229455025388e-07,1.1551017573455756e-06,2.717906480741993e-06,1.197877894551485e-05,1.0094010823406397e-05,1.3026476271944539e-06,3.881637133331348e-06,7.087166098360592e-06,1.4923720569201636e-06,1.0618569405414101e-06,7.35037243151426e-07,1.1867948558121993e-05,8.641879340202567e-07,1.8931684432483398e-06,9.262922376488581e-07,1.933427068909903e-06
100,9.883209136295976e-07,1.143346510742531e-06,2.6629723205605644e-06,1.2033377333181678e-05,9.847744759590898e-06,1.317717468499371e-06,3.78630927565026e-06,7.013143743626867e-06,1.4905656212509277e-06,1.0942307144921105e-06,7.366523865564861e-07,1.1280218432269761e-05,8.472083880427262e-07,1.8695724623145382e-06,9.442598739502782e-07,1.9065096837988155e-06
101,9.981035253957287e-07,1.1297254308175895e-06,2.603164896425854e-06,1.2038895198009199e-05,9.56799897394555e-06,1.3313161057767425e-06,3.6799329283285286e-06,6.925674666603237e-06,1.4906168670803994e-06,1.1262932375575766e-06,7.380618699852089e-07,1.0643520583163474e-05,8.312288537943655e-07,1.8373112057373677e-06,9.651661889221328e-07,1.8815716027961837e-06
102,1.0060580520652203e-06,1.114491409982995e-06,2.538285602229098e-06,1.1993531557384279e-05,9.258428683144462e-06,1.3435175512322195e-06,3.564988835390729e-06,6.8264748196052356e-06,1.4928805076442427e-06,1.1576206380711017e-06,7.391284309235618e-07,9.972841804244281e-06,8.166627919203947e-07,1.7972726110743716e-06,9.8892362391141e-07,1.8591286992441788e-06
103,1.0118596249546778e-06,1.0978345903180581e-06,2.4680026008559556e-06,1.189836909574123e-05,8.924227436299053e-06,1.3543437601094036e-06,3.4440395626231093e-06,6.716769046315826e-06,1.4979491724743992e-06,1.187785724488562e-06,7.396646690011477e-07,9.28247475112954e-06,8.038683688049221e-07,1.750476669709556e-06,1.0152797416979136e-06,1.8395337062886949e-06
104,1.0152907273068125e-06,1.0799286612805953e-06,2.392095354102218e-06,1.1757396082724181e-05,8.571413448210128e-06,1.3638440590678918e-06,3.319402941548474e-06,6.597564489413749e-06,1.506528253930506e-06,1.216268614053307e-06,7.394413944683694e-07,8.585417607242747e-06,7.931330017140273e-07,1.6979842688228463e-06,1.0438051306778805e-06,1.8230672447210456e-06
105,1.016169403441002e-06,1.0609693401873506e-06,2.310784773763926e-06,1.1576759975240668e-05,8.206260471855607e-06,1.3721398302348198e-06,3.1929675325185376e-06,6.46975256005712e-06,1.5192518612357038e-06,1.242486802484157e-06,7.382509220502205e-07,7.892970946620547e-06,7.846682410003143e-07,1.640910103191008e-06,1.0739241594088184e-06,1.8099430583644092e-06
106,1.0144076722746484e-06,1.0411356868626964e-06,2.2248020976948666e-06,1.1363644402748902e-05,7.834788598118787e-06,1.3794465064453894e-06,3.066173587169822e-06,6.333710972698632e-06,1.5365413770927117e-06,1.2659238299096835e-06,7.360195538754895e-07,7.214630031938046e-06,7.78602667925536e-07,1.5804099589335233e-06,1.1049642625966013e-06,1.800298721535899e-06
107,1.0101095223976092e-06,1.0205683627614352e-06,2.1352083818838223e-06,1.112527858524388e-05,7.462213477875419e-06,1.3860668598681405e-06,2.9400808361535315e-06,6.189029167653968e-06,1.5585489935200453e-06,1.2862404197229719e-06,7.328910372215645e-07,6.5582343701432825e-06,7.750038830643989e-07,1.5176405212480775e-06,1.1361666964878733e-06,1.7942113914940991e-06
108,1.0035579695417006e-06,9.994237066111454e-07,2.0432286018612145e-06,1.0868246152401979e-05,7.092561937400591e-06,1.3923298986855792e-06,2.81556006628425e-06,6.034904628295682e-06,1.58517597740278e-06,1.303297194433623e-06,7.292078999687719e-07,5.9302148389459895e-06,7.738922297547737e-07,1.4537132033589318e-06,1.1666321494925997e-06,1.7916962044755564e-06
109,9.950966457105162e-07,9.779097415523132e-07,1.9502304392015265e-06,1.059791528229643e-05,6.728688160950999e-06,1.3984732391569629e-06,2.69350745955983e-06,5.8709554854469755e-06,1.6161179994877282e-06,1.3170808341845365e-06,7.253931135776168e-07,5.335843468101034e-06,7.752062123666708e-07,1.389640795391073e-06,1.195285004583511e-06,1.7927427782319775e-06
110,9.850367993157737e-07,9.562324006563934e-07,1.857711390934327e-06,1.0317894706580192e-05,6.372532854694284e-06,1.4045197508465856e-06,2.5748403769708254e-06,5.697923900360564e-06,1.6509363872979651e-06,1.3275662413614711e-06,7.218274284305304e-07,4.779429300723217e-06,7.787566506817611e-07,1.3263198939079888e-06,1.2209707004095545e-06,1.797431682962606e-06
111,9.73679098406275e-07,9.34509323972298e-07,1.7671640611870297e-06,1.0029787772685663e-05,6.025360080539981e-06,1.4102143705891486e-06,2.460327839435648e-06,5.518020824046382e-06,1.6891699425558949e-06,1.3346325012189376e-06,7.187973393707805e-07,4.264400449424646e-06,7.842149621137145e-07,1.2645548913832577e-06,1.242689964575525e-06,1.8060155344046081e-06
112,9.613773315084572e-07,9.127627341932206e-07,1.6799002144960284e-06,9.733504194221375e-06,5.687915905214927e-06,1.4150556459027662e-06,2.3505193380253575e-06,5.334884291685467e-06,1.73040261671336e-06,1.3381095015838871e-06,7.165013260560138e-07,3.793282244473499e-06,7.911316583753194e-07,1.2050531666205004e-06,1.2598370996668042e-06,1.8188947734283084e-06
113,9.485272983329275e-07,8.910462979855582e-07,1.5969535781425902e-06,9.427946233743003e-06,5.36051827564794e-06,1.4184111481223533e-06,2.245784598199714e-06,5.153217289475406e-06,1.7742329487203492e-06,1.3378665333207834e-06,7.150774477697462e-07,3.3676632005857774e-06,7.989595240472314e-07,1.1483721907661515e-06,1.2722957774527771e-06,1.836543592983533e-06
114,9.355252191775831e-07,8.696240234481603e-07,1.5190682883175772e-06,9.111712060778738e-06,5.043117595828888e-06,1.419658562969714e-06,2.146288904134625e-06,4.978260329662341e-06,1.8202591875125964e-06,1.3338639334992236e-06,7.146081788735263e-07,2.9882278779304516e-06,8.070636381848607e-07,1.0948929972086615e-06,1.2803572681262374e-06,1.859424305602782e-06
115,9.227953160532158e-07,8.490512202511811e-07,1.4467613880924712e-06,8.783631922536876e-06,4.735449370866563e-06,1.4182870829538544e-06,2.0519005606601924e-06,4.815283386355956e-06,1.8681219725098558e-06,1.3261970685836394e-06,7.150938414409024e-07,2.654853039278217e-06,8.147522173641425e-07,1.04487433874447e-06,1.2845215740047182e-06,1.887942253773435e-06
116,9.10823499269973e-07,8.30091932332123e-07,1.3804445533861556e-06,8.443095248840663e-06,4.437322668447776e-06,1.4139411296578415e-06,1.9621754719687767e-06,4.669203333056589e-06,1.9174908147999695e-06,1.3151447909488497e-06,7.164410135802154e-07,2.3667143893660844e-06,8.214050424869997e-07,9.985301265442727e-07,1.2852798391313693e-06,1.9224783228279283e-06
117,9.001026558207359e-07,8.135467137589334e-07,1.3205159322882014e-06,8.090200528771043e-06,4.14891315422867e-06,1.4064262342579328e-06,1.8764443066507766e-06,4.544335008949412e-06,1.968000550837514e-06,1.3011829928922097e-06,7.184704402647332e-07,2.1223696706877684e-06,8.266334173930614e-07,9.560317915449313e-07,1.2829916619637973e-06,1.9633849790421568e-06
118,8.910618411654499e-07,8.001223433148879e-07,1.267361635016692e-06,7.725786252829643e-06,3.870882256324434e-06,1.3956742600204855e-06,1.7938763930970716e-06,4.444244285423941e-06,2.019222835223584e-06,1.284930905657037e-06,7.209327136836928e-07,1.919850353916114e-06,8.30285732546173e-07,9.174403507484799e-07,1.2779147380323871e-06,2.0108624606504945e-06
119,8.840616890524275e-07,7.903897822734601e-07,1.2213094064143407e-06,7.35137946717548e-06,3.6042418358573917e-06,1.3816828023368264e-06,1.7134978218231848e-06,4.371715637674766e-06,2.0706416610418675e-06,1.2670374598728867e-06,7.235669656183266e-07,1.7568141038790007e-06,8.323319998775769e-07,8.826708191227009e-07,1.2702914923732806e-06,2.0648031305447907e-06
120,8.79399414542646e-07,7.847746519324749e-07,1.1825786320949506e-06,6.969098125205027e-06,3.350041249188348e-06,1.3645258206369327e-06,1.6343547741993916e-06,4.328896367302034e-06,2.1215803634558094e-06,1.2480602999631733e-06,7.262016321041984e-07,1.6307014082312187e-06,8.327948985780372e-07,8.515639368992761e-07,1.2603442209802555e-06,2.124689828763392e-06
121,8.772790016854071e-07,7.835421721557425e-07,1.1512246006865259e-06,6.581559647777829e-06,3.109077600407612e-06,1.3444189745871569e-06,1.5558898291146892e-06,4.317543339505472e-06,2.1711039272580713e-06,1.228396743342622e-06,7.28820816452062e-07,1.5388093024237541e-06,8.317290361710787e-07,8.24018103557212e-07,1.248196334923201e-06,2.1895624516896674e-06
122,8.777870311264898e-07,7.867904530377262e-07,1.1270864523133687e-06,6.191818489689107e-06,2.881787785611048e-06,1.3216620770755602e-06,1.4782310671045383e-06,4.3391560010697894e-06,2.2179825890463933e-06,1.2082987578921955e-06,7.315345534298199e-07,1.4783029530134478e-06,8.292444183984275e-07,8.000474903017232e-07,1.2338426392420015e-06,2.2580933795892527e-06
123,8.808842341717823e-07,7.944548989010605e-07,1.1097765050339626e-06,5.803287973300821e-06,2.6683022971819674e-06,1.2964706384959384e-06,1.4021000238067682e-06,4.394933366053261e-06,2.260777793352902e-06,1.1879454647502108e-06,7.344926233153441e-07,1.4461894547694158e-06,8.25595573219908e-07,7.797271527438953e-07,1.2172065043926481e-06,2.328843726806205e-06
124,8.863873325162309e-07,8.063060089159246e-07,1.0987361183029414e-06,5.419582338529054e-06,2.468542426538058e-06,1.2689085595528695e-06,1.3284434115873582e-06,4.485667192160424e-06,2.2980086047785767e-06,1.1674739517434225e-06,7.378223358719963e-07,1.439261671058498e-06,8.212101351782819e-07,7.631069695419697e-07,1.198259245324765e-06,2.4006441704597105e-06
125,8.939582223647177e-07,8.219414526458622e-07,1.093345371799128e-06,5.0442948654297714e-06,2.2822883364749595e-06,1.2389968036567212e-06,1.2581046447769482e-06,4.611627328408315e-06,2.32832910987184e-06,1.146946398761528e-06,7.415923460710471e-07,1.4541072939958336e-06,8.166030863961678e-07,7.501444138117058e-07,1.177141617479479e-06,2.4728548350542324e-06
126,9.031531192805393e-07,8.407981365061584e-07,1.0930146447828045e-06,4.680818306310137e-06,2.109212079314123e-06,1.2068968160194135e-06,1.1916894574119834e-06,4.772408938661894e-06,2.3506668267446546e-06,1.1263684865392434e-06,7.457742460997834e-07,1.4872803594171495e-06,8.122967642930773e-07,7.40668159944921e-07,1.1541888483218904e-06,2.5453068365284446e-06
127,9.135345356785567e-07,8.621904663339712e-07,1.0971889076001143e-06,4.332279447401384e-06,1.9488975796576693e-06,1.1730388704426294e-06,1.1295680261116514e-06,4.96673893002415e-06,2.3642765475875424e-06,1.105767348097473e-06,7.502321591623175e-07,1.5355291252974996e-06,8.087755498074169e-07,7.343723286878211e-07,1.1298314806390305e-06,2.6180337460890774e-06
128,9.247462748128891e-07,8.853478933293012e-07,1.1053474051830698e-06,4.001532993406153e-06,1.8008695655929216e-06,1.1381099583519416e-06,1.071916309320239e-06,5.192319362385521e-06,2.368660037770491e-06,1.0851986460186622e-06,7.547568624597212e-07,1.5958417001482372e-06,8.064302758657218e-07,7.308136116375573e-07,1.1044461994564505e-06,2.6910831615677558e-06
129,9.364722680352457e-07,9.094684505913184e-07,1.117099630086877e-06,3.6911092027804848e-06,1.664633962297351e-06,1.1029126541449108e-06,1.018769473286428e-06,5.4457559308460915e-06,2.3633869782016604e-06,1.0647056964194374e-06,7.591100206917054e-07,1.6653270719103692e-06,8.055413186130817e-07,7.294272151710712e-07,1.0782698964144625e-06,2.7644908950085005e-06
130,9.483643356718257e-07,9.33833173427009e-07,1.1322474408879633e-06,3.4030853127265935e-06,1.5397039291895355e-06,1.068197062950995e-06,9.701025946542234e-07,5.722501398426251e-06,2.34811777563771e-06,1.0443784708539582e-06,7.63063155863753e-07,1.7411303834000983e-06,8.063296123711481e-07,7.296302034257707e-07,1.0514582160188364e-06,2.8382451284498376e-06
131,9.600642426720753e-07,9.579186730322663e-07,1.1506696921561853e-06,3.1389357656458666e-06,1.4255727425945428e-06,1.0345727865982485e-06,9.258941278356324e-07,6.0167549124633665e-06,2.323006818884085e-06,1.0244737344898407e-06,7.664202862860406e-07,1.8204098096760702e-06,8.090021446202837e-07,7.309996486650857e-07,1.0242144738473986e-06,2.912164715446306e-06
132,9.71291715972782e-07,9.813918210569692e-07,1.1721574808824693e-06,2.8994327283128337e-06,1.3216559295171402e-06,1.002545807586566e-06,8.860997724985241e-07,6.321346562661818e-06,2.2890585336760446e-06,1.0054250671276687e-06,7.690167741922042e-07,1.9004572719230323e-06,8.137504197813635e-07,7.333649084109063e-07,9.968212863127716e-07,2.985811001651689e-06
133,9.818753436381916e-07,1.0040160539057507e-06,1.1963967748348226e-06,2.6846348035900815e-06,1.2272850502153283e-06,9.726157342845272e-07,8.505685762059998e-07,6.6276717125681134e-06,2.247989414307594e-06,9.877311787529531e-07,7.707377230786812e-07,1.97905775837216e-06,8.207409932935426e-07,7.367030577964373e-07,9.695780680887223e-07,3.058493631826648e-06
134,9.91674778399358e-07,1.0256076537495836e-06,1.2230614618093354e-06,2.493948660969401e-06,1.1417444313114067e-06,9.453093724384522e-07,8.189904034966361e-07,6.925803351240055e-06,2.2017707501864e-06,9.718420482985512e-07,7.715544950925201e-07,2.054781347102172e-06,8.301099463971338e-07,7.409642926301885e-07,9.427725890847241e-07,3.1293001243260262e-06
135,1.0004552087288398e-06,1.0460454063570722e-06,1.2518409501418856e-06,2.3262338960784585e-06,1.0642600960558595e-06,9.211468071577704e-07,7.909079266634014e-07,7.204988976242673e-06,2.1522728424368696e-06,9.581056551543447e-07,7.715155599946821e-07,2.1269177142636966e-06,8.419276319631344e-07,7.460012635594053e-07,9.166857610350036e-07,3.197101720911215e-06
136,1.0078158439764747e-06,1.0652286836741956e-06,1.2823790205259386e-06,2.1799255763840495e-06,9.939529421338336e-07,9.006191917777414e-07,7.657915068277005e-07,7.454667039701765e-06,2.1011398125441887e-06,9.467990433756315e-07,7.707360727754675e-07,2.195221932671541e-06,8.561392127664145e-07,7.51591101668347e-07,8.915587580137698e-07,3.2605179858289673e-06
137,1.0132189340819394e-06,1.0830205531542233e-06,1.3142348351472917e-06,2.053107454365024e-06,9.298642327257953e-07,8.841593748931961e-07,7.431594037938858e-07,7.665867965424601e-06,2.0497444177698764e-06,9.382177213067519e-07,7.694645553871947e-07,2.2597146646661173e-06,8.725314013030513e-07,7.574581264441353e-07,8.675350534447237e-07,3.3178205316106225e-06
138,1.0160909199983313e-06,1.0992664396839773e-06,1.3469341403452622e-06,1.9435026318119603e-06,8.711025803747744e-07,8.720788550231237e-07,7.226695634661919e-07,7.832542348672901e-06,1.9991011794773494e-06,9.326921157141111e-07,7.68134586662331e-07,2.3205830526782347e-06,8.907534941996456e-07,7.63276629498666e-07,8.446464295316969e-07,3.3668911481805603e-06
139,1.0159532178955488e-06,1.1138423557244965e-06,1.3800965455259827e-06,1.8484853333114824e-06,8.170353457709522e-07,8.645297108798943e-07,7.041104602569632e-07,7.952235999819413e-06,1.949774659478604e-06,9.304854156896149e-07,7.672926315653319e-07,2.378172008856258e-06,9.103626262493855e-07,7.686944084315952e-07,8.228817317507793e-07,3.4054185891422025e-06
140,1.0125404461143795e-06,1.1266701665725383e-06,1.4135139233910547e-06,1.7652308858896215e-06,7.673652303549835e-07,8.615130710586032e-07,6.873434268231881e-07,8.02578808940715e-06,1.9018437921967528e-06,9.316909666138005e-07,7.674786108897099e-07,2.4330151176725403e-06,9.308431905488171e-07,7.734261311578291e-07,8.022732145096183e-07,3.4313006613852067e-06
141,1.0058326869395511e-06,1.1377100880238453e-06,1.4471012391172847e-06,1.6909723795442037e-06,7.220307928482052e-07,8.628881596843672e-07,6.722990581295324e-07,8.056197905609068e-06,1.8549382515794639e-06,9.361978903284829e-07,7.691735024371889e-07,2.4857882444399465e-06,9.515990940874212e-07,7.773651714859547e-07,7.829216013746757e-07,3.4430502250791407e-06
142,9.959535746599717e-07,1.14694939660612e-06,1.4808345676190443e-06,1.6232330554679547e-06,6.810752791375378e-07,8.683603491912688e-07,6.589957823092781e-07,8.047164726201796e-06,1.808400273290943e-06,9.436938565841972e-07,7.728041937273066e-07,2.5371327730561867e-06,9.719563999512327e-07,7.805660104887187e-07,7.650028515947042e-07,3.4400789874533155e-06
143,9.830064737568782e-07,1.154397152505265e-06,1.5147199666976569e-06,1.5599648621937079e-06,6.446006487999485e-07,8.774738001582266e-07,6.475035679211219e-07,8.002005432742967e-06,1.7616008175549712e-06,9.536860373323426e-07,7.78755534524994e-07,2.587420589135007e-06,9.911775351053125e-07,7.830897558722992e-07,7.488017801392409e-07,3.4228072960437987e-06
144,9.669900424335012e-07,1.1600716789636712e-06,1.5487043304780768e-06,1.4996418875732884e-06,6.127625076129913e-07,8.896334049698408e-07,6.378910832539317e-07,7.923474998812825e-06,1.7142580364830395e-06,9.655332609745231e-07,7.873768313502142e-07,2.6365910075481993e-06,1.0084590624640903e-06,7.848820948483693e-07,7.347106913142652e-07,3.392573599409269e-06
145,9.478541300746444e-07,1.1639572424358773e-06,1.5825595729907513e-06,1.441353042658971e-06,5.857739345678536e-07,9.041690069668787e-07,6.302075701316497e-07,7.814280748987689e-06,1.6665573654942493e-06,9.78478515257877e-07,7.989740257755313e-07,2.684152404805184e-06,1.022948306538288e-06,7.857980899435546e-07,7.231482098097852e-07,3.3513993286932506e-06
146,9.256379177340291e-07,1.1659848211529486e-06,1.6158078257021162e-06,1.384811515121877e-06,5.639017058092327e-07,9.204672260626397e-07,6.244994268976939e-07,7.677610562373805e-06,1.6190632439990902e-06,9.91716831723223e-07,8.137873275441686e-07,2.729336304140051e-06,1.0338435216102402e-06,7.857146115894494e-07,7.144532006464855e-07,3.301715764079985e-06
147,9.005802410908914e-07,1.1661181599701255e-06,1.6476748265128294e-06,1.3301718371892388e-06,5.474127485675572e-07,9.381460387126715e-07,6.208587982683941e-07,7.51734388747362e-06,1.5725407708505186e-06,1.0045326196531394e-06,8.319638861821925e-07,2.7712923514458294e-06,1.040543615532412e-06,7.845892247624469e-07,7.088293561075939e-07,3.2460976018018342e-06
148,8.731195359827393e-07,1.164478848993354e-06,1.6771033826603155e-06,1.2777231339394957e-06,5.365059944645538e-07,9.571274625276208e-07,6.19455515070195e-07,7.3380708778388195e-06,1.5277738494759265e-06,1.0164220530013732e-06,8.535270135976909e-07,2.809174527555888e-06,1.0427647009528778e-06,7.824522116324645e-07,7.063452005956089e-07,3.1869730734633666e-06
149,8.438096088068025e-07,1.1613587389821047e-06,1.7028292137373024e-06,1.227656813339775e-06,5.312977610219186e-07,9.775101653339655e-07,6.204992687835024e-07,7.145106584897435e-06,1.485457715790024e-06,1.0270660878991744e-06,8.783623623320805e-07,2.842100257949778e-06,1.04058160945141e-06,7.794197515655758e-07,7.069449915903087e-07,3.126323183037885e-06
150,8.132532098779651e-07,1.1571037850160523e-06,1.7234303041040344e-06,1.1799967192470547e-06,5.318473650110325e-07,9.993718953059342e-07,6.241747235312819e-07,6.9445544885551e-06,1.4462544789279823e-06,1.0361833636940849e-06,9.062343618831387e-07,2.8691708841535953e-06,1.0343617289447493e-06,7.7569626077453e-07,7.104506988703549e-07,3.0654855397930006e-06
151,7.820875208964819e-07,1.1519998218618713e-06,1.737410877901048e-06,1.13466367369832e-06,5.381672959534651e-07,1.022672472968104e-06,6.306264604855399e-07,6.743320369587346e-06,1.4109472591345422e-06,1.0434527472700746e-06,9.367984973434653e-07,2.889667990738024e-06,1.0246020241047069e-06,7.715000928285985e-07,7.16559097500987e-07,3.005170077417389e-06
152,7.509741441572609e-07,1.1462360630381135e-06,1.7434648784258926e-06,1.0916273295057983e-06,5.502149929951897e-07,1.047259222145625e-06,6.399889447044308e-07,6.5489287201280655e-06,1.3804655511663884e-06,1.0485898748674817e-06,9.695804124852704e-07,2.90325761915651e-06,1.0117664288772707e-06,7.669776585145379e-07,7.24843312904095e-07,2.9456930396162794e-06
153,7.205651430984419e-07,1.1398980553773542e-06,1.7408311267379937e-06,1.0510433719355647e-06,5.678900811908603e-07,1.07290672584593e-06,6.52396916946477e-07,6.369128640913855e-06,1.3557165892996457e-06,1.0514609424170856e-06,1.003949618856104e-06,2.9099834542821674e-06,9.962256899050153e-07,7.622075517772686e-07,7.347867698796102e-07,2.8873354819292702e-06
154,6.91462177475195e-07,1.1329847333605974e-06,1.7295362201671863e-06,1.01328873313788e-06,5.910217792914515e-07,1.0993346813364266e-06,6.679626194914557e-07,6.211443564887003e-06,1.3374105424766365e-06,1.0521220184033923e-06,1.0391320151620039e-06,2.910061811648509e-06,9.783059393561188e-07,7.572981813795125e-07,7.458682867447912e-07,2.8306411220520505e-06
155,6.641908524858487e-07,1.1254888930998085e-06,1.7104033743460082e-06,9.788948765522518e-07,6.193439963746011e-07,1.126175421071023e-06,6.867508397436723e-07,6.082824584869638e-06,1.3260096751911183e-06,1.0507874235298727e-06,1.0742598125779557e-06,2.903692687977794e-06,9.583625284279367e-07,7.524646283450454e-07,7.576575367469304e-07,2.7764780418990288e-06
156,6.391842619701543e-07,1.1174616706292292e-06,1.6847888800906118e-06,9.484180640260543e-07,6.524996165723596e-07,1.1529645761927945e-06,7.087718888379248e-07,5.989431507143083e-06,1.3217647513828787e-06,1.0477668246285288e-06,1.1084348219838883e-06,2.8910505052533925e-06,9.368189863658655e-07,7.479902074871872e-07,7.698381112663938e-07,2.7258429134645657e-06
157,6.167633912918608e-07,1.1089601260478924e-06,1.6541912384620386e-06,9.223308568024204e-07,6.900708091759547e-07,1.179226920664765e-06,7.339898462142449e-07,5.9364743635607215e-06,1.3248119395302437e-06,1.0434125976001763e-06,1.1408073472773931e-06,2.872410541967726e-06,9.141735270841851e-07,7.441392917755668e-07,7.821348174606226e-07,2.679544054274911e-06
158,5.97125194615361e-07,1.0999305435689084e-06,1.6199755553519228e-06,9.010021982240837e-07,7.315819266567556e-07,1.2045637184833104e-06,7.623144422784294e-07,5.928100045757775e-06,1.3352845073833576e-06,1.038092491138596e-06,1.1706617180426148e-06,2.848287228282162e-06,8.909795590546795e-07,7.411262199772106e-07,7.942234486772359e-07,2.6379507489611105e-06
159,5.803545776323165e-07,1.0901521381516005e-06,1.5832578688154219e-06,8.847173397293493e-07,7.764822620944097e-07,1.228633739336367e-06,7.935954940927581e-07,5.96737892196028e-06,1.353328236839982e-06,1.0321558842688602e-06,1.1974622993581271e-06,2.81952410716926e-06,8.678123162406109e-07,7.391408902066398e-07,8.057063778300355e-07,2.6009226279831236e-06
160,5.6646199913199e-07,1.079289179321925e-06,1.5448588238975695e-06,8.736666391448651e-07,8.241460821313746e-07,1.251129232937373e-06,8.276769960747055e-07,6.056382841061268e-06,1.3790665981269372e-06,1.0259181958022199e-06,1.22084239498246e-06,2.787269567542219e-06,8.452470897550076e-07,7.383908327251618e-07,8.161695231762323e-07,2.567906852650711e-06
161,5.554214672991306e-07,1.0670086891886183e-06,1.5053404806974595e-06,8.679214189892852e-07,8.738641075820954e-07,1.2718837182662244e-06,8.644616796682413e-07,6.196239970429444e-06,1.412626442047404e-06,1.019729984692617e-06,1.2405437022925573e-06,2.752780090085536e-06,8.238426169233763e-07,7.391117692107801e-07,8.252631431572073e-07,2.5381166636738552e-06
162,5.471862181429022e-07,1.0530843472776553e-06,1.465159227752053e-06,8.674477928015023e-07,9.248101708578715e-07,1.2909997313149535e-06,9.038912196354105e-07,6.3870933844516015e-06,1.4541511387195176e-06,1.0140676328490204e-06,1.2563109922309473e-06,2.717188721813025e-06,8.04105146848483e-07,7.415226125505333e-07,8.327188283205922e-07,2.5106859408657644e-06
163,5.416906393548934e-07,1.0374170192339603e-06,1.4248284497286796e-06,8.721518831148547e-07,9.76025389414843e-07,1.3088046904708992e-06,9.458647687292143e-07,6.628024014973023e-06,1.5037524259725103e-06,1.0095131814514454e-06,1.2678282704262213e-06,2.6814701557611073e-06,7.864523219177878e-07,7.457823286532549e-07,8.383143906515274e-07,2.484742094079236e-06
164,5.388441065755022e-07,1.0199584596318196e-06,1.3849424371947388e-06,8.8190124543288e-07,1.0264756564714958e-06,1.3256730243177568e-06,9.901789641034488e-07,6.9170004458186385e-06,1.5614712377062994e-06,1.0066287686514244e-06,1.2747940173476e-06,2.646572923583698e-06,7.71219939304879e-07,7.519924372811027e-07,8.418854928177804e-07,2.459442277483529e-06
165,5.385274708579312e-07,1.0006267741436667e-06,1.3460485701396034e-06,8.964929476740341e-07,1.0751896936228656e-06,1.3418895823661697e-06,1.0365169381827607e-06,7.250794416686887e-06,1.6272348871025559e-06,1.0058366267067574e-06,1.2770493896385438e-06,2.613456628640448e-06,7.586956966788451e-07,7.602129903670038e-07,8.433683540627936e-07,2.4340322032736394e-06
166,5.40600444962229e-07,9.793386940630483e-07,1.3084949016155216e-06,9.156045719912544e-07,1.1213632935399807e-06,1.3576125875703214e-06,1.0844956164228464e-06,7.624790086878273e-06,1.7007677793675934e-06,1.0073560601460837e-06,1.2745942092297317e-06,2.5829314507942694e-06,7.491266805229661e-07,7.704729348129161e-07,8.427684924731522e-07,2.4078733200288775e-06
167,5.448871338687171e-07,9.561561008568387e-07,1.2723732102299105e-06,9.38781346927772e-07,1.164351122541552e-06,1.3728633773749307e-06,1.13375556525905e-06,8.032742255162094e-06,1.7815020343725367e-06,1.011187454965254e-06,1.267506536100394e-06,2.5554865423864194e-06,7.42700183818635e-07,7.82779965688299e-07,8.400853256152819e-07,2.380341620961582e-06
168,5.511363221392093e-07,9.314053595301142e-07,1.2375895474191779e-06,9.654543213114952e-07,1.203661039036995e-06,1.3874903352707306e-06,1.18399785471302e-06,8.466586728353941e-06,1.8685343634703102e-06,1.0171552810316895e-06,1.2559438286799674e-06,2.5312536244897258e-06,7.395196580117676e-07,7.971113237273398e-07,8.353162073919409e-07,2.350664113391149e-06
169,5.590089860902655e-07,9.056564395597595e-07,1.2040223560513908e-06,9.949389567356569e-07,1.2389850646439358e-06,1.4011411464553666e-06,1.2349048116713551e-06,8.916328908869115e-06,1.9606339552268493e-06,1.0250157361558082e-06,1.2402687126747727e-06,2.5100331264810133e-06,7.395820627485803e-07,8.133856352630279e-07,8.285537312688515e-07,2.317894307886383e-06
170,5.681175239241893e-07,8.795810389831071e-07,1.1716543171820046e-06,1.0263988694151512e-06,1.270148426889837e-06,1.4132968927503986e-06,1.2860175529410438e-06,9.369988167275145e-06,2.056319874328011e-06,1.0345717344354253e-06,1.2211130433110244e-06,2.4913184325608655e-06,7.427733634262617e-07,8.31449369539027e-07,8.200605570583501e-07,2.2810881973111736e-06
171,5.780852687827513e-07,8.537973244478777e-07,1.1405683151413949e-06,1.0588324584546834e-06,1.2970540960511027e-06,1.4233759678777669e-06,1.3366907540718917e-06,9.813677367204274e-06,2.1539981051332568e-06,1.0457097394561017e-06,1.199295762044163e-06,2.474304501357617e-06,7.488752353022632e-07,8.511034645139412e-07,8.102263822288693e-07,2.2395627716980245e-06
172,5.885753781133955e-07,8.288044442531719e-07,1.1108540875768257e-06,1.0911490174101952e-06,1.3197438509863907e-06,1.4308759700025578e-06,1.3861563210052345e-06,1.0232160358682934e-05,2.2520950866634616e-06,1.0583456264605204e-06,1.1757152023411668e-06,2.457856809751098e-06,7.575509680340272e-07,8.721442716751361e-07,7.994639313396819e-07,2.1931289128795095e-06
173,5.992727183944885e-07,8.05019165021782e-07,1.082545086567714e-06,1.1223040032855192e-06,1.3384299598567314e-06,1.4354923290254553e-06,1.4336246030684675e-06,1.061035662939641e-05,2.349157593708147e-06,1.0723632563283775e-06,1.151259983117602e-06,2.4405297605484307e-06,7.683280671276249e-07,8.943553579629057e-07,7.881525711710954e-07,2.1422094518412597e-06
174,6.098569366864515e-07,7.828283951699461e-07,1.0556015004035308e-06,1.1513639665269147e-06,1.3534179126589527e-06,1.4371177350670033e-06,1.4783573939212875e-06,1.0935658867489624e-05,2.4438933682735557e-06,1.087585073420175e-06,1.126722833813041e-06,2.4207754599261164e-06,7.806391547624968e-07,9.174773992912139e-07,7.766443090968543e-07,2.087759267797838e-06
175,6.200033362747472e-07,7.626003574672884e-07,1.0299366029735603e-06,1.177443496089023e-06,1.3650631724034103e-06,1.4356876179356065e-06,1.5197062231619856e-06,1.1199827581862822e-05,2.5350688545342156e-06,1.1037270590132007e-06,1.102778644301944e-06,2.397323624202209e-06,7.939110687851766e-07,9.412234240554746e-07,7.652919968192818e-07,2.031025800717202e-06
176,6.29391003110446e-07,7.446745429024385e-07,1.0054863047441496e-06,1.199664749983242e-06,1.3737675439431754e-06,1.4310062677883466e-06,1.5571069023875747e-06,1.1399096330276347e-05,2.6212901372735403e-06,1.1203423799982999e-06,1.0800227205943606e-06,2.369545670637462e-06,8.076040760034377e-07,9.652864101424976e-07,7.544466305153823e-07,1.9732835656155823e-06
177,6.376806007343633e-07,7.293340288979292e-07,9.822338870322716e-07,1.2172869161638733e-06,1.3799076676785194e-06,1.4227000892464313e-06,1.5900151246000968e-06,1.1532416600367445e-05,2.7008935084865997e-06,1.1368063530521492e-06,1.0589803854288924e-06,2.3376234668762163e-06,8.211873908532587e-07,9.892983711182023e-07,7.444224856446041e-07,1.915643651556856e-06
178,6.444958754523461e-07,7.167620351048909e-07,9.601645388496645e-07,1.2299023470397949e-06,1.3837603565568125e-06,1.410288563680891e-06,1.6178330555011214e-06,1.1599190649509084e-05,2.7721018552865256e-06,1.152327673615189e-06,1.0400724701262834e-06,2.3024738735117874e-06,8.341672339704065e-07,1.012816939542645e-06,7.354931362318331e-07,1.8589870763938329e-06
179,6.494885265516947e-07,7.070261986482681e-07,9.392301084857179e-07,1.2375082560698018e-06,1.3855199548094542e-06,1.3933193558614629e-06,1.639914743523421e-06,1.1598196878471945e-05,2.8333337190235328e-06,1.1659572504261284e-06,1.0235800357176632e-06,2.2655006654546457e-06,8.461938592508499e-07,1.0353912440075073e-06,7.279075170586587e-07,1.8040003245536581e-06
180,6.524694032284239e-07,7.000973062663112e-07,9.193386849203345e-07,1.2403991945534285e-06,1.3853600137821591e-06,1.3715349946149252e-06,1.6556710914428711e-06,1.1528226457672305e-05,2.88342612974728e-06,1.1766745456406944e-06,1.0096277857418619e-06,2.2283020017199063e-06,8.571051290933656e-07,1.0566488438414398e-06,7.218678693724545e-07,1.7512008022441498e-06
181,6.534701658280863e-07,6.958622983370833e-07,9.003642360760367e-07,1.2389785420799908e-06,1.3834993852252144e-06,1.3450114727860078e-06,1.6646946279750857e-06,1.1389390785608866e-05,2.9216330718923567e-06,1.1836359617772288e-06,9.981971635498756e-07,2.1924391240793666e-06,8.668436431324861e-07,1.0762934407647214e-06,7.174901234740584e-07,1.7008946622581341e-06
182,6.526760652737512e-07,6.941324583281782e-07,8.822366761650832e-07,1.233643083991012e-06,1.3802697050295278e-06,1.3142210336294414e-06,1.6667688628045396e-06,1.118399118048924e-05,2.947490963966667e-06,1.1864585948784076e-06,9.8915910821897e-07,2.1592971669207603e-06,8.753793965722799e-07,1.094004293627793e-06,7.148013463370298e-07,1.653133522624914e-06
183,6.503400552714294e-07,6.946695319471013e-07,8.650971741625986e-07,1.2247688550468925e-06,1.376113341046739e-06,1.280014757915991e-06,1.6617276605812108e-06,1.0916687220099846e-05,2.9607693836300156e-06,1.1852892479998383e-06,9.823055826782922e-07,2.130007896187469e-06,8.827223032187232e-07,1.1093563895963936e-06,7.137660171909325e-07,1.6077358701586653e-06
184,6.467476307550416e-07,6.972060036180961e-07,8.493830563085256e-07,1.212707052008017e-06,1.3714915439871403e-06,1.2435356633026134e-06,1.649363644878088e-06,1.059414172664228e-05,2.9615520925349682e-06,1.1805970081254806e-06,9.774113682173657e-07,2.105396267374355e-06,8.889398576213803e-07,1.121835844119058e-06,7.142859376903618e-07,1.5644057843438874e-06
185,6.421726724093658e-07,7.01456919101676e-07,8.357613602323599e-07,1.1977570085204997e-06,1.3668263913499098e-06,1.206074581494465e-06,1.6295383154126605e-06,1.0224412167001852e-05,2.950221418095795e-06,1.1728790524117985e-06,9.743223118153034e-07,2.0859354214879124e-06,8.941099839182823e-07,1.1309093588846365e-06,7.161728462750266e-07,1.5228874429110964e-06
186,6.368220874287383e-07,7.071529657941904e-07,8.24980429074338e-07,1.1801363804994741e-06,1.3625275793486833e-06,1.1689029500012266e-06,1.6023342249203987e-06,9.81628037909534e-06,2.9272217187054843e-06,1.1624835736731795e-06,9.729722033636189e-07,2.0717128779348347e-06,8.982420618841772e-07,1.1361007241958924e-06,7.191557672820909e-07,1.4829911709657304e-06
187,6.308298228527429e-07,7.140532971785833e-07,8.177640872098471e-07,1.1599625240064613e-06,1.3589838495387439e-06,1.1331459207064472e-06,1.5680988691481686e-06,9.378574470584698e-06,2.8929086931803307e-06,1.1495800421632853e-06,9.73309185214675e-07,2.062433252976648e-06,9.012234653244223e-07,1.137094779330507e-06,7.229448658012756e-07,1.4445204684224355e-06
188,6.242770608501565e-07,7.218941399261208e-07,8.147898041818455e-07,1.1372821229049993e-06,1.3564631127370322e-06,1.0997308904552138e-06,1.5274588691365732e-06,8.919497444611756e-06,2.8477529007213996e-06,1.1341803366742057e-06,9.752531076918976e-07,2.057490377649954e-06,9.028281844380713e-07,1.1338626481887984e-06,7.272909801789901e-07,1.407314944535516e-06
189,6.171882035969547e-07,7.303287649832692e-07,8.166868323946473e-07,1.1121662990581062e-06,1.3550154707528466e-06,1.0693772823226684e-06,1.481346931586171e-06,8.446028882853564e-06,2.79262665779143e-06,1.116145463515299e-06,9.787238469122667e-07,2.056074873491106e-06,9.027870429326096e-07,1.1267215275638108e-06,7.319705225944245e-07,1.3714077075047256e-06
190,6.095430919778791e-07,7.3893412928144e-07,8.240053268520272e-07,1.084805166319437e-06,1.3544455450877846e-06,1.0425962746356167e-06,1.4309333423804889e-06,7.963606041168657e-06,2.7287804469469935e-06,1.095215271610609e-06,9.836469922592276e-07,2.057219040153862e-06,9.008555069204549e-07,1.1162744034372376e-06,7.367267984693236e-07,1.3370932870754895e-06
191,6.013533076975404e-07,7.472878431369756e-07,8.371971011499164e-07,1.055505333294755e-06,1.3543420255228721e-06,1.0197310031998588e-06,1.3774166315749133e-06,7.476309308470934e-06,2.657528078854315e-06,1.071130740035672e-06,9.899309390969723e-07,2.059796996974621e-06,8.96836531961964e-07,1.10326051300901e-06,7.412844817625853e-07,1.3048527054235474e-06
192,5.927414651592943e-07,7.550529778885386e-07,8.566403646693179e-07,1.024594411246507e-06,1.3541497219104212e-06,1.001050941490394e-06,1.3218122298844241e-06,6.9874851826130454e-06,2.5800016289541905e-06,1.0438347813214873e-06,9.974711121030337e-07,2.062630605069131e-06,8.906403044070878e-07,1.0883846996960958e-06,7.454609230972148e-07,1.2752535831347131e-06
193,5.839450581051256e-07,7.61998330915381e-07,8.826592864882724e-07,9.92366154340645e-07,1.3532409448912435e-06,9.868268396317187e-07,1.2648908233256357e-06,6.50045015613477e-06,2.4971978752639063e-06,1.0136226589899352e-06,1.0061701872358273e-06,2.06471590985422e-06,8.824079965132252e-07,1.0721995066014232e-06,7.492367746159726e-07,1.24887284463494e-06
194,5.752590796497776e-07,7.679419992948879e-07,9.155063634381069e-07,9.591320064220466e-07,1.3509320063935325e-06,9.773114476799964e-07,1.2072561799667429e-06,6.0189148155861546e-06,2.4101434378157536e-06,9.811213743863934e-07,1.0159453309080411e-06,2.0654014048220876e-06,8.725596699545774e-07,1.0550834359727693e-06,7.526924962778105e-07,1.2262051990088438e-06
195,5.669697604757387e-07,7.727093520334938e-07,9.55347325909331e-07,9.252613494971801e-07,1.3464885754764083e-06,9.726558324371712e-07,1.1494465132174761e-06,5.546956218006853e-06,2.3199383028957838e-06,9.471288784502767e-07,1.0266939335137562e-06,2.06439953379327e-06,8.617005249554078e-07,1.0372863455834972e-06,7.559214709887061e-07,1.2075905431023366e-06
196,5.593117676692882e-07,7.761866284352659e-07,1.0022611410934623e-06,8.911318389161874e-07,1.3391999770365203e-06,9.72846018149363e-07,1.0919664226514247e-06,5.088633781472087e-06,2.227658880145006e-06,9.124537091666323e-07,1.0382331125371287e-06,2.0616787084080746e-06,8.50479407006245e-07,1.0189621205697645e-06,7.590372411896376e-07,1.1932099611621438e-06
197,5.52463082434163e-07,7.783991909392314e-07,1.056234589637839e-06,8.570970307514108e-07,1.32848581553953e-06,9.77700849507048e-07,1.0352592321472313e-06,4.647560586546752e-06,2.134286341323478e-06,8.778410816643644e-07,1.0502651263898868e-06,2.057321266279022e-06,8.394843124543414e-07,1.0001605481902328e-06,7.622083352680807e-07,1.1831003825017909e-06
198,5.46559393794009e-07,7.795063875254236e-07,1.1171792925675037e-06,8.235540805430449e-07,1.3139176561194189e-06,9.869072227865728e-07,9.797109758469157e-07,4.226715816858792e-06,2.040786202902592e-06,8.439579060830358e-07,1.0623923069955011e-06,2.0513441108597667e-06,8.2920506595645e-07,9.808517559284157e-07,7.656380109036731e-07,1.1771403661436098e-06
199,5.416922485015732e-07,7.797236488954645e-07,1.1849656123655852e-06,7.91023881351772e-07,1.2951222006802769e-06,1.0000382053641079e-06,9.257011678138653e-07,3.828502708962478e-06,1.948212589337303e-06,8.113927930673837e-07,1.074203993094247e-06,2.0435331361426936e-06,8.200802129853828e-07,9.610474528091635e-07,7.695118535648383e-07,1.1750292638921895e-06
200,5.378888326797825e-07,7.792451031221916e-07,1.2594099188743565e-06,7.601405970361196e-07,1.2716758230413122e-06,1.0165325690523043e-06,8.736136982035491e-07,3.454818544254719e-06,1.857705113099364e-06,7.806620279596314e-07,1.0854105044577436e-06,2.0334273859775184e-06,8.125722301679947e-07,9.40942308992417e-07,7.739437075436959e-07,1.176285555405542e-06
201,5.351062492051517e-07,7.781978188534197e-07,1.3402659300957416e-06,7.315609197192058e-07,1.2431016233692448e-06,1.035677320756404e-06,8.238042311551629e-07,3.1070011142887e-06,1.7704504453259941e-06,7.522034187949512e-07,1.095906993796096e-06,2.0204422103669785e-06,8.071600902430513e-07,9.209190147289043e-07,7.789452668114711e-07,1.1803157616854166e-06
202,5.332583648854378e-07,7.766279276053236e-07,1.427305889595442e-06,7.058707441620512e-07,1.2089360225742716e-06,1.056665812144837e-06,7.765997984808727e-07,2.7857625803693613e-06,1.6876297323929305e-06,7.2636046838606e-07,1.1056999152769458e-06,2.0040354476111827e-06,8.042550249195879e-07,9.013960507485979e-07,7.844472024152416e-07,1.1865937967962969e-06
203,5.322453876950334e-07,7.745552765425378e-07,1.5204026603472456e-06,6.835481804695934e-07,1.1688044898282085e-06,1.0787344938926374e-06,7.323123769959189e-07,2.491265112154283e-06,1.6103067250242247e-06,7.033866914902696e-07,1.1147907755457255e-06,1.983925664687968e-06,8.041382600570856e-07,8.826697285037551e-07,7.903448706567033e-07,1.1948420928764315e-06
204,5.319435247415505e-07,7.720907842788013e-07,1.6195019700799335e-06,6.649714988426478e-07,1.1225449280194747e-06,1.1012465589584066e-06,6.912123461381492e-07,2.223369665766748e-06,1.5393246701162173e-06,6.834541916436173e-07,1.12311417721294e-06,1.96033691576651e-06,8.06949848430845e-07,8.648772135563205e-07,7.965099516849788e-07,1.2050369674496562e-06
205,5.321686253490961e-07,7.694850178576122e-07,1.7245188221847106e-06,6.50434121347153e-07,1.0703646218434932e-06,1.1236177011344725e-06,6.535007526456901e-07,1.981948251858005e-06,1.4752775523685468e-06,6.666449127744173e-07,1.1305033863845782e-06,1.9340878730079822e-06,8.127070264842792e-07,8.480703056403817e-07,8.02747930921841e-07,1.2172313319692679e-06
206,5.326801461726494e-07,7.670419039195179e-07,1.8352211874569445e-06,6.401650462778386e-07,1.012876378537384e-06,1.145183845277274e-06,6.193223744082938e-07,1.7670702139005866e-06,1.4185342185832515e-06,6.529496843117564e-07,1.1366909266010997e-06,1.906411172421918e-06,8.213251868890911e-07,8.322910649377041e-07,8.087527084287524e-07,1.2313731438536246e-06
207,5.332592978913933e-07,7.650199798467905e-07,1.9511451028643473e-06,6.343492786464255e-07,9.509581123024648e-07,1.1651969849393273e-06,5.887830180208598e-07,1.5789710703955544e-06,1.3692795746662511e-06,6.42294174119661e-07,1.141402074483102e-06,1.8786417752302258e-06,8.326198954456369e-07,8.175634715763831e-07,8.141403946642654e-07,1.2472507562375197e-06
208,5.338113275063832e-07,7.636293855793594e-07,2.071612761161973e-06,6.331261650026369e-07,8.856506350892331e-07,1.1829800950570388e-06,5.619344976563584e-07,1.4178976250005378e-06,1.3275389215096708e-06,6.345782377713807e-07,1.1444635203269063e-06,1.8519964540201239e-06,8.463241149032137e-07,8.038727806116507e-07,8.185511360618881e-07,1.264519748547579e-06
209,5.343996343678266e-07,7.63086013650235e-07,2.195867016272673e-06,6.365775488766202e-07,8.182616655849531e-07,1.198086611756457e-06,5.387493234118687e-07,1.2839659125464348e-06,1.293179214316589e-06,6.297040019623839e-07,1.1457952427399354e-06,1.8275321818065437e-06,8.621355646343113e-07,7.912444257509319e-07,8.21697519397129e-07,1.2827225848937597e-06
210,5.351806600904504e-07,7.636396628570998e-07,2.323201813857031e-06,6.447368635504134e-07,7.505009785102262e-07,1.2103251681301073e-06,5.191197177928235e-07,1.1770809237095138e-06,1.2659140020340069e-06,6.275891625269285e-07,1.145337427660055e-06,1.8062212535689678e-06,8.797253191646311e-07,7.798559693981552e-07,8.233275469696436e-07,1.3013128986031498e-06
211,5.363176845978925e-07,7.655402440709317e-07,2.4529475747308592e-06,6.576388618732109e-07,6.84440312886179e-07,1.2196802246861636e-06,5.028714803842767e-07,1.0969122933140161e-06,1.2453138780528169e-06,6.281675007966935e-07,1.1430561670141004e-06,1.788999449114718e-06,8.986934574668689e-07,7.700481871475455e-07,8.232344939053982e-07,1.3197165759103494e-06
212,5.379418509199343e-07,7.68963857403545e-07,2.5843239173452343e-06,6.753782076211142e-07,6.22355102863035e-07,1.2262489766184065e-06,4.897656530137617e-07,1.0429080203970652e-06,1.2308331665982104e-06,6.31369443677725e-07,1.1390105128631652e-06,1.776696165270644e-06,9.185591615723291e-07,7.62244213508557e-07,8.213737867515625e-07,1.337405719739731e-06
213,5.401326669363214e-07,7.739557916773533e-07,2.7163336302603275e-06,6.980988551722992e-07,5.665832649700538e-07,1.2302356452360644e-06,4.794900299349617e-07,1.014312517969621e-06,1.2218555547752217e-06,6.371251337464027e-07,1.1333758102895876e-06,1.7699320567182052e-06,9.388319924970825e-07,7.568631448484672e-07,8.179483511712211e-07,1.3539658497586743e-06
214,5.42904940569679e-07,7.804237849919958e-07,2.847844823992424e-06,7.259165888916516e-07,5.194442332364662e-07,1.2319434606981823e-06,4.716591712250837e-07,1.0101760883407274e-06,1.2176927269121409e-06,6.454048185748569e-07,1.1264144077098327e-06,1.7690901199640279e-06,9.591191934761137e-07,7.542577689342724e-07,8.133414669672787e-07,1.3691456647651562e-06
215,5.462388347936381e-07,7.88172080685723e-07,2.977843627415047e-06,7.588594686886551e-07,4.832208836196152e-07,1.2317175280074622e-06,4.6584810197299283e-07,1.0293847565238827e-06,1.2175525899947386e-06,6.562090932611869e-07,1.1184312808632e-06,1.7743308227415787e-06,9.79187273399454e-07,7.546690703876216e-07,8.079824580004861e-07,1.3828911507056386e-06
216,5.501376689335813e-07,7.969596206518207e-07,3.1057237771937566e-06,7.968751188117922e-07,4.601943269219113e-07,1.2298729313072947e-06,4.6165645536918495e-07,1.0707220235536893e-06,1.220573089377091e-06,6.69495668653829e-07,1.1097177512240451e-06,1.7856042980965467e-06,9.9891235530752e-07,7.582151387194735e-07,8.022985235786216e-07,1.3953927002801962e-06
217,5.546608878581659e-07,8.065454981643827e-07,3.2314495459203713e-06,8.398835314102258e-07,4.5268265936269846e-07,1.2266738696843054e-06,4.5874336846498295e-07,1.1329262329088798e-06,1.2258809129086105e-06,6.851358179213509e-07,1.1004807127660013e-06,1.8026675262847139e-06,1.0181486482132212e-06,7.649331243175109e-07,7.967440491369347e-07,1.4071113021444695e-06
218,5.599177729581952e-07,8.166937320505584e-07,3.3554871087083763e-06,8.878101291821724e-07,4.630576305710913e-07,1.2223714405237794e-06,4.568223022423737e-07,1.2147292758707024e-06,1.232597147959209e-06,7.029183449082561e-07,1.0907926023331324e-06,1.8251424001623584e-06,1.0366551137161065e-06,7.748279651828116e-07,7.917863703212343e-07,1.4186903393065119e-06
219,5.660355699488632e-07,8.271935878668226e-07,3.478544032587993e-06,9.405830538482047e-07,4.937732629774592e-07,1.2172275049629257e-06,4.5568167878621547e-07,1.3149005216493816e-06,1.2398666364726874e-06,7.225403560053054e-07,1.080625235442884e-06,1.8525966039464508e-06,1.0541759556703312e-06,7.87867941891568e-07,7.878274322268483e-07,1.4307739739660765e-06
220,5.731318004793213e-07,8.379107933250766e-07,3.6012312570551682e-06,9.981487846476875e-07,5.473902345275453e-07,1.2114657155257485e-06,4.5524105659266166e-07,1.4322759058357193e-06,1.246971945572185e-06,7.435786474604892e-07,1.069981059869723e-06,1.884552016387873e-06,1.0705770288913417e-06,8.03957398231063e-07,7.851516530334962e-07,1.4438814139598303e-06
221,5.813292330354292e-07,8.487811950797138e-07,3.723746484620497e-06,1.0605055427145623e-06,6.265387200602752e-07,1.2052108635363968e-06,4.555932800047629e-07,1.5657088136811716e-06,1.2533942692637993e-06,7.65504342502321e-07,1.0590327924826498e-06,1.92041510372521e-06,1.085857938757008e-06,8.22935144245618e-07,7.839498665335504e-07,1.4583892705869586e-06
222,5.907976484656282e-07,8.597589607336574e-07,3.8456888447021175e-06,1.127686791842601e-06,7.338699222520705e-07,1.1985246216041372e-06,4.570137645441271e-07,1.713935499734279e-06,1.2587383903043902e-06,7.87740578725043e-07,1.0481408955498633e-06,1.9594195772867562e-06,1.1000241064547964e-06,8.445695309856946e-07,7.84376705284887e-07,1.4745441637291673e-06
223,6.017550818422004e-07,8.707902580192328e-07,3.966012555023192e-06,1.199692587426046e-06,8.720608442285819e-07,1.1915272910890337e-06,4.5993981903678347e-07,1.875445256913301e-06,1.2627054562611365e-06,8.096933915782087e-07,1.0377163420354558e-06,2.0005985730261223e-06,1.1129710615668937e-06,8.685239529978157e-07,7.865782304622568e-07,1.4925014612203995e-06
224,6.144117047390861e-07,8.817876607066311e-07,4.082992297347554e-06,1.276461299934527e-06,1.0438131952644362e-06,1.1844916792472805e-06,4.649187890091559e-07,2.048461069154902e-06,1.2652162058413697e-06,8.307521278529461e-07,1.0280545313299232e-06,2.042762366812589e-06,1.124460849686044e-06,8.943259047061754e-07,7.906867976255267e-07,1.5124166307717748e-06
225,6.289088364299649e-07,8.926213752559186e-07,4.1941654683995405e-06,1.3579311555475022e-06,1.2518282775519483e-06,1.1778282472789932e-06,4.72535198033571e-07,2.2310416980803256e-06,1.2664799217306963e-06,8.503123760697813e-07,1.0192800708079134e-06,2.0845580116200495e-06,1.13411408908875e-06,9.213664342450597e-07,7.968256708174681e-07,1.5345157493899155e-06
226,6.452924734454875e-07,9.031902491387268e-07,4.296344007343712e-06,1.4441019177012583e-06,1.4988161400830734e-06,1.1719685925809743e-06,4.833499561737031e-07,2.4212166289576635e-06,1.2668857318946738e-06,8.678882656118106e-07,1.0113911767398985e-06,2.1246576302984326e-06,1.1413976876337303e-06,9.489355043940061e-07,8.051163319972642e-07,1.559088659132159e-06
227,6.635132829090298e-07,9.135259608593906e-07,4.385893900186685e-06,1.5350365994328372e-06,1.78749093811557e-06,1.1672170034607059e-06,4.978970162681167e-07,2.617058057061277e-06,1.2668618753857024e-06,8.832966815719098e-07,1.0043002518007509e-06,2.161891163084998e-06,1.1457372207541698e-06,9.763088484108296e-07,8.156429994594321e-07,1.5864039940841591e-06
228,6.834258579242311e-07,9.238179670295066e-07,4.459435407396475e-06,1.63095503885124e-06,2.120506956266962e-06,1.1636541703624123e-06,5.167470240141368e-07,2.8166495471405144e-06,1.2667871602023215e-06,8.967063402064336e-07,9.978331054793287e-07,2.1951864068831045e-06,1.146760526281622e-06,1.0028728998622012e-06,8.284070269587323e-07,1.6165754975730115e-06
229,7.047747367231812e-07,9.343141738258983e-07,4.514637986270201e-06,1.7325136425838165e-06,2.500413195936659e-06,1.161148852054505e-06,5.405739902412478e-07,3.0179641680316445e-06,1.2669109646697632e-06,9.084547967432239e-07,9.91720853999539e-07,2.223510731036925e-06,1.1444771639647166e-06,1.0282245292282801e-06,8.433519862130883e-07,1.6494714346402667e-06
230,7.271858580972851e-07,9.451715171349803e-07,4.550560467092599e-06,1.841054749625554e-06,2.9296224366597272e-06,1.159473833838954e-06,5.70146400389146e-07,3.218712285064628e-06,1.267304607629439e-06,9.188380090833807e-07,9.856289227155241e-07,2.24601274865004e-06,1.1392826608080002e-06,1.052184862151495e-06,8.604280417263514e-07,1.6847067029629516e-06
231,7.501753096205707e-07,9.563753359909822e-07,4.56748587476782e-06,1.958589882405583e-06,3.4102945478570034e-06,1.1584475545050467e-06,6.062484273553859e-07,3.416239706930205e-06,1.2678680998357305e-06,9.280609426466216e-07,9.7927602447084e-07,2.262272520766023e-06,1.1318174714409332e-06,1.074721346506213e-06,8.795871717076158e-07,1.7217093245128993e-06
232,7.731530033698448e-07,9.67779903931458e-07,4.5665974383887185e-06,2.0875247215387626e-06,3.9441531231673845e-06,1.158009698271225e-06,6.496038769226887e-07,3.6074919745408357e-06,1.2683547596266632e-06,9.363362604972378e-07,9.725925616608774e-07,2.2724601871917818e-06,1.1227603898184615e-06,1.095839796820047e-06,9.007165346889737e-07,1.759915058950185e-06
233,7.954281424497832e-07,9.792173011388044e-07,4.549695098622704e-06,2.230328805230898e-06,4.532307903376619e-06,1.1582295874401762e-06,7.008342842886364e-07,3.7889645764461148e-06,1.2684245258399853e-06,9.440218626630568e-07,9.657511126566905e-07,2.2772690063969703e-06,1.1127003936227255e-06,1.115507099512121e-06,9.236055155671073e-07,1.7990501965839187e-06
234,8.162807705016401e-07,9.90559234087242e-07,4.518918877758658e-06,2.3893786131754487e-06,5.1750980293472185e-06,1.1593153548863925e-06,7.604505519036828e-07,3.9566369818532076e-06,1.2677669569490106e-06,9.516852238739077e-07,9.590646227301564e-07,2.277610546495983e-06,1.102141587726495e-06,1.1335991317532757e-06,9.479845607236701e-07,1.8392927343530442e-06
235,8.351224028910221e-07,1.0017127259584197e-06,4.476405146722206e-06,2.56698698270245e-06,5.872073064385175e-06,1.1616379702159757e-06,8.289251247844534e-07,4.106135766549486e-06,1.2662321488197365e-06,9.600386544754603e-07,9.529032069628912e-07,2.274264301353331e-06,1.0915252245633905e-06,1.149873403939386e-06,9.736285309471694e-07,1.881162534561287e-06
236,8.516486171312499e-07,1.012653725778045e-06,4.423959986149311e-06,2.7654552059235692e-06,6.622261889717226e-06,1.1657143622250362e-06,9.068500131749827e-07,4.233365976405781e-06,1.2638544373159036e-06,9.697925912320143e-07,9.476418891558721e-07,2.2677572377171433e-06,1.0812070567517262e-06,1.1640073446747362e-06,1.0004791647393357e-06,1.925227048102435e-06
237,8.658566341785889e-07,1.0235046848234205e-06,4.363033757452225e-06,2.987084325463303e-06,7.424590131809767e-06,1.1721222445671766e-06,9.950357267328857e-07,4.3354290538502824e-06,1.2607693654064261e-06,9.815334292755746e-07,9.435809802747849e-07,2.2585712676065e-06,1.0714401801699007e-06,1.1756786404481512e-06,1.028673994481267e-06,1.9718779409495817e-06
238,8.779208549791991e-07,1.0345389731755387e-06,4.295057673377573e-06,3.2341870694604245e-06,8.27810661879814e-06,1.1813855531530674e-06,1.0944297221094797e-06,4.4112821604724226e-06,1.2571168831538669e-06,9.956859782892018e-07,9.408887237735522e-07,2.2475336166529875e-06,1.06237021441564e-06,1.1846278766093588e-06,1.058425269654549e-06,2.021347509388263e-06
239,8.880347375979666e-07,1.046075011312323e-06,4.2217357433282375e-06,3.5090716868882775e-06,9.181858201523591e-06,1.1938789610584456e-06,1.2059516394527643e-06,4.461694272249876e-06,1.2529713014019088e-06,1.0125541410667066e-06,9.396248914709785e-07,2.236079922541632e-06,1.0540331130131067e-06,1.1907258332367689e-06,1.0898508146381519e-06,2.0738440119744644e-06
240,8.963313992043539e-07,1.0583406223048265e-06,4.144952843813447e-06,3.813912964766776e-06,1.0134559859792962e-05,1.2097654942229738e-06,1.3303902260511145e-06,4.488512153749962e-06,1.2482898859505222e-06,1.032386492255218e-06,9.398021847258665e-07,2.2261431143008666e-06,1.0463840741241097e-06,1.1940566893329793e-06,1.1228756453488039e-06,2.1295538766636553e-06
241,9.029257255439357e-07,1.0713945799126496e-06,4.066426987873377e-06,4.15051891764369e-06,1.1134338215127507e-05,1.2289642610297102e-06,1.468367207745494e-06,4.493736029711003e-06,1.242909391178961e-06,1.055384438557655e-06,9.414061582189752e-07,2.2197948700003114e-06,1.0393271104261038e-06,1.1949259916350544e-06,1.1572179256777683e-06,2.18847423149786e-06
242,9.080187885830152e-07,1.0851257404721787e-06,3.987433285447283e-06,4.520114699638565e-06,1.2178669559932847e-05,1.251153075744733e-06,1.6203196302593943e-06,4.479084942503747e-06,1.2366019884538296e-06,1.0816409601173315e-06,9.443973065015366e-07,2.2189592569387004e-06,1.0326867198411807e-06,1.1937382923042897e-06,1.1924534731828955e-06,2.2502502594949933e-06
243,9.119471990949394e-07,1.0993062814761795e-06,3.908769950253266e-06,4.923232069842603e-06,1.3264364734192332e-05,1.2758048698056168e-06,1.7864565391053562e-06,4.446281085373961e-06,1.2291337586800246e-06,1.1110815375969705e-06,9.487502469023276e-07,2.225291111373093e-06,1.0261507101239884e-06,1.1908219728997448e-06,1.2281334013351136e-06,2.3141171988283744e-06
244,9.151211852483356e-07,1.1136971014819497e-06,3.830886070403731e-06,5.359675397799255e-06,1.438737441415482e-05,1.302224694941949e-06,1.9666824193301057e-06,4.3975574760385234e-06,1.2203035341572507e-06,1.1434507764031452e-06,9.544837069766151e-07,2.240180938626356e-06,1.0192340566936058e-06,1.1863236091889292e-06,1.2638323403754055e-06,2.378952308563578e-06
245,9.179147336702082e-07,1.1281931130891735e-06,3.753994707493593e-06,5.828507652838325e-06,1.554233096179412e-05,1.3295529319783887e-06,2.1605780950000906e-06,4.335778982803046e-06,1.2100051170417806e-06,1.178366936235836e-06,9.616595037649247e-07,2.2648433810927468e-06,1.0112803064137545e-06,1.180261068363291e-06,1.2990659494670957e-06,2.443458395362589e-06
246,9.206106462370607e-07,1.1429171062552221e-06,3.678110451253546e-06,6.3280688296392e-06,1.672186290094396e-05,1.356776056457174e-06,2.367526286151208e-06,4.264067122384096e-06,1.1983187281365457e-06,1.2154332826747353e-06,9.70374599029507e-07,2.300349641732178e-06,1.001557350994095e-06,1.1727234878766738e-06,1.3331955661896202e-06,2.506392578745581e-06
247,9.234257858188919e-07,1.1581674787549621e-06,3.6030640826142914e-06,6.856067831725031e-06,1.7915812131205676e-05,1.3828164684466097e-06,2.586911728383451e-06,4.18526872236062e-06,1.1855602065432304e-06,1.2542936586313139e-06,9.807247271545187e-07,2.347550518108517e-06,9.894815009840852e-07,1.1640376709693537e-06,1.365417243242089e-06,2.566660927867335e-06
248,9.265632991146387e-07,1.174264140131799e-06,3.5284779145899173e-06,7.409723603153139e-06,1.911073761619641e-05,1.40666553371322e-06,2.8182036909674764e-06,4.101666011355453e-06,1.172239994417787e-06,1.2945949767178164e-06,9.92758314398001e-07,2.406994971975895e-06,9.748269690249386e-07,1.1547239339787148e-06,1.39483006085154e-06,2.6233090357718658e-06
249,9.30233703823948e-07,1.1914464204652407e-06,3.4536622501779207e-06,7.985841115389733e-06,2.0290107339335517e-05,1.427459976100573e-06,3.0608072707197013e-06,4.015034155822722e-06,1.1589925493070406e-06,1.335975939973619e-06,1.0064494281148184e-06,2.478873753524924e-06,9.577203585863894e-07,1.1453060524825077e-06,1.4205775061383626e-06,2.675618591407175e-06
250,9.346165030192626e-07,1.209885903855408e-06,3.3776404428716986e-06,8.580651557635013e-06,2.143508330715369e-05,1.4444906017136928e-06,3.313788085682804e-06,3.926856719288177e-06,1.1465438045010967e-06,1.3780976130779786e-06,1.0216561816981176e-06,2.562939427373903e-06,9.384607916914551e-07,1.1361647349085563e-06,1.4419768079587686e-06,2.7232819189603533e-06
251,9.397872819402616e-07,1.229716210171072e-06,3.2995254658656777e-06,9.189383119359457e-06,2.2525480228991967e-05,1.457214930682042e-06,3.5757070541719645e-06,3.838495565271375e-06,1.13567596576055e-06,1.420601181926528e-06,1.0380788430662489e-06,2.658464935771099e-06,9.173878706404107e-07,1.1275017107853148e-06,1.4585083593768232e-06,2.7663600420677766e-06
252,9.456795394710746e-07,1.2509958870870421e-06,3.2189961682519996e-06,9.805910813585711e-06,2.3540715718849687e-05,1.4653134851900497e-06,3.844697373304801e-06,3.751268057367408e-06,1.127137938353129e-06,1.462995269052063e-06,1.055260307391268e-06,2.7643990237561833e-06,8.948691113000955e-07,1.119381842396625e-06,1.4697381721436223e-06,2.8049578895652952e-06
253,9.521029498717791e-07,1.273637531960928e-06,3.1364139679853413e-06,1.0422892177445696e-05,2.4461014758539048e-05,1.4687402732450616e-06,4.118716152437369e-06,3.666492497738046e-06,1.1215578258369293e-06,1.5045827873808202e-06,1.072603052223835e-06,2.8797294736294833e-06,8.713216105149334e-07,1.1118121563699543e-06,1.4753431924486827e-06,2.838921345685863e-06
254,9.58780834648176e-07,1.2973592539397758e-06,3.052490676095175e-06,1.1032298228833483e-05,2.5269295386698464e-05,1.467670638965853e-06,4.395834957808048e-06,3.5855644242578162e-06,1.1194210534682248e-06,1.54446856487444e-06,1.0893817282950058e-06,3.0038132447506975e-06,8.472226915280283e-07,1.104795455629473e-06,1.4751870242463301e-06,2.8677454423813075e-06
255,9.65411377380971e-07,1.3217020098235693e-06,2.9678076946000906e-06,1.1625927319975072e-05,2.5953365793619418e-05,1.4623510391020011e-06,4.674436911601823e-06,3.510036716347348e-06,1.1210864654741272e-06,1.5816187437368864e-06,1.1047679342401477e-06,3.1364530750015815e-06,8.231122802445329e-07,1.0983390506125648e-06,1.4692787194675516e-06,2.8905637249890995e-06
256,9.717465696028636e-07,1.3461390357073792e-06,2.882529206786867e-06,1.2195659694813026e-05,2.6506767862674307e-05,1.4530174371821084e-06,4.953169548816382e-06,3.441577783215641e-06,1.1268224370155627e-06,1.6149513706750317e-06,1.1178822052960681e-06,3.2777442685802214e-06,7.99578936579473e-07,1.092448909187581e-06,1.4576393228535466e-06,2.906171412451729e-06
257,9.776086537852107e-07,1.3702179342057692e-06,2.796430767715736e-06,1.2733537678256439e-05,2.69267889096971e-05,1.4399592664479845e-06,5.230593220171884e-06,3.381730425183312e-06,1.1368573038197662e-06,1.6434655657931095e-06,1.1278983183746857e-06,3.4278456526691154e-06,7.772179156479369e-07,1.0871169386499057e-06,1.440218539813566e-06,2.9132521262943663e-06
258,9.828464961905939e-07,1.3936299998783454e-06,2.709166800989366e-06,1.3231979347230266e-05,2.7210639094339707e-05,1.4235794212523453e-06,5.504681442175027e-06,3.3315770627752833e-06,1.151376896732133e-06,1.6663986483341094e-06,1.1341461771404615e-06,3.58680307961178e-06,7.565873939563024e-07,1.0823386279204807e-06,1.4169244388709822e-06,2.9108135727656964e-06
259,9.873364400425171e-07,1.4161572390906108e-06,2.6206112325410436e-06,1.368434702703501e-05,2.7353178382175612e-05,1.4043574000272396e-06,5.772471747114005e-06,3.291506660925244e-06,1.1704668935997956e-06,1.683302414040098e-06,1.1361151500837414e-06,3.754431402382257e-06,7.381921568997339e-07,1.0781582292419796e-06,1.3877387868842068e-06,2.8985483483004755e-06
260,9.910428309586065e-07,1.437555471706498e-06,2.5310482558506365e-06,1.4085756431797636e-05,2.7348180380527277e-05,1.3828119133934644e-06,6.030140540997853e-06,3.2611667074376173e-06,1.1940776422386047e-06,1.6939361772371146e-06,1.133456524948077e-06,3.930158671283787e-06,7.224699973281325e-07,1.0746292000038202e-06,1.35284665518126e-06,2.8768724935543246e-06
261,9.940374570882295e-07,1.4575091982123155e-06,2.4410887312206103e-06,1.4433702992413028e-05,2.7191384495612315e-05,1.3595377925965729e-06,6.273614080938112e-06,3.239517399470538e-06,1.2220128120813844e-06,1.6980998923934116e-06,1.1261117277140225e-06,4.112838565058508e-06,7.097709516659761e-07,1.0716867739882025e-06,1.3127345706870502e-06,2.8466473271182194e-06
262,9.964237307772472e-07,1.4756902638892474e-06,2.351438380172533e-06,1.472796075124703e-05,2.6882848452364377e-05,1.3352534443297476e-06,6.4995294870116985e-06,3.224875167546112e-06,1.2539041149318295e-06,1.6956359856550048e-06,1.1144178694183358e-06,4.300651765802679e-06,7.003592571195492e-07,1.069075411807608e-06,1.268245327803511e-06,2.8088234785809117e-06
263,9.982463485898746e-07,1.4917971482866312e-06,2.262759976511411e-06,1.4969426270890463e-05,2.6427990993735707e-05,1.3107581238890625e-06,6.706040157810264e-06,3.2149680941513997e-06,1.2891814498628862e-06,1.6865911913925705e-06,1.0990207231475306e-06,4.491115288392626e-06,6.94447856290035e-07,1.0664020640002574e-06,1.220548468085287e-06,2.7643187290740294e-06
264,9.99465220221664e-07,1.5055182748857913e-06,2.1757131448014495e-06,1.5158322486568712e-05,2.5837573381157394e-05,1.2868167974088437e-06,6.8929199534688645e-06,3.2071099483759842e-06,1.3270599322115637e-06,1.6713106224917858e-06,1.0806738052856056e-06,4.681164814926212e-06,6.922340226590369e-07,1.0632705620960988e-06,1.1709984703897358e-06,2.7141617078515433e-06
265,9.999698224366573e-07,1.5165132396367158e-06,2.091015583863577e-06,1.5293001711228646e-05,2.5126751162181877e-05,1.2641000378901187e-06,7.060834500966369e-06,3.1984690523837363e-06,1.366552512620738e-06,1.6503417041058308e-06,1.0600783666092923e-06,4.86737938093121e-06,6.938902944242469e-07,1.0594113373126652e-06,1.1209623067791348e-06,2.6596081504816293e-06
266,9.996167172082406e-07,1.5244953891424382e-06,2.0093582658009496e-06,1.5370227066300736e-05,2.4313327537355933e-05,1.2432076110506951e-06,7.210313367927588e-06,3.1862932777349044e-06,1.4065094491612413e-06,1.6242509571310463e-06,1.0378218492462636e-06,5.046336772336876e-06,6.995243461112289e-07,1.054746714302829e-06,1.0717134301798904e-06,2.60205986975652e-06
267,9.982855639196102e-07,1.5293674284801846e-06,1.931213974672969e-06,1.538648224943887e-05,2.3415405219160156e-05,1.2246609541908875e-06,7.341263032766742e-06,3.16806824739516e-06,1.4456872643223491e-06,1.593519682491273e-06,1.014412519158788e-06,5.214885584177318e-06,7.091689524067543e-07,1.0493972188845247e-06,1.024374349224076e-06,2.542904209856258e-06
268,9.959065806838898e-07,1.53125417958843e-06,1.8566843287824484e-06,1.5339392795749614e-05,2.2448952256199538e-05,1.2088190479150786e-06,7.4532967837786614e-06,3.1417363756363287e-06,1.4828187560364572e-06,1.5585717409831585e-06,9.903440347636942e-07,5.37021693201007e-06,7.228108234406956e-07,1.0436303547070369e-06,9.798763580587277e-07,2.4833882779140383e-06
269,9.924437046010838e-07,1.5303603791885647e-06,1.7854550289880735e-06,1.5228841127988956e-05,2.142637165476582e-05,1.1957937787098252e-06,7.546371491710407e-06,3.106046166923067e-06,1.5166229224775925e-06,1.5198578374468231e-06,9.66081218709323e-07,5.50987818626965e-06,7.404106482573321e-07,1.0377472361661757e-06,9.389525098581964e-07,2.424500764783056e-06
270,9.87854604799409e-07,1.5268157047372627e-06,1.716861222130368e-06,1.5057679951122711e-05,2.0356843054206587e-05,1.185419751679537e-06,7.621200857481788e-06,3.0608966883044453e-06,1.5458047698329666e-06,1.4779007352102307e-06,9.41986894044697e-07,5.6318705219662566e-06,7.618999460269208e-07,1.0320040042558172e-06,9.021467548980344e-07,2.366828887384969e-06
271,9.820617675888643e-07,1.5206609427947453e-06,1.6500765821852828e-06,1.4831957870252992e-05,1.9247885531363993e-05,1.177287135302202e-06,7.67933072157529e-06,3.0074372591576667e-06,1.56919461574371e-06,1.4332829735049812e-06,9.182974302813109e-07,5.734791619724746e-06,7.871866430804562e-07,1.0266486050901837e-06,8.698136920680349e-07,2.310461641659179e-06
272,9.74975069830922e-07,1.5118973971914767e-06,1.5844246933129195e-06,1.4560572895489115e-05,1.810703704886481e-05,1.1708436087818833e-06,7.722975162395774e-06,2.9478070659936256e-06,1.5860049298881417e-06,1.3866248976988022e-06,8.951608794872789e-07,5.8179318614265955e-06,8.161581791318923e-07,1.0219652466003247e-06,8.421259481432076e-07,2.255064749282449e-06
273,9.665260169062373e-07,1.5005186345566274e-06,1.5196916710785646e-06,1.4254375391892345e-05,1.694306743922703e-05,1.1655230165534858e-06,7.754773312603666e-06,2.8846224977997135e-06,1.5959756830924302e-06,1.3385612252311812e-06,8.726892980554286e-07,5.8812880299039e-06,8.486464974606988e-07,1.018209219367245e-06,8.190992277655599e-07,2.200162685641854e-06
274,9.566484882834812e-07,1.486559161962485e-06,1.4562402786466096e-06,1.3924906938755715e-05,1.576654040090549e-05,1.160802216540146e-06,7.777578694282854e-06,2.82045575761582e-06,1.5992670556981653e-06,1.2896867130528753e-06,8.509771545124527e-07,5.925477688283856e-06,8.843776517603523e-07,1.015513020353473e-06,8.006215562349529e-07,2.14549700040798e-06
275,9.452600391406664e-07,1.4701455752803664e-06,1.3948465406265048e-06,1.358307398494788e-05,1.4589629109890878e-05,1.1561616247785996e-06,7.794245252331364e-06,2.7575585558401455e-06,1.5962108510152332e-06,1.2405063365350048e-06,8.300629079520127e-07,5.9515342427859145e-06,9.229444321258834e-07,1.0139109549044885e-06,7.864791768744861e-07,2.0912645232451224e-06
276,9.323180816938626e-07,1.4515055616883906e-06,1.3363888687976597e-06,1.3238097426166358e-05,1.3425269387916255e-05,1.15105896413854e-06,7.80733368324487e-06,2.6979347942415084e-06,1.5871247865996709e-06,1.1914146345822819e-06,8.098825824001709e-07,5.960563734797793e-06,9.63815558874493e-07,1.0134592208285522e-06,7.763657877242532e-07,2.038107811778504e-06
277,9.179028706022225e-07,1.43096502388664e-06,1.28160132772721e-06,1.289699754638329e-05,1.228594338300323e-05,1.1450071311548812e-06,7.818762027484452e-06,2.643605290562377e-06,1.5722857809901176e-06,1.1426735195648273e-06,7.902792515824687e-07,5.95329526428809e-06,1.006372296280815e-06,1.0142888609234518e-06,7.698750532147859e-07,1.9868602964099694e-06
278,9.022333665684896e-07,1.408971204463836e-06,1.2309809360814736e-06,1.2564618701369997e-05,1.118251201798729e-05,1.1376886143818112e-06,7.829471454560222e-06,2.596793720720152e-06,1.5520317232315158e-06,1.0944333872483684e-06,7.710685898574497e-07,5.929750428821991e-06,1.0499282659614798e-06,1.0165331744301727e-06,7.664979865349303e-07,1.938209639079772e-06
279,8.855965347732548e-07,1.3861055784530136e-06,1.1847901983204242e-06,1.224394354843759e-05,1.0123543294659391e-05,1.1289719919498024e-06,7.839122411327411e-06,2.5598763327418793e-06,1.5268514400159032e-06,1.046833964711284e-06,7.521160433277628e-07,5.8893090341257895e-06,1.0937051532973301e-06,1.0202396713767463e-06,7.656352477636797e-07,1.892507478253897e-06
280,8.682662586327782e-07,1.363030059100212e-06,1.143097191176208e-06,1.1936360942751337e-05,9.115285727125711e-06,1.1188019822072069e-06,7.845884771157042e-06,2.5351458496063624e-06,1.4973195434097635e-06,1.0000794178775356e-06,7.333977489311984e-07,5.831090952085247e-06,1.136789910983099e-06,1.0253757540221646e-06,7.666452220959804e-07,1.8498356968400036e-06
281,8.504810017884232e-07,1.3403775669364846e-06,1.1058232223551753e-06,1.164163037805517e-05,8.16200943705182e-06,1.1070648862336706e-06,7.846589807226206e-06,2.5246160436300864e-06,1.4639614094004435e-06,9.544189639509116e-07,7.150330875339952e-07,5.75434344095469e-06,1.1781281088096247e-06,1.031915424672238e-06,7.689182069005125e-07,1.810237961990222e-06
282,8.32453849822818e-07,1.3186671560228994e-06,1.072758461968937e-06,1.135764005395847e-05,7.266426540756648e-06,1.093542195397424e-06,7.837451242745621e-06,2.5300165734570727e-06,1.4272616097641678e-06,9.101223298175454e-07,6.972560661125019e-07,5.658732665300854e-06,1.216614034148829e-06,1.039893501937039e-06,7.719121701754988e-07,1.773868167963259e-06
283,8.144033358225188e-07,1.2983070871414724e-06,1.0435722770764502e-06,1.108049340900672e-05,6.430093385559253e-06,1.0779535309546403e-06,7.815082012254601e-06,2.55284477089446e-06,1.3878263632678709e-06,8.675021259575831e-07,6.803405960875628e-07,5.544569337495552e-06,1.2512475591537852e-06,1.0493387242393888e-06,7.751688449029706e-07,1.7409135565173262e-06
284,7.966186242357628e-07,1.2796489692909862e-06,1.0178740116201866e-06,1.0805274463101129e-05,5.653737278340697e-06,1.0600168365055282e-06,7.777254662065404e-06,2.594301248294309e-06,1.3465170747780597e-06,8.269061275265653e-07,6.645505721079282e-07,5.412933074758899e-06,1.2812131500831161e-06,1.060156048368532e-06,7.783793757660918e-07,1.7114786795392511e-06
285,7.794711801524897e-07,1.263002634480257e-06,9.952704121760798e-07,1.0527191789298236e-05,4.937483458285318e-06,1.0395164472600567e-06,7.723136233435081e-06,2.6551807239410228e-06,1.3044147585175387e-06,7.88651903409351e-07,6.501310181428968e-07,5.265669937825554e-06,1.305854319188982e-06,1.0721105573879336e-06,7.814337261668189e-07,1.6856356375856329e-06
286,7.633208384460804e-07,1.2485955451535548e-06,9.753604849296507e-07,1.0242577685039925e-05,4.281008796528068e-06,1.0164061285955359e-06,7.653150877599605e-06,2.7358725574358813e-06,1.2626452291244171e-06,7.529700619218631e-07,6.373098487700486e-07,5.105271232271787e-06,1.3247297585391013e-06,1.0849289212171432e-06,7.843641143908202e-07,1.6635399065394494e-06
287,7.484182676632299e-07,1.2365281361712198e-06,9.577533555253392e-07,9.949461045104713e-06,3.683631941247476e-06,9.909019805207138e-07,7.568776153790077e-06,2.836444284579874e-06,1.2222062187943704e-06,7.199894347586025e-07,6.262826568401022e-07,4.934655328788441e-06,1.337805030681318e-06,1.0983789649012184e-06,7.872699922219691e-07,1.6454503678555499e-06
288,7.34878679464685e-07,1.226741582760534e-06,9.421402371714963e-07,9.647715641842633e-06,3.144320390595995e-06,9.634936859054886e-07,7.4724354382547145e-06,2.9566781402441084e-06,1.1838796495297488e-06,6.897521573227501e-07,6.171773432148369e-07,4.75689382301771e-06,1.3455380732690098e-06,1.1122325430944983e-06,7.903133612249571e-07,1.6316522542402253e-06
289,7.226834287382227e-07,1.2189959079308398e-06,9.28292968534927e-07,9.338933316674008e-06,2.661620902161701e-06,9.348599663877801e-07,7.3673677629385715e-06,3.0960433057664775e-06,1.148216225634128e-06,6.622482357675125e-07,6.100347798439299e-07,4.574954045056263e-06,1.3487021807530809e-06,1.1261865308993709e-06,7.937001572762265e-07,1.622349662963161e-06
290,7.116752464678092e-07,1.212884584208828e-06,9.159833417598719e-07,9.026105733397574e-06,2.2336011980209547e-06,9.057340378395202e-07,7.257214577030501e-06,3.253676304077796e-06,1.1155578026401155e-06,6.374551085070514e-07,6.048159711783944e-07,4.391596262008177e-06,1.3480939895811287e-06,1.139837876744664e-06,7.97600368584053e-07,1.6176485438411823e-06
291,7.015917243007813e-07,1.2078855664937478e-06,9.049371387784371e-07,8.713097346747026e-06,1.8579039289083843e-06,8.768100801202049e-07,7.145299233073536e-06,3.428395252683766e-06,1.0860699114521393e-06,6.153565258829281e-07,6.013989869542287e-07,4.209483606374082e-06,1.3443354895046973e-06,1.152681309052011e-06,8.021047290367708e-07,1.6177052368231218e-06
292,6.92165719263971e-07,1.2034138399626454e-06,8.948381433044372e-07,8.403979617906197e-06,1.5318669430135275e-06,8.487271685136634e-07,7.033988927835238e-06,3.6187408383199107e-06,1.059794666555697e-06,5.959240183693856e-07,5.995682202514692e-07,4.031312278233186e-06,1.3378412856989666e-06,1.164121527612377e-06,8.072648028233935e-07,1.6228865660495766e-06
293,6.832118347599316e-07,1.1988636854033378e-06,8.85375897394346e-07,8.102438115655072e-06,1.2525884131791944e-06,8.220552218386288e-07,6.924533190878746e-06,3.8230494976292565e-06,1.0367358801903026e-06,5.790893885919458e-07,5.990385425101099e-07,3.859753849088078e-06,1.3288948651583958e-06,1.1735888480929194e-06,8.131307341203967e-07,1.6337480887287574e-06
294,6.746193177585038e-07,1.193647564626243e-06,8.763281466941547e-07,7.8114137549397e-06,1.0169574186888666e-06,7.972557292411288e-07,6.817313768530093e-06,4.039533070142904e-06,1.0169100123368155e-06,5.647629376740397e-07,5.995071703417381e-07,3.6972836107984994e-06,1.3177042434927669e-06,1.1807400653585606e-06,8.197294235615915e-07,1.650874990679322e-06
295,6.663311405699372e-07,1.187233350142485e-06,8.675941060865916e-07,7.53295709606356e-06,8.217134818322951e-07,7.74685355207163e-07,6.712165821523329e-06,4.266312636787993e-06,1.0003133968280896e-06,5.528800451863747e-07,6.006995066563914e-07,3.546052489087888e-06,1.3043673186350428e-06,1.185567592180785e-06,8.270537837230128e-07,1.6747551129854128e-06
296,6.583926754763143e-07,1.179182763445187e-06,8.59137786718585e-07,7.268212621693816e-06,6.634901893221627e-07,7.546508715815181e-07,6.608569273307018e-06,4.501406334338689e-06,9.868802642840796e-07,5.434026722801355e-07,6.02409442887127e-07,3.4078001030612107e-06,1.2888466481291758e-06,1.1883115007667064e-06,8.351273290795903e-07,1.7057284709437482e-06
297,6.509758927697154e-07,1.1691975149635818e-06,8.508977325888674e-07,7.017520082438896e-06,5.38831166884083e-07,7.374414875712577e-07,6.505713817993087e-06,4.742738723141102e-06,9.764953204993616e-07,5.36288639017413e-07,6.045236976105027e-07,3.283844062083273e-06,1.271068050694143e-06,1.189266635516704e-06,8.440770990409148e-07,1.7439377629729877e-06
298,6.442991469002034e-07,1.1571795739288782e-06,8.427331189425569e-07,6.7806011293669644e-06,4.4423194321088363e-07,7.232995146766e-07,6.402529611891826e-06,4.988228659710384e-06,9.69008162644454e-07,5.314858236926555e-07,6.069995156472161e-07,3.1752047490772154e-06,1.2511087379407578e-06,1.1886407693328443e-06,8.54115938124797e-07,1.7892467937863517e-06
299,6.385181157223712e-07,1.1432901577665666e-06,8.344553010572985e-07,6.55666184410646e-06,3.762062960374724e-07,7.12380022843427e-07,6.297784778766247e-06,5.2359164381081964e-06,9.642010511984356e-07,5.289302736222531e-07,6.098135133645944e-07,3.0826871363624594e-06,1.2293772804537778e-06,1.1865468920811185e-06,8.654510638968364e-07,1.8411753265055663e-06
300,6.33674450111296e-07,1.1279565024145013e-06,8.259308301191246e-07,6.344258638182487e-06,3.3133252869369685e-07,7.047530777415776e-07,6.190312369963389e-06,5.484022394486121e-06,9.617321527531476e-07,5.285302462103598e-07,6.129403589724206e-07,3.0067761714214114e-06,1.2066970897682072e-06,1.18308065601117e-06,8.782092108584462e-07,1.8989250505904442e-06
301,6.297058060026131e-07,1.1117957953715038e-06,8.171591741905005e-07,6.141101224440906e-06,3.062586521096162e-07,7.004166786532254e-07,6.079338262833158e-06,5.730901208872444e-06,9.611008501221814e-07,5.301711437940655e-07,6.163642848334523e-07,2.9475350256995303e-06,1.1842162168314405e-06,1.1783570132574316e-06,8.924204640904135e-07,1.9614993163299035e-06
302,6.264800917616974e-07,1.0954911206376372e-06,8.082661154691593e-07,5.944205176508519e-06,2.9771692371678173e-07,6.992774583132162e-07,5.964750006402589e-06,5.974948161449643e-06,9.616567937236384e-07,5.337414120412763e-07,6.200611802570615e-07,2.9047054351847568e-06,1.163179398140981e-06,1.1724959245170419e-06,9.080306520417023e-07,2.0277790701775262e-06
303,6.238311101718562e-07,1.0796703376452e-06,7.994534416380258e-07,5.750507917493424e-06,3.026016220380807e-07,7.011258029095539e-07,5.847091958219265e-06,6.214421912427874e-06,9.626319126080636e-07,5.391549199620794e-07,6.239399614200092e-07,2.877915769653112e-06,1.144722205451482e-06,1.1656359618723751e-06,9.249050214101362e-07,2.0964725667728383e-06
304,6.215994733933068e-07,1.0648160596376929e-06,7.909557643116627e-07,5.557608496893326e-06,3.1805686859036756e-07,7.05637156534683e-07,5.727223269238171e-06,6.447125108942189e-06,9.632328104630123e-07,5.463749741267749e-07,6.278137984256999e-07,2.866800857827946e-06,1.1297773883660683e-06,1.1579478473334262e-06,9.428252734026648e-07,2.166057540980084e-06
305,6.196817656218541e-07,1.0512215468153872e-06,7.830092140267658e-07,5.364271745823087e-06,3.415207280674177e-07,7.123831594355206e-07,5.605852913667825e-06,6.67025742427877e-06,9.628371225323474e-07,5.554302041434524e-07,6.314510877676358e-07,2.871006136056703e-06,1.1190679224812635e-06,1.149601824139495e-06,9.614888698222117e-07,2.2348098652315037e-06
306,6.180752619254453e-07,1.0389773080293658e-06,7.758159705564617e-07,5.170582582220659e-06,3.707771188112876e-07,7.208428234492838e-07,5.483272870891087e-06,6.880908428051568e-06,9.611463201943296e-07,5.663894159839142e-07,6.346522167496032e-07,2.890162202696375e-06,1.1131700279730054e-06,1.1407471376514453e-06,9.805464533110712e-07,2.3008615220222196e-06
307,6.168928053277965e-07,1.0279553279259525e-06,7.695240754115042e-07,4.977762890173833e-06,4.040469049034771e-07,7.304588436359085e-07,5.359352200923649e-06,7.077044711991098e-06,9.581579450598556e-07,5.793098145274297e-07,6.372679522768541e-07,2.9238557305823756e-06,1.1126015972132847e-06,1.1315042700915445e-06,9.996970275095122e-07,2.362248209964904e-06
308,6.163228322464087e-07,1.0177958232765124e-06,7.642754732437408e-07,4.787660874466464e-06,4.4003286086824927e-07,7.407721199756757e-07,5.233532277167548e-06,7.258290628127575e-06,9.54080903839831e-07,5.941948637637737e-07,6.3917270852896e-07,2.971583895939969e-06,1.117848346204811e-06,1.121904959421005e-06,1.0187324784902304e-06,2.4170060997015962e-06
309,6.165507523723856e-07,1.0079348459820462e-06,7.602960293651022e-07,4.60204584223416e-06,4.778261082004976e-07,7.515526346839266e-07,5.1047108680682036e-06,7.426011189770023e-06,9.493173416278305e-07,6.109720927399035e-07,6.40244346586782e-07,3.03275268120771e-06,1.1293360979496087e-06,1.1118443647309292e-06,1.037445084021139e-06,2.4633599714911285e-06
310,6.176923746941596e-07,9.976965821892186e-07,7.579125607849933e-07,4.422088235597838e-06,5.167332168971641e-07,7.627984827948753e-07,4.971285888149169e-06,7.5827418710932424e-06,9.444421138168975e-07,6.294989777263598e-07,6.403756266627282e-07,3.1067673503424516e-06,1.147445773220282e-06,1.1011336621321806e-06,1.055510014858176e-06,2.4999478023645964e-06
311,6.197627385596078e-07,9.86444722223012e-07,7.574688421359762e-07,4.2482391760902675e-06,5.562034922580221e-07,7.746076793920187e-07,4.831534343285365e-06,7.73132047094132e-06,9.401263032042152e-07,6.495761197934198e-07,6.395406679264416e-07,3.193072571010072e-06,1.1725966732146054e-06,1.0895929090818652e-06,1.0725002207059512e-06,2.525998625832262e-06
312,6.226856153664014e-07,9.73763176854159e-07,7.592347210158454e-07,4.080281212873022e-06,5.959189870844226e-07,7.870560541521122e-07,4.684158615544795e-06,7.874042883080109e-06,9.370626568687732e-07,6.709303730984003e-07,6.378656463129599e-07,3.2909727843987694e-06,1.2052941689428764e-06,1.0771226708050924e-06,1.088002046482577e-06,2.5414269653596652e-06
313,6.263510220027175e-07,9.596083257223782e-07,7.633695441964986e-07,3.917419786664078e-06,6.359190710610008e-07,8.001524084382204e-07,4.528792400933967e-06,8.01203349182986e-06,9.359254806854923e-07,6.931953554952754e-07,6.355982020101271e-07,3.39937342747596e-06,1.2460619450750432e-06,1.0637863920945808e-06,1.1016641616216895e-06,2.546797327926809e-06
314,6.306732230201487e-07,9.443528684168471e-07,7.69920446863447e-07,3.7586079882736053e-06,6.766707169788391e-07,8.138267301404294e-07,4.366290296552332e-06,8.145011355850927e-06,9.373324219777124e-07,7.159466774324189e-07,6.329952785447697e-07,3.5167536152808858e-06,1.295325212145416e-06,1.0498636469497992e-06,1.113120615098929e-06,2.543099299483567e-06
315,6.355892829633201e-07,9.286712554829398e-07,7.788259024041068e-07,3.60310680582214e-06,7.191260323710875e-07,8.279287780062366e-07,4.198598387215127e-06,8.27145020814368e-06,9.418129940200653e-07,7.387806815510334e-07,6.302584710083519e-07,3.641417550164048e-06,1.353319578718646e-06,1.0357827804274648e-06,1.121889491427227e-06,2.5314689741222736e-06
316,6.410403346605474e-07,9.133240435326803e-07,7.899197065148965e-07,3.450957618961545e-06,7.647661749992607e-07,8.422478606318445e-07,4.0281953641898476e-06,8.388744759024737e-06,9.498103767319772e-07,7.61355847533884e-07,6.275416990718328e-07,3.771808956766227e-06,1.4200293320245039e-06,1.0220203984655846e-06,1.1273592850847937e-06,2.5130572683116765e-06
317,6.469833063651476e-07,8.989837604461535e-07,8.029354117866467e-07,3.303091688949118e-06,8.155403306290401e-07,8.565298984582905e-07,3.8574460908332075e-06,8.493173907640287e-06,9.61676540329762e-07,7.833550276928011e-07,6.249566614385648e-07,3.906716915520552e-06,1.495179619654007e-06,1.0090843145784645e-06,1.1288738074377192e-06,2.4889637165471434e-06
318,6.533813410641021e-07,8.861720433080679e-07,8.175164451660658e-07,3.1610483930575402e-06,8.736696566886105e-07,8.70498008477551e-07,3.6883102648545693e-06,8.580158058942356e-06,9.776349588829926e-07,8.044608875605057e-07,6.225634369534576e-07,4.045274414390491e-06,1.5782860631367473e-06,9.97489886790502e-07,1.1258490880624543e-06,2.4601467211588804e-06
319,6.601534269088629e-07,8.752549123442553e-07,8.332655105190525e-07,3.026474684871063e-06,9.414164775655898e-07,8.839227990296711e-07,3.5224800412199965e-06,8.64519726112014e-06,9.977616339064945e-07,8.244503051688847e-07,6.203677373865894e-07,4.186681066533131e-06,1.6686929167866382e-06,9.87679421892415e-07,1.1178842657506837e-06,2.427397620174403e-06
320,6.671344213774267e-07,8.664430951942946e-07,8.498426535247621e-07,2.9006632625402977e-06,1.0209365694350438e-06,8.967343752716393e-07,3.361604387655295e-06,8.68486729095046e-06,1.0220172983083426e-06,8.433125712185761e-07,6.1831651965357e-07,4.329808362996981e-06,1.7655950319103389e-06,9.799725539027806e-07,1.104874649577291e-06,2.3913820308281423e-06
321,6.740560666727011e-07,8.598031693922579e-07,8.670459605487647e-07,2.7843060384222864e-06,1.1142491772322372e-06,9.091029016351872e-07,3.207286536421285e-06,8.696936317934044e-06,1.0503034186079503e-06,8.612121354772431e-07,6.163060251936903e-07,4.472993674903984e-06,1.8681152500598865e-06,9.745479923174186e-07,1.0871048467971e-06,2.3527421528090613e-06
322,6.805376077518895e-07,8.55311279536499e-07,8.84796654715132e-07,2.6774514131477293e-06,1.2232818560485405e-06,9.214088794682934e-07,3.0608916622946817e-06,8.679539724357891e-06,1.0824900395505811e-06,8.783321188684224e-07,6.142467679390934e-07,4.614109205033592e-06,1.9753917885614406e-06,9.714224906751685e-07,1.0652717813033852e-06,2.312236178251883e-06
323,6.861150513606336e-07,8.529264125200954e-07,9.030423826020025e-07,2.5795527910348272e-06,1.3498970418271335e-06,9.341039351620136e-07,2.92346449020103e-06,8.630390350787537e-06,1.1183838197713762e-06,8.947906542108465e-07,6.121636798206641e-07,4.750820480201962e-06,2.086543587258352e-06,9.704516929830768e-07,1.0404190952010807e-06,2.270774431739207e-06
324,6.903268286632648e-07,8.525975620310093e-07,9.216861577638389e-07,2.489545103583869e-06,1.4958548798709109e-06,9.475799944403805e-07,2.7958569946531986e-06,8.546965343639555e-06,1.1576776163557647e-06,9.106746168659169e-07,6.102203597745848e-07,4.880988040743825e-06,2.200519505939404e-06,9.71349418756013e-07,1.0137952231362398e-06,2.2293546411043366e-06
325,6.928133179324893e-07,8.542123637398877e-07,9.40603246710147e-07,2.4059396640868772e-06,1.6628053793206095e-06,9.621405338232752e-07,2.6788098884928935e-06,8.427482343282986e-06,1.1999312875998264e-06,9.260788896113e-07,6.086334974080518e-07,5.003087437722662e-06,2.315976837800201e-06,9.737303332683834e-07,9.866733775282556e-07,2.1890085645120978e-06
326,6.933790183147086e-07,8.575656638478938e-07,9.597039653240136e-07,2.3269414272139158e-06,1.8523768529570802e-06,9.780163228340853e-07,2.5729122254853064e-06,8.271836734229344e-06,1.2445673639669211e-06,9.411398405748769e-07,6.075917400506199e-07,5.116444012521033e-06,2.4312547916068834e-06,9.771980672494076e-07,9.602161084582674e-07,2.150717177704479e-06
327,6.919853393574411e-07,8.623474473855157e-07,9.789875983635787e-07,2.25063091702101e-06,2.0662272952239846e-06,9.953419099558099e-07,2.4786040983086403e-06,8.082074134140156e-06,1.290913579557581e-06,9.560986763264127e-07,6.072566922608821e-07,5.221250025187938e-06,2.544359973514999e-06,9.81408255218555e-07,9.354460741908832e-07,2.115232733597224e-06
328,6.886732354479915e-07,8.681370390826732e-07,9.985504135486286e-07,2.175246498172246e-06,2.3059304913395497e-06,1.0141218866864018e-06,2.396168899979155e-06,7.862378789342967e-06,1.3383515238593551e-06,9.712998058866804e-07,6.07780753174596e-07,5.318484420677181e-06,2.65293413666106e-06,9.860289890806763e-07,9.132903769138074e-07,2.082921365488678e-06
329,6.834999955712059e-07,8.744179063185364e-07,1.0185270506441607e-06,2.0995016000318042e-06,2.5727985501692852e-06,1.0342314426631492e-06,2.325638032024916e-06,7.6186183579478474e-06,1.3864762555159484e-06,9.871213284423082e-07,6.092763317621975e-07,5.409787313770364e-06,2.754242589751438e-06,9.906490669552766e-07,8.946126970750303e-07,2.0537949374987075e-06
330,6.765536672592936e-07,8.805942257248735e-07,1.0390063507081188e-06,2.0228025891051717e-06,2.8677742016072597e-06,1.0554147919455239e-06,2.2667444408878486e-06,7.357587098424138e-06,1.4351045162189302e-06,1.0039430653531046e-06,6.117703970033449e-07,5.497263750756702e-06,2.845160347025981e-06,9.947245332413766e-07,8.80190000668421e-07,2.027749970515389e-06
331,6.679755754597947e-07,8.860109337631049e-07,1.0599755854273312e-06,1.945287580463345e-06,3.1913837029815676e-06,1.0772665346822833e-06,2.2189834653808573e-06,7.086202400392109e-06,1.4841289617854946e-06,1.0221117298352916e-06,6.151911142488761e-07,5.583192211024596e-06,2.9222405410600315e-06,9.97614840077809e-07,8.706755230437545e-07,2.0048279327832352e-06
