,EMG1,EMG2,EMG3,EMG4,EMG5,EMG6,EMG7,EMG8,EMG9,EMG10,EMG11,EMG12,EMG13,EMG14,EMG15,EMG16
0,1.4582067427528918e-07,-5.8309914273631065e-08,1.252543907723928e-07,1.612476751193076e-07,1.0637371068121135e-07,8.033479353682059e-07,8.358468474656212e-07,-4.7719502406756133e-08,-6.030641402343747e-08,5.729227282828381e-08,-5.613781277951589e-08,3.99501999321975e-07,7.598076769498189e-07,4.075516028777794e-07,5.491383423789137e-07,2.5761232258926864e-07
1,2.2060204822177662e-07,7.477907753928223e-09,1.8197112653368215e-07,1.9951220867298047e-07,2.1481790111080448e-07,8.759168628556786e-07,9.690528489628884e-07,4.7571427075578033e-08,4.500679989439338e-08,1.5643097784509833e-07,7.462800123227895e-09,4.963650472237389e-07,1.3578919270705377e-06,4.987591529562825e-07,5.943716635412868e-07,3.7466834009458507e-07
2,2.9417552745591763e-07,7.234899674866441e-08,2.3647345693144567e-07,2.376457530879528e-07,3.2050877429431033e-07,9.498217422328246e-07,1.1040109761749815e-06,1.3856528723739293e-07,1.4741502093653724e-07,2.517550073131533e-07,6.941087933646328e-08,5.912939811430456e-07,1.9319130704868515e-06,5.876877661957704e-07,6.408733535073308e-07,4.908137747747932e-07
3,3.644837610227092e-07,1.358824344183183e-07,2.884227098166816e-07,2.755403777596647e-07,4.2118336129729605e-07,1.0248892421713256e-06,1.2395604733233822e-06,2.2430655760475808e-07,2.454384772472142e-07,3.4220446283918717e-07,1.29198809351697e-07,6.822676466007715e-07,2.476623556670733e-06,6.731310860915912e-07,6.881784305596268e-07,6.051460945343435e-07
4,4.2981323986992847e-07,1.9775663574869897e-07,3.374945521269839e-07,3.1305195998276693e-07,5.146922267265123e-07,1.1007557917988384e-06,1.3747965461755818e-06,3.039766242718019e-07,3.380875479091615e-07,4.2713655667925716e-07,1.8642996445212828e-07,7.676407484512031e-07,2.9864688866882686e-06,7.541349870418291e-07,7.359387113612224e-07,7.167901381868238e-07
5,4.888885476155007e-07,2.5777203867550845e-07,3.834134423943453e-07,3.500228569255891e-07,5.99270375364471e-07,1.1768642758778948e-06,1.5090509416702693e-06,3.769784643053496e-07,4.249488915058413e-07,5.061931399983855e-07,2.408288049535374e-07,8.463435767008548e-07,3.4555340811836766e-06,8.300935355543911e-07,7.838465539217336e-07,8.248383151377773e-07
6,5.409066548765117e-07,3.1580966606861065e-07,4.2598519776269204e-07,3.8632376116961995e-07,6.73873598435017e-07,1.2525058833979555e-06,1.641728421480544e-06,4.4298633571182586e-07,5.060452931236837e-07,5.790949688659111e-07,2.9223097830417744e-07,9.179411335074041e-07,3.877671080396866e-06,9.006761811746119e-07,8.31569389120057e-07,9.28364546963478e-07
7,5.855205706861195e-07,3.7176136889209275e-07,4.6508330133851946e-07,4.2186236470892327e-07,7.382986883601225e-07,1.326839468641219e-06,1.7721177380653214e-06,5.019267972006732e-07,5.815901686011375e-07,6.455654976021915e-07,3.4054029330284833e-07,9.825286864750025e-07,4.246964572755436e-06,9.656621642487483e-07,8.787200101423346e-07,1.0265265321324145e-06
8,6.227724630759387e-07,4.2550304850015425e-07,5.006139832797783e-07,4.565477006522501e-07,7.929868378091489e-07,1.3988619882097777e-06,1.8992698902161726e-06,5.53896644804049e-07,6.518247853516249e-07,7.054060083503296e-07,3.8570099307199353e-07,1.040482775306152e-06,4.558323321237315e-06,1.024832969254857e-06,9.248343182413599e-07,1.1187049031423757e-06
9,6.529715269786066e-07,4.76930838432637e-07,5.325289477877213e-07,4.902695057956702e-07,8.387223065015749e-07,1.4673986354918036e-06,2.0219765566422385e-06,5.990991903020904e-07,7.170062054051287e-07,7.586135682332728e-07,4.277051741354935e-07,1.0922080845804348e-06,4.807835375316273e-06,1.077998232034957e-06,9.693508839724053e-07,1.204563217728924e-06
10,6.765443642676915e-07,5.26017887633472e-07,5.608895101247021e-07,5.22920817999682e-07,8.764308982349389e-07,1.5311466506569887e-06,2.1388222414943075e-06,6.378813717540491e-07,7.774734085174202e-07,8.054539379440915e-07,4.666247932444658e-07,1.1380462314026945e-06,4.992964405696981e-06,1.1250666289097802e-06,1.0116017200887202e-06,1.2839791368942934e-06
11,6.939427520605033e-07,5.728236966763487e-07,5.858980288268313e-07,5.544173985491014e-07,9.07071080961983e-07,1.588706820476449e-06,2.248190091174605e-06,6.707970188217449e-07,8.336611693947897e-07,8.464457811724496e-07,5.026469102070712e-07,1.1783300936637825e-06,5.112977689510076e-06,1.1660242668409905e-06,1.0507975866685886e-06,1.3568898358610557e-06
12,7.056318939135412e-07,6.174355549212968e-07,6.07846468944482e-07,5.84677986826895e-07,9.315525390200905e-07,1.6385949855734375e-06,2.348155272334399e-06,6.985633211210487e-07,8.860274781927159e-07,8.822496290653326e-07,5.360566079856572e-07,1.213449019609856e-06,5.169667787756529e-06,1.2008737952758695e-06,1.0860383111337865e-06,1.4231437836855797e-06
13,7.120816697594117e-07,6.598920349552129e-07,6.270535597008316e-07,6.135870394420385e-07,9.506837508645139e-07,1.6793512492192776e-06,2.436397527245799e-06,7.219540383192578e-07,9.349807445082032e-07,9.135384822282538e-07,5.67163699801116e-07,1.2438388014865098e-06,5.1678617275927595e-06,1.2296951315269088e-06,1.1164140599869989e-06,1.482455736498472e-06
14,7.137603213726054e-07,7.001426014212138e-07,6.438664562106534e-07,6.409666889510627e-07,9.651719783940686e-07,1.7097628277082037e-06,2.5103300084636492e-06,7.417538938241309e-07,9.808900153008228e-07,9.409254204876923e-07,5.962486519874631e-07,1.269911100295798e-06,5.115119977423802e-06,1.2527895448289582e-06,1.1411566997733177e-06,1.5344218457572172e-06
15,7.111769036648379e-07,7.380592273339789e-07,6.586781707922141e-07,6.665791236624062e-07,9.756572792693814e-07,1.7290520377000544e-06,2.567496329745541e-06,7.587661499758009e-07,1.0241865079467467e-06,9.64919085213181e-07,6.235626348567412e-07,1.292013979199396e-06,5.020583243673471e-06,1.2706988268856652e-06,1.1597444654791887e-06,1.5785012619834017e-06
16,7.049050822679158e-07,7.73463109976155e-07,6.718916809709579e-07,6.901755889921636e-07,9.827400108007915e-07,1.7369802595364426e-06,2.606090073486287e-06,7.738083810464022e-07,1.06545676172941e-06,9.85888017647461e-07,6.493375833009226e-07,1.310483251797406e-06,4.893586327228353e-06,1.2840479527010769e-06,1.1719633350272084e-06,1.6140525033841046e-06
17,6.955274298516271e-07,8.061157751199296e-07,6.838567885722916e-07,7.115445260274193e-07,9.869943592207533e-07,1.7339185522882171e-06,2.6253809474107296e-06,7.876869387501559e-07,1.1054041455884917e-06,1.0040813715197215e-06,6.737627203484531e-07,1.3257586380880431e-06,4.742729974769953e-06,1.2933973072003276e-06,1.177976379525135e-06,1.6405291770207058e-06
18,6.835732230799465e-07,8.357096138639464e-07,6.948316760292831e-07,7.305029235408338e-07,9.889701147868095e-07,1.7208075002501411e-06,2.6258965738769958e-06,8.011562591677767e-07,1.1447155552341705e-06,1.0196920848133715e-06,6.969465334402565e-07,1.338502344452637e-06,4.575542883977398e-06,1.2992183906366352e-06,1.1783418495288538e-06,1.657730111078367e-06
19,6.695362170815756e-07,8.619302457648098e-07,7.049857095582837e-07,7.468868608972091e-07,9.89172646504689e-07,1.698911622108884e-06,2.60927553636308e-06,8.14882186058755e-07,1.1839933743548675e-06,1.0328978608840406e-06,7.189258117346518e-07,1.3496383116214098e-06,4.398433685693628e-06,1.3019051916058607e-06,1.173877168598032e-06,1.6659525987216547e-06
20,6.539517167053145e-07,8.845712934928422e-07,7.144338262643912e-07,7.606277974662909e-07,9.880440732354582e-07,1.669496067255361e-06,2.5778140133182896e-06,8.294453088773268e-07,1.2238032258733778e-06,1.043922325463178e-06,7.39735874389422e-07,1.3602607860813054e-06,4.2167248835099456e-06,1.301801079036079e-06,1.1654190213546088e-06,1.6660053867138299e-06
21,6.374498001165318e-07,9.036181365394934e-07,7.232563210856515e-07,7.718625280468878e-07,9.859850918506345e-07,1.6336524847297247e-06,2.533959974284635e-06,8.453705620198859e-07,1.2647156664367577e-06,1.053151738106793e-06,7.594621711672979e-07,1.3714594992277753e-06,4.034753059074539e-06,1.299292402506334e-06,1.1536384105390633e-06,1.6591109718292664e-06
22,6.207382271552486e-07,9.192341662248651e-07,7.314636075266598e-07,7.8095293369938e-07,9.833920236243981e-07,1.5923234374383681e-06,2.4800517183449645e-06,8.631244443563985e-07,1.3072433326396552e-06,1.0611636642350387e-06,7.782157642228056e-07,1.3841649825025066e-06,3.856039461723266e-06,1.2948807545010928e-06,1.1389952825291384e-06,1.6467627970679897e-06
23,6.045342640796834e-07,9.316689939756459e-07,7.38940083291553e-07,7.884078932622979e-07,9.806433873721917e-07,1.5464110218383847e-06,2.418281613435696e-06,8.83067119752085e-07,1.3517350218876594e-06,1.0685953233844067e-06,7.961069967624843e-07,1.399070812818937e-06,3.683479108832327e-06,1.2891557036740998e-06,1.1218129177298656e-06,1.6305768022611388e-06
24,5.894989711250005e-07,9.412022036705334e-07,7.454317575617986e-07,7.947948425356384e-07,9.780547830452616e-07,1.4968745432919791e-06,2.35069872109352e-06,9.054087760445077e-07,1.3983233337205591e-06,1.076016901934931e-06,8.132731215771826e-07,1.4166259178045568e-06,3.519451192323645e-06,1.2827373098853016e-06,1.1023968466570346e-06,1.6121326939219862e-06
25,5.762141606111664e-07,9.481493933237969e-07,7.505992920670118e-07,8.006789889386056e-07,9.75887260036306e-07,1.4447732396921474e-06,2.2792150043802504e-06,9.301990433281221e-07,1.446961963473047e-06,1.0839304859940699e-06,8.298847285796246e-07,1.437084725003491e-06,3.3658039102185815e-06,1.276231039153158e-06,1.081114297299032e-06,1.5928295449042666e-06
26,5.65192268931046e-07,9.528257402569051e-07,7.541084233204543e-07,8.06579418394835e-07,9.74404657795144e-07,1.3912184805197598e-06,2.205625863133825e-06,9.573258813296427e-07,1.497546425674885e-06,1.092801431605146e-06,8.46100378755741e-07,1.4605816262301375e-06,3.2237936470773547e-06,1.27015109284131e-06,1.0584120166813407e-06,1.5738005829928512e-06
27,5.56878508766556e-07,9.554626235196808e-07,7.556864528238943e-07,8.129527141272347e-07,9.73889669607874e-07,1.3372449384681198e-06,2.131588091999281e-06,9.865158710409027e-07,1.5500049511549397e-06,1.1030191887665574e-06,8.620327316988823e-07,1.487194591042066e-06,3.0941168566732234e-06,1.2648276073675384e-06,1.0347969566690057e-06,1.5558972992263616e-06
28,5.516299941226719e-07,9.561932071439635e-07,7.55107347150626e-07,8.201953569753702e-07,9.74593594560956e-07,1.2836835082217297e-06,2.058544388222631e-06,1.0173702907390286e-06,1.6042294652193338e-06,1.1148318586252982e-06,8.777339337672234e-07,1.51701678760745e-06,2.977080335456965e-06,1.2603862010193166e-06,1.01078139543058e-06,1.539756619841922e-06
29,5.496926132906946e-07,9.551410559251655e-07,7.52205487835986e-07,8.286272177184352e-07,9.766870925034312e-07,1.231125824668396e-06,1.987650996957303e-06,1.0494583022281577e-06,1.6599254249900349e-06,1.128320400681564e-06,8.931663228438967e-07,1.5501936115529567e-06,2.87277599804196e-06,1.256838124707481e-06,9.868015885167668e-07,1.5259234359048684e-06
30,5.511949646823199e-07,9.525267574496197e-07,7.469996806618213e-07,8.384806348922517e-07,9.80262967741346e-07,1.1800096964273655e-06,1.9197496475077105e-06,1.0824550502517575e-06,1.7165571445034266e-06,1.1433827444345665e-06,9.081918117316595e-07,1.5868350645620666e-06,2.781093368427784e-06,1.2541936103394225e-06,9.631549626901568e-07,1.5148955290147558e-06
31,5.561560433929849e-07,9.486868637077653e-07,7.398046208258642e-07,8.499431988042432e-07,9.85371614116664e-07,1.1307692425148735e-06,1.8553892637971658e-06,1.1162918844239622e-06,1.7733828835037477e-06,1.159699747492791e-06,9.226209006987152e-07,1.6268753191809413e-06,2.7016148983845544e-06,1.252462388580298e-06,9.399842415098244e-07,1.5070550008969376e-06
32,5.644939692555951e-07,9.439868811986885e-07,7.311989617140349e-07,8.632061605738446e-07,9.920429047970446e-07,1.0839184676893991e-06,1.7948917008343894e-06,1.1512434655413293e-06,1.8294755996918003e-06,1.1767542005205756e-06,9.362591660906981e-07,1.670052108056931e-06,2.633588288197562e-06,1.2515704051376788e-06,9.173142119796065e-07,1.5026269432352713e-06
33,5.760315251519087e-07,9.387326033116082e-07,7.219100177442947e-07,8.784377862179309e-07,1.000264713822892e-06,1.039988263098753e-06,1.7384396337476508e-06,1.1878594296533987e-06,1.8837766238856135e-06,1.1939857420825024e-06,9.488877207918967e-07,1.716067849035303e-06,2.5760456817352466e-06,1.2513465413835833e-06,8.951191181275763e-07,1.5017129474367103e-06
34,5.905043503843846e-07,9.331657445338486e-07,7.127297882173361e-07,8.957050110753086e-07,1.0099292665784305e-06,9.994012605239824e-07,1.6861321090656749e-06,1.2267515080836309e-06,1.9352823243004406e-06,1.2110064339789057e-06,9.602277560326832e-07,1.7647873872262058e-06,2.527972450195881e-06,1.2515853322182153e-06,8.733499856450665e-07,1.5042964853827757e-06
35,6.075774087192342e-07,9.275002386430686e-07,7.044740314641423e-07,9.149326778681064e-07,1.0207934646235099e-06,9.624306116926666e-07,1.6379608792124148e-06,1.2683863681595288e-06,1.9832870316249847e-06,1.2276822734748732e-06,9.69953883754008e-07,1.8162211873724958e-06,2.488445919745117e-06,1.2520895885867943e-06,8.519089769022866e-07,1.5102066971842665e-06
36,6.268690948745129e-07,9.219362910337388e-07,6.979512023978478e-07,9.359308890401648e-07,1.0324829195501312e-06,9.292745408056521e-07,1.5937311199540066e-06,1.313016514101448e-06,2.0275115591141328e-06,1.2440695487040175e-06,9.777517287880286e-07,1.870281495311217e-06,2.45676896315492e-06,1.2527073232510274e-06,8.306689704027634e-07,1.5191480663069426e-06
37,6.479797606797166e-07,9.166560286730059e-07,6.939541263320912e-07,9.584460619643247e-07,1.0445454483667865e-06,9.001399568132699e-07,1.5529892936240814e-06,1.3607337032995652e-06,2.068066218996219e-06,1.2603834973122722e-06,9.833724735061873e-07,1.9265783562864227e-06,2.432586867834636e-06,1.2534211988821e-06,8.095677969972159e-07,1.5307882455086954e-06
38,6.70516255331334e-07,9.118047828391166e-07,6.932776086176931e-07,9.82185649375762e-07,1.0565463875302125e-06,8.752384579583636e-07,1.5150025028304144e-06,1.411545388824415e-06,2.10531804740434e-06,1.27699749258388e-06,9.86625228981374e-07,1.9844409134931016e-06,2.415852415566416e-06,1.2544474601861755e-06,7.88651744529999e-07,1.5447663384790284e-06
39,6.941033267727605e-07,9.074435808297918e-07,6.967228146327384e-07,1.006800392642713e-06,1.0681601284909193e-06,8.547448469422157e-07,1.4788529530597938e-06,1.4654061167446116e-06,2.139739212201511e-06,1.2943374344610353e-06,9.873129037938342e-07,2.0431202152515588e-06,2.406592272204247e-06,1.2562397998954697e-06,7.680046684553643e-07,1.5606240750037809e-06
40,7.183834700906758e-07,9.034953466963569e-07,7.050686489795197e-07,1.031839800849007e-06,1.07920546734465e-06,8.388022640490046e-07,1.443681325760578e-06,1.5222083336438573e-06,2.1717881207390737e-06,1.3127500196378654e-06,9.852192167821872e-07,2.1020127836330723e-06,2.4046470501198615e-06,1.2593664795681453e-06,7.476758955578409e-07,1.5777699446204952e-06
41,7.429983588275914e-07,8.997398915503962e-07,7.190288359879159e-07,1.0567330798285818e-06,1.0896152698602697e-06,8.275351477154919e-07,1.4089356786830582e-06,1.5817739308722473e-06,2.2018163274804645e-06,1.3324876128406113e-06,9.80192367339481e-07,2.160776305780539e-06,2.4095409254426354e-06,1.2643842280798914e-06,7.27697372869957e-07,1.595496486389409e-06
42,7.675395840238162e-07,8.958763655927605e-07,7.392414431127789e-07,1.0808603870952926e-06,1.0993587780497085e-06,8.210206360909778e-07,1.3744017205151566e-06,1.643852357119418e-06,2.2299401752880253e-06,1.3537359328081964e-06,9.72215972253915e-07,2.219313013695858e-06,2.4204485222702444e-06,1.2718294731326523e-06,7.081410125485716e-07,1.6130516859117471e-06
43,7.914964028002894e-07,8.915942842433071e-07,7.663044966718984e-07,1.103710786859509e-06,1.1083471714844964e-06,8.192753996081202e-07,1.3400070927252474e-06,1.708081785347115e-06,2.2559147095785186e-06,1.3766133567647486e-06,9.613935117389146e-07,2.277654323948775e-06,2.4361743476966896e-06,1.2822374751190275e-06,6.89130991653786e-07,1.6297472178693412e-06
44,8.142479599286072e-07,8.865845044014371e-07,8.007934804317259e-07,1.1250400901035358e-06,1.11636749946623e-06,8.223057751740728e-07,1.3056489161608645e-06,1.7739132121927897e-06,2.2791386484175258e-06,1.4011983684442555e-06,9.479226800247604e-07,2.33579568639798e-06,2.4551696788492964e-06,1.296068942265959e-06,6.707826757437722e-07,1.6450370869643965e-06
45,8.350875105691154e-07,8.805269419239107e-07,8.432289415038804e-07,1.1449392249681009e-06,1.1230847011895975e-06,8.301506617166286e-07,1.2712033325254787e-06,1.8405901079766925e-06,2.2987507598209665e-06,1.427556594005739e-06,9.321449410901109e-07,2.3935299115511053e-06,2.475680003519808e-06,1.3136152436264522e-06,6.531252013789538e-07,1.65855742727079e-06
46,8.532396088377702e-07,8.73135249001707e-07,8.940413594199792e-07,1.163766925231015e-06,1.128116570504862e-06,8.428359471426754e-07,1.236605964864281e-06,1.9072301604061407e-06,2.313660518255017e-06,1.4557359749490896e-06,9.14618685337329e-07,2.450336307860436e-06,2.4959671969428153e-06,1.3349916888346716e-06,6.360942720937234e-07,1.670129003021049e-06
47,8.679135077788043e-07,8.642203088446406e-07,9.535685460320058e-07,1.1819674745636011e-06,1.1311309205588025e-06,8.602819024188123e-07,1.2018821774872582e-06,1.9729205517317923e-06,2.322584507267209e-06,1.4858195237030812e-06,8.960868868300634e-07,2.505393660654734e-06,2.5143716191890888e-06,1.3601934241766457e-06,6.196040332022532e-07,1.6796863501816115e-06
48,8.784425658481983e-07,8.536900813265842e-07,1.02207647607282e-06,1.1998800522571645e-06,1.1318724263357355e-06,8.82252331526519e-07,1.1671468258243502e-06,2.0367498442119974e-06,2.3243058565282534e-06,1.518022927641479e-06,8.773297835801548e-07,2.5576961134958877e-06,2.5291616188246367e-06,1.3891423870344451e-06,6.036298526634534e-07,1.6871737108311617e-06
49,8.84436695327711e-07,8.415200159232164e-07,1.0997675113276785e-06,1.2176445707632399e-06,1.1300867407202242e-06,9.083747596715981e-07,1.1326109152715677e-06,2.097815645483381e-06,2.3181613064198502e-06,1.5526751239462409e-06,8.59032181039803e-07,2.6061485086524573e-06,2.538467506179793e-06,1.4217310472236243e-06,5.882398641316199e-07,1.6925245326447917e-06
50,8.858506933230241e-07,8.277696626432686e-07,1.1867760133600753e-06,1.235210943794623e-06,1.125456844741925e-06,9.381903622949205e-07,1.0985896633748826e-06,2.1552733374575978e-06,2.3044826049461406e-06,1.5900365128072736e-06,8.417349585316294e-07,2.6495818236646327e-06,2.54049609811834e-06,1.457876553789134e-06,5.73563628449515e-07,1.6957933801816344e-06
51,8.829642398950783e-07,8.126172954352102e-07,1.2831958733479196e-06,1.2523919406094924e-06,1.1176723322291143e-06,9.71164160903988e-07,1.0654918078387539e-06,2.2084144377234856e-06,2.2846204091724673e-06,1.6301142167355532e-06,8.258212751399598e-07,2.6867671975171286e-06,2.5337725843905278e-06,1.4975097412189605e-06,5.597346767172561e-07,1.6973973263731933e-06
52,8.762951629810641e-07,7.963321955375508e-07,1.3891158457349474e-06,1.2688929950981787e-06,1.1065772525015299e-06,1.0066607817157369e-06,1.0337748402701484e-06,2.256700665096816e-06,2.2604839046297943e-06,1.6726284748370918e-06,8.115017797727282e-07,2.7165521501391063e-06,2.5171005739436657e-06,1.5404602699154896e-06,5.468480833107587e-07,1.6982786503278966e-06
53,8.664681437942364e-07,7.792073208831116e-07,1.5045873266228516e-06,1.2843096352931912e-06,1.092260410370753e-06,1.0439316228755144e-06,1.003872424179328e-06,2.2997201007702213e-06,2.234016272475193e-06,1.71710715785232e-06,7.988154507202183e-07,2.738125671399288e-06,2.489382902490494e-06,1.5863770299976326e-06,5.349391664391443e-07,1.6997972661696715e-06
54,8.541177982185862e-07,7.615510199119072e-07,1.6295410761061946e-06,1.2981804154022044e-06,1.0750305435079504e-06,1.082101354492645e-06,9.76119643474467e-07,2.337117020407076e-06,2.2069412366329696e-06,1.7629821584358166e-06,7.87651102971511e-07,2.751216183063883e-06,2.449680332277406e-06,1.6348499658745307e-06,5.239846421562133e-07,1.7034541976629607e-06
55,8.398582262342016e-07,7.437271265010633e-07,1.7637648573849092e-06,1.3101274686581324e-06,1.055309206326442e-06,1.1201629503578614e-06,9.507051744461043e-07,2.36854066092946e-06,2.180664796911773e-06,1.8096069421337187e-06,7.77792841984556e-07,2.7560583649635837e-06,2.3975753885637756e-06,1.6856823312236387e-06,5.139422900322644e-07,1.710689008391589e-06
56,8.242540656227801e-07,7.261381990565877e-07,1.9069723469731502e-06,1.3199525695702235e-06,1.0335286655116732e-06,1.1570296447084618e-06,9.276909986535595e-07,2.3935955688648345e-06,2.156183565785484e-06,1.8561982491685636e-06,7.690304676933152e-07,2.753248090868927e-06,2.3335448033226787e-06,1.7390393919701575e-06,5.048058215527979e-07,1.7227856927220344e-06
57,8.077851145111205e-07,7.091411467899352e-07,2.0588377144825452e-06,1.3275969894982034e-06,1.0101178970114653e-06,1.1916328479059733e-06,9.071122007252979e-07,2.4118055245244e-06,2.134035878745499e-06,1.9017493944356743e-06,7.613189862058529e-07,2.743663363234072e-06,2.2589680525260384e-06,1.7952900630136851e-06,4.966180039496583e-07,1.7408630415948257e-06
58,7.908409829333341e-07,6.929804365654669e-07,2.218914988824572e-06,1.333043198187389e-06,9.855665425112959e-07,1.223004273328747e-06,8.890856081967702e-07,2.422662710225048e-06,2.114317450058105e-06,1.944968464276355e-06,7.548415969940845e-07,2.728402557356527e-06,2.175712601849737e-06,1.8547121004243246e-06,4.894283109799848e-07,1.765960830988299e-06
59,7.737370881589301e-07,6.777927136982781e-07,2.3865365047038257e-06,1.3362328669703669e-06,9.604537066956147e-07,1.250305288527654e-06,8.738471537682853e-07,2.4257732478835885e-06,2.0967252348204006e-06,1.984311838464851e-06,7.498978598942886e-07,2.7086403253120794e-06,2.085728046012495e-06,1.9173224848604115e-06,4.832475851026705e-07,1.7990847858806504e-06
60,7.5675503660203e-07,6.636657505813839e-07,2.560819759240774e-06,1.33700115450644e-06,9.353714273936049e-07,1.272848492397315e-06,8.617086484395345e-07,2.4210029168535964e-06,2.080636697697219e-06,2.0181484315750446e-06,7.467437372883604e-07,2.685452416477802e-06,1.990968234852444e-06,1.9828844407877385e-06,4.780638171014317e-07,1.8410990971629298e-06
61,7.401998218926144e-07,6.506897522797028e-07,2.7407877850749935e-06,1.3351006335077207e-06,9.108289497997534e-07,1.2902072103557276e-06,8.529662892308134e-07,2.408488775934238e-06,2.0652728809801868e-06,2.0449492823647556e-06,7.455155315583322e-07,2.659671172634635e-06,1.8934834714098778e-06,2.050995395764979e-06,4.7389105178403505e-07,1.8925980113307856e-06
62,7.244216869507721e-07,6.389685152788064e-07,2.9254806305730157e-06,1.3303908389350058e-06,8.872282615033605e-07,1.302395824201255e-06,8.478087387948603e-07,2.3884727632392733e-06,2.0499099530895022e-06,2.0633908824479785e-06,7.462332310502108e-07,2.6317728387264712e-06,1.7955915821936262e-06,2.121124543041201e-06,4.7078134796153883e-07,1.9539038967429595e-06
63,7.097849977452614e-07,6.286217872883389e-07,3.113934572724357e-06,1.3230508786466923e-06,8.648664496330543e-07,1.309922940138286e-06,8.462717893042836e-07,2.3611500919342454e-06,2.033999474435882e-06,2.0724544447619823e-06,7.488375448474444e-07,2.601834188076403e-06,1.7001643401404597e-06,2.192616216336265e-06,4.688257315613257e-07,2.0251328490843945e-06
64,6.966093926568518e-07,6.197921550723688e-07,3.3050166110702037e-06,1.313585951056037e-06,8.439236370881621e-07,1.3135882611902778e-06,8.48249568447214e-07,2.3267662063074077e-06,2.0171204537821707e-06,2.071641545173103e-06,7.532299098064728e-07,2.5695857846723993e-06,1.6108492346545078e-06,2.2647690979351755e-06,4.6816782394300266e-07,2.1062185995695713e-06
65,6.851157308620047e-07,6.12626385785064e-07,3.4971919853507985e-06,1.3026157389117026e-06,8.244684144159393e-07,1.3141836270085958e-06,8.535378332229596e-07,2.2858578192035793e-06,1.9988507459462307e-06,2.0611894427928185e-06,7.592953530722898e-07,2.5345287316251444e-06,1.5320882628580176e-06,2.3369117496299128e-06,4.689751628106139e-07,2.1969274750114255e-06
66,6.754158531442686e-07,6.072447027835239e-07,3.688328602273268e-06,1.290642963078165e-06,8.064730675681814e-07,1.3123154569168146e-06,8.618835877194208e-07,2.2393457351550022e-06,1.978682161869116e-06,2.0420234675702143e-06,7.669243572097209e-07,2.4960991701779217e-06,1.4690158171036666e-06,2.4083611975239236e-06,4.7137400173677607e-07,2.2969253884173833e-06
67,6.675513514866247e-07,6.037398082777063e-07,3.8756427864519325e-06,1.27793897115332e-06,7.898031663977425e-07,1.308376657299406e-06,8.730195028009465e-07,2.188399651821587e-06,1.9560041187877456e-06,2.0154014410758398e-06,7.760512785752125e-07,2.453889824289442e-06,1.4272675192763272e-06,2.478318339004917e-06,4.754205120842327e-07,2.4058386663720217e-06
68,6.615380274764588e-07,6.021794408482169e-07,4.055837492571766e-06,1.2645175069192557e-06,7.742163656235866e-07,1.3026324089426793e-06,8.86656940206841e-07,2.134201603150831e-06,1.9301831099226186e-06,1.982540366571617e-06,7.866809504612426e-07,2.407883657812778e-06,1.4126832724273094e-06,2.5457557596978204e-06,4.811166904265693e-07,2.5232320568854964e-06
69,6.573864136431304e-07,6.025794722301586e-07,4.225396477422456e-06,1.2501604215158103e-06,7.594337723256364e-07,1.2953835618874969e-06,9.024300738102745e-07,2.077741644926194e-06,1.9007941200464063e-06,1.9445015469011313e-06,7.988653964873682e-07,2.3585873251845196e-06,1.4310523831277316e-06,2.609314021750435e-06,4.884234365616648e-07,2.6485151460118494e-06
70,6.551043997873625e-07,6.049026519891024e-07,4.380960565303182e-06,1.2345119732958816e-06,7.452723790038879e-07,1.2871005339390877e-06,9.198359227639278e-07,2.0197297231230475e-06,1.8678581732073392e-06,1.9022807938352186e-06,8.12627183705264e-07,2.306959941573933e-06,1.4880191416876583e-06,2.66725519238454e-06,4.972601269559365e-07,2.780826621043371e-06
71,6.546818745559792e-07,6.091249975487042e-07,4.5197088845811575e-06,1.217203378864412e-06,7.31758895158385e-07,1.2784335149952598e-06,9.382391916780388e-07,1.9606612071651123e-06,1.831829006374716e-06,1.856914978747007e-06,8.278700540053934e-07,2.2541389051703092e-06,1.5890359166099582e-06,2.717494363988588e-06,5.075117811210993e-07,2.9189376971854566e-06
72,6.560525071184312e-07,6.153003698451931e-07,4.639663788451928e-06,1.1978990882348122e-06,7.191518915758996e-07,1.2701041321548743e-06,9.569558379426582e-07,1.9009913267609627e-06,1.79335839899173e-06,1.809546428524451e-06,8.44332485093283e-07,2.201124061736491e-06,1.7392723776226195e-06,2.757793889388195e-06,5.190374813661605e-07,3.061206080263742e-06
73,6.590640002636244e-07,6.23544387790105e-07,4.739854011276742e-06,1.176251074664781e-06,7.078547271854173e-07,1.2627475436591538e-06,9.75355526517048e-07,1.8412991212439818e-06,1.7531221561450274e-06,1.7614395564565896e-06,8.61624472383599e-07,2.1486128061717623e-06,1.943538948631132e-06,2.786269151755215e-06,5.316735881650509e-07,3.2055634237094187e-06
74,6.634944829385985e-07,6.339650040853545e-07,4.8203024706447895e-06,1.1519038296368897e-06,6.982739569363555e-07,1.256793808448558e-06,9.929236102510849e-07,1.782344544461008e-06,1.7118350625501852e-06,1.71390062071795e-06,8.793601148331285e-07,2.097008968622986e-06,2.2062617637085175e-06,2.802015764435574e-06,5.452616395785053e-07,3.3494935093692606e-06
75,6.691022703298312e-07,6.466166110334766e-07,4.8818267804121575e-06,1.1246304925798606e-06,6.907115228194104e-07,1.2524581534337717e-06,1.009269762394712e-06,1.7250072415674273e-06,1.6703009504652423e-06,1.6681088112183533e-06,8.973023996674329e-07,2.0465067045697986e-06,2.531468983718606e-06,2.805320999865101e-06,5.596845933398946e-07,3.4901003444910926e-06
76,6.756706489574834e-07,6.614999645666932e-07,4.9256463261717415e-06,1.0945053654776096e-06,6.853261878838538e-07,1.2498374794985661e-06,1.0240789534690056e-06,1.670141657833029e-06,1.6293329479847192e-06,1.6249680192327124e-06,9.153806438907546e-07,1.9971982390988896e-06,2.922752004076839e-06,2.797245808774332e-06,5.748466237661481e-07,3.6244268350745114e-06
77,6.830228561270847e-07,6.786030728424982e-07,4.952852588007632e-06,1.062005802681986e-06,6.821340584617536e-07,1.249017959963731e-06,1.0370206667418249e-06,1.6184056658807431e-06,1.5896029541629631e-06,1.5850456509164033e-06,9.335901384127812e-07,1.9492052913803366e-06,3.3832333684852355e-06,2.7790171434816374e-06,5.90624562450516e-07,3.749908856438282e-06
78,6.909999058848206e-07,6.9795746985208e-07,4.963974564962986e-06,1.0280053896143112e-06,6.810317038100996e-07,1.2500806810756149e-06,1.0476983885262493e-06,1.570152590145606e-06,1.551598117913635e-06,1.5485607908691396e-06,9.51899057918094e-07,1.9028200177556712e-06,3.915564716294846e-06,2.751720773607026e-06,6.068742759412673e-07,3.864663554581257e-06
79,6.994238683706108e-07,7.196287199555594e-07,4.958932901754417e-06,9.936452789290685e-07,6.818497221180038e-07,1.253022509961108e-06,1.0556913998692495e-06,1.5254445062203649e-06,1.5157096038419983e-06,1.5154039204426397e-06,9.701977818709705e-07,1.858602094920446e-06,4.521863817207833e-06,2.716267102975087e-06,6.234684606692444e-07,3.967499570060912e-06
80,7.080806402712481e-07,7.436295929007134e-07,4.937415984085259e-06,9.601377581155822e-07,6.844072631088326e-07,1.257744232340818e-06,1.0606328201139817e-06,1.484140926921285e-06,1.482300603487319e-06,1.4852314294380655e-06,9.882743987644341e-07,1.8173402575720911e-06,5.2035107473334095e-06,2.6734179189412964e-06,6.403050248981423e-07,4.057722872414132e-06
81,7.167218591434193e-07,7.698435284848336e-07,4.899411059783854e-06,9.286274004869662e-07,6.885209322314963e-07,1.2641838153992949e-06,1.062268559872473e-06,1.445977899320083e-06,1.4516894504236584e-06,1.4575947902213231e-06,1.0058313689747994e-06,1.7798496421701166e-06,5.960902696511699e-06,2.623875332964693e-06,6.573183039715078e-07,4.134793856287092e-06
82,7.25089966593225e-07,7.980111219217657e-07,4.8455926530177125e-06,9.001568660650675e-07,6.939769743280737e-07,1.2724698351569572e-06,1.0605058102867032e-06,1.410607028308969e-06,1.4241162575296855e-06,1.4319950340962598e-06,1.0225282855063291e-06,1.746729176119902e-06,6.793353881503888e-06,2.5684705662749014e-06,6.745020409218751e-07,4.197958817778669e-06
83,7.330102273865151e-07,8.27794339278546e-07,4.777421120063692e-06,8.756640532408675e-07,7.005133107513224e-07,1.2829156362115005e-06,1.055455910328348e-06,1.3775939529001904e-06,1.3997026678751442e-06,1.4079513561615851e-06,1.0379970079924673e-06,1.7182190856905515e-06,7.699169254918055e-06,2.508337372202993e-06,6.918723556765584e-07,4.246126740438691e-06
84,7.405191376659567e-07,8.589033790720126e-07,4.696984029813901e-06,8.559559854695317e-07,7.078169384519703e-07,1.2958534677737166e-06,1.047439471372789e-06,1.3464015963387334e-06,1.3784044247911188e-06,1.3852188330594004e-06,1.051823190319504e-06,1.6941813862084813e-06,8.675699116256103e-06,2.444912770168015e-06,7.093956772433942e-07,4.278087357434336e-06
85,7.478913832144723e-07,8.911827905686876e-07,4.606725796461492e-06,8.416718967579163e-07,7.155075782708401e-07,1.3114694877372384e-06,1.0369313212490613e-06,1.3164433999287329e-06,1.35999489819412e-06,1.3639447950559818e-06,1.0635683670705005e-06,1.674206278263057e-06,9.719196146391614e-06,2.3797489917640866e-06,7.26987989619413e-07,4.29286736226583e-06
86,7.555275747724399e-07,9.245710697736602e-07,4.509179194256379e-06,8.332572661903415e-07,7.231253109463717e-07,1.329727877613555e-06,1.0244788228431876e-06,1.2872234241387698e-06,1.3440599684580805e-06,1.3445304987981603e-06,1.0728632813796764e-06,1.6578427824936546e-06,1.0824499382810191e-05,2.3142858504565462e-06,7.445735090389991e-07,4.290041844450872e-06
87,7.638484275918108e-07,9.59025081221844e-07,4.406721670841525e-06,8.309567841712351e-07,7.301776918495183e-07,1.3503437223401975e-06,1.0106479061028686e-06,1.2584378750387121e-06,1.330006949659564e-06,1.3273607780333765e-06,1.079504619765259e-06,1.6448012737871178e-06,1.1984687509696287e-05,2.2497211915337863e-06,7.621272107863015e-07,4.269931004217174e-06
88,7.732875819982709e-07,9.945244508364863e-07,4.3013692363153595e-06,8.348264068337129e-07,7.362451355765703e-07,1.372763887935714e-06,9.96006210880112e-07,1.2299500826883357e-06,1.3171706099598555e-06,1.3126392508827504e-06,1.0835079491242703e-06,1.6349643995491738e-06,1.3190782946003399e-05,2.186972594220727e-06,7.796980840101162e-07,4.233610882016349e-06
89,7.843013842852371e-07,1.0310950841673743e-06,4.194659749884093e-06,8.447648306955115e-07,7.410750413751042e-07,1.3961592279144704e-06,9.81114360162502e-07,1.2016835473717016e-06,1.3050247477532157e-06,1.300339067960447e-06,1.0851164575928969e-06,1.6282965666453658e-06,1.4431432202471198e-05,2.1266859387951534e-06,7.973979406854819e-07,4.182726015648939e-06
90,7.973240651373455e-07,1.0687662300917027e-06,4.0876622884408055e-06,8.605481262739622e-07,7.445963208551191e-07,1.4194705337430155e-06,9.6650644151374e-07,1.1735203687131914e-06,1.293348834864575e-06,1.290223857010774e-06,1.0847558127926953e-06,1.6247895099264131e-06,1.5692553341717436e-05,2.069319177382737e-06,8.153301736677851e-07,4.119191475912447e-06
91,8.126942333492876e-07,1.1074952002782104e-06,3.981093721273007e-06,8.818365143721259e-07,7.468390259830085e-07,1.4415253312031206e-06,9.526732778260185e-07,1.1452708835902981e-06,1.2822027205815518e-06,1.2819040415026144e-06,1.0829290641343824e-06,1.6243913288153558e-06,1.6957329562281592e-05,2.0153097841140474e-06,8.335189844985333e-07,4.044874467270752e-06
92,8.305970399764059e-07,1.147117935992057e-06,3.875479359993004e-06,9.081698943575901e-07,7.478164409679132e-07,1.4611400418538187e-06,9.400757648047837e-07,1.116729580495438e-06,1.2717528092923027e-06,1.2748467788233494e-06,1.0801017117966787e-06,1.6268977050459692e-06,1.8206983201035847e-05,1.9652284497121853e-06,8.518850881578912e-07,3.961309170375752e-06
93,8.510449139163089e-07,1.187336641210402e-06,3.771255096621538e-06,9.390069690710119e-07,7.474579432045206e-07,1.477180066610312e-06,9.291721646637989e-07,1.087766779954537e-06,1.2621154951551364e-06,1.268339919975015e-06,1.0766591777369124e-06,1.6318861509376961e-06,1.942222044044203e-05,1.9197972464878776e-06,8.702574487831637e-07,3.869542434380761e-06
94,8.738925304536247e-07,1.2277526036365783e-06,3.6687075647449393e-06,9.737929831772505e-07,7.456266709551883e-07,1.488701410129644e-06,9.204003005991051e-07,1.0583667816425454e-06,1.2532927445049067e-06,1.2615156841617456e-06,1.072928104261804e-06,1.6386976027939484e-06,2.058478456317749e-05,1.8797538990350764e-06,8.884152335211503e-07,3.770232562462008e-06
95,8.988771914483842e-07,1.267926623351829e-06,3.567753807000453e-06,1.011972182488548e-06,7.421793540922784e-07,1.495179684273781e-06,9.141126765343415e-07,1.028572056024798e-06,1.2451658333454797e-06,1.2535048479518442e-06,1.069198893503871e-06,1.6464344958093172e-06,2.1678598469049157e-05,1.8456873986541532e-06,9.06121354495163e-07,3.663915770646593e-06
96,9.256737069737422e-07,1.307386407216453e-06,3.4677097950309518e-06,1.0529210859568275e-06,7.370035762718774e-07,1.4966449948022168e-06,9.105296916411596e-07,9.984301727856027e-07,1.237555520710269e-06,1.243665895296421e-06,1.065774172162468e-06,1.6539702043815452e-06,2.2690354003437056e-05,1.8179596356016437e-06,9.231129126663781e-07,3.551179000971586e-06
97,9.539316803171874e-07,1.3455830394395968e-06,3.367218610048271e-06,1.0958836889932159e-06,7.300355023384728e-07,1.4936253634520316e-06,9.097411265309693e-07,9.680481628407144e-07,1.230354392289008e-06,1.2317034698904804e-06,1.0630705007442533e-06,1.6599722963392228e-06,2.3609672202626583e-05,1.7966749749892097e-06,9.390753057258118e-07,3.432704016325979e-06
98,9.832855907586599e-07,1.3819165853625286e-06,3.2643921297330106e-06,1.1400133161376917e-06,7.213361915304745e-07,1.4869554542276735e-06,9.117395949938328e-07,9.376687695211574e-07,1.2236246400214488e-06,1.2175610072931523e-06,1.0616841243302545e-06,1.6629900597812774e-06,2.4428734491375463e-05,1.7816615416342159e-06,9.536167943667674e-07,3.30937665132634e-06
99,1.013355954696084e-06,1.4158661703470141e-06,3.15715778388267e-06,1.1845237435195038e-06,7.112151702871268e-07,1.477542744756068e-06,9.164720177915626e-07,9.076292218439763e-07,1.2175862561540928e-06,1.201225102113338e-06,1.0623248887448304e-06,1.6616350885183127e-06,2.514098363943488e-05,1.7724994772680943e-06,9.66239475843871e-07,3.1824758295784446e-06
100,1.0437355191089935e-06,1.4471374729504483e-06,3.0438119495210354e-06,1.228808914203491e-06,7.002584668952886e-07,1.466178001582748e-06,9.238908305955057e-07,8.78238240838769e-07,1.2125411013512766e-06,1.1826533489361695e-06,1.0656624439759366e-06,1.654788483213058e-06,2.5738933147921513e-05,1.7685788309486957e-06,9.76361778275507e-07,3.053754684167898e-06
101,1.0739518966623645e-06,1.4757414589608707e-06,2.923647067701167e-06,1.272407143132943e-06,6.892048422640377e-07,1.4534437234351554e-06,9.339611209697773e-07,8.496891028718099e-07,1.2087798666814793e-06,1.1618547051681218e-06,1.0722084291682634e-06,1.6417643831139784e-06,2.6212366794657966e-05,1.7691446892475633e-06,9.834566181701896e-07,2.9253337739970935e-06
102,1.103429242870868e-06,1.5019496859018687e-06,2.797313354875392e-06,1.3148562393908389e-06,6.787812532501341e-07,1.4396962586817708e-06,9.465924925920238e-07,8.220397866917255e-07,1.206503227369914e-06,1.1390129199017862e-06,1.0822740296661058e-06,1.6223964607497614e-06,2.6548783855223237e-05,1.7733088858603396e-06,9.87243630582994e-07,2.799466702548773e-06
103,1.131464533493159e-06,1.526122601587434e-06,2.6666575180188788e-06,1.3555901535283052e-06,6.69609167366847e-07,1.425073924426859e-06,9.61551689369358e-07,7.952558486609515e-07,1.2058030040789492e-06,1.1145473883493154e-06,1.0959698322976446e-06,1.5970264739417667e-06,2.6736469996207104e-05,1.7800687552838845e-06,9.87786463053018e-07,2.6782417047022675e-06
104,1.1572318847403351e-06,1.548509467811698e-06,2.534148051695947e-06,1.3939656314800698e-06,6.621875609629401e-07,1.4095362276577283e-06,9.784580156282017e-07,7.693179278111454e-07,1.2066948841992375e-06,1.089045801268567e-06,1.113246875016054e-06,1.566405731784537e-06,2.676853626270298e-05,1.7884400713382013e-06,9.854284707581322e-07,2.5633240365986825e-06
105,1.1798673803629023e-06,1.5691516082129548e-06,2.40225006199136e-06,1.4293766430109963e-06,6.568996432781202e-07,1.3929229386618868e-06,9.968744424941545e-07,7.443155458474958e-07,1.2091452040068962e-06,1.0631147020258322e-06,1.1339619474379976e-06,1.5315187102251125e-06,2.6645895630054485e-05,1.7976891630249438e-06,9.806493344303298e-07,2.455866015834268e-06
106,1.198640280770528e-06,1.5879131334153457e-06,2.2730408730609788e-06,1.4613738499928664e-06,6.540088274913309e-07,1.3749813039412806e-06,1.0164131985705082e-06,7.204324214327668e-07,1.213056733755086e-06,1.0372835043227525e-06,1.1578994746545582e-06,1.493356293932892e-06,2.6378030154502366e-05,1.8074781700440051e-06,9.739639658410217e-07,2.3565594958651897e-06
107,1.2130941789470535e-06,1.6045598888411044e-06,2.14810117995136e-06,1.4897512889271951e-06,6.536465962348448e-07,1.355392180261012e-06,1.036782609164705e-06,6.978673691165293e-07,1.2182153386003325e-06,1.0119915982277733e-06,1.1847351624122966e-06,1.4527704830190759e-06,2.5981373073784425e-05,1.8177748768666154e-06,9.658753066715522e-07,2.2657007390299557e-06
108,1.2230448251566402e-06,1.6188238285522622e-06,2.028544426464942e-06,1.5145587568852769e-06,6.558009734614464e-07,1.3338740421775033e-06,1.0577544146143844e-06,6.767909849650717e-07,1.2242358689702254e-06,9.87574067349416e-07,1.2139990727124415e-06,1.4105130810257858e-06,2.5476019263459342e-05,1.8285684401482592e-06,9.568327584967972e-07,2.1832604259049834e-06
109,1.2284613118706073e-06,1.6304544138314132e-06,1.915101775399878e-06,1.5359874139690613e-06,6.603105418486808e-07,1.3103333319786607e-06,1.0790930377445746e-06,6.573326975880833e-07,1.2305587409338891e-06,9.642237165661137e-07,1.245115558425047e-06,1.3673701214513624e-06,2.4881992144862493e-05,1.8396120425590625e-06,9.472386186873816e-07,2.108987404023201e-06
110,1.2293575366389923e-06,1.6392799905024506e-06,1.8082427097619918e-06,1.5541886467452128e-06,6.668753234800613e-07,1.284940565236139e-06,1.1005242099557633e-06,6.395603030697617e-07,1.2365332036931207e-06,9.419975789227395e-07,1.2775344459480327e-06,1.3242437545708276e-06,2.4216309536270923e-05,1.8504221954563511e-06,9.375422637854703e-07,2.0424507525509195e-06
111,1.2257781794728071e-06,1.6452625957256179e-06,1.7082507327018911e-06,1.5691815606704731e-06,6.750970212512706e-07,1.258064879455286e-06,1.1217481689843626e-06,6.234842248395508e-07,1.2415898193479121e-06,9.209006292407012e-07,1.3108139861319708e-06,1.2821407112442942e-06,2.3491885702766753e-05,1.860532555282809e-06,9.283090291779456e-07,1.9830043220635094e-06
112,1.2178236271723708e-06,1.6484711537792998e-06,1.615243849980483e-06,1.580873622277386e-06,6.845518416999137e-07,1.2301130157862867e-06,1.142418176040895e-06,6.090950770569086e-07,1.2454158534009026e-06,9.009602692973606e-07,1.3445920181631202e-06,1.2421197680746785e-06,2.271843006849721e-05,1.8697242744477692e-06,9.201628640757889e-07,1.929796988027288e-06
113,1.2056171751490353e-06,1.6489448607821222e-06,1.5292351291357353e-06,1.5890620712846534e-06,6.948853656504394e-07,1.2013834058825333e-06,1.1620746912937515e-06,5.963758159544313e-07,1.2479813269561104e-06,8.822044638651604e-07,1.3786442468647542e-06,1.2052628970931354e-06,2.1904176658250056e-05,1.877973698482435e-06,9.136817114450879e-07,1.8818845351881824e-06
114,1.189268525882019e-06,1.6465677345431043e-06,1.4502104142334363e-06,1.5933846312546284e-06,7.059075519367655e-07,1.1720437822155523e-06,1.1801307790667575e-06,5.852809927420057e-07,1.2493731099118632e-06,8.646133940968594e-07,1.413082833127439e-06,1.1727096406134793e-06,2.1057023544706534e-05,1.8852167599249014e-06,9.093395724726547e-07,1.838403964836685e-06
115,1.1689410394389905e-06,1.6410566335192576e-06,1.3781169809166065e-06,1.593355110146117e-06,7.176431724416273e-07,1.1422719636259153e-06,1.1959625329382187e-06,5.757357024959818e-07,1.2495914004574581e-06,8.481564262326039e-07,1.448403924407341e-06,1.1457851348903443e-06,2.0184661956255576e-05,1.891249073419564e-06,9.074800549731144e-07,1.7986849169990033e-06
116,1.1449664389832253e-06,1.6320043102068088e-06,1.31278508023591e-06,1.5885572875650312e-06,7.302822140207201e-07,1.1124507238606683e-06,1.20906337670426e-06,5.67662622200011e-07,1.248459235996482e-06,8.328844112157966e-07,1.4852624653425561e-06,1.12620924392617e-06,1.9294265054976704e-05,1.8958414462742203e-06,9.083066790973479e-07,1.7621735012426482e-06
117,1.1179047107938124e-06,1.6189449767069593e-06,1.2539103344261327e-06,1.5789050368740009e-06,7.440431720283255e-07,1.083231026452037e-06,1.2191954040842404e-06,5.610034410935088e-07,1.2456174537201882e-06,8.189690404514072e-07,1.5242636826706457e-06,1.1162559189334752e-06,1.8392413080649306e-05,1.898861806307008e-06,9.119092890309699e-07,1.7282973398635984e-06
118,1.088546219788592e-06,1.601488859539798e-06,1.201143227003802e-06,1.564841328122312e-06,7.590457263622152e-07,1.0554147653160451e-06,1.2264673716757692e-06,5.557060659177992e-07,1.240550610251315e-06,8.06650069965714e-07,1.5659852255113055e-06,1.1187261587733144e-06,1.7485388373159827e-05,1.9002415964160147e-06,9.183315946942485e-07,1.6964521572945972e-06
119,1.0578561200756349e-06,1.5794784002487698e-06,1.1541881370386704e-06,1.5473937135486018e-06,7.752648965974171e-07,1.0297879921928998e-06,1.231277209708403e-06,5.516752331386481e-07,1.2327115473586352e-06,7.961435903142769e-07,1.6110510066711608e-06,1.1368069207819569e-06,1.6579596362458373e-05,1.8998208417133164e-06,9.276407729812645e-07,1.666020232433624e-06
120,1.026846442631544e-06,1.5530522336779159e-06,1.1128085813641882e-06,1.5280476300476913e-06,7.925585547071758e-07,1.0070469062318039e-06,1.2341303257131733e-06,5.487312511152326e-07,1.2217974001667276e-06,7.875756445096801e-07,1.660079110668245e-06,1.1739830803693637e-06,1.5681800990206235e-05,1.8971871151311529e-06,9.399200043882773e-07,1.6363850180623043e-06
121,9.964293279282997e-07,1.5225749331038486e-06,1.07673996351634e-06,1.5084856841653072e-06,8.107212741258169e-07,9.87812264118062e-07,1.2354399037764189e-06,5.466258871697781e-07,1.2080196244335931e-06,7.809552095281134e-07,1.7135996798853036e-06,1.2339740846474508e-06,1.4798761921965174e-05,1.8915836323056177e-06,9.551760637689908e-07,1.6070429369609857e-06
122,9.673262928195934e-07,1.4884764427744982e-06,1.0455947349327941e-06,1.4903214954698618e-06,8.29514949095579e-07,9.726279865759097e-07,1.2354310601742064e-06,5.451066612790675e-07,1.192105286682348e-06,7.761763588556255e-07,1.7720145799501846e-06,1.320574637339408e-06,1.3936243475694769e-05,1.881934626687873e-06,9.732616061289185e-07,1.5777096920201212e-06
123,9.400431301784008e-07,1.4511100457236487e-06,1.0188431178154883e-06,1.4749377276429836e-06,8.486696963364251e-07,9.619303474858112e-07,1.2341668658041557e-06,5.439833678412611e-07,1.1750253371641995e-06,7.730469569051018e-07,1.8355610243376078e-06,1.4374566407397597e-06,1.3098452440525024e-05,1.8670274079879859e-06,9.938896769267654e-07,1.5482860960180702e-06
124,9.148858654561307e-07,1.4107524201092246e-06,9.95871290362554e-07,1.4634414906383511e-06,8.67891745743596e-07,9.560504729023818e-07,1.2315958537673086e-06,5.43168285425017e-07,1.157729283276989e-06,7.713645444084577e-07,1.904292771754656e-06,1.588080711956938e-06,1.2288827040279599e-05,1.8457924922271158e-06,1.016717957360575e-06,1.5187402303063314e-06
125,8.920139196146687e-07,1.3677367874182939e-06,9.760708546315393e-07,1.456680035810407e-06,8.868669701083141e-07,9.552311906599429e-07,1.2275587432697745e-06,5.426884946401952e-07,1.1410404057077757e-06,7.710296244098022e-07,1.978062463370279e-06,1.775776076289996e-06,1.151138840473224e-05,1.8175495709406472e-06,1.041433319346686e-06,1.4889941707990016e-06
126,8.715147750669798e-07,1.322562910979544e-06,9.589376219361646e-07,1.4552709022782268e-06,9.052279176777219e-07,9.596031193166496e-07,1.22179087864938e-06,5.426657123149613e-07,1.1256212294973184e-06,7.720900797833981e-07,2.0564474210616385e-06,2.003951695241715e-06,1.0771310165111879e-05,1.78216555193724e-06,1.067789000972593e-06,1.4588449147801313e-06
127,8.534463434547609e-07,1.275887438280878e-06,9.441521476078026e-07,1.4596252404390856e-06,9.225360273459251e-07,9.691442412436766e-07,1.2139305081670648e-06,5.43255234798796e-07,1.1119470287373456e-06,7.746631035091589e-07,2.1386595791447312e-06,2.2763268453562057e-06,1.007440196601705e-05,1.7401346623680073e-06,1.0955760929972265e-06,1.427959046280251e-06
128,8.378247727317796e-07,1.2284492992629258e-06,9.315918141655976e-07,1.4699644668534627e-06,9.383443608542455e-07,9.83683129066286e-07,1.2035379759167675e-06,5.445723442427831e-07,1.100342583065404e-06,7.788503616492073e-07,2.2234974339314943e-06,2.5970723502546413e-06,9.426083283021378e-06,1.6925557723604506e-06,1.1245532655867577e-06,1.3960111705380456e-06
129,8.24606285857881e-07,1.1810096900978965e-06,9.212762840207011e-07,1.4863645928602818e-06,9.523123064358594e-07,1.0029434088068218e-06,1.1901874702064985e-06,5.466574560640116e-07,1.0910777748047906e-06,7.847445475480768e-07,2.3093175547577663e-06,2.9708280146079903e-06,8.83072701007607e-06,1.640976701442575e-06,1.1544005589949588e-06,1.3629191976373266e-06
130,8.137044292958036e-07,1.1343121120020216e-06,9.133005524080758e-07,1.5088094736023997e-06,9.642628836979056e-07,1.0265664663318116e-06,1.1736293190834645e-06,5.494840484844741e-07,1.0843986183740845e-06,7.924608332061794e-07,2.3940514276328884e-06,3.4025795909138635e-06,8.291888911946164e-06,1.5871442954421458e-06,1.1847215015744616e-06,1.328947323393221e-06
131,8.0501390285759e-07,1.0890314332791502e-06,9.077751976418751e-07,1.5371726041739505e-06,9.741163644848747e-07,1.0540924541736576e-06,1.15394035462669e-06,5.52978750660797e-07,1.0804438936567793e-06,8.021058602834035e-07,2.4753571380213954e-06,3.897367003426383e-06,7.812990555272995e-06,1.5327739523705269e-06,1.215071033067885e-06,1.29456057332339e-06
132,7.983944377361828e-07,1.0457195716869828e-06,9.047743934975875e-07,1.571149421598326e-06,9.81816762991344e-07,1.0849544688229279e-06,1.1315916258671128e-06,5.570631694727142e-07,1.0791630495728034e-06,8.137106327142278e-07,2.550903422088705e-06,4.4598833987217496e-06,7.397627819245269e-06,1.4794171872217204e-06,1.2450110314352073e-06,1.2602328610769194e-06
133,7.936385220305644e-07,1.004790146567276e-06,9.043281738361118e-07,1.6102165891400808e-06,9.873947261076596e-07,1.1185110151744583e-06,1.107384974559654e-06,5.617220238114269e-07,1.0803441558959197e-06,8.271792889826445e-07,2.6186499108387644e-06,5.094149068097355e-06,7.0492437363650945e-06,1.428396128074131e-06,1.274168615416205e-06,1.2264042574649337e-06
134,7.904993039599076e-07,9.665521795426468e-07,9.064642878134165e-07,1.6535891044951062e-06,9.910872733032963e-07,1.1540813436202279e-06,1.0822682169590928e-06,5.670277894224246e-07,1.0837182634976195e-06,8.422625506437876e-07,2.6769230216450166e-06,5.803327360908297e-06,6.770501569459951e-06,1.3807777043431358e-06,1.3022362380402082e-06,1.1935050553111524e-06
135,7.887901033684146e-07,9.312476456906472e-07,9.112439579006069e-07,1.7001489708373653e-06,9.933468896814908e-07,1.1909753298601356e-06,1.0571300486476325e-06,5.73082065956634e-07,1.0890306675328342e-06,8.585599701669388e-07,2.7242853471271907e-06,6.589560669149097e-06,6.5627930549663e-06,1.337416357961474e-06,1.3289582548515558e-06,1.161927847808811e-06
136,7.884596280525388e-07,8.990467768244445e-07,9.187512203223643e-07,1.748403126528264e-06,9.947214598996102e-07,1.2285541431377733e-06,1.0326761654085965e-06,5.799384746371273e-07,1.096045038767218e-06,8.755618759589063e-07,2.759598611496408e-06,7.453845608280653e-06,6.426100150014597e-06,1.2990601298673008e-06,1.3541733855895659e-06,1.1319676849428874e-06
137,7.895591327660971e-07,8.700207353689659e-07,9.290322221376935e-07,1.7965388367201471e-06,9.957189766249734e-07,1.266338483462463e-06,1.0094001197775175e-06,5.875674728855002e-07,1.1045391918699608e-06,8.92738205056102e-07,2.7824834172247415e-06,8.39603316959669e-06,6.3591261513233365e-06,1.2664709068755576e-06,1.3778389017725418e-06,1.1037737404462502e-06
138,7.921532605005714e-07,8.441574922303292e-07,9.420154286755013e-07,1.8426384464032913e-06,9.967578424453783e-07,1.304125099489985e-06,9.876033142035793e-07,5.958505827867249e-07,1.1143174442352346e-06,9.096216484434608e-07,2.7936508689845e-06,9.414762305354172e-06,6.3594826994192016e-06,1.2404903133028119e-06,1.4000230740011945e-06,1.0773500185366627e-06
139,7.962764943754994e-07,8.214308768445293e-07,9.574632331910441e-07,1.8850267801633898e-06,9.98190843461739e-07,1.3420383174634606e-06,9.67418214650791e-07,6.045866595747171e-07,1.1252033001978196e-06,9.258092805499929e-07,2.794612442970138e-06,1.0507117957726345e-05,6.423840046281983e-06,1.2219937512104616e-06,1.420933350294107e-06,1.0526228280320984e-06
140,8.01923922387987e-07,8.018574674873836e-07,9.749601190572449e-07,1.922561982211306e-06,1.000320571879052e-06,1.3804641306208255e-06,9.488300640881252e-07,6.135197191955584e-07,1.1370075211982808e-06,9.409394742224526e-07,2.7870192169486773e-06,1.1668144431719877e-05,6.5480607930632865e-06,1.2117701155227444e-06,1.440873863012971e-06,1.0295043834239372e-06
141,8.090140363452888e-07,7.85498615020748e-07,9.939171329255438e-07,1.9546797352268663e-06,1.003366576840338e-06,1.4198766188149772e-06,9.317311878448452e-07,6.223717173365389e-07,1.1495011995009683e-06,9.5471046348241e-07,2.7721414307743468e-06,1.2890468050485116e-05,6.7273023656823705e-06,1.2104370166020961e-06,1.4600655576448912e-06,1.0078832159634501e-06
142,8.173554149044924e-07,7.724238132266532e-07,1.013608233833461e-06,1.981196676543008e-06,1.0074124979179141e-06,1.4606313805288e-06,9.159926696995898e-07,6.308420596177701e-07,1.1623828028577718e-06,9.668904722861307e-07,2.7506475922836335e-06,1.4164085700110989e-05,6.956058053919528e-06,1.2184516523855728e-06,1.4784865433134622e-06,9.876037518000845e-07
143,8.266815178862275e-07,7.626569787547019e-07,1.0332598770760495e-06,2.0020443610234085e-06,1.0123744797789917e-06,1.5028165824287296e-06,9.014757263186631e-07,6.385872244467795e-07,1.1752409166439212e-06,9.77345628359513e-07,2.7225710855185104e-06,1.5476219829033458e-05,7.22816581725004e-06,1.236168962454446e-06,1.495850016750103e-06,9.685343094240223e-07
144,8.367369636902531e-07,7.561166966973774e-07,1.0521756843562336e-06,2.0170851855112742e-06,1.0180230726264527e-06,1.5461992779924598e-06,8.879702232236579e-07,6.452477147341617e-07,1.1875683169734386e-06,9.861271297172038e-07,2.6874190701232147e-06,1.6811188648291604e-05,7.536789542031128e-06,1.263844071237597e-06,1.5116988520353998e-06,9.506854517995884e-07
145,8.473406166451856e-07,7.525743855388635e-07,1.0698475688422577e-06,2.026014114098041e-06,1.024082240682794e-06,1.590232369957941e-06,8.751365274062708e-07,6.505417365041474e-07,1.1988396506307781e-06,9.935105516083068e-07,2.6444979800246937e-06,1.815039164772586e-05,7.874314618300011e-06,1.3015584068034339e-06,1.5255494962440088e-06,9.342400151295618e-07
146,8.583654058531043e-07,7.51656662721998e-07,1.086018837943571e-06,2.0282800900245717e-06,1.0303718415480557e-06,1.6340795398511958e-06,8.625086775673493e-07,6.543402741460823e-07,1.208614564104365e-06,9.9992851661714e-07,2.59340614975754e-06,1.9472616033474404e-05,8.232164868404812e-06,1.3491565028999305e-06,1.5369967984055233e-06,9.194663151168859e-07
147,8.696513574324678e-07,7.52878287705291e-07,1.1006829089117144e-06,2.023075779723818e-06,1.0368934926930926e-06,1.6767036933719723e-06,8.495669860770873e-07,6.566412388256456e-07,1.2165912292057074e-06,1.0058635315144043e-06,2.534400471353002e-06,2.075465928697429e-05,8.600582746892083e-06,1.406251517733429e-06,1.5457473869814135e-06,9.066654276315214e-07
148,8.809308101016005e-07,7.556563775112681e-07,1.1139948062435354e-06,2.009518012775111e-06,1.0437910068432008e-06,1.7170787328261616e-06,8.358429197957716e-07,6.574930598764835e-07,1.2225425967735733e-06,1.011743750995941e-06,2.4683592443402026e-06,2.1971663994158044e-05,8.968451201960829e-06,1.4722528838154079e-06,1.5516463465369675e-06,8.962173270831417e-07
149,8.918113049150625e-07,7.592952081634586e-07,1.1261315833538256e-06,1.9870016975056515e-06,1.051223369948024e-06,1.7544318309519377e-06,8.209852426062281e-07,6.569668247429573e-07,1.2262225897525133e-06,1.017867863719053e-06,2.3964308348138833e-06,2.309661935894266e-05,9.323595205367317e-06,1.546346174907786e-06,1.5547200715687106e-06,8.885760048861693e-07
150,9.018080537361968e-07,7.629930445508982e-07,1.1371996087193499e-06,1.9555505008497722e-06,1.0592627126436904e-06,1.7883733971326899e-06,8.047741188561158e-07,6.551646969480966e-07,1.2273791929047803e-06,1.0243872758946978e-06,2.3197840302541794e-06,2.4100028452355966e-05,9.654041325628806e-06,1.6274399411142836e-06,1.5551364314183545e-06,8.841582751014999e-07
151,9.104065534072503e-07,7.659192127051807e-07,1.1471974679517415e-06,1.91595689205453e-06,1.0679001889702695e-06,1.8189071763327917e-06,7.871376433512211e-07,6.522140154817173e-07,1.2258519957312588e-06,1.0313124253462534e-06,2.2396632091483915e-06,2.4951731301362998e-05,9.94981434248103e-06,1.7141352099713765e-06,1.553035175362662e-06,8.832653653350504e-07
152,9.171345796904948e-07,7.673529843171202e-07,1.1559647074496432e-06,1.8695991185081495e-06,1.077128488604821e-06,1.8463694703293993e-06,7.681749177214141e-07,6.482561777499213e-07,1.2216430930864605e-06,1.038501113597577e-06,2.1575059389440083e-06,2.5625218488276387e-05,1.020415298860319e-05,1.804725702232758e-06,1.5483603381563938e-06,8.861022265477194e-07
153,9.216297138958346e-07,7.668006434497928e-07,1.1631280885741405e-06,1.818035927596422e-06,1.0869910274440628e-06,1.8712947941469434e-06,7.481196787405118e-07,6.434303883770798e-07,1.2148932843129088e-06,1.0456490050729223e-06,2.074897538943015e-06,2.61022567577095e-05,1.0413498902817291e-05,1.8972077882268484e-06,1.5408228004689408e-06,8.928146586138384e-07
154,9.23687916874267e-07,7.639864359009335e-07,1.1681205745889094e-06,1.76264809278765e-06,1.0975320232386923e-06,1.8942325140451685e-06,7.272327604466155e-07,6.378593530772693e-07,1.2057852596020189e-06,1.0523364425979004e-06,1.993401565697844e-06,2.6374927617599987e-05,1.0576501007009212e-05,1.9892952327921886e-06,1.5299778689639446e-06,9.034918825844173e-07
155,9.232668074586242e-07,7.587322792874335e-07,1.170299638131409e-06,1.704530220618902e-06,1.1086902433023918e-06,1.915611296384952e-06,7.057221841547253e-07,6.316618303005957e-07,1.1944636867737412e-06,1.0581628944915802e-06,1.914386302742879e-06,2.644355871661668e-05,1.069259723713258e-05,2.0785127593144867e-06,1.5153681679399317e-06,9.181682022182902e-07
156,9.204402700271589e-07,7.508622677316752e-07,1.1691255682699009e-06,1.644621998926045e-06,1.1202278199596802e-06,1.9356933902311713e-06,6.837658763416811e-07,6.24980462740672e-07,1.1810006439698062e-06,1.0628992983893487e-06,1.8389299015662475e-06,2.631184678279376e-05,1.0760671169221327e-05,2.162459330168653e-06,1.4966807217437975e-06,9.368215340448105e-07
157,9.153386400394514e-07,7.402142004793244e-07,1.1643203783579233e-06,1.5839014018120953e-06,1.1317534505694372e-06,1.9545471403786635e-06,6.61587254429545e-07,6.180280379642681e-07,1.1653606966126359e-06,1.0665117609891273e-06,1.7677997967695997e-06,2.5983142257923515e-05,1.0778451693886092e-05,2.239165321966224e-06,1.4738462347781598e-06,9.59330731797416e-07
158,9.080986447729818e-07,7.267378759008314e-07,1.1559384267227568e-06,1.5234370245970872e-06,1.1428135309929666e-06,1.9720065635709977e-06,6.395056300719611e-07,6.111316635447161e-07,1.1473810785206053e-06,1.0690487803044643e-06,1.7014708231146458e-06,2.5461087086579263e-05,1.0743062436798387e-05,2.3073454269986626e-06,1.4470648540666885e-06,9.854374519277754e-07
159,8.988159106137047e-07,7.106223099213349e-07,1.1443457658344495e-06,1.4642574755629806e-06,1.1529417428805583e-06,1.987705815713686e-06,6.179334723727682e-07,6.047008676486537e-07,1.126816952071395e-06,1.070558334887409e-06,1.6401729177440823e-06,2.475351929630356e-05,1.0652128566812931e-05,2.3663978548946586e-06,1.41677814372657e-06,1.014756017928367e-06
160,8.875176798153504e-07,6.923424527822695e-07,1.130135572151389e-06,1.4071918953962505e-06,1.1616299217686464e-06,2.0012286714987304e-06,5.973275772186809e-07,5.99136610837792e-07,1.1034385500020483e-06,1.0711157320720602e-06,1.5839374292143789e-06,2.3875871473464794e-05,1.0504587641933454e-05,2.4161333707730816e-06,1.3835863806891258e-06,1.0467889918705447e-06
161,8.742114502801931e-07,6.725528589603833e-07,1.113985109171522e-06,1.3528105272870611e-06,1.1683314929110815e-06,2.012278544173269e-06,5.781464774462992e-07,5.94767054888625e-07,1.0771540219936207e-06,1.0708658524026754e-06,1.5326489722580055e-06,2.285157989136688e-05,1.0301113018582684e-05,2.456423886953473e-06,1.3481659121868088e-06,1.0809552884858032e-06
162,8.5900242367207e-07,6.519334185979585e-07,1.0964877317449952e-06,1.3014468802870349e-06,1.172575492376253e-06,2.020771080745168e-06,5.6086101756771e-07,5.91826667954524e-07,1.0481380035097509e-06,1.0699795465912998e-06,1.4861377327765693e-06,2.1709658298716335e-05,1.0044520935481303e-05,2.487047743156233e-06,1.3112701571394554e-06,1.1166632272361352e-06
163,8.421820283699379e-07,6.311137790487238e-07,1.0780482033561083e-06,1.2532364477613614e-06,1.17411936873331e-06,2.026826192193832e-06,5.459720913448547e-07,5.904506046427702e-07,1.016897045404788e-06,1.068547261520742e-06,1.4442656179978194e-06,2.048109021569023e-05,9.74020134088241e-06,2.5077568198727257e-06,1.2737631513468105e-06,1.1533485139662708e-06
164,8.24214432437065e-07,6.106583640421314e-07,1.0588976089623738e-06,1.2081572165830756e-06,1.1730284015579739e-06,2.0306761249361274e-06,5.339777064663086e-07,5.906733887092496e-07,9.842181961813802e-07,1.0665073509784728e-06,1.4069321031608523e-06,1.9195600985453326e-05,9.396063144029521e-06,2.5183373794421472e-06,1.2365851007361793e-06,1.1904136295353505e-06
165,8.056347908091778e-07,5.910610201036927e-07,1.039193737733599e-06,1.1661188168369118e-06,1.1696356720616172e-06,2.0325250077451533e-06,5.25321101038667e-07,5.924476906297669e-07,9.510385395273918e-07,1.0636870145326505e-06,1.3739969482356643e-06,1.7879556187446094e-05,9.021555631287446e-06,2.5185669135670835e-06,1.2006806490528557e-06,1.2271357627326384e-06
166,7.869336361328289e-07,5.727408496642572e-07,1.0191183937520094e-06,1.1270865746048321e-06,1.1644034375751814e-06,2.0324192736571368e-06,5.203682743299739e-07,5.9569369018701e-07,9.18300571547778e-07,1.059957546419883e-06,1.345240057556199e-06,1.6555087366566255e-05,8.626191337091421e-06,2.508211243938147e-06,1.1669357098730242e-06,1.2626304363972841e-06
167,7.685171752316257e-07,5.560485208055308e-07,9.988919509358224e-07,1.0911174647009925e-06,1.1577491242777292e-06,2.0301858666990896e-06,5.194249221613901e-07,6.00333309982248e-07,8.868398506712424e-07,1.0553616540875952e-06,1.3204588780789625e-06,1.5240159289967297e-05,8.218550451475996e-06,2.4871783477470077e-06,1.1361107165832215e-06,1.2959339684638134e-06
168,7.507525984764891e-07,5.412835789033412e-07,9.787069116284883e-07,1.0582769670089246e-06,1.149909325721571e-06,2.0254216629845476e-06,5.227783215376712e-07,6.062639934755732e-07,8.573388452617247e-07,1.0500538091106087e-06,1.299572601689119e-06,1.3949121917239984e-05,7.806074324024268e-06,2.4557194173710403e-06,1.1087928830089186e-06,1.3261989480993412e-06
169,7.340001907163521e-07,5.286988944961017e-07,9.586643536510073e-07,1.0285452331767125e-06,1.140893135002097e-06,2.017492633278109e-06,5.30719638139284e-07,6.133097939489572e-07,8.303307291902465e-07,1.0441340650600903e-06,1.282561700847972e-06,1.2693384905398998e-05,7.395095011037649e-06,2.414504486012345e-06,1.0853834941820577e-06,1.3528610139774975e-06
170,7.185741005900076e-07,5.184875959686738e-07,9.387519105387753e-07,1.0017655773022752e-06,1.1305438305447796e-06,2.0056107628657335e-06,5.435376418457374e-07,6.212116052174491e-07,8.062069690442126e-07,1.0375804459578047e-06,1.2692996568317822e-06,1.1482025811379897e-05,6.990724423025222e-06,2.3645793209875927e-06,1.066096225514964e-06,1.3756960668197984e-06
171,7.046866717685202e-07,5.107665152121764e-07,9.188339908551563e-07,9.776252025903488e-07,1.1186611421720947e-06,1.9890418244954372e-06,5.615409118681808e-07,6.296624751639872e-07,7.852204501993796e-07,1.030321732663741e-06,1.259449538138075e-06,1.0322275160319037e-05,6.596776501159556e-06,2.307277988718093e-06,1.0509475523221816e-06,1.3948776509417382e-06
172,6.924240107811118e-07,5.055638871629596e-07,8.98675288271325e-07,9.556959918792026e-07,1.1050715512779687e-06,1.9673271577546703e-06,5.851119567391199e-07,6.383524494530858e-07,7.674999637488394e-07,1.0223411375922208e-06,1.2524806719234084e-06,9.21991004604105e-06,6.2159201100461256e-06,2.244062414234009e-06,1.039741233031724e-06,1.4110771611883797e-06
173,6.817428659962179e-07,5.028353118424833e-07,8.78035321925718e-07,9.355565016481031e-07,1.0896064853334979e-06,1.940413207853329e-06,6.147131812965024e-07,6.469868612617225e-07,7.530766641578241e-07,1.0136968456994642e-06,1.2477295906553993e-06,8.1795281439758e-06,5.8499822417011605e-06,2.176306938893714e-06,1.0320629862396593e-06,1.4254324481127726e-06
174,6.724960878877964e-07,5.025213563065442e-07,8.567866408166231e-07,9.169548861937252e-07,1.0720834141845554e-06,1.9087000518730575e-06,6.508216544365096e-07,6.552728390819934e-07,7.419060596695424e-07,1.0044392863343572e-06,1.244484397196852e-06,7.204621094425646e-06,5.500235121454414e-06,2.105176795212186e-06,1.027291313917409e-06,1.439289240186203e-06
175,6.644977646809205e-07,5.046051376190732e-07,8.349846466456581e-07,8.999147506787273e-07,1.052364557165826e-06,1.872990564661529e-06,6.93861506692389e-07,6.629129290438899e-07,7.33879448574646e-07,9.94531992852606e-07,1.2421198869780567e-06,6.297547580468643e-06,5.167651178813959e-06,2.0316533756781133e-06,1.0246380458673513e-06,1.4539103060960803e-06
176,6.575722902064247e-07,5.091149221953143e-07,8.128753280675756e-07,8.846947469661621e-07,1.0304530413322967e-06,1.8342977517330688e-06,7.441762698659503e-07,6.696489603229727e-07,7.288417201790819e-07,9.838715140438175e-07,1.2401665607572195e-06,5.459623295938917e-06,4.853191929113497e-06,1.9566102265797395e-06,1.0232582263751063e-06,1.4703437384917642e-06
177,6.515367492020557e-07,5.160808251334534e-07,7.908566444371017e-07,8.716309467087295e-07,1.0065537342187805e-06,1.793611711388023e-06,8.02023198314915e-07,6.753317738963195e-07,7.266211907734945e-07,9.72359918653213e-07,1.2382131821798103e-06,4.691322598191528e-06,4.558080996647624e-06,1.8808804015940467e-06,1.0224242036747009e-06,1.4894199287941573e-06
178,6.46177646719114e-07,5.255018294809687e-07,7.693992042737331e-07,8.609880426354862e-07,9.81046815522963e-07,1.7518093529884054e-06,8.675664082270388e-07,6.799490218912763e-07,7.270853127262177e-07,9.599609758241708e-07,1.2357839360854676e-06,3.992401197598066e-06,4.283884214152092e-06,1.8052888402672381e-06,1.0216699541818293e-06,1.511773679403934e-06
179,6.412990624160754e-07,5.373331050134869e-07,7.489508762648419e-07,8.528998134073818e-07,9.543736746168282e-07,1.709731467945681e-06,9.408609908308259e-07,6.835967319038411e-07,7.302066891927323e-07,9.467607816645776e-07,1.232324758778518e-06,3.3618880628724207e-06,4.032287940406363e-06,1.7306159742049666e-06,1.0208128666376584e-06,1.537819915882438e-06
180,6.36803127983601e-07,5.514626865338349e-07,7.298834582674607e-07,8.473741554637902e-07,9.269361158768214e-07,1.6682925726067248e-06,1.021836662703387e-06,6.86429079434547e-07,7.360486681126018e-07,9.330324527607298e-07,1.2272390762996266e-06,2.7980511650970866e-06,3.8047244528166985e-06,1.6575360762236616e-06,1.0198523789008956e-06,1.5676867123617537e-06
181,6.327072208898265e-07,5.676916246068362e-07,7.125061538142963e-07,8.443094810317652e-07,8.990984999807468e-07,1.6284978771172982e-06,1.1102915278318084e-06,6.886105548146832e-07,7.446761521973241e-07,9.192245145541781e-07,1.219951160019486e-06,2.2984208334780277e-06,3.6021205218295095e-06,1.586619388807069e-06,1.0188137146166327e-06,1.6011655932013144e-06
182,6.290741565114773e-07,5.857630543900517e-07,6.970955050050738e-07,8.435154164038827e-07,8.712355308404018e-07,1.5913396188367877e-06,1.205896444370129e-06,6.902755596017609e-07,7.560983999617488e-07,9.058511213265582e-07,1.2100670895096032e-06,1.8598790343879686e-06,3.4248374663347173e-06,1.5184106221021646e-06,1.0176102393663851e-06,1.6376998933442758e-06
183,6.25935407415975e-07,6.054290066465756e-07,6.838856862837971e-07,8.447607867915486e-07,8.437289583510565e-07,1.5576683815878253e-06,1.3082281025378504e-06,6.915062316697938e-07,7.702567482724165e-07,8.933735464181313e-07,1.1975164958418732e-06,1.4787812585076602e-06,3.2727024430587046e-06,1.453497395559996e-06,1.0159649932919007e-06,1.6763954271005856e-06
184,6.232773245902212e-07,6.264810079575157e-07,6.73033366622667e-07,8.478535926018149e-07,8.169122850900507e-07,1.528151461816473e-06,1.4168675193108117e-06,6.923576276150271e-07,7.87007111559062e-07,8.821492347900367e-07,1.1824715323078179e-06,1.1510872881276158e-06,3.145143216827126e-06,1.392485032801289e-06,1.0133998241517221e-06,1.7160666070256882e-06
185,6.210566677680754e-07,6.48703761572282e-07,6.646125837781908e-07,8.527154483073662e-07,7.910350745097243e-07,1.5032989205995318e-06,1.5315562097188813e-06,6.929199163689121e-07,8.060985413215674e-07,8.724461368210861e-07,1.1651437907173055e-06,8.724866940395417e-07,3.041401877184873e-06,1.3359090174113694e-06,1.009312119777592e-06,1.7554028145591468e-06
186,6.192125259954204e-07,6.718076762258947e-07,6.586527770721386e-07,8.593825375738523e-07,7.662985751048499e-07,1.4834658905163644e-06,1.6523279619087054e-06,6.93356100015641e-07,8.271821548413907e-07,8.644735903793622e-07,1.1456932514426404e-06,6.385290307677491e-07,2.9605930692522776e-06,1.2841799449087876e-06,1.003126221762246e-06,1.793276807016216e-06
187,6.17702942490277e-07,6.954254210125389e-07,6.551712410465061e-07,8.679177975088274e-07,7.429254818854099e-07,1.4688089210368793e-06,1.7795307605641306e-06,6.939104232862671e-07,8.498390787907348e-07,8.583936867733763e-07,1.1242602067516948e-06,4.4479720322166866e-07,2.901515982022603e-06,1.2375782767666978e-06,9.944002001747785e-07,1.829004717349625e-06
188,6.165435334389917e-07,7.191850600042618e-07,6.541567084823769e-07,8.783239110092611e-07,7.211818302494677e-07,1.4592499837938053e-06,1.913733126756331e-06,6.949323027662586e-07,8.736023995796458e-07,8.543206430284156e-07,1.1010482422799433e-06,2.871129755190842e-07,2.8624228263056653e-06,1.1962705914944085e-06,9.828349404416454e-07,1.8623689026517626e-06
189,6.15783427721865e-07,7.427954831936914e-07,6.555211160095223e-07,8.905168135434795e-07,7.013319284884264e-07,1.4544888114615336e-06,2.0555737062886785e-06,6.96883527146653e-07,8.980428068403417e-07,8.523283736286902e-07,1.076429754574843e-06,1.6171642312895575e-07,2.8409241309746756e-06,1.1603558787528323e-06,9.683026631230046e-07,1.8934212595259868e-06
190,6.154457902826886e-07,7.660725858083736e-07,6.590747000911435e-07,9.043137370242093e-07,6.835974989224523e-07,1.4540390411554964e-06,2.205604413727516e-06,7.002698630174256e-07,9.229774518209238e-07,8.524782701647316e-07,1.0509771551853827e-06,6.534312597385271e-08,2.834089477877757e-06,1.1299115939435928e-06,9.50926156447522e-07,1.9221928179328654e-06
191,6.15521843398973e-07,7.888880588340374e-07,6.645658784028028e-07,9.194245754443441e-07,6.681836676674619e-07,1.4572760429463498e-06,2.3641435674951756e-06,7.055448145451714e-07,9.48645270358306e-07,8.548366193797678e-07,1.0253533935150909e-06,-4.854338053103105e-09,2.8387591801248e-06,1.1049873745006271e-06,9.310884108869852e-07,1.948482523456587e-06
192,6.160363462032914e-07,8.110915845726481e-07,6.717707475554225e-07,9.354827266112287e-07,6.553280138746302e-07,1.4635361457676806e-06,2.53115027399876e-06,7.1306891900599e-07,9.756379220010469e-07,8.594350671616535e-07,1.000174227006037e-06,-5.1466996894134536e-08,2.851921263098371e-06,1.085583310860569e-06,9.093424972196245e-07,1.971865068081585e-06
193,6.171177612981221e-07,8.324731009826065e-07,6.805605264336931e-07,9.520799013944745e-07,6.452917275768297e-07,1.4722120857063907e-06,2.7061470712671326e-06,7.231203762343045e-07,1.0046688963607148e-06,8.662170809311367e-07,9.759516105362833e-07,-7.695409109912862e-08,2.870859402335143e-06,1.0716438966325382e-06,8.86293672103084e-07,1.9918596041498257e-06
194,6.189975732592079e-07,8.527777416585878e-07,6.908902279705051e-07,9.687536666530031e-07,6.383022324528069e-07,1.4827226084362663e-06,2.8882148326155576e-06,7.35905006116177e-07,1.0364279998056636e-06,8.750536191737477e-07,9.530762257800185e-07,-8.36910652876644e-08,2.893062881575789e-06,1.0630240108193806e-06,8.624924503325062e-07,2.008099348806941e-06
195,6.219295471091271e-07,8.717383144605859e-07,7.027392801472037e-07,9.849755831929026e-07,6.345213437795777e-07,1.4944110930782092e-06,3.076038878844188e-06,7.515592838694158e-07,1.071562940082496e-06,8.858112824823696e-07,9.317948868675827e-07,-7.393457474679022e-08,2.9162895638743234e-06,1.059433501556244e-06,8.383679436011811e-07,2.02044042873563e-06
196,6.260975273585335e-07,8.890822808742328e-07,7.160882533093519e-07,1.000195017597312e-06,6.340573989565038e-07,1.5065148793394387e-06,3.2679286126008044e-06,7.701706148435132e-07,1.1106772565888585e-06,8.98384276960706e-07,9.121994315629867e-07,-4.9759569790118595e-08,2.9389444305367978e-06,1.0604195084736122e-06,8.142413554081731e-07,2.029005897540693e-06
197,6.315819581547508e-07,9.045042779055711e-07,7.309366124769733e-07,1.0138804682686518e-06,6.369708860602514e-07,1.5181947200915664e-06,3.461754514709971e-06,7.917919456242818e-07,1.1543193076182105e-06,9.126831938489408e-07,8.942352231649405e-07,-1.3053891154199075e-08,2.960447362237853e-06,1.065382286036457e-06,7.903881267946488e-07,2.034142082758899e-06
198,6.383984893755924e-07,9.176739659006981e-07,7.472976789171095e-07,1.0255096561709946e-06,6.43246969543416e-07,1.5285777413540038e-06,3.654885743398096e-06,8.164116229219371e-07,1.2029854921740067e-06,9.286334523915354e-07,8.777295637586434e-07,3.4445848695803765e-08,2.9812629317658343e-06,1.0735910372628428e-06,7.670627228071771e-07,2.0363044607023347e-06
199,6.465629908639215e-07,9.283339071783651e-07,7.651927030974799e-07,1.0345683768118873e-06,6.527645682315168e-07,1.5368464153581878e-06,3.844272440552736e-06,8.439018319422898e-07,1.2571229087136656e-06,9.461653629896949e-07,8.624264397629002e-07,9.113462494994827e-08,3.002536495739402e-06,1.0842448375051114e-06,7.444883724074788e-07,2.035944780357684e-06
200,6.561081631306831e-07,9.364175814888527e-07,7.846846617656569e-07,1.0405980438568581e-06,6.6529825511492e-07,1.5423640007519104e-06,4.026605752206062e-06,8.740030212431477e-07,1.3171380018035441e-06,9.651937703208247e-07,8.480026123079518e-07,1.555387980321918e-07,3.025512689351292e-06,1.0966167842598753e-06,7.228799989711635e-07,2.0334137474545305e-06
201,6.670312889682237e-07,9.420932796786555e-07,8.058831308847072e-07,1.0432440825230706e-06,6.805529747936295e-07,1.5447614700504925e-06,4.198319815972677e-06,9.063555426331249e-07,1.3834033397085351e-06,9.856465014633996e-07,8.340849104632806e-07,2.263078747674943e-07,3.051054623143896e-06,1.1101718292112208e-06,7.025082167807693e-07,2.02882458077371e-06
202,6.792330929114631e-07,9.457135214679789e-07,8.288694328183197e-07,1.0422702146551562e-06,6.982036829115202e-07,1.5439399233625733e-06,4.35546762074264e-06,9.405218962169213e-07,1.4562236182718356e-06,1.0075112288533221e-06,8.202866436998567e-07,3.021820823924643e-07,3.079426998665278e-06,1.1245529949291233e-06,6.837536718584107e-07,2.0219111021669293e-06
203,6.925012336407738e-07,9.477018760416092e-07,8.536060032080568e-07,1.0375716886521864e-06,7.179287645929478e-07,1.5399936031392495e-06,4.49387761035994e-06,9.759587469075112e-07,1.5357895346674507e-06,1.0308151634101308e-06,8.06238575827188e-07,3.819496269661744e-07,3.1102716646159736e-06,1.1395049123524719e-06,6.670826471365314e-07,2.0120095966584716e-06
204,7.065448874266624e-07,9.484364660415477e-07,8.799196652874718e-07,1.0292130637562578e-06,7.394427251855528e-07,1.533073151506563e-06,4.609857965195342e-06,1.0119961279632317e-06,1.6221415898603727e-06,1.05554797383233e-06,7.916500408200215e-07,4.644187247349671e-07,3.1427359756038906e-06,1.1548082707221823e-06,6.529495170996514e-07,1.9982379806209437e-06
205,7.210543173226296e-07,9.48178273038116e-07,9.075883322453925e-07,1.0174352933385182e-06,7.62502978430158e-07,1.5232298618540547e-06,4.7011198426336666e-06,1.0478905593127852e-06,1.7151112404603294e-06,1.0816197865550322e-06,7.764262988449176e-07,5.484291486153638e-07,3.1757118211121242e-06,1.1701933370254185e-06,6.417179086531534e-07,1.9798401766114207e-06
206,7.357337971094109e-07,9.470582859514901e-07,9.364772412583902e-07,1.002575419965272e-06,7.868603018237795e-07,1.5103364769732736e-06,4.767252969407417e-06,1.0828978111832198e-06,1.8142484232139465e-06,1.108913116999278e-06,7.607291259331515e-07,6.328919589088475e-07,3.208006728757356e-06,1.1852474824651367e-06,6.336406598680742e-07,1.9565775463691866e-06
207,7.502959576088025e-07,9.451198170981943e-07,9.666306621898252e-07,9.849748983993717e-07,8.121866323237709e-07,1.4941401180126137e-06,4.809405123596828e-06,1.1162715681699936e-06,1.9187566216245613e-06,1.1373501603771399e-06,7.448935700724353e-07,7.167854066185194e-07,3.2384567353239103e-06,1.1993724574076181e-06,6.288714691996009e-07,1.9289969532642124e-06
208,7.644764033002332e-07,9.423901475194412e-07,9.982789568801559e-07,9.64986153249347e-07,8.380308418235582e-07,1.4743600445116055e-06,4.8294052904789186e-06,1.1472309310189937e-06,2.027434162283363e-06,1.1668428433354408e-06,7.292859590745926e-07,7.990737207852037e-07,3.2662499844239953e-06,1.2117979742502216e-06,6.2748118445145e-07,1.898435865793864e-06
209,7.780987854000771e-07,9.389362072061763e-07,1.031799571190535e-06,9.430301092471138e-07,8.637966567353794e-07,1.4507434058893928e-06,4.828909514591915e-06,1.1750274581519544e-06,2.1386463603235536e-06,1.197155032134717e-06,7.142243798949089e-07,8.786261236453017e-07,3.291362506784541e-06,1.221687771466055e-06,6.294823080987566e-07,1.8667460801230704e-06
210,7.91126669578694e-07,9.348737838506818e-07,1.0676682585597497e-06,9.195993165406656e-07,8.887414950406888e-07,1.4231273954384752e-06,4.809033667277554e-06,1.1991025141711293e-06,2.2503767510420845e-06,1.2278101182801557e-06,6.999642980543336e-07,9.542515299359593e-07,3.314585828879513e-06,1.2283519727731084e-06,6.348595949550521e-07,1.8358815080479308e-06
211,8.036271789857423e-07,9.30322322942115e-07,1.1063835221899885e-06,8.952222200031232e-07,9.12051178677663e-07,1.3915544814867702e-06,4.770458911350826e-06,1.21915234081048e-06,2.360366363779258e-06,1.2580701871979828e-06,6.866953215086656e-07,1.0248799736225154e-06,3.3370172554738514e-06,1.2314280035956605e-06,6.435674854290413e-07,1.8075712895589725e-06
212,8.156609803526606e-07,9.25324118202695e-07,1.1483554093424916e-06,8.704558080942027e-07,9.330047652079981e-07,1.3563646030853041e-06,4.713669496992643e-06,1.2350178853137942e-06,2.4662782336827015e-06,1.2869542739517808e-06,6.745544322784195e-07,1.089774446311895e-06,3.3594883636637037e-06,1.2308719349405564e-06,6.555004338765114e-07,1.7831773794915916e-06
213,8.271775566575414e-07,9.197900500496964e-07,1.1938156827670932e-06,8.458940510661466e-07,9.511265913234764e-07,1.3181772247408077e-06,4.639129697080057e-06,1.2465866549863605e-06,2.565849023334965e-06,1.313344804001337e-06,6.636599237653102e-07,1.1486066313622344e-06,3.3823833473755594e-06,1.226777733326502e-06,6.704734158687358e-07,1.7636713877261948e-06
214,8.379726240259218e-07,9.135174224654772e-07,1.242804695580768e-06,8.221322515318807e-07,9.662194710093453e-07,1.2777888324883215e-06,4.547424762113693e-06,1.2538644496739063e-06,2.6570826096026875e-06,1.3362487196151107e-06,6.541167131910871e-07,1.2013427357573605e-06,3.405833511219625e-06,1.2192113633067756e-06,6.882242483902558e-07,1.7496621908405775e-06
215,8.477244066355145e-07,9.062517819861235e-07,1.2952016240520771e-06,7.996892697765237e-07,9.782980470581029e-07,1.2360738836586009e-06,4.439403945478857e-06,1.257091145092866e-06,2.738488801985409e-06,1.3551282683366609e-06,6.460011883495342e-07,1.2480413570196985e-06,3.429975878351603e-06,1.2082333938977366e-06,7.084686406724437e-07,1.7414737554778424e-06
216,8.560945820122853e-07,8.977529231445301e-07,1.3507185008375627e-06,7.789597094792095e-07,9.874959523587005e-07,1.193927571009231e-06,4.316347108840719e-06,1.2567493701529872e-06,2.8092159744922247e-06,1.3700467609662505e-06,6.393794635894215e-07,1.2887366610562489e-06,3.4550750671414253e-06,1.1940557769367045e-06,7.309759729897672e-07,1.739238275664222e-06
217,8.628410424651968e-07,8.878626701593964e-07,1.4088482724995059e-06,7.60238119256188e-07,9.939731623150003e-07,1.152215144207607e-06,4.1801474227377245e-06,1.2534701352466136e-06,2.8689638534485586e-06,1.3814932575718891e-06,6.343285498794505e-07,1.3234740909839704e-06,3.4815395306116028e-06,1.1771000772375691e-06,7.555538365694642e-07,1.742933671535427e-06
218,8.678858419491691e-07,8.765722913898772e-07,1.4688568956354715e-06,7.43775473389456e-07,9.97856433899838e-07,1.1116983590673177e-06,4.033399512202297e-06,1.2478851322767344e-06,2.9177793254722155e-06,1.3901233920011149e-06,6.309189577992641e-07,1.3523746457578804e-06,3.509925228380704e-06,1.1578819333652715e-06,7.81956339172086e-07,1.7524088242927566e-06
219,8.713208063636462e-07,8.640573867631212e-07,1.5298836504174434e-06,7.298037675008657e-07,9.992684010665022e-07,1.0729888970009296e-06,3.87926448677451e-06,1.2405088671420562e-06,2.9558831352522564e-06,1.3966680135743076e-06,6.29195708125431e-07,1.3756230534605186e-06,3.5409654513967504e-06,1.1368900925697547e-06,8.098322292393592e-07,1.7674874485320246e-06
220,8.733588880836622e-07,8.50636542226063e-07,1.5910709257562511e-06,7.185070086184694e-07,9.98409083385269e-07,1.0365883024123253e-06,3.7211341267175387e-06,1.2317267886345685e-06,2.983514978279344e-06,1.4018887368982914e-06,6.29171857773247e-07,1.393482864158236e-06,3.5755818170018107e-06,1.1146022544971203e-06,8.387206096251104e-07,1.7881168908766852e-06
221,8.742466341805678e-07,8.366588042408003e-07,1.6515901716556863e-06,7.099698090301495e-07,9.955825627221063e-07,1.0029593733819272e-06,3.562255476826605e-06,1.2218622075535559e-06,3.0007900501150904e-06,1.4064422715522362e-06,6.308151022143687e-07,1.4064407369823214e-06,3.6147584336080947e-06,1.0916084977647173e-06,8.680587759142121e-07,1.814450962096565e-06
222,8.74180406327121e-07,8.223938588687081e-07,1.710553625607408e-06,7.041551651219886e-07,9.911484951396672e-07,9.725285652213818e-07,3.405471736153324e-06,1.2112646794534689e-06,3.007674882063256e-06,1.4107540432469221e-06,6.340513637710037e-07,1.4153421152848163e-06,3.659239113269067e-06,1.0687216486010885e-06,8.972282908572291e-07,1.8467945743397373e-06
223,8.73292662715764e-07,8.079863227241589e-07,1.7669360216841628e-06,7.009487892684753e-07,9.854851340024558e-07,9.456484339980443e-07,3.2531378442647693e-06,1.2003995539367974e-06,3.0040558092265087e-06,1.4149660498545196e-06,6.38785861172424e-07,1.4213410522786547e-06,3.709209066414943e-06,1.0469743425183884e-06,9.256221983129852e-07,1.885503202918857e-06
224,8.717239673263041e-07,7.934833290614913e-07,1.8196082828706835e-06,7.002621739141929e-07,9.790285361757653e-07,9.226174564395695e-07,3.1071406249672878e-06,1.1899005578624731e-06,2.989788794493139e-06,1.418926159184996e-06,6.448963660021532e-07,1.4257005886567262e-06,3.7641302984837482e-06,1.0274865594419381e-06,9.52693269724845e-07,1.931004860173664e-06
225,8.697035687123918e-07,7.789082651945539e-07,1.8674770305650114e-06,7.021374428786247e-07,9.723389320985887e-07,9.037346195141172e-07,2.9688897606422235e-06,1.1805254909466316e-06,2.9648331990434793e-06,1.4222294924023383e-06,6.522114795833693e-07,1.429587624130765e-06,3.822707340479107e-06,1.011292770251296e-06,9.77979817490644e-07,1.983862996785396e-06
226,8.675458695818672e-07,7.643019049946056e-07,1.909680289642623e-06,7.0679459527937e-07,9.660878579073587e-07,8.892993923134633e-07,2.83925832663662e-06,1.1730149119204565e-06,2.929560474584925e-06,1.424331526586305e-06,6.605286618032155e-07,1.433946965381158e-06,3.882885179106255e-06,9.992523636885776e-07,1.0010723915383364e-06,2.044691292920757e-06
227,8.655619232917186e-07,7.496818987176473e-07,1.9457857237796913e-06,7.145944405445351e-07,9.609430239971802e-07,8.795751568686081e-07,2.718602780033065e-06,1.1679452502986235e-06,2.884982434208836e-06,1.4246723298249787e-06,6.696545981342193e-07,1.439458788148821e-06,3.941889308374884e-06,9.920564095312292e-07,1.0215377114776726e-06,2.1140193691315263e-06
228,8.639786124380662e-07,7.349898284511916e-07,1.9759161379434037e-06,7.25948998161129e-07,9.574423339051285e-07,8.747960910282464e-07,2.606956636289941e-06,1.1656580196939493e-06,2.832605997701153e-06,1.422741817178931e-06,6.794042451268571e-07,1.446533339714601e-06,3.996445252207188e-06,9.902524545595482e-07,1.0388937359909144e-06,2.1923218663371577e-06
229,8.629173728900696e-07,7.201122022152876e-07,2.0007353753553577e-06,7.412439252324819e-07,9.559417112813782e-07,8.751920498626446e-07,2.5043256443247687e-06,1.166254496300219e-06,2.7740212937848735e-06,1.4181155452160141e-06,6.895730472352511e-07,1.4552999797380362e-06,4.043220885692451e-06,9.942575141943623e-07,1.0526532146731305e-06,2.2801383159336897e-06
230,8.623864572108863e-07,7.049714540027088e-07,2.0212672255564236e-06,7.607844708594278e-07,9.566387672150784e-07,8.809527973323953e-07,2.410888148050552e-06,1.1696173844296979e-06,2.7105648279462945e-06,1.4104955358611042e-06,6.999336327023255e-07,1.4656023439776271e-06,4.079283827723714e-06,1.0043621707428342e-06,1.0624091526649812e-06,2.378029479517177e-06
231,8.622630380058173e-07,6.896167166739605e-07,2.0385975558107147e-06,7.847536381770841e-07,9.596278184640027e-07,8.921591569997879e-07,2.326953051593132e-06,1.1754763772121322e-06,2.6432034978774938e-06,1.3997128354162201e-06,7.102529535803177e-07,1.477018795540368e-06,4.102354735229883e-06,1.020707867709433e-06,1.0679528671074214e-06,2.486330992944076e-06
232,8.622974153676661e-07,6.742329788778306e-07,2.05363130565141e-06,8.132159273309908e-07,9.649376492389812e-07,9.08744094775554e-07,2.252795890987059e-06,1.1835620419522775e-06,2.572570188311908e-06,1.3856928083776883e-06,7.203186613385197e-07,1.488888129247995e-06,4.110873734031089e-06,1.0432553735158279e-06,1.0693608860469416e-06,2.6049080450825075e-06
233,8.621776701849518e-07,6.590558875599367e-07,2.067046715494285e-06,8.46168186052174e-07,9.725351901447096e-07,9.304840145051207e-07,2.188633027136094e-06,1.193799542975894e-06,2.4991271139171663e-06,1.3684602283262934e-06,7.299657995182803e-07,1.5003727222198216e-06,4.104039662342005e-06,1.0717854224058549e-06,1.066958567744611e-06,2.7330671726598942e-06
234,8.616743323886243e-07,6.442805076852477e-07,2.079389416858384e-06,8.835695100758147e-07,9.823154601631774e-07,9.570256752483818e-07,2.1347209195175636e-06,1.206383785975303e-06,2.423452374365186e-06,1.3481963147758253e-06,7.39087538130186e-07,1.5106110878407286e-06,4.081891488357232e-06,1.1059214093816221e-06,1.0611854837126027e-06,2.86965060357723e-06
235,8.607819523361754e-07,6.30033982771773e-07,2.091172406717411e-06,9.25336505814009e-07,9.940895516106117e-07,9.879381540425842e-07,2.0913399797717585e-06,1.2216547384647285e-06,2.3464677415330337e-06,1.325255965970128e-06,7.476308211889717e-07,1.5188888476449045e-06,4.045340191115801e-06,1.1451414401619623e-06,1.0525086168911494e-06,3.013256776580869e-06
236,8.597163967464864e-07,6.164040642535934e-07,2.1029197005086256e-06,9.713636746410395e-07,1.0075610096123451e-06,1.0227188296125816e-06,2.0586264595221306e-06,1.2398810119471122e-06,2.26937944095561e-06,1.300077435885609e-06,7.555685272155054e-07,1.5247349545873781e-06,3.99603511048536e-06,1.188799599429036e-06,1.0414297257273786e-06,3.162425613821694e-06
237,8.587755329660856e-07,6.035084515075702e-07,2.115141250168461e-06,1.0215593919552828e-06,1.0222884806719774e-06,1.060734601699773e-06,2.0364530885248665e-06,1.2611028085880544e-06,2.1933839851955167e-06,1.2730612073851539e-06,7.628650230859178e-07,1.5279621258103293e-06,3.936055689655204e-06,1.2362327955683159e-06,1.0284883711268062e-06,3.3156388946087794e-06
238,8.582257047082522e-07,5.915576495534313e-07,2.1282597331244363e-06,1.0758234292723532e-06,1.037648660813829e-06,1.101174111114997e-06,2.024451282791989e-06,1.2850776474957198e-06,2.119454162422113e-06,1.2445479130488846e-06,7.695056911599039e-07,1.5286877886909299e-06,3.86749761522269e-06,1.286970575886486e-06,1.014232856431251e-06,3.4711835441895722e-06
239,8.582970250029735e-07,5.808351556263278e-07,2.1425515350279645e-06,1.1339678395519211e-06,1.0528249438267328e-06,1.1430797108487975e-06,2.0220746805784436e-06,1.3113103829378317e-06,2.0483650145011293e-06,1.2148864406606319e-06,7.755972315320263e-07,1.527280954995842e-06,3.792075987031433e-06,1.3409049859937627e-06,9.99222286493234e-07,3.627019773988215e-06
240,8.592008246259184e-07,5.71623775183466e-07,2.1581645154216726e-06,1.195674614141441e-06,1.0668502157785879e-06,1.1854502124861937e-06,2.028639428651738e-06,1.3391528861800053e-06,1.980771164432251e-06,1.1844871178137446e-06,7.814230037499024e-07,1.5241984950294593e-06,3.710959974396167e-06,1.3982430692860194e-06,9.840430483701512e-07,3.78069330895071e-06
241,8.610941530522858e-07,5.641593645018791e-07,2.1752084439943034e-06,1.2605521712971922e-06,1.0787085820066038e-06,1.2273451759911556e-06,2.0433926411811914e-06,1.3679202082641664e-06,1.917137444777362e-06,1.1538088676628003e-06,7.873613843074855e-07,1.5198450637517362e-06,3.6249260550507406e-06,1.4592626407094002e-06,9.692576033244162e-07,3.929376718819683e-06
242,8.640483573209795e-07,5.586041487395115e-07,2.1938445990838746e-06,1.3282196574724694e-06,1.0874726583796163e-06,1.2679353184140375e-06,2.065654079289021e-06,1.3969349406226292e-06,1.857613713096397e-06,1.1233020208469982e-06,7.937405104641711e-07,1.5145515969314693e-06,3.534611025498968e-06,1.5240754144552124e-06,9.553017655766521e-07,4.070231245733056e-06
243,8.680882092643909e-07,5.550175363250413e-07,2.2143174458680425e-06,1.3982889283180546e-06,1.092444730810641e-06,1.3064970411079042e-06,2.0949851086522035e-06,1.4254739129787097e-06,1.8020624875660849e-06,1.0933489537597193e-06,8.007671250036206e-07,1.5085554435815854e-06,3.440643668436783e-06,1.5925288671084113e-06,9.424194023625515e-07,4.20099860249244e-06
244,8.732559112326182e-07,5.533554985644472e-07,2.236938624218642e-06,1.470239449894728e-06,1.093249897334438e-06,1.342381681973819e-06,2.131256935050326e-06,1.452692711314297e-06,1.7502287529636729e-06,1.064218646138828e-06,8.085480571414746e-07,1.5019569986747473e-06,3.343626307753371e-06,1.6642327614427454e-06,9.306490655304158e-07,4.320384315757963e-06
245,8.796201741359925e-07,5.53510952277184e-07,2.2620416280514745e-06,1.5433177851683359e-06,1.0898175652184752e-06,1.375009220370184e-06,2.1745282728844254e-06,1.4776339970661054e-06,1.701854613297235e-06,1.0360622476695839e-06,8.171242296894175e-07,1.4947754915872996e-06,3.244013724601169e-06,1.738658142095641e-06,9.198317739354933e-07,4.427937441377678e-06
246,8.872467214155203e-07,5.553640082765944e-07,2.289882257563121e-06,1.6165316176558904e-06,1.0822580348402874e-06,1.403925183624571e-06,2.2248234370924715e-06,1.4993642576027214e-06,1.656692128411987e-06,1.0089855260108405e-06,8.264724091324121e-07,1.4870516052252485e-06,3.142026049928735e-06,1.8151972699578214e-06,9.096530599045093e-07,4.523532523886379e-06
247,8.96202473767904e-07,5.588119644703679e-07,2.320476961721779e-06,1.688663312659169e-06,1.0707455764008566e-06,1.428873171067569e-06,2.282000035326523e-06,1.5171838616639676e-06,1.6145424942643765e-06,9.831416578066807e-07,8.365140657445607e-07,1.4788386021450514e-06,3.0377642068804165e-06,1.893094020604619e-06,8.997558734162233e-07,4.60676381513803e-06
248,9.065689646906246e-07,5.637840983805696e-07,2.3534645724049074e-06,1.7582481084393992e-06,1.0555042176200798e-06,1.4497679734229895e-06,2.345749191196444e-06,1.5307922751006028e-06,1.5753711103912803e-06,9.587641527182753e-07,8.471535293366429e-07,1.4701195813452992e-06,2.931494758888774e-06,1.9713535326838676e-06,8.899025554774232e-07,4.676539774803431e-06
249,9.18386312167549e-07,5.702615232159828e-07,2.38812450247038e-06,1.8236131499831562e-06,1.0368422215454222e-06,1.4665643249474835e-06,2.4155956210209098e-06,1.5403209382277253e-06,1.5394075210614138e-06,9.361549409511654e-07,8.582876373107805e-07,1.4607897154455848e-06,2.823894561767757e-06,2.048787124461093e-06,8.800841138996557e-07,4.731026887523815e-06
250,9.31565945066423e-07,5.782834855379982e-07,2.423595418904065e-06,1.88310842361645e-06,1.0151421445844532e-06,1.479137574804535e-06,2.4908106647979957e-06,1.5462489426329604e-06,1.5071038663781797e-06,9.156641542342665e-07,8.69785209138617e-07,1.4507377913442872e-06,2.716125391314258e-06,2.1241417554290354e-06,8.705119432759036e-07,4.767893569601378e-06
251,9.458572570521354e-07,5.879109060652187e-07,2.459183128821823e-06,1.935482664947006e-06,9.908662579256855e-07,1.487222324817713e-06,2.5703293108841707e-06,1.5492827682602175e-06,1.4789381928007752e-06,8.976633991170265e-07,8.81498985431106e-07,1.439988584909337e-06,2.609742427794797e-06,2.196141754867115e-06,8.615245147792849e-07,4.784712560766947e-06
252,9.608716504256991e-07,5.991852231549171e-07,2.4945867986181362e-06,1.980158221929905e-06,9.646297144933281e-07,1.490420975844326e-06,2.652828115945964e-06,1.550242112137586e-06,1.4552148179019985e-06,8.82510358794198e-07,8.932985918923917e-07,1.4288072501542064e-06,2.50647727392606e-06,2.2634237921861856e-06,8.534628822101941e-07,4.77941159123318e-06
253,9.761510852717985e-07,6.121208737727654e-07,2.5299435729043023e-06,2.0172025712781737e-06,9.372181085198755e-07,1.4882950426173056e-06,2.736991047169209e-06,1.54993656941481e-06,1.4359946667448255e-06,8.70506890864234e-07,9.05071506514257e-07,1.417666788101816e-06,2.407969652661306e-06,2.324530354638871e-06,8.46566281265949e-07,4.7506627520389285e-06
254,9.912699063615154e-07,6.266939044628065e-07,2.565666198065532e-06,2.0470516973765174e-06,9.094772896335555e-07,1.4804299287366205e-06,2.821800944828791e-06,1.5490499380802053e-06,1.421140715317066e-06,8.61866614713441e-07,9.166998402304663e-07,1.407107189042409e-06,2.315548099235209e-06,2.3780199521616667e-06,8.409270876715161e-07,4.698132973122365e-06
255,1.005900128190099e-06,6.428178341697874e-07,2.6021325510449873e-06,2.070199299410895e-06,8.821704038004763e-07,1.4664313304053254e-06,2.9066424800620818e-06,1.5480963667548336e-06,1.4103880520300304e-06,8.567038444405039e-07,9.280823939405464e-07,1.3976073076980457e-06,2.2301396252944885e-06,2.4225134236408183e-06,8.364920327374472e-07,4.622576563780091e-06
256,1.0197788382924604e-06,6.60357665805489e-07,2.6394270819089536e-06,2.086979144759964e-06,8.558975090669531e-07,1.4459929505776916e-06,2.9911479789828087e-06,1.5474700987594071e-06,1.4033611226620289e-06,8.550349912907686e-07,9.391927063502758e-07,1.3895642102195757e-06,2.1523463200742107e-06,2.456561090898908e-06,8.330864321319781e-07,4.525721419748294e-06
257,1.0326350399831467e-06,6.791672520027563e-07,2.6772879925455826e-06,2.0974582249019638e-06,8.310936047208793e-07,1.4190524167210314e-06,3.0749172642488383e-06,1.547545824765036e-06,1.3995702802581054e-06,8.567864452505029e-07,9.500584078086372e-07,1.3833322866936202e-06,2.0826294833319968e-06,2.4785514290828616e-06,8.304683186450311e-07,4.409908897143233e-06
258,1.0441925639650847e-06,6.990879505478237e-07,2.715163400265236e-06,2.101485573307767e-06,8.08065533234291e-07,1.3858918083170132e-06,3.157268275659464e-06,1.548770269165906e-06,1.398477617217661e-06,8.617889551426786e-07,9.606631772912621e-07,1.379194746789003e-06,2.021460970945846e-06,2.4869663516395667e-06,8.283911052949514e-07,4.277581529226221e-06
259,1.054248908975608e-06,7.199347778086272e-07,2.7522106862416124e-06,2.098896271509702e-06,7.870282711337941e-07,1.3471391284324688e-06,3.237071077065943e-06,1.5516858533375733e-06,1.3995846339334334e-06,8.697550952031725e-07,9.708886036314236e-07,1.3772751767918393e-06,1.9693762992348605e-06,2.480940609226849e-06,8.266221429604128e-07,4.130904169500197e-06
260,1.0627116636099627e-06,7.41524338403645e-07,2.7872175223161174e-06,2.089700358312897e-06,7.681391700676066e-07,1.3037238344671323e-06,3.312747309429523e-06,1.5568631863875855e-06,1.4024138928556283e-06,8.803093843874078e-07,9.805377625157373e-07,1.377498537234631e-06,1.926981744515212e-06,2.460721319859043e-06,8.249309189746258e-07,3.971785785775257e-06
261,1.069535175199952e-06,7.63703179661587e-07,2.8185470292201638e-06,2.0740868689165464e-06,7.515178339128021e-07,1.2567812160109304e-06,3.3825256153599073e-06,1.5648001977657921e-06,1.4063860227592241e-06,8.930838327586751e-07,9.89397751243096e-07,1.3796571957209186e-06,1.8949519251638186e-06,2.427619965008363e-06,8.23100119545459e-07,3.8021529120916545e-06
262,1.0746254983071638e-06,7.86324742593739e-07,2.844256159291788e-06,2.0522775875633772e-06,7.372324021466549e-07,1.2074922863975624e-06,3.444815000388276e-06,1.5758621832394996e-06,1.4107054244939194e-06,9.077558746285695e-07,9.972797579182677e-07,1.3835469185253778e-06,1.8739770904364925e-06,2.383501272755925e-06,8.209463096007763e-07,3.624079789520876e-06
263,1.0778086144882745e-06,8.092103631228408e-07,2.8624652075485002e-06,2.024427248435473e-06,7.252764861438932e-07,1.1569568953599538e-06,3.498423369813695e-06,1.5902530063833674e-06,1.4143433527396094e-06,9.23975104290652e-07,1.0040092871387016e-06,1.3890583617418001e-06,1.8646301846780619e-06,2.330335286746316e-06,8.183331684753099e-07,3.43970243128841e-06
264,1.078866095772873e-06,8.321622814954328e-07,2.8718592331668077e-06,1.990728380849084e-06,7.155621343308952e-07,1.1061688477784123e-06,3.542511196327135e-06,1.6079629451028843e-06,1.4161680101181203e-06,9.41289546579296e-07,1.0093861035492017e-06,1.396158830890735e-06,1.8672215100401817e-06,2.2700943781742404e-06,8.152247515034265e-07,3.2511211150220272e-06
265,1.0775599131734783e-06,8.550388224623576e-07,2.8720486851751623e-06,1.9516433492604462e-06,7.079239883354298e-07,1.0560176396332965e-06,3.5764091533475353e-06,1.6287044664324508e-06,1.415252401971035e-06,9.591516380499184e-07,1.013154703252804e-06,1.4048286248100457e-06,1.8817742258531114e-06,2.20473192951802e-06,8.11764360222208e-07,3.060369611336184e-06
266,1.0736464078125514e-06,8.778205019022357e-07,2.8635903700933426e-06,1.907999782062721e-06,7.021333196003297e-07,1.0072789356636268e-06,3.599521402438426e-06,1.6518925738247783e-06,1.4112482329970943e-06,9.76984268144006e-07,1.0150182568529234e-06,1.415029490895057e-06,1.908175536819001e-06,2.1360770836644217e-06,8.082603566280501e-07,2.86940951755216e-06
267,1.0669509864339892e-06,9.005959622484384e-07,2.8477070877818485e-06,1.860819224617897e-06,6.979405240210275e-07,9.60622870704467e-07,3.611409595424111e-06,1.6766853822380382e-06,1.4045143435978097e-06,9.942945828947253e-07,1.014685013565294e-06,1.4266935347331147e-06,1.9463841571774917e-06,2.065773056777548e-06,8.050554221154891e-07,2.6801571188352756e-06
268,1.0574655994572005e-06,9.234923989647466e-07,2.825891675893501e-06,1.811055038195014e-06,6.951376243220589e-07,9.16628985949216e-07,3.6119625530729913e-06,1.7020762199972523e-06,1.3958566996982594e-06,1.0107930171113955e-06,1.0119397030869843e-06,1.43966134007349e-06,1.9965365378401023e-06,1.9952685270145877e-06,8.024157286966324e-07,2.4945169522267648e-06
269,1.0453840183744225e-06,9.466296570777569e-07,2.7995595814750975e-06,1.7594713148985088e-06,6.935853754525858e-07,8.758111001956371e-07,3.6015069415564323e-06,1.7270313719185498e-06,1.3861969621228672e-06,1.026401689361217e-06,1.0067434699008634e-06,1.4535822765214782e-06,2.058939670115688e-06,1.9257639584953882e-06,8.00517767099447e-07,2.314310919939998e-06
270,1.0310881579502042e-06,9.70109706381354e-07,2.7698499145205248e-06,1.7066444290591178e-06,6.931902779233678e-07,8.386437097769087e-07,3.5807782556799566e-06,1.7506311643004915e-06,1.37645864511196e-06,1.0411192915266957e-06,9.992869973277275e-07,1.4679106654363702e-06,2.1339958822389636e-06,1.8581754064255468e-06,7.994600200533812e-07,2.1410944590541996e-06
271,1.0151175944803453e-06,9.9398581982779e-07,2.7375854735361888e-06,1.6529450627121026e-06,6.938665698167938e-07,8.055462983417672e-07,3.5507277529822825e-06,1.7721385595231622e-06,1.3675366840262706e-06,1.0548741399730009e-06,9.899215290634577e-07,1.4820316842867483e-06,2.2220533651053264e-06,1.7932309082755912e-06,7.99252993317612e-07,1.976020054445015e-06
272,9.981030149659174e-07,1.018197068719995e-06,2.703273930359438e-06,1.5985320667080214e-06,6.954934780563901e-07,7.76858341798453e-07,3.512192101321357e-06,1.7909462736623083e-06,1.3602175021459555e-06,1.0675043611970827e-06,9.79023906234841e-07,1.4953540928190356e-06,2.3232436296428123e-06,1.7316079347437094e-06,7.998183074096941e-07,1.8198826317343015e-06
273,9.806572894983512e-07,1.0425104578339974e-06,2.667060455430282e-06,1.5434649326711281e-06,6.978843833316112e-07,7.528524608412666e-07,3.4655591086305667e-06,1.8064222067648054e-06,1.355144435866303e-06,1.0788398449837232e-06,9.668959206352949e-07,1.507259983646293e-06,2.4374127249659074e-06,1.6739418684260809e-06,8.009972019301713e-07,1.673295874278118e-06
274,9.632731109270712e-07,1.066492883083901e-06,2.628746704115023e-06,1.4878883593383498e-06,7.008060635619658e-07,7.337394173451686e-07,3.4106522160361405e-06,1.817759128016018e-06,1.3528702876232423e-06,1.0887609495832184e-06,9.537360314285178e-07,1.517033386783358e-06,2.5641277325078174e-06,1.620762888750262e-06,8.025864133358457e-07,1.5368264604058735e-06
275,9.462924748048034e-07,1.0895066223036694e-06,2.5879990274760368e-06,1.4321764822975257e-06,7.040374792155654e-07,7.196311961588464e-07,3.3469618873069684e-06,1.823987717759755e-06,1.3539104910949862e-06,1.0972188594046293e-06,9.396784705077018e-07,1.5239344574607022e-06,2.702691235541453e-06,1.5725134758554159e-06,8.044464573590077e-07,1.4110132988999398e-06
276,9.299506066942018e-07,1.1107365497153065e-06,2.544626411733835e-06,1.3769647242095234e-06,7.074052980541674e-07,7.105029158420034e-07,3.2740890693417377e-06,1.8242125611141383e-06,1.3587303860096732e-06,1.104248389275429e-06,9.248458934371763e-07,1.5273626852604788e-06,2.8521867362385378e-06,1.529595405224562e-06,8.066059944999851e-07,1.2963419913627954e-06
277,9.144196033268004e-07,1.1292658468761712e-06,2.4987338984564256e-06,1.3230279809505674e-06,7.107595663869235e-07,7.061810212879421e-07,3.1920890532092e-06,1.817910240637025e-06,1.3676927400239346e-06,1.109932209544922e-06,9.093479363797458e-07,1.526892757558906e-06,3.011620699425592e-06,1.4923651221716398e-06,8.092332361134281e-07,1.1932063569712745e-06
278,8.998038897501495e-07,1.1442111154990855e-06,2.4507455460382524e-06,1.2710732246214535e-06,7.139421102201958e-07,7.063549708261046e-07,3.1015346920770956e-06,1.805066551072016e-06,1.3810304202681524e-06,1.114329636907483e-06,8.932608412595269e-07,1.5221420041723072e-06,3.1801627361439914e-06,1.461140351373562e-06,8.125043347994066e-07,1.1018477511035723e-06
279,8.861331888805997e-07,1.1549127915333327e-06,2.4014058852585416e-06,1.2216018307871174e-06,7.168084943143257e-07,7.106215780492168e-07,3.0034143735689273e-06,1.786114054842268e-06,1.3988774839324679e-06,1.1174168877517162e-06,8.76667351499827e-07,1.5126924617724316e-06,3.3573530693297806e-06,1.4362134092705933e-06,8.16514103664878e-07,1.0223145759515574e-06
280,8.734180126789462e-07,1.1611177996078663e-06,2.3517420042154824e-06,1.1748871255703928e-06,7.19263652952477e-07,7.185616651639348e-07,2.899039718066652e-06,1.7617770602192558e-06,1.421321921566622e-06,1.1190734244715504e-06,8.597444006120205e-07,1.4982395631081224e-06,3.543102628059796e-06,1.4177940796420571e-06,8.212999550414537e-07,9.544785461132138e-07
281,8.617618246386058e-07,1.1630420385565597e-06,2.3028835323796118e-06,1.1309877496948632e-06,7.212683811184869e-07,7.298063511724279e-07,2.7899384520498923e-06,1.7328939572212886e-06,1.4483881750919488e-06,1.1191581897541863e-06,8.428295812510272e-07,1.4788551342796264e-06,3.7374598234089452e-06,1.4059152252195444e-06,8.269149770443536e-07,8.980888636023778e-07
282,8.514422739809043e-07,1.1612518589300069e-06,2.2558249056346632e-06,1.0897790339778222e-06,7.228568003047961e-07,7.440376341978485e-07,2.6776370341469825e-06,1.7002542645876818e-06,1.4799431616039582e-06,1.1176066580989818e-06,8.264124650764855e-07,1.4551288458705497e-06,3.940280808752758e-06,1.4003824022674387e-06,8.334369262545698e-07,8.528110764899959e-07
283,8.428779721578134e-07,1.1564269566982084e-06,2.211327941153031e-06,1.0510572526059321e-06,7.241823642138323e-07,7.609335062139158e-07,2.5633832751676637e-06,1.664538650493202e-06,1.515651563256865e-06,1.1144283374140573e-06,8.11043849682469e-07,1.4280975355025124e-06,4.150978498742324e-06,1.4007757176531032e-06,8.408919694395268e-07,8.182217688864997e-07
284,8.365229080084641e-07,1.1491546710780146e-06,2.1699609936658046e-06,1.0146892461204495e-06,7.255351227894097e-07,7.801409136916412e-07,2.4479603829073203e-06,1.6264211918166663e-06,1.5550370614925334e-06,1.1096523380193332e-06,7.972265529182198e-07,1.3990497016769435e-06,4.368484498211363e-06,1.4064569444886038e-06,8.49176851525484e-07,7.937890831691816e-07
285,8.327954800284611e-07,1.1398635325017704e-06,2.13213109663736e-06,9.806909839828113e-07,7.27286902866599e-07,8.012939774395424e-07,2.331687911832932e-06,1.5867341687522163e-06,1.597538484084818e-06,1.1033486841726123e-06,7.853749209855161e-07,1.369315173901749e-06,4.5914106900014275e-06,1.4165600546418981e-06,8.580410590478305e-07,7.788751075886587e-07
286,8.320493690409432e-07,1.128851598124547e-06,2.0980782473649304e-06,9.491726602145369e-07,7.297965250354003e-07,8.240036552731329e-07,2.2145940035731972e-06,1.546511425515874e-06,1.6424837484756156e-06,1.0957082766197388e-06,7.758475561213288e-07,1.340087248688931e-06,4.81820584842916e-06,1.4299992327568348e-06,8.671366326909253e-07,7.72748267277097e-07
287,8.345473309686839e-07,1.116296484655469e-06,2.067889347234002e-06,9.202282382545407e-07,7.333342011438375e-07,8.478247511719572e-07,2.0966801400544762e-06,1.5068702358045526e-06,1.6890908612603377e-06,1.0870716041644405e-06,7.689673407462524e-07,1.3123107125604205e-06,5.047113504165007e-06,1.4455690825602069e-06,8.761142296709723e-07,7.745817205362927e-07
288,8.404542121852882e-07,1.1022490969652883e-06,2.041538075370194e-06,8.939031158272169e-07,7.380494545178514e-07,8.7225000876373e-07,1.97819356395216e-06,1.4688808560653505e-06,1.7365924094057397e-06,1.0778653375056664e-06,7.649830933557921e-07,1.2866622109434823e-06,5.275974223955182e-06,1.4621798175771527e-06,8.846894880591283e-07,7.834779799197223e-07
289,8.498471818325281e-07,1.0866920766328015e-06,2.0189075934545574e-06,8.702522286622449e-07,7.439913796523025e-07,8.966996442324685e-07,1.8598218380906126e-06,1.4335335508416912e-06,1.7843610253559603e-06,1.0685169134220321e-06,7.64027305822538e-07,1.2635774346396612e-06,5.502092138270002e-06,1.479109351466022e-06,8.926117341761446e-07,7.985614337275783e-07
290,8.627122735064505e-07,1.0696485086312353e-06,1.9997842399213063e-06,8.493698575750861e-07,7.51177663440666e-07,9.205229939954216e-07,1.7427195596039683e-06,1.4017324357842817e-06,1.831869875145178e-06,1.0594252078098453e-06,7.661394799905993e-07,1.2432646981998927e-06,5.722272026495664e-06,1.496071257360142e-06,8.995835188086369e-07,8.190630146050144e-07
291,8.789370967369596e-07,1.0512496805552636e-06,1.9838492441496096e-06,8.313336569678663e-07,7.596452295595662e-07,9.430924893893654e-07,1.6283384747421427e-06,1.3742286732909633e-06,1.8785263746629715e-06,1.0509497454031323e-06,7.713367038752492e-07,1.2257447178826552e-06,5.932893295726571e-06,1.5130401138928291e-06,9.052573793950309e-07,8.442942723849347e-07
292,8.983314101238653e-07,1.0317116943825324e-06,1.9706634545200022e-06,8.161367523230326e-07,7.69420495894667e-07,9.639677836342285e-07,1.5181651131919325e-06,1.3515438128117826e-06,1.923588350473993e-06,1.0433648314968336e-06,7.796445239959447e-07,1.2109557997960845e-06,6.129873404225503e-06,1.5299739962718928e-06,9.093536740318085e-07,8.735439465888991e-07
293,9.207078344062643e-07,1.0112481135731075e-06,1.9596061922161237e-06,8.03683656136265e-07,7.804644763070523e-07,9.8303660265618e-07,1.413517947106151e-06,1.3339559672015067e-06,1.9662756666141727e-06,1.0368151623271143e-06,7.91056920448372e-07,1.198817838455024e-06,6.308513109748906e-06,1.5466641511579081e-06,9.117992589000031e-07,9.06013043323804e-07
294,9.459987353250353e-07,9.900193642318806e-07,1.9497769605950167e-06,7.938425544653521e-07,7.926602500603521e-07,1.0005562582880578e-06,1.3154521045765061e-06,1.321534851132632e-06,2.005970606466448e-06,1.0312979537297831e-06,8.054712687065623e-07,1.1891697790221835e-06,6.463297098881684e-06,1.5628209773212307e-06,9.127733082756605e-07,9.408225964272004e-07
295,9.742891811180732e-07,9.681785031420554e-07,1.9399437600726807e-06,7.864877379038899e-07,8.0580895537894e-07,1.0170527040469768e-06,1.2247318234388148e-06,1.3142159380921202e-06,2.042398145237328e-06,1.026641223595561e-06,8.226604582633075e-07,1.181701341166911e-06,6.58792387135499e-06,1.5782273312989532e-06,9.126573437547356e-07,9.7703692403723e-07
296,1.0057128490885997e-06,9.459163083303795e-07,1.9286399965818357e-06,7.815026637969536e-07,8.196185092848314e-07,1.0331302503595201e-06,1.1418350292459129e-06,1.3119158258603316e-06,2.075736719737119e-06,1.022484797817852e-06,8.4231943070913e-07,1.1759958925752321e-06,6.675940990624942e-06,1.5927219063704766e-06,9.119559949144035e-07,1.013682893674939e-06
297,1.0403161087841194e-06,9.234179891146485e-07,1.914426742763178e-06,7.787863670279279e-07,8.337413120455859e-07,1.0493151759583423e-06,1.0669727228039142e-06,1.3145978795564919e-06,2.106538478365166e-06,1.0183309691698903e-06,8.641334663107167e-07,1.1716128669587689e-06,6.7218675758579976e-06,1.6060414118534697e-06,9.112299370632083e-07,1.0497934226413837e-06
298,1.0780049159685712e-06,9.008238147768188e-07,1.8962050183429308e-06,7.782592019525617e-07,8.478687367665953e-07,1.0659836475089026e-06,1.000115524257801e-06,1.3222082586214957e-06,2.135431473194857e-06,1.0136844952628122e-06,8.877919121446323e-07,1.1681765919298795e-06,6.722176893836861e-06,1.6176998764332984e-06,9.110395171349678e-07,1.0844619085574689e-06
299,1.1185873907392105e-06,8.782744911634123e-07,1.8734227576295428e-06,7.798243955251709e-07,8.61798446593897e-07,1.083338735530091e-06,9.410177800042217e-07,1.3345866347433668e-06,2.162823191822089e-06,1.0082003194998489e-06,9.129874159591402e-07,1.1655299081334451e-06,6.6757615521244266e-06,1.6269457909010994e-06,9.118921722482921e-07,1.1168963572352584e-06
300,1.1618657883830055e-06,8.559453706497023e-07,1.8460788315472093e-06,7.833339536928666e-07,8.75404141612062e-07,1.1014181989146504e-06,8.892381865148444e-07,1.3514692272246107e-06,2.188834315390682e-06,1.0017442610772327e-06,9.394384017029299e-07,1.1638255992184271e-06,6.583953188953113e-06,1.63275691165594e-06,9.142157816308291e-07,1.1464710114831456e-06
301,1.2077573922881252e-06,8.339887898472283e-07,1.814525330517326e-06,7.886312073599916e-07,8.885592026583998e-07,1.1201249400263465e-06,8.441933778549168e-07,1.3725066774986612e-06,2.2134534207336136e-06,9.94332316695215e-07,9.668743662334867e-07,1.1634022335229102e-06,6.450081112760151e-06,1.6339166742614376e-06,9.183743131055777e-07,1.1727339787467206e-06
302,1.2564535124332617e-06,8.124545494461629e-07,1.7791954662608003e-06,7.956574567885475e-07,9.011006471698423e-07,1.1392420922582051e-06,8.052751931578686e-07,1.3972019353175131e-06,2.236676182262895e-06,9.860028394486882e-07,9.94999792914229e-07,1.1645884106480614e-06,6.278514020754037e-06,1.6292733700581757e-06,9.24683045527903e-07,1.1953821276722317e-06
303,1.3085641246147002e-06,7.912759001010043e-07,1.7404376510898846e-06,8.045538727367974e-07,9.128462479475452e-07,1.1584483684897253e-06,7.71980190189761e-07,1.4248183379476603e-06,2.258432025823153e-06,9.767291644983006e-07,1.0235112915987867e-06,1.1676085950479944e-06,6.073722373986376e-06,1.618141795761369e-06,9.333899323661662e-07,1.214244041051147e-06
304,1.3651101414847757e-06,7.703309900550825e-07,1.698516052979812e-06,8.15669786014753e-07,9.236473259555789e-07,1.1774074734205917e-06,7.439417009164809e-07,1.4543353972563348e-06,2.2784488327682053e-06,9.664258436236397e-07,1.0521166401018888e-06,1.1725455734124386e-06,5.84005678127919e-06,1.6005454260073633e-06,9.446649745267892e-07,1.2292567050034019e-06
305,1.427311509290816e-06,7.495377955239362e-07,1.6536541935555398e-06,8.294608610256183e-07,9.334282478392923e-07,1.1959187191299174e-06,7.208371687190785e-07,1.48448228299869e-06,2.2963171553354352e-06,9.55022609148525e-07,1.080493535029071e-06,1.1793198057033408e-06,5.582080097130667e-06,1.5770560733224158e-06,9.586140712314762e-07,1.240449194741574e-06
306,1.4963301107353018e-06,7.289260076411329e-07,1.6060193073360222e-06,8.463904036510969e-07,9.421651812440689e-07,1.214011237917303e-06,7.02290163284006e-07,1.513853544913379e-06,2.311647120152001e-06,9.425271509003471e-07,1.1082535727914762e-06,1.1877373702648946e-06,5.304795398188905e-06,1.548463774987086e-06,9.752691742426794e-07,1.2479400579913279e-06
307,1.5731259993585336e-06,7.08648075370289e-07,1.555741776053543e-06,8.668997112088013e-07,9.498411874426283e-07,1.2319049562023725e-06,6.878733098032526e-07,1.5410531909243634e-06,2.3240369872575545e-06,9.290100296552489e-07,1.134951940220591e-06,1.1976058350912046e-06,5.013545163318391e-06,1.5156593997776332e-06,9.945526648614958e-07,1.2518934314577343e-06
308,1.658398031095164e-06,6.889207899334143e-07,1.503048235597875e-06,8.913814684970931e-07,9.564345863274328e-07,1.2498794881744174e-06,6.771600846535195e-07,1.5648006081925381e-06,2.3328977156286526e-06,9.145638685054104e-07,1.160128170874807e-06,1.208821852905903e-06,4.713777194004247e-06,1.4796698675693057e-06,1.0162521127989287e-06,1.2524689679327434e-06
309,1.752549731107154e-06,6.699325111707409e-07,1.4483980982040573e-06,9.201367484696835e-07,9.619464299349965e-07,1.2681451859119837e-06,6.69735762246744e-07,1.5840320164245057e-06,2.3374352611374114e-06,8.993066036274827e-07,1.1833979795406723e-06,1.2213434365320767e-06,4.410855198060677e-06,1.4415725239751732e-06,1.0400057980226931e-06,1.2498557163484206e-06
310,1.8556776766255366e-06,6.517995197595589e-07,1.392520183397072e-06,9.533610215292279e-07,9.664402797235572e-07,1.2867830298875773e-06,6.6519224084994e-07,1.5980610008775483e-06,2.3369069214173382e-06,8.833863288208851e-07,1.2045423132550591e-06,1.235091031106883e-06,4.109930484120889e-06,1.40231620694003e-06,1.065295047766676e-06,1.244315819479792e-06
311,1.9675645987321534e-06,6.346172852310889e-07,1.336354513455182e-06,9.911417954771203e-07,9.70040253191233e-07,1.3057636299586632e-06,6.631606751225505e-07,1.6067498919223518e-06,2.330955733889385e-06,8.669893905206404e-07,1.2234793212358138e-06,1.2498921716333765e-06,3.815822670688327e-06,1.3626377293481806e-06,1.0914861200958347e-06,1.2361026930069364e-06
312,2.0876818143523846e-06,6.185346211198041e-07,1.2809287348512846e-06,1.0334445303771942e-06,9.72858247723314e-07,1.3249972371696171e-06,6.633486955842141e-07,1.6105614555806414e-06,2.319783874212604e-06,8.50407889024937e-07,1.240146997487198e-06,1.2655413082378802e-06,3.532873010796152e-06,1.3230850403747513e-06,1.1179580441904151e-06,1.22531834570728e-06
313,2.2152025931968966e-06,6.037527606559908e-07,1.2272251511015338e-06,1.0801044479651644e-06,9.749295310620924e-07,1.344339669604013e-06,6.655235674563965e-07,1.6104090344209375e-06,2.3040957732606493e-06,8.340773501955445e-07,1.2544527023001425e-06,1.2819309314599669e-06,3.26478570333371e-06,1.2840705546698542e-06,1.1442396304352788e-06,1.2118943620772766e-06
314,2.3489782220606474e-06,5.904678666729739e-07,1.1761052372686025e-06,1.1308109203858672e-06,9.762400251498455e-07,1.3635269904245444e-06,6.694467744750411e-07,1.6073563419336052e-06,2.284870639863751e-06,8.184968626315408e-07,1.2663428297595428e-06,1.2990808352239172e-06,3.014538222609599e-06,1.245960876602362e-06,1.1700458026184208e-06,1.1957406229972932e-06
315,2.4875018143575507e-06,5.788323133794465e-07,1.128293575836566e-06,1.1850785232183797e-06,9.767922105918874e-07,1.3821050992670422e-06,6.748117745187889e-07,1.602318506478421e-06,2.2630723813645283e-06,8.041288556613813e-07,1.2758756932044079e-06,1.3169972031227596e-06,2.7843966444139963e-06,1.209184821086676e-06,1.1952409548195066e-06,1.176927580003648e-06
316,2.628960701694583e-06,5.689404517542278e-07,1.084368618694951e-06,1.2422519772042274e-06,9.766260636754384e-07,1.399431521560818e-06,6.812240321615782e-07,1.5958868114024766e-06,2.2394517032203325e-06,7.913625666703153e-07,1.2831929046670856e-06,1.3355058376707612e-06,2.5759619295998745e-06,1.1742602892108947e-06,1.2198215693807224e-06,1.1557571717780368e-06
317,2.771356219805782e-06,5.608189942666043e-07,1.0447400158257336e-06,1.3015511285451071e-06,9.75806115034526e-07,1.4147362747228222e-06,6.882423326913332e-07,1.5882969152222202e-06,2.2145490879983533e-06,7.805005508347881e-07,1.288408730973619e-06,1.3541797980579693e-06,2.390199111552771e-06,1.1417143978118663e-06,1.2438943537055348e-06,1.1326913103645827e-06
318,2.9125288067259582e-06,5.544348593910295e-07,1.0096631213817078e-06,1.3620941546875502e-06,9.744228597184031e-07,1.427197383868866e-06,6.954636510263534e-07,1.5795106877771404e-06,2.188821347755353e-06,7.717349207908071e-07,1.2914958540637801e-06,1.3723638797258587e-06,2.22746751238729e-06,1.1119806075808096e-06,1.2675819703758056e-06,1.1082140933789505e-06
319,3.0500528569881795e-06,5.497201551034705e-07,9.793093753588763e-07,1.4229023159086468e-06,9.726062689770666e-07,1.436050360501165e-06,7.02569088551363e-07,1.569384287985585e-06,2.1627404260840608e-06,7.651244745474546e-07,1.2922384861821612e-06,1.3892613781716244e-06,2.0875565233475885e-06,1.0853461435318016e-06,1.2909181111422934e-06,1.0827620214996273e-06
320,3.1812342668364426e-06,5.465802659353635e-07,9.53810643257167e-07,1.4829748469121599e-06,9.705105466246366e-07,1.4407546622695173e-06,7.092821247110989e-07,1.557872907427735e-06,2.1368412345124777e-06,7.605944151715296e-07,1.2903036987537967e-06,1.4040345822418411e-06,1.9697460452262256e-06,1.0619477055640472e-06,1.3138124355133159e-06,1.0567745771067704e-06
321,3.3033878887578134e-06,5.448693221216552e-07,9.332413490608933e-07,1.5414151648603838e-06,9.68260647656262e-07,1.4411403351006501e-06,7.15317600733956e-07,1.5451762216724451e-06,2.111791664231208e-06,7.579873661854286e-07,1.285370381435774e-06,1.4158936448104105e-06,1.8729601017597226e-06,1.0417673978008029e-06,1.3360687073862418e-06,1.03073484129721e-06
322,3.414222875460726e-06,5.443613842649683e-07,9.175941615401115e-07,1.597459691189555e-06,9.658901676156838e-07,1.4374111099684002e-06,7.204290479231503e-07,1.5317276868794355e-06,2.0885198173589084e-06,7.571563147328357e-07,1.2771638123384797e-06,1.424182380377131e-06,1.7960391811800176e-06,1.0246257832735204e-06,1.3574614691699042e-06,1.0050956464427085e-06
323,3.5120690522879444e-06,5.44748635342308e-07,9.067687128754362e-07,1.6503829317779105e-06,9.633049756419469e-07,1.4299939317812536e-06,7.245275463103897e-07,1.5180238055724397e-06,2.0683387549230384e-06,7.580264038257915e-07,1.2654103441160495e-06,1.4284481882241173e-06,1.7379905322127566e-06,1.0102238539318907e-06,1.3778492340765426e-06,9.801777878287992e-07
324,3.5958863693125392e-06,5.456779405253695e-07,9.005861207588343e-07,1.6994506360710234e-06,9.603036539779613e-07,1.4193693491002461e-06,7.277196003796938e-07,1.5044170908498306e-06,2.052962037833715e-06,7.605755323077203e-07,1.2498690970122597e-06,1.4284590260893766e-06,1.6980409814214777e-06,9.982224782897944e-07,1.3971949491250292e-06,9.561577699955374e-07
325,3.6651473739357415e-06,5.468172612764854e-07,8.988427581125524e-07,1.744046396970954e-06,9.566555513013247e-07,1.4059991961634835e-06,7.30199614377089e-07,1.4910163254181889e-06,2.044367339131172e-06,7.647959543560873e-07,1.2304866089866092e-06,1.424145109943133e-06,1.6755610778363026e-06,9.882853728095712e-07,1.415477254476173e-06,9.331624308654868e-07
326,3.7196831696349105e-06,5.479182386518234e-07,9.013340010798712e-07,1.7838641606454747e-06,9.521901194897427e-07,1.3903269608049526e-06,7.321359643723572e-07,1.477734142281068e-06,2.0445605725771763e-06,7.706982135457157e-07,1.2075718317671004e-06,1.4155175379133512e-06,1.6700252028951343e-06,9.800999610149337e-07,1.4326577103138422e-06,9.113957296768075e-07
327,3.759533969576608e-06,5.488397725774546e-07,9.078158878148696e-07,1.8189557605310087e-06,9.468428778292087e-07,1.3727598980994936e-06,7.337098844059328e-07,1.4644262720964924e-06,2.0553487700408394e-06,7.783065890645198e-07,1.1818087468382666e-06,1.4026950034480376e-06,1.6809942496922255e-06,9.734231669933545e-07,1.448758452382079e-06,8.911819930876049e-07
328,3.7847747209683416e-06,5.495303374041408e-07,9.179708437431659e-07,1.8495604781082987e-06,9.406311379562938e-07,1.3536111638925233e-06,7.352525412167291e-07,1.4510235823051645e-06,2.0782293771235677e-06,7.876450041216109e-07,1.154053360757282e-06,1.3860585043997343e-06,1.7081740491316499e-06,9.680922144638198e-07,1.4638962094898419e-06,8.729144885873971e-07
329,3.7952757238096077e-06,5.499965872521714e-07,9.31395580856059e-07,1.8758379445068365e-06,9.335729643654062e-07,1.3330854658291494e-06,7.37285237625566e-07,1.4375585231307254e-06,2.114386534570874e-06,7.987917825902836e-07,1.1251280861724149e-06,1.3663456499159548e-06,1.7517356464321353e-06,9.639975854739482e-07,1.4782150545829557e-06,8.569998972084123e-07
330,3.7905289957143615e-06,5.502722927527626e-07,9.475956793802836e-07,1.8976923034341063e-06,9.255945440618326e-07,1.31138077624347e-06,7.404153926570338e-07,1.4240812987834335e-06,2.164674311997975e-06,8.11962791395562e-07,1.0957742812541219e-06,1.3445374693314312e-06,1.8127577011151971e-06,9.61119581306528e-07,1.4918754155202867e-06,8.438090576648677e-07
