,EMG1,EMG2,EMG3,EMG4,EMG5,EMG6,EMG7,EMG8,EMG9,EMG10,EMG11,EMG12,EMG13,EMG14,EMG15,EMG16
0,1.0089247688880722e-07,1.6225535121859453e-07,8.78912374106408e-08,1.6393515173411344e-06,-4.1725469876794765e-08,-5.665857580900704e-08,3.887618632271786e-07,6.48403330855321e-06,2.9338660392827272e-08,2.0436372449354722e-07,1.0704767899630817e-07,2.7569408948100764e-08,1.460520088282927e-07,9.637396680649662e-08,5.750523027746527e-07,3.670078244083973e-07
1,1.4165411444775082e-07,2.2055673104292412e-07,1.9627904698623489e-07,2.1529191667250734e-06,1.4174994269188296e-07,1.8527000143643448e-08,6.125600016080661e-07,7.924944439966514e-06,1.1799203080106393e-07,2.6251273895598607e-07,1.7069199916084936e-07,1.342348518126365e-07,2.2750339280438607e-07,1.423796954332978e-07,6.374666709244496e-07,4.947760684883471e-07
2,1.8244422483581946e-07,2.786020071536367e-07,3.0302465720682467e-07,2.688598828412473e-06,3.178095917733504e-07,9.353930011308657e-08,8.316603260688576e-07,9.338743959789289e-06,2.0596424936068863e-07,3.218405561671842e-07,2.3402935674174093e-07,2.417670708861805e-07,3.0952410977149906e-07,1.895676014340328e-07,7.00681706512819e-07,6.229169174204991e-07
3,2.2271044413854302e-07,3.352403090062572e-07,4.056237183402898e-07,3.2457851953045732e-06,4.833678033792885e-07,1.675892558583795e-07,1.0452634009616483e-06,1.070455470586389e-05,2.9234926982469456e-07,3.813784096161569e-07,2.9619521587559154e-07,3.497431192092735e-07,3.907009161191162e-07,2.373733359493213e-07,7.633968506569667e-07,7.48853003567069e-07
4,2.619602171286027e-07,3.895615054381766e-07,5.020059790064642e-07,3.823370202988877e-06,6.361222111227556e-07,2.401787983396701e-07,1.2524864465596436e-06,1.2003527125765565e-05,3.763960082502086e-07,4.4019626763146195e-07,3.5651213553515475e-07,4.5783191993365804e-07,4.6978328212088363e-07,2.853335671556732e-07,8.245338483488404e-07,8.704229949935373e-07
5,2.997671717479574e-07,4.4095104609743205e-07,5.907211800742369e-07,4.419563089141992e-06,7.746879180012322e-07,3.11114125768382e-07,1.4523323162240457e-06,1.3219013244294884e-05,4.57430654104807e-07,4.974873874135702e-07,4.1450619598377973e-07,5.657721508316623e-07,5.4585537182909e-07,3.330141733949601e-07,8.832360570213521e-07,9.859073858169848e-07
6,3.357985588765643e-07,4.890351038952324e-07,6.710624585298204e-07,5.031713135624632e-06,8.984637852849341e-07,3.803955667207916e-07,1.6437460070035355e-06,1.4336871306119642e-05,5.348495375656898e-07,5.52660712583506e-07,4.698428046357857e-07,6.733314137583216e-07,6.184072762646117e-07,3.799597591385272e-07,9.38747970339386e-07,1.094145182054457e-06
7,3.698333257640369e-07,5.336080885019686e-07,7.430047993903067e-07,5.656179777540659e-06,1.0073088684232504e-06,4.48091548764625e-07,1.8257589021952364e-06,1.534622709550575e-05,6.082219893074715e-07,6.053395981242367e-07,5.22235679241381e-07,7.802745804894683e-07,6.872086400159325e-07,4.257259618611647e-07,9.903279442203755e-07,1.194703272369592e-06
8,4.017639054981508e-07,5.746365242306858e-07,8.069430818182385e-07,6.288219923131491e-06,1.1012175714496661e-06,5.142986973229649e-07,1.9976283836178905e-06,1.6240250612269185e-05,6.773913023281827e-07,6.552870394007422e-07,5.714109400241355e-07,8.863533950923732e-07,7.521284729385417e-07,4.6997488361676714e-07,1.03728029179092e-06,1.287887942112835e-06
9,4.315808092655912e-07,6.122873656034334e-07,8.63425910149264e-07,6.921914450286902e-06,1.18017393153604e-06,5.791666225544065e-07,2.158932867713011e-06,1.7016167569721893e-05,7.4247383137487e-07,7.023503588197761e-07,6.171063419987272e-07,9.913157973197062e-07,8.130329409879275e-07,5.125268208097872e-07,1.078994072446509e-06,1.3745282058467738e-06
10,4.5933072512087436e-07,6.468738934454152e-07,9.130375974089108e-07,7.550368122809704e-06,1.2442367409309607e-06,6.429183106142098e-07,2.30969478213541e-06,1.7673963939070503e-05,8.037692537308992e-07,7.464095005117153e-07,6.590733690868779e-07,1.0949381973525756e-06,8.697360754325587e-07,5.532944012847283e-07,1.1149016933717429e-06,1.4556549453933456e-06
11,4.850910115138277e-07,6.787383980811306e-07,9.563826512023046e-07,8.16642150442524e-06,1.2937317519283772e-06,7.058346819655317e-07,2.4505411500914047e-06,1.821412171771875e-05,8.616554970331538e-07,7.87308827062269e-07,6.971310435902407e-07,1.1970328478392324e-06,9.219994166777089e-07,5.921721128727371e-07,1.1444782156257065e-06,1.532222243480605e-06
12,5.089780278050103e-07,7.081802955720418e-07,9.940820519948583e-07,8.763706767289698e-06,1.329363966696191e-06,7.682051686162077e-07,2.582786705357497e-06,1.863601796127074e-05,9.164953646943966e-07,8.248441051969765e-07,7.312490841841441e-07,1.2974004753857555e-06,9.696094303222053e-07,6.289842776798374e-07,1.1673325055784194e-06,1.604961208685525e-06
13,5.311343797307955e-07,7.354654770539283e-07,1.0267897442748337e-06,9.337537386802193e-06,1.352187468149572e-06,8.302669441916912e-07,2.7083229938828627e-06,1.8938470864461622e-05,9.68557562015481e-07,8.588063914536696e-07,7.615363318242672e-07,1.3958146073616166e-06,1.012483476963506e-06,6.635189145824903e-07,1.1832318491615616e-06,1.6743997264035912e-06
14,5.516748264681677e-07,7.608628775515782e-07,1.0552393652568257e-06,9.885223605606107e-06,1.363522875792385e-06,8.921713378310923e-07,2.829294876420823e-06,1.9121868338183505e-05,1.0180013583374963e-06,8.89023697661562e-07,7.881205697823451e-07,1.4921032172379987e-06,1.050715396555656e-06,6.956162778019789e-07,1.1920412959516447e-06,1.7409926971347179e-06
15,5.706330352949449e-07,7.846507804045823e-07,1.0802327038675407e-06,1.040571404309219e-05,1.364904034575691e-06,9.53992783214286e-07,2.947682228547947e-06,1.919018685229864e-05,1.0649383836219904e-06,9.154271868165092e-07,8.110534715031638e-07,1.5862583548459975e-06,1.0845295594476138e-06,7.25226968681303e-07,1.1937583833044326e-06,1.8052171707428647e-06
16,5.879395338409274e-07,8.070853285458458e-07,1.1025901215335724e-06,1.0898657692154162e-05,1.3580103926555823e-06,1.0157390019517855e-06,3.064990490068689e-06,1.9151942551808386e-05,1.1094754362967457e-06,9.381502296718042e-07,8.303449002963365e-07,1.6784829107041067e-06,1.114195179104758e-06,7.52373984813113e-07,1.1886574095508475e-06,1.8675195272301104e-06
17,6.034235626844481e-07,8.283754566443269e-07,1.1231623573643049e-06,1.1363186758105535e-05,1.3445395784828768e-06,1.077343582033815e-06,3.1821396104047067e-06,1.901985973747984e-05,1.1516782482809102e-06,9.575710036239013e-07,8.460873288703752e-07,1.7691765533177683e-06,1.140003959560289e-06,7.77063391051575e-07,1.1773408531518468e-06,1.9281768680339766e-06
18,6.168239772009987e-07,8.487025245087605e-07,1.1428366696954543e-06,1.1797097544217121e-05,1.3261312915086717e-06,1.1386865061229057e-06,3.299463946817623e-06,1.8809248546250153e-05,1.191545090287566e-06,9.742659729327065e-07,8.585328795474664e-07,1.8589024331063254e-06,1.1623244657355725e-06,7.992413260500979e-07,1.1606059480871389e-06,1.987207648768533e-06
19,6.278250940441265e-07,8.682562368380682e-07,1.1624964117020134e-06,1.2197019175323068e-05,1.3044269331286232e-06,1.1996387522203381e-06,3.4167601282762313e-06,1.8535566702841624e-05,1.2290526034663917e-06,9.88928634764424e-07,8.680511478611953e-07,1.9483368389224486e-06,1.1815905742115928e-06,8.188213719445449e-07,1.1392955128683266e-06,2.0443283994048583e-06
20,6.361536412592016e-07,8.872240173941607e-07,1.1830274612567642e-06,1.2559364228307197e-05,1.281136558470512e-06,1.2600535842346734e-06,3.533418673060738e-06,1.8212437617700945e-05,1.2641853781963228e-06,1.0022799708534853e-06,8.75023598276775e-07,2.0381891603585743e-06,1.1981649057911979e-06,8.357237489854223e-07,1.1143076969350098e-06,2.0988904003404973e-06
21,6.417078960720456e-07,9.057306347272205e-07,1.2053600995130916e-06,1.2881370523166787e-05,1.2580095159668182e-06,1.3196838445297322e-06,3.6486652349264323e-06,1.7851177501489607e-05,1.2969042781133996e-06,1.0149775223958352e-06,8.79753864270805e-07,2.1290902905266197e-06,1.2122154101950577e-06,8.499048000099564e-07,1.0866788758494733e-06,2.1498449893781127e-06
22,6.446105454570143e-07,9.237982775971306e-07,1.2304473121783127e-06,1.3161769055470844e-05,1.2367881429198034e-06,1.3780988283928411e-06,3.7618850609775255e-06,1.746138066086704e-05,1.3271270062737866e-06,1.027569206684099e-06,8.824569278358686e-07,2.2214494322344932e-06,1.2237284855681466e-06,8.613834961786896e-07,1.057550541416371e-06,2.1958357948480242e-06
23,6.451330559585311e-07,9.413583145510267e-07,1.259181513281376e-06,1.3400966485259136e-05,1.2192041138805967e-06,1.4346655528424956e-06,3.8729660711091905e-06,1.7051441610278388e-05,1.354716490259321e-06,1.0405102861490357e-06,8.833503519123967e-07,2.315309632001798e-06,1.2326328991243085e-06,8.702305052462153e-07,1.0280185557214087e-06,2.235438687766391e-06
24,6.435858136547195e-07,9.582681254287544e-07,1.2923202570009048e-06,1.3600824832046364e-05,1.2069591062751014e-06,1.4886344796463197e-06,3.982567532538973e-06,1.6628801153218054e-05,1.3794277210621023e-06,1.0541815430604649e-06,8.827511135609014e-07,2.410262648466904e-06,1.2389131894575388e-06,8.765617421271124e-07,9.990038901897583e-07,2.267472873102069e-06
25,6.402917827751066e-07,9.743388832494756e-07,1.3304360800173597e-06,1.3764090317825332e-05,1.2016666802823196e-06,1.539338954720662e-06,4.092210520788883e-06,1.620039378633966e-05,1.4008864514261233e-06,1.0688794315719985e-06,8.810554128800876e-07,2.5054791151876387e-06,1.242618684437055e-06,8.805963063479889e-07,9.71206883075485e-07,2.2912344442467528e-06
26,6.356302020210688e-07,9.894229603281165e-07,1.3738704174124363e-06,1.3893384917392159e-05,1.2048187977619544e-06,1.586367264605252e-06,4.204113367356943e-06,1.5773372367728174e-05,1.4186943850003788e-06,1.0848041020314065e-06,8.786244168570332e-07,2.599883376197793e-06,1.2437759908437295e-06,8.826824896386113e-07,9.451129163737083e-07,2.306530540206178e-06
27,6.300571899536795e-07,1.0034973345196296e-06,1.4227137718422004e-06,1.3990004543396555e-05,1.2177973738868561e-06,1.6295261733628064e-06,4.320778385109318e-06,1.5355545304048533e-05,1.432636124649332e-06,1.1020314812630678e-06,8.756855421049945e-07,2.6924097763834367e-06,1.2422745696983707e-06,8.832426625041525e-07,9.21039919954975e-07,2.3134956081116878e-06
28,6.240614088287099e-07,1.0166467341927932e-06,1.4768462535869692e-06,1.4053437147408691e-05,1.24190632312463e-06,1.6686242770784821e-06,4.444453583524711e-06,1.4954907455828059e-05,1.4428454973326126e-06,1.1204704205067082e-06,8.723016652201861e-07,2.7821842445700466e-06,1.2378297864260685e-06,8.827299375434677e-07,8.992289538839472e-07,2.3122929339071223e-06
29,6.180934660428013e-07,1.0289746346507294e-06,1.5360219792355154e-06,1.408218936624352e-05,1.2784399456218993e-06,1.7032670414170985e-06,4.576680708376128e-06,1.4578379505708663e-05,1.4497621105771308e-06,1.1398548509116402e-06,8.68401797221815e-07,2.8685163456595838e-06,1.2301380493519862e-06,8.815981706515107e-07,8.79911030196014e-07,2.3029474500666784e-06
30,6.125407045032458e-07,1.040520550354522e-06,1.5999513395623087e-06,1.407532063627783e-05,1.3287748704597127e-06,1.7328228832737192e-06,4.718113741995709e-06,1.4230771718397984e-05,1.4538960222954999e-06,1.1597997836326172e-06,8.638390722846705e-07,2.950714690077976e-06,1.219177220543652e-06,8.80229346922574e-07,8.632894109380088e-07,2.2854426297083204e-06
31,6.077666812189381e-07,1.0512013854619119e-06,1.6683533244793004e-06,1.403374226545961e-05,1.3943868378093888e-06,1.7565910878680752e-06,4.868608937360546e-06,1.3914779978123204e-05,1.455646391626534e-06,1.1799022107811856e-06,8.58449926134196e-07,3.0278716681904875e-06,1.2053800807775488e-06,8.788649191534599e-07,8.494888523534932e-07,2.25988704693937e-06
32,6.041480204877464e-07,1.0607747319760028e-06,1.7409697148190908e-06,1.396083148371181e-05,1.4767557215138028e-06,1.7740692197465722e-06,5.027378261323234e-06,1.3631737087177361e-05,1.4553140407243775e-06,1.1998138285628054e-06,8.52149984327065e-07,3.0988351988563595e-06,1.1895197320405413e-06,8.776256421618273e-07,8.385363933951234e-07,2.2265712920827903e-06
33,6.020504230769407e-07,1.0688677489149753e-06,1.8175148755794995e-06,1.3862217303130209e-05,1.5772803652006633e-06,1.7851557487880535e-06,5.19298121972186e-06,1.3382494098039095e-05,1.4531771551465229e-06,1.2192171592997489e-06,8.450546211025009e-07,3.1624591967836275e-06,1.172479426641158e-06,8.766370875186303e-07,8.303498335059865e-07,2.185978873090944e-06
34,6.017783115453063e-07,1.0751042765181639e-06,1.897540384071688e-06,1.3744745339656075e-05,1.6972762946623643e-06,1.7901789135715716e-06,5.363179080541055e-06,1.3168091229204151e-05,1.4494915255295249e-06,1.2377247884174788e-06,8.374969383096612e-07,3.217942624047109e-06,1.155102111847435e-06,8.761486676957947e-07,8.247123215241362e-07,2.138816000850905e-06
35,6.035591327447771e-07,1.0792650745564127e-06,1.980289890786668e-06,1.3614932007608577e-05,1.8379742833310133e-06,1.7897843494490171e-06,5.534979209676385e-06,1.2989808242705438e-05,1.4444539644998938e-06,1.2548102697267093e-06,8.299103706442018e-07,3.2649013248841317e-06,1.1381102338747745e-06,8.765194166204728e-07,8.21261549291271e-07,2.086009891385851e-06
36,6.075590915214789e-07,1.081352342966522e-06,2.0646754505419562e-06,1.3477612054275258e-05,2.0004961943241075e-06,1.784799755354861e-06,5.705127072867773e-06,1.284846262688394e-05,1.4382300233641674e-06,1.2698874682926115e-06,8.226928356078457e-07,3.303056061353275e-06,1.1220677167756025e-06,8.781314417106479e-07,8.195245828259029e-07,2.0286463029704723e-06
37,6.13887039501416e-07,1.0815057406184499e-06,2.149429681591198e-06,1.3335482629783583e-05,2.1858748850279504e-06,1.7761124767616882e-06,5.87086711713019e-06,1.2743909768418713e-05,1.431039870759435e-06,1.2825100394533709e-06,8.161418918310981e-07,3.3318713931563078e-06,1.1074263064313895e-06,8.813427190378484e-07,8.19011484975748e-07,1.9678569873492086e-06
38,6.225739028145401e-07,1.0798881570617357e-06,2.2333785864418265e-06,1.3189569335094208e-05,2.3951119964959535e-06,1.7645352252498173e-06,6.030541198820446e-06,1.2675530852715284e-05,1.4232288033771672e-06,1.2925140527193258e-06,8.104834598283222e-07,3.3504322110095518e-06,1.0946112183413347e-06,8.864863618762906e-07,8.193215655320558e-07,1.9046710263490315e-06
39,6.335544392359822e-07,1.0766792380956392e-06,2.31570935662248e-06,1.3040055209975174e-05,2.6292034620068112e-06,1.750747022389876e-06,6.183696761355979e-06,1.2642706314403875e-05,1.4153203822003047e-06,1.3000007826874845e-06,8.059548720977123e-07,3.357464155365897e-06,1.0840216813159809e-06,8.939084622573604e-07,8.201816501990318e-07,1.8399455075382182e-06
40,6.466674038014867e-07,1.0721300921922125e-06,2.3960954868174924e-06,1.2887041809595208e-05,2.8890871450789497e-06,1.7353898434977308e-06,6.330637644706496e-06,1.2644250293100103e-05,1.4080520913553427e-06,1.3052136888730562e-06,8.028435620803267e-07,3.3514531581474144e-06,1.075955195037156e-06,9.040109787949954e-07,8.214057077388121e-07,1.7744503912068559e-06
41,6.616645270271174e-07,1.0665656582135673e-06,2.4745799166023797e-06,1.2731110473677532e-05,3.1755357781803934e-06,1.7192184097196336e-06,6.471679650645422e-06,1.267781971814176e-05,1.4023393574027869e-06,1.3084206666164196e-06,8.014554949688908e-07,3.3309669003248835e-06,1.0705581462073443e-06,9.172358559589181e-07,8.228243823447927e-07,1.7089504500014248e-06
42,6.782264993841879e-07,1.060344993102718e-06,2.551258286862152e-06,1.2573623603289244e-05,3.4890692071971524e-06,1.7031737370607657e-06,6.6065620591101694e-06,1.2740613290586789e-05,1.399164758087269e-06,1.309886213165631e-06,8.020799889094437e-07,3.2950811381217805e-06,1.0678003516237105e-06,9.339829520904202e-07,8.242340021619302e-07,1.6441743298237067e-06
43,6.959836006445356e-07,1.053847951008857e-06,2.6260204708982084e-06,1.241677604498165e-05,3.829913067381041e-06,1.6883416703741242e-06,6.734280337804659e-06,1.2830872475036305e-05,1.3994405137758356e-06,1.309899262033452e-06,8.049581707379193e-07,3.2436502225259804e-06,1.0674383406679965e-06,9.54514401661952e-07,8.253970029497237e-07,1.580780778251684e-06
44,7.145160151600137e-07,1.0474915443109237e-06,2.6985336630542617e-06,1.2263491035530678e-05,4.197956096126584e-06,1.6758026751926915e-06,6.853198723818478e-06,1.2948889604534013e-05,1.4038885665236506e-06,1.3087416096156938e-06,8.102264108424978e-07,3.177226889133373e-06,1.0690030791128842e-06,9.789010821881988e-07,8.260803360700838e-07,1.5194120973696242e-06
45,7.333307073725455e-07,1.0417274739538132e-06,2.768323941124508e-06,1.2117215094815393e-05,4.592671495399933e-06,1.6664444074223843e-06,6.96106712646362e-06,1.3096989623634826e-05,1.4129684021255369e-06,1.3065917248822341e-06,8.178739294699991e-07,3.0966868357762144e-06,1.0718482165003723e-06,1.0070212743760248e-06,8.261156860748239e-07,1.4607683429038593e-06
46,7.518742607253689e-07,1.0369931072611393e-06,2.834796448500425e-06,1.1981584717686656e-05,5.013015397554609e-06,1.660850106581829e-06,7.054786673796245e-06,1.3278719679118295e-05,1.426846517142969e-06,1.3034582459615435e-06,8.277609246817401e-07,3.002990137486053e-06,1.075266478902725e-06,1.0385785324204461e-06,8.254841667575632e-07,1.4055906852097e-06
47,7.696171256606326e-07,1.0336317295053582e-06,2.897268525429972e-06,1.1859941078424025e-05,5.457321271825684e-06,1.659320294494193e-06,7.1302986030913985e-06,1.3497724135678575e-05,1.4453865710318906e-06,1.2991734909279423e-06,8.396853286144493e-07,2.897402387186128e-06,1.0786456695187146e-06,1.0731119218400749e-06,8.24363909391144e-07,1.3545695459687961e-06
48,7.861265716937478e-07,1.0318184990610303e-06,2.9551175971161067e-06,1.1754727905856778e-05,5.923199843973227e-06,1.6619991075482516e-06,7.183092989433394e-06,1.3756682099174237e-05,1.4681571400034054e-06,1.2934253547090314e-06,8.534450243129171e-07,2.7818259038616233e-06,1.0815669113094483e-06,1.110033249316513e-06,8.230658067497101e-07,1.308275200791143e-06
49,8.010368684413274e-07,1.0315265785566462e-06,3.007977732063349e-06,1.1666834909031318e-05,6.4074403006828465e-06,1.6690170788189362e-06,7.20930085416359e-06,1.4056453750885509e-05,1.4944637388959608e-06,1.2858305117156212e-06,8.688558149248816e-07,2.6587434253774797e-06,1.083770381478055e-06,1.148712166249172e-06,8.219117389866759e-07,1.2671241008982662e-06
50,8.139668635476203e-07,1.0325374482192229e-06,3.055827970794148e-06,1.159500854579389e-05,6.905877529405008e-06,1.6805466124882695e-06,7.206859711898697e-06,1.4395462875454381e-05,1.5233940028257535e-06,1.2760522443433297e-06,8.857297539607154e-07,2.5308295821266085e-06,1.0850661115085884e-06,1.188523655747992e-06,8.211636854433721e-07,1.2313889660327107e-06
51,8.245100842499814e-07,1.0344664717827379e-06,3.0989054580331543e-06,1.1535581346149179e-05,7.413183828253901e-06,1.6967224280468319e-06,7.176184444206262e-06,1.4769348570093476e-05,1.5538438679598834e-06,1.2639322150938612e-06,9.038419587534264e-07,2.400601655325467e-06,1.0853210323733821e-06,1.2288159316901164e-06,8.210226969577358e-07,1.2012859526607991e-06
52,8.323286575891347e-07,1.0368095862540413e-06,3.1375113475038633e-06,1.1482671903165756e-05,7.922598851316216e-06,1.7174910118635738e-06,7.119968083696911e-06,1.5170831612161547e-05,1.584566999291859e-06,1.249582995680212e-06,9.229504881436385e-07,2.2702885678517994e-06,1.0845072023505404e-06,1.2688698389783918e-06,8.216609125113282e-07,1.177053110193617e-06
53,8.372693745431969e-07,1.0390422514368994e-06,3.1718326450409384e-06,1.1428701150432773e-05,8.42570993483606e-06,1.7425120020283214e-06,7.042176355178383e-06,1.558964517859565e-05,1.6143137657804752e-06,1.2333809442355417e-06,9.428960297418208e-07,2.1418219094461515e-06,1.082697101950961e-06,1.3078932013616998e-06,8.232410047352908e-07,1.158917615569848e-06
54,8.394194701282223e-07,1.0407251132758494e-06,3.201886708841261e-06,1.1365064077050307e-05,8.912512468183268e-06,1.771160043470076e-06,6.946775075167181e-06,1.6012725431853997e-05,1.6419693617910958e-06,1.2158339965216107e-06,9.636535718967356e-07,2.016815532704462e-06,1.0799838924536398e-06,1.345047333896714e-06,8.258858533124178e-07,1.147008303961925e-06
55,8.390693790816404e-07,1.04153872109963e-06,3.2275826724478615e-06,1.1283014005517363e-05,9.372037088849015e-06,1.8025760023827834e-06,6.83680228137942e-06,1.642527315472456e-05,1.6665810456270475e-06,1.1974096807845678e-06,9.852422122018127e-07,1.8965316845097388e-06,1.0764041697722331e-06,1.3794943377262153e-06,8.296213179212792e-07,1.1413318474655738e-06
56,8.365940652208389e-07,1.0412398323234244e-06,3.24874975567542e-06,1.1174796285650444e-05,9.79363444439153e-06,1.8357174196524238e-06,6.7140412297515215e-06,1.681282089226433e-05,1.6873287791223361e-06,1.178457393766421e-06,1.007615161224745e-06,1.781881592713791e-06,1.0719008961603359e-06,1.410461997774922e-06,8.343536874351596e-07,1.141820989114724e-06
57,8.323203152035538e-07,1.03957195743318e-06,3.2650158897097785e-06,1.10348256939197e-05,1.0168538646172741e-05,1.8694020650704154e-06,6.5791580837575966e-06,1.716347985903081e-05,1.7035395854926011e-06,1.159269021696166e-06,1.0306325431900083e-06,1.6734594661070024e-06,1.0663118129522685e-06,1.4373297298172391e-06,8.399258138094679e-07,1.1483838557874286e-06
58,8.264499392693368e-07,1.0361804813396614e-06,3.275604932489839e-06,1.0860516600196477e-05,1.0490983578401381e-05,1.902363979895845e-06,6.431936762711815e-06,1.74693984771406e-05,1.71476358453589e-06,1.1401907934991153e-06,1.054048191777545e-06,1.5716358057522513e-06,1.059409072484282e-06,1.4596917921547085e-06,8.462300011256447e-07,1.1609525697814552e-06
59,8.190412971985943e-07,1.0306254469062186e-06,3.2792363051646515e-06,1.0652398515021696e-05,1.0758284313100524e-05,1.9333638269345114e-06,6.2713316675987026e-06,1.7727224133808272e-05,1.7208539254251732e-06,1.1216350208237664e-06,1.077465240164936e-06,1.4767544488962527e-06,1.0509961072686373e-06,1.4773722940276233e-06,8.532787674010198e-07,1.179553186166119e-06
60,8.100218889676572e-07,1.0225377538344939e-06,3.274277870498687e-06,1.0413382739488979e-05,1.0969781471578554e-05,1.9613696014886988e-06,6.095588301273623e-06,1.7937953326697553e-05,1.721948007278042e-06,1.103969074142214e-06,1.100300776607507e-06,1.3893200430048177e-06,1.0409744107625168e-06,1.4904467380748966e-06,8.611726655332205e-07,1.2043091662335813e-06
61,7.992434064718701e-07,1.0117901778222137e-06,3.259129961677786e-06,1.0147388169676154e-05,1.1125157903272532e-05,1.9857263802261505e-06,5.9028488611630925e-06,1.8106290884111936e-05,1.7182909160221251e-06,1.0874105798660142e-06,1.1217806737455377e-06,1.3099970821354837e-06,1.0293223525464845e-06,1.4992714120158675e-06,8.700090417046544e-07,1.235326750278647e-06
62,7.866025103342117e-07,9.98493247334297e-07,3.2326552784177e-06,9.857867209232123e-06,1.122317189278131e-05,2.0061899295512526e-06,5.6920988255225545e-06,1.8239111927375513e-05,1.7100345585815499e-06,1.0719997133556871e-06,1.1409943073163267e-06,1.2394484589805768e-06,1.0160324544291e-06,1.5044151460622714e-06,8.798116264496777e-07,1.2725740820056786e-06
63,7.721636060086559e-07,9.82821101953585e-07,3.194498241506234e-06,9.546938995207911e-06,1.1261628992983906e-05,2.022797710964983e-06,5.4640142539503604e-06,1.8343345679722203e-05,1.6972136841741446e-06,1.0576391620421033e-06,1.1570587480092881e-06,1.1781883712424298e-06,1.0010993857628193e-06,1.5064695126660026e-06,8.905414912470318e-07,1.315840455118515e-06
64,7.561676014044095e-07,9.648519927314079e-07,3.145224108134432e-06,9.215517668643008e-06,1.1238368203898775e-05,2.0356636589455665e-06,5.221369419455342e-06,1.84250933604845e-05,1.6798891074144653e-06,1.0441929597131264e-06,1.1693291774188665e-06,1.1265393285820837e-06,9.846010028541996e-07,1.5058863552418883e-06,9.021786248802722e-07,1.364760066584362e-06
65,7.389372983568176e-07,9.445484974230247e-07,3.0862173532293638e-06,8.864135186086394e-06,1.1152421200646072e-05,2.044777237600032e-06,4.968696698716853e-06,1.8490898547429663e-05,1.6583126493365926e-06,1.0315983282082819e-06,1.1774798028817648e-06,1.0846500227379535e-06,9.667601024759932e-07,1.5029509079689885e-06,9.147774200109655e-07,1.4188675958930075e-06
66,7.208083145714566e-07,9.218694007080748e-07,3.019340407491808e-06,8.493850747373292e-06,1.100482726952121e-05,2.0498556828495067e-06,4.71127818733158e-06,1.8549446675191695e-05,1.6330142500634414e-06,1.019906790582417e-06,1.1814293129735634e-06,1.0525010931675447e-06,9.478683251664721e-07,1.4978304977054887e-06,9.284293497241391e-07,1.4776621392473589e-06
67,7.021333400910441e-07,8.969225709926293e-07,2.9465050569390125e-06,8.106880645100078e-06,1.0799011210272635e-05,2.0503322680783372e-06,4.454149852279981e-06,1.8611777966524574e-05,1.6047685737188005e-06,1.0092109132678739e-06,1.1813131959673594e-06,1.0298872928936006e-06,9.281751809764475e-07,1.490619766912352e-06,9.431889413133037e-07,1.5407100160955172e-06
68,6.832870084227738e-07,8.700208842838116e-07,2.8693756685808264e-06,7.706866957753985e-06,1.0540727413811139e-05,2.0455280885363798e-06,4.201633228927815e-06,1.868994040236598e-05,1.5744762116789985e-06,9.995261436556992e-07,1.1775585894185844e-06,1.0164102057532026e-06,9.078936147420065e-07,1.481362810476902e-06,9.590444612694165e-07,1.6077707248876956e-06
69,6.646251577029456e-07,8.415987296138909e-07,2.7892729411797464e-06,7.298828436289081e-06,1.0237599931556274e-05,2.034904227559629e-06,3.95726736037344e-06,1.879496024144196e-05,1.543052555334508e-06,9.90768019615204e-07,1.1708442418790306e-06,1.0115109019990703e-06,8.872891087402668e-07,1.4700633386351876e-06,9.759270422398233e-07,1.6787976089088061e-06
70,6.464486683654881e-07,8.121015351758614e-07,2.707155256124103e-06,6.888886922369226e-06,9.898371555445578e-06,2.018221952459145e-06,3.7239187983454288e-06,1.893497861982308e-05,1.5113717236714003e-06,9.828492744494329e-07,1.16189646128212e-06,1.0145257745790365e-06,8.667331136747737e-07,1.4567278476072418e-06,9.937402491361088e-07,1.753768020657282e-06
71,6.290268459225106e-07,7.819379460623226e-07,2.623616051603259e-06,6.4838877517782615e-06,9.532017938586935e-06,1.9955385529148264e-06,3.504015855030551e-06,1.9114108175174195e-05,1.4802419318620534e-06,9.75755689938853e-07,1.151357444521048e-06,1.0247230302559552e-06,8.466771351031232e-07,1.4414432188205515e-06,1.0124305203450994e-06,1.832520555489184e-06
72,6.126476969101056e-07,7.515018425734572e-07,2.538964688294447e-06,6.091018746496032e-06,9.14685112853322e-06,1.9671189435912993e-06,3.2997867699873036e-06,1.933201660988256e-05,1.4503885993476058e-06,9.69507096288888e-07,1.1398355685962578e-06,1.0413370412977083e-06,8.275889910813739e-07,1.4243999281887202e-06,1.0320519964079586e-06,1.9147345549333027e-06
73,5.976232470363528e-07,7.212322174599351e-07,2.45336171490718e-06,5.717459732128049e-06,8.749770876758027e-06,1.9334044190357812e-06,3.113352131145323e-06,1.958386043153558e-05,1.4224492964734023e-06,9.640718370566932e-07,1.1279840122831655e-06,1.0636126134623773e-06,8.099132899929996e-07,1.4058349019939686e-06,1.05272987158219e-06,1.9999710385491718e-06
74,5.84251827909461e-07,6.916206596495276e-07,2.3669156172955704e-06,5.370044102802971e-06,8.34593252510506e-06,1.8950925049871985e-06,2.9466276134112184e-06,1.986042953274357e-05,1.396964693292822e-06,9.593100078031313e-07,1.1164680927005823e-06,1.0907895383911701e-06,7.940858263963164e-07,1.3860007309046903e-06,1.0745319492238664e-06,2.087661173714261e-06
75,5.727987266442802e-07,6.631320441747227e-07,2.2797666514408815e-06,5.054943999579725e-06,7.93895999951351e-06,1.853232794983717e-06,2.8011293561830522e-06,2.0148766827863155e-05,1.3743316130979442e-06,9.549622294032722e-07,1.105860309164956e-06,1.1220208331545074e-06,7.805591421141403e-07,1.3652083627030586e-06,1.0973595960953681e-06,2.1770503971119717e-06
76,5.635017509680694e-07,6.361190858568635e-07,2.1921987046154405e-06,4.777424173803671e-06,7.531473880641918e-06,1.809186732702262e-06,2.677845162205223e-06,2.043357403325274e-05,1.3547308062051402e-06,9.50728457245565e-07,1.0965676189249937e-06,1.1563464739826312e-06,7.697822467936976e-07,1.343829889884891e-06,1.1209144404007063e-06,2.267145908158854e-06
77,5.565588098957264e-07,6.107881710615779e-07,2.1047042887684006e-06,4.541705954267412e-06,7.125624993791581e-06,1.764409147448891e-06,2.5772182479889786e-06,2.069938605207968e-05,1.3380876847593383e-06,9.464064075343614e-07,1.0888375120166217e-06,1.1928004006956944e-06,7.621615961906557e-07,1.3221972161563067e-06,1.144711914597934e-06,2.356674388654857e-06
78,5.520966271729284e-07,5.872085404942338e-07,2.017928208747669e-06,4.350960324736575e-06,6.7235209124907604e-06,1.7201806560613965e-06,2.49916017336692e-06,2.0932819185068577e-05,1.3240884326126356e-06,9.419200176516156e-07,1.082822127189319e-06,1.2305887090557601e-06,7.58035762978107e-07,1.3005345678064876e-06,1.1681179802835596e-06,2.44405877650935e-06
79,5.501490594947858e-07,5.653529081456859e-07,1.932548002070333e-06,4.207405589359382e-06,6.327543101906011e-06,1.6774443301876857e-06,2.4430770705691786e-06,2.112357754332815e-05,1.3122156870350413e-06,9.372098506336431e-07,1.0786369430075816e-06,1.2692621147989372e-06,7.576389917704662e-07,1.279029921608658e-06,1.19038809403518e-06,2.5274985320672224e-06
80,5.506501385180922e-07,5.451607836411074e-07,1.8491976739378335e-06,4.112461233435535e-06,5.940528741751136e-06,1.6367681407748837e-06,2.407961248818829e-06,2.1263303756348318e-05,1.301811014250678e-06,9.321816684538408e-07,1.0763532890425476e-06,1.308843209525253e-06,7.610593470582744e-07,1.2579131887636962e-06,1.2107023876534944e-06,2.605231442717959e-06
81,5.534346203724238e-07,5.26600683194498e-07,1.7684413626679789e-06,4.06691587986275e-06,5.565773131115464e-06,1.5983825008296928e-06,2.3925014976705983e-06,2.1343300655226544e-05,1.292222879674219e-06,9.267733290641998e-07,1.0759232127230744e-06,1.3498090957948945e-06,7.682229309607368e-07,1.2374312241863237e-06,1.2282518205716965e-06,2.6758550471349257e-06
82,5.582386800346625e-07,5.096983506510947e-07,1.6907455999248898e-06,4.0710616383793546e-06,5.206879058209209e-06,1.562274417214262e-06,2.395119866608782e-06,2.1353778551816285e-05,1.2829769067156098e-06,9.209949061181624e-07,1.0771092994408326e-06,1.3928706313265546e-06,7.789074502386421e-07,1.2178199553546792e-06,1.2423546828212259e-06,2.7384579711726234e-06
83,5.646948029077739e-07,4.945127821995749e-07,1.6164677414078932e-06,4.124751569070519e-06,4.867574311542527e-06,1.5283197184797296e-06,2.413968336697193e-06,2.1285802116470423e-05,1.2738020932283426e-06,9.149106471427516e-07,1.0794933426006266e-06,1.4386971100940922e-06,7.927778058755121e-07,1.1993320041503373e-06,1.2524845136969757e-06,2.792505469784668e-06
84,5.723362566676374e-07,4.810830018457655e-07,1.5459060304202933e-06,4.227361933802372e-06,4.551605773554413e-06,1.4964131065964216e-06,2.4469768696677367e-06,2.1134210719144412e-05,1.2645122683289113e-06,9.086241739817022e-07,1.0825306350097147e-06,1.4877557200438986e-06,8.09432471540248e-07,1.182236549103704e-06,1.258263883444081e-06,2.83766600305084e-06
85,5.806453247872174e-07,4.693990149068616e-07,1.4793674145479123e-06,4.377663054118071e-06,4.262715351994015e-06,1.4665652567025726e-06,2.4919040789394345e-06,2.089942270522767e-05,1.2549397617374772e-06,9.02237552077792e-07,1.0855773698501079e-06,1.5402460007279538e-06,8.28438572033875e-07,1.166762582770679e-06,1.2595913973163304e-06,2.8737031403954327e-06
86,5.891550567164471e-07,4.5941132203273485e-07,1.4171541515575323e-06,4.5736525385021435e-06,4.004624257580373e-06,1.4389355671949853e-06,2.5462885898478386e-06,2.0587562684877165e-05,1.2450210983717086e-06,8.95793969827988e-07,1.0879290146140875e-06,1.5960643276606746e-06,8.49335236712391e-07,1.1530404265713836e-06,1.2568058208481666e-06,2.9003590139833706e-06
87,5.975539958686637e-07,4.510361713856447e-07,1.3594591838273171e-06,4.812432999486715e-06,3.78092999393331e-06,1.4137785044691714e-06,2.607405389706971e-06,2.0209293402613327e-05,1.2348744759946965e-06,8.892976230553142e-07,1.0888972794789703e-06,1.6547972575068522e-06,8.716097794914366e-07,1.1410774670869904e-06,1.250644500538276e-06,2.9172188215317734e-06
88,6.057193309975306e-07,4.441413479634078e-07,1.3062772133402336e-06,5.090142689590814e-06,3.5948747960375987e-06,1.3913362022136265e-06,2.6723905887627254e-06,1.977801180515984e-05,1.224717555686835e-06,8.827858819680043e-07,1.0878420414015319e-06,1.7157302694952129e-06,8.946857400905039e-07,1.1307722159949458e-06,1.241998285059804e-06,2.9237504236732096e-06
89,6.136708150076602e-07,4.3855268594372945e-07,1.2574013683769213e-06,5.40191903147133e-06,3.4490764553289626e-06,1.371742827153324e-06,2.738504118890592e-06,1.9308073410179898e-05,1.2147601156232984e-06,8.763477903113819e-07,1.084161147899859e-06,1.7778869570347544e-06,9.179464011211578e-07,1.121971457734102e-06,1.231669943088339e-06,2.919568387664988e-06
90,6.215113512673534e-07,4.3409550487683374e-07,1.2124640943367716e-06,5.741936451513846e-06,3.3453606212950766e-06,1.354975185946703e-06,2.8034865509632785e-06,1.881337814417372e-05,1.2052338870065288e-06,8.701176384632985e-07,1.0773255662199216e-06,1.8401464140709921e-06,9.407628580096047e-07,1.1145799674759598e-06,1.2202673560997302e-06,2.9046885318074163e-06
91,6.293891211898541e-07,4.3062037800394333e-07,1.1709898748127033e-06,6.103497004922672e-06,3.284745538192008e-06,1.340852375249218e-06,2.8660023419310697e-06,1.8306271579196232e-05,1.196450178416503e-06,8.642983063488126e-07,1.0669439249204728e-06,1.9013593380716291e-06,9.625362309823005e-07,1.1086679459670376e-06,1.2082103628526103e-06,2.8796327906468554e-06
92,6.374534900653832e-07,4.2797485516901216e-07,1.1324944390774046e-06,6.479039495247089e-06,3.2675861756961643e-06,1.3290899625214772e-06,2.9259757932204744e-06,1.7796592951388853e-05,1.1887389394583906e-06,8.591477406229471e-07,1.0528024819912434e-06,1.9603462564515492e-06,9.828334892085829e-07,1.1044582097121928e-06,1.1957664851576736e-06,2.84544113328915e-06
93,6.457971789112091e-07,4.259618168043486e-07,1.0966513858243828e-06,6.859986320262464e-06,3.2938673354109182e-06,1.319400686849635e-06,2.9845479046643526e-06,1.729091387147593e-05,1.182335342862367e-06,8.548999422559043e-07,1.0348502364852122e-06,2.015816224013481e-06,1.0015683814599281e-06,1.1022002618358555e-06,1.1830715893862596e-06,2.8036442882842544e-06
94,6.544152830440893e-07,4.2434757329610397e-07,1.0634685481241813e-06,7.2365332761803554e-06,3.363512317236546e-06,1.3115972393981986e-06,3.043611385188748e-06,1.679242011326579e-05,1.177339828625496e-06,8.516935400579595e-07,1.0131130024967364e-06,2.0662651691376104e-06,1.0190258492907601e-06,1.1020818416975974e-06,1.1701979960058032e-06,2.7561855533841785e-06
95,6.632011446929271e-07,4.22927884856363e-07,1.0333586924262308e-06,7.597714470431311e-06,3.476493859105235e-06,1.3056556706930186e-06,3.1051684504039628e-06,1.630178929478664e-05,1.173751386550904e-06,8.49560699648318e-07,9.876485449074853e-07,2.109919672371509e-06,1.0356720052405492e-06,1.1042162963968872e-06,1.157296203798871e-06,2.705248215550997e-06
96,6.719946595177573e-07,4.216111131964035e-07,1.0070400872030532e-06,7.93211569171804e-06,3.6326629831413114e-06,1.301730973055407e-06,3.1708210906931028e-06,1.5818687040813065e-05,1.171483952234499e-06,8.484775051938397e-07,9.586596947286323e-07,2.144910339325619e-06,1.0519214270665632e-06,1.1086099497732666e-06,1.1446609572524319e-06,2.6530305186895884e-06
97,6.806757093155989e-07,4.2046882135876543e-07,9.853574846158148e-07,8.229262561816466e-06,3.8314216529234375e-06,1.3001241624211723e-06,3.241512822120996e-06,1.5343149034956558e-05,1.1703144462093473e-06,8.484406841781184e-07,9.266379984907237e-07,2.1696851417670535e-06,1.0680160545621137e-06,1.1151019593554427e-06,1.132626671077696e-06,2.601599437223648e-06
98,6.892272839729056e-07,4.1971841305960287e-07,9.691677138613964e-07,8.481192555557855e-06,4.07143687146921e-06,1.3012130783615676e-06,3.3174387350887756e-06,1.4876419389297102e-05,1.1698232743617762e-06,8.494992415777529e-07,8.923455354879575e-07,2.183337845858959e-06,1.0840446735676553e-06,1.1233444278286394e-06,1.121423520539045e-06,2.5528358690040873e-06
99,6.977028755924999e-07,4.196426451247978e-07,9.592872512525258e-07,8.68344324358885e-06,4.350491384597935e-06,1.3053908447413627e-06,3.3980361285490443e-06,1.4421206382447009e-05,1.169441451013905e-06,8.517043309361572e-07,8.566628390381932e-07,2.185606748261358e-06,1.100076984012604e-06,1.1328283241720068e-06,1.1111192842102928e-06,2.5083486981644883e-06
100,7.061370695466426e-07,4.205022912971066e-07,9.56421824612651e-07,8.834931766968255e-06,4.665451458730712e-06,1.3130285788638538e-06,3.48208083201067e-06,1.3981502969718389e-05,1.1686014411957956e-06,8.550292968269702e-07,8.204489678391042e-07,2.1766708179286016e-06,1.1163281579748447e-06,1.1429429580715468e-06,1.1016246745797505e-06,2.469325800517025e-06
101,7.144818723514991e-07,4.2249202342093583e-07,9.610926869916945e-07,8.936802001197172e-06,5.012339657879526e-06,1.3244214186449484e-06,3.5679704201026543e-06,1.3562122510299224e-05,1.166844050079506e-06,8.593319240618577e-07,7.844620746289465e-07,2.156944346645024e-06,1.1332330075327414e-06,1.1530801571070164e-06,1.0927490361480941e-06,2.4364172367241136e-06
102,7.226078252877296e-07,4.257419339262579e-07,9.736076375721963e-07,8.990817018338599e-06,5.386560138684632e-06,1.3397082428537979e-06,3.6541866381880876e-06,1.3168113888749756e-05,1.1638432611342163e-06,8.643948174106084e-07,7.493141918905985e-07,2.1269152445751855e-06,1.1513795766394268e-06,1.1627468436958855e-06,1.0843261391995976e-06,2.4097031588832243e-06
103,7.303767362596529e-07,4.303518299209158e-07,9.94066553638631e-07,8.998118031916065e-06,5.783279341502413e-06,1.358808424264269e-06,3.739710540965441e-06,1.280430185467727e-05,1.1594786684990142e-06,8.700399643800096e-07,7.154566450471335e-07,2.0871652354552856e-06,1.171376728649829e-06,1.1716349823094535e-06,1.0763276613868057e-06,2.3887450790059875e-06
104,7.377504999868534e-07,4.364282450905995e-07,1.022365457843185e-06,8.9590190741177e-06,6.197815097272464e-06,1.3813930510095945e-06,3.824040671186678e-06,1.2475143430964759e-05,1.153936789148196e-06,8.762330816111149e-07,6.831938186882369e-07,2.038629053210524e-06,1.1937669996288616e-06,1.1796613913822022e-06,1.0688415888380706e-06,2.3727504750230956e-06
105,7.448375232432319e-07,4.440848348477072e-07,1.0581895146952105e-06,8.873797357331831e-06,6.625800730385092e-06,1.406901259104082e-06,3.90679459407151e-06,1.2184851623116762e-05,1.1476833327232443e-06,8.830793063200191e-07,6.527077664964012e-07,1.9827248444519526e-06,1.2189884475051395e-06,1.1869677927820177e-06,1.0619332898268987e-06,2.3608048488235677e-06
106,7.518200019764135e-07,4.534306397016719e-07,1.1010344681400023e-06,8.743789408786012e-06,7.062956269659375e-06,1.4346220196901954e-06,3.987440676254576e-06,1.1937537868847319e-05,1.1413340334265263e-06,8.907385598116802e-07,6.240910881122421e-07,1.9211451709050893e-06,1.247326096961454e-06,1.1938224223520556e-06,1.0555221375842952e-06,2.351975307195721e-06
107,7.588254488198397e-07,4.645918163212748e-07,1.150311071841017e-06,8.572182944595859e-06,7.50458137972834e-06,1.4637706392346508e-06,4.065564736354188e-06,1.1737114888709851e-05,1.13555575482618e-06,8.993378363604205e-07,5.97381657602063e-07,1.8555922795676871e-06,1.2788653686795878e-06,1.2004609125745252e-06,1.049354896897247e-06,2.3451927153812474e-06
108,7.658363664330164e-07,4.777340622790049e-07,1.2055170558516582e-06,8.364302843108338e-06,7.945353929641128e-06,1.4934550989615835e-06,4.1412949020089125e-06,1.1586806517256279e-05,1.1309916437457968e-06,9.088965200916763e-07,5.72591000633983e-07,1.7876954912133342e-06,1.3134848298565296e-06,1.2069930676946822e-06,1.0430842711376994e-06,2.3390994917560876e-06
109,7.726735280770793e-07,4.930380752330919e-07,1.266359246444382e-06,8.12732900948636e-06,8.379968496118666e-06,1.5225801620167127e-06,4.2153020234792685e-06,1.1488405660788519e-05,1.1281788783217273e-06,9.192907971877457e-07,5.497517623664406e-07,1.7190399836528683e-06,1.3508839850914074e-06,1.213407510633657e-06,1.0364082521867854e-06,2.3320554322053972e-06
110,7.790522142323105e-07,5.106457805822342e-07,1.3327196804375325e-06,7.869398762887192e-06,8.804298462972465e-06,1.549824347606368e-06,4.288359962018489e-06,1.1441877603448428e-05,1.1275158851985224e-06,9.302916937364224e-07,5.289745369017067e-07,1.651128275975092e-06,1.3906507585251735e-06,1.2196079154000994e-06,1.0291495126944737e-06,2.322276597241575e-06
111,7.846969644006027e-07,5.306186398567636e-07,1.4045064129453197e-06,7.598388852794641e-06,9.216260000264804e-06,1.5737426662722961e-06,4.360988990883117e-06,1.1445745679520587e-05,1.1292847899470715e-06,9.416563451346783e-07,5.104646496099331e-07,1.5852666691754864e-06,1.4323452371519377e-06,1.2254608277125862e-06,1.0212335352348723e-06,2.308031653989826e-06
112,7.894584913471385e-07,5.529249379216623e-07,1.4815380572126923e-06,7.32109148344546e-06,9.615924023523322e-06,1.5929524401734843e-06,4.433517856564933e-06,1.1497806998456175e-05,1.133656432592912e-06,9.532460534770932e-07,4.945072056494055e-07,1.522500614165306e-06,1.4754970148101596e-06,1.2308413615305225e-06,1.0126670600236513e-06,2.2878634175421e-06
113,7.933516054058146e-07,5.774403659295721e-07,1.5635404406490382e-06,7.043136357105559e-06,1.0004863030557349e-05,1.606316760983689e-06,4.5062121081627375e-06,1.1595345493172898e-05,1.1406647586462823e-06,9.651169542909446e-07,4.81426974211973e-07,1.4636321675560284e-06,1.5195089003383752e-06,1.2356091974305692e-06,1.0035447916207563e-06,2.260774016552533e-06
114,7.964909796621857e-07,6.039375732206056e-07,1.6501764034151069e-06,6.76922344084062e-06,1.038492699700171e-05,1.6130965685824767e-06,4.57909995405039e-06,1.1734799443250653e-05,1.1501820000853345e-06,9.774892134947652e-07,4.715127541552314e-07,1.4093142344625892e-06,1.5636444158572804e-06,1.239518679852392e-06,9.940239736826463e-07,2.2263544006081736e-06
115,7.989896112799484e-07,6.320690910241422e-07,1.7410307824250763e-06,6.503166647920758e-06,1.0756940077364076e-05,1.613097455695167e-06,4.651733134467197e-06,1.191180424419265e-05,1.161889121431583e-06,9.90646031398382e-07,4.6496479257059863e-07,1.360175997844691e-06,1.6071812708384354e-06,1.242159801143935e-06,9.842784746682684e-07,2.184898288032615e-06
116,8.008895175044907e-07,6.613639167625297e-07,1.8356002676643649e-06,6.247730026343007e-06,1.1119967236302536e-05,1.6067577985195484e-06,4.72314354632745e-06,1.2121921848668194e-05,1.17525496751397e-06,1.0048922008829264e-06,4.619054137272099e-07,1.316855587793832e-06,1.6495679927903698e-06,1.2429900849503579e-06,9.744604920311285e-07,2.13744183883223e-06
117,8.021261073892562e-07,6.91243164648787e-07,1.9332902493598813e-06,6.0045593980524936e-06,1.147132182525974e-05,1.5950709885202857e-06,4.791915389659869e-06,1.2360914838157513e-05,1.1895834360242388e-06,1.020529234664917e-06,4.624030023961476e-07,1.2799215314674441e-06,1.6904661225233233e-06,1.2414393144742148e-06,9.646408641657356e-07,2.0856110367808807e-06
118,8.0250753009202e-07,7.210492938199041e-07,2.0333208328655887e-06,5.774440139897364e-06,1.1806855756933621e-05,1.5793311837811427e-06,4.856383074313125e-06,1.2623983913245858e-05,1.2041310939540817e-06,1.0377773289653223e-06,4.664676876994341e-07,1.2498010544306316e-06,1.7297545700355323e-06,1.2370130069317743e-06,9.547498671669429e-07,2.0312962147305007e-06
119,8.017323839621955e-07,7.500962669878642e-07,2.134567934808687e-06,5.557716950794349e-06,1.2121139907839078e-05,1.5608322756341927e-06,4.9150029945534505e-06,1.290522683282976e-05,1.2181895334898202e-06,1.0566994644831336e-06,4.7403868635759087e-07,1.2267678530251815e-06,1.7675557521557734e-06,1.2293293994654565e-06,9.446127359287772e-07,1.9763294785932763e-06
120,7.994777668243379e-07,7.777619361841644e-07,2.2354665154890334e-06,5.354537590442692e-06,1.2407677299565272e-05,1.5406972609552166e-06,4.966665344171978e-06,1.3198316204239133e-05,1.2310618940120133e-06,1.0771623193785202e-06,4.849853074864947e-07,1.2109536665078426e-06,1.804230414345955e-06,1.2181247400449857e-06,9.340812041758576e-07,1.922317811764924e-06
121,7.955355324256094e-07,8.036013527452534e-07,2.3340227823099428e-06,5.16485608411037e-06,1.2659563941508187e-05,1.519886727968507e-06,5.010708631352055e-06,1.3497530669893641e-05,1.2420418123685571e-06,1.0988155339026524e-06,4.991123345214888e-07,1.2023700824116146e-06,1.8402643971170698e-06,1.203300963805967e-06,9.231312973447513e-07,1.8705961090414634e-06
122,7.899094005891078e-07,8.274032165121894e-07,2.4279212727240473e-06,4.988353983226909e-06,1.2870775604794796e-05,1.49927117221271e-06,5.046671243836614e-06,1.3797764941067293e-05,1.2505096169496756e-06,1.121088335638598e-06,5.161588728521747e-07,1.2009212022159475e-06,1.8760546706556431e-06,1.1850013893496907e-06,9.11855895152786e-07,1.82218666390355e-06
123,7.827903602012127e-07,8.491498498192652e-07,2.514693386728353e-06,4.8243343104191406e-06,1.3037679097017341e-05,1.479673006638844e-06,5.0739129919591115e-06,1.4093488214214628e-05,1.256033932811496e-06,1.1432105006878792e-06,5.357911990061314e-07,1.2063965765652063e-06,1.911735966976527e-06,1.1636125937848108e-06,9.004211891064556e-07,1.777768889514847e-06
124,7.74435184100737e-07,8.68929451957204e-07,2.5918927513971354e-06,4.6716239544913085e-06,1.3159875853093862e-05,1.4618675265124247e-06,5.091198641184303e-06,1.4378256736529519e-05,1.2583386987602693e-06,1.1642600402383116e-06,5.575919051411586e-07,1.218472885397258e-06,1.947173096402508e-06,1.1396421209804893e-06,8.890416983715757e-07,1.7377210794381013e-06
125,7.650567302988147e-07,8.868596598479684e-07,2.6572741376071533e-06,4.528784381935429e-06,1.3239613095964555e-05,1.4465386652616868e-06,5.0963721976271126e-06,1.4645888012730316e-05,1.257276925518547e-06,1.1832460297321617e-06,5.810556182273906e-07,1.23672980527747e-06,1.9820721162358632e-06,1.1135861992643453e-06,8.779453634749222e-07,1.7021983743989654e-06
126,7.54780431711925e-07,9.030247341411941e-07,2.7090379189078515e-06,4.394791407271077e-06,1.3279969350769185e-05,1.4342279596770758e-06,5.08630288417129e-06,1.4891909783101472e-05,1.2529902966829521e-06,1.199232702084906e-06,6.05623163157135e-07,1.260687554734719e-06,2.0160692608901346e-06,1.085905201530458e-06,8.673417380774778e-07,1.6711559546883342e-06
127,7.436483069466129e-07,9.174116178802191e-07,2.746122260321297e-06,4.269740344693637e-06,1.3283185627219133e-05,1.4253280205502008e-06,5.057259654859377e-06,1.5113390505626844e-05,1.2460781896058786e-06,1.2114769842716036e-06,6.307700587361089e-07,1.2898609562563454e-06,2.048720459399997e-06,1.0570374131240377e-06,8.574342272710194e-07,1.6443371705462655e-06
128,7.316660569517903e-07,9.298570180601564e-07,2.7683620446892366e-06,4.155052389899016e-06,1.325041829443962e-05,1.4200735854644997e-06,5.005754359068811e-06,1.5307730842990938e-05,1.2375094124287055e-06,1.2195180786258759e-06,6.560811344665988e-07,1.3237534810803227e-06,2.0794523500977433e-06,1.0273495915964593e-06,8.48435797232697e-07,1.6212906756051388e-06
129,7.18875023789042e-07,9.400340281146643e-07,2.7763115283372e-06,4.053157221261309e-06,1.318273204551635e-05,1.4184818337824775e-06,4.929586866492845e-06,1.547265082343301e-05,1.2283580305238693e-06,1.2231901763075072e-06,6.812229020443259e-07,1.3617579368318568e-06,2.1075745396329386e-06,9.970666427259344e-07,8.405539978612718e-07,1.6013728938838544e-06
130,7.05382130828894e-07,9.475173044591219e-07,2.770793182822843e-06,3.966924925664457e-06,1.308219829004777e-05,1.4202941362859455e-06,4.828529117880272e-06,1.5608014578892198e-05,1.2196149181774179e-06,1.2225891472606222e-06,7.058464608707057e-07,1.4030674046858723e-06,2.1323448374704804e-06,9.662541428158097e-07,8.339689894014323e-07,1.583715803889391e-06
131,6.913387997038276e-07,9.519283156653158e-07,2.7525984799460763e-06,3.899092926359411e-06,1.2952330581302964e-05,1.424965539506595e-06,4.704300843378063e-06,1.5717864607805766e-05,1.2121380026153038e-06,1.2180008947636585e-06,7.295170793216665e-07,1.446683294655793e-06,2.1530519901765457e-06,9.348577805906629e-07,8.288024252652144e-07,1.567289933282202e-06
132,6.769401672021159e-07,9.530528642563347e-07,2.7226151423575454e-06,3.851866511485483e-06,1.2797826165701102e-05,1.431708651588255e-06,4.560086692162226e-06,1.581122956002858e-05,1.206668608183214e-06,1.2097878412539956e-06,7.516990902969529e-07,1.4914766295375289e-06,2.1691685395874464e-06,9.027998213690064e-07,8.250759783398034e-07,1.5511575562085908e-06
133,6.624633635404593e-07,9.508225720853258e-07,2.6820833083585344e-06,3.8267553796091755e-06,1.262398266384431e-05,1.4396248099311239e-06,4.400031548095623e-06,1.5901648060107963e-05,1.2038565094064108e-06,1.19831919162108e-06,7.718182761201178e-07,1.5363180696565981e-06,2.180575600834019e-06,8.701111551386482e-07,8.226843628255494e-07,1.534773052458923e-06
134,6.482773806782581e-07,9.45241072140733e-07,2.6326063911258394e-06,3.824563093542595e-06,1.2436143046882127e-05,1.447913128447043e-06,4.228791045203331e-06,1.6005886536643907e-05,1.2042487887497874e-06,1.1839777497467765e-06,7.894231165289491e-07,1.580356590914472e-06,2.18770855767461e-06,8.37004795479169e-07,8.214063998917885e-07,1.5180756401871541e-06
135,6.347841634585688e-07,9.364088448777073e-07,2.575948714829784e-06,3.845465220539884e-06,1.2239282270522786e-05,1.456046557043052e-06,4.051016054551981e-06,1.6142296962477428e-05,1.2082567167692023e-06,1.1671375537127433e-06,8.043253135171604e-07,1.623289649033398e-06,2.191509929271184e-06,8.038378760146971e-07,8.210020313117578e-07,1.5013064233553714e-06
136,6.223343185280066e-07,9.245924243464036e-07,2.513847883631737e-06,3.889105048597019e-06,1.2037671269144704e-05,1.4638292132227178e-06,3.870855158500559e-06,1.6329113583559183e-05,1.2161380565449358e-06,1.1480839983251658e-06,8.165708584638982e-07,1.6653367109888702e-06,2.1932460930504394e-06,7.7102146867573e-07,8.21382878221495e-07,1.4847355199993908e-06
137,6.111796518204743e-07,9.101933410068221e-07,2.4479645112100517e-06,3.9545858180246345e-06,1.1834517643911409e-05,1.4713703686408777e-06,3.6916959513503197e-06,1.6582855689333065e-05,1.2279650277611855e-06,1.1269612883951298e-06,8.263095834967995e-07,1.706923517485907e-06,2.1942829368599966e-06,7.389747072060322e-07,8.22697046632252e-07,1.4685016904147247e-06
138,6.014722144977775e-07,8.937006985943801e-07,2.3799256505258444e-06,4.040470327426388e-06,1.1631504739987037e-05,1.4790430275481869e-06,3.516192026704753e-06,1.6917065711165385e-05,1.2435727126687676e-06,1.1038168735265566e-06,8.337390359345277e-07,1.748382827295562e-06,2.195874877031157e-06,7.08165352344092e-07,8.252298660549864e-07,1.4525808455082648e-06
139,5.932724732972998e-07,8.757580145690342e-07,2.3113465768589585e-06,4.145010260442406e-06,1.1428322779279389e-05,1.4874263757555987e-06,3.3464055580867407e-06,1.734158454034299e-05,1.2625341707604893e-06,1.0787325066387305e-06,8.39123974120985e-07,1.7898567672441693e-06,2.1990240543980566e-06,6.791566095561497e-07,8.292428012390548e-07,1.4368103818126034e-06
140,5.865411429376916e-07,8.572109931083494e-07,2.2437836323271092e-06,4.2665505298807825e-06,1.1222648186043797e-05,1.4971869025896274e-06,3.1839015709002682e-06,1.7862291146907208e-05,1.2841695029781283e-06,1.0519279635948904e-06,8.42771468392653e-07,1.8313351840055429e-06,2.2044141457471944e-06,6.525575592829336e-07,8.348889983940128e-07,1.4209719391004825e-06
141,5.811250664392426e-07,8.389914446451404e-07,2.178686084211709e-06,4.403925284355171e-06,1.1010968273122092e-05,1.5089034928892322e-06,3.0297812664733574e-06,1.848110229593386e-05,1.3075640407520062e-06,1.0237468597051408e-06,8.449811814483348e-07,1.872746204274629e-06,2.212374828988504e-06,6.289196736815797e-07,8.422007663846596e-07,1.4049611945722175e-06
142,5.767594414028762e-07,8.21945061235579e-07,2.1174250881836713e-06,4.556759224529436e-06,1.0789903886548604e-05,1.5229234798418862e-06,2.88473760916818e-06,1.919602451606657e-05,1.3316121752577622e-06,9.945664840063669e-07,8.460524054448259e-07,1.914016946480766e-06,2.2229329136265712e-06,6.086768321497306e-07,8.511066278813678e-07,1.388970249651943e-06
143,5.731162377890168e-07,8.067458849452496e-07,2.0613406788696674e-06,4.725654082127226e-06,1.055723821509525e-05,1.5393122818971714e-06,2.7491963927515943e-06,2.000116601567141e-05,1.3551454112528716e-06,9.64739050014087e-07,8.462857033854145e-07,1.95502089730175e-06,2.2360219563890125e-06,5.921395115574806e-07,8.614731017601722e-07,1.3735328608751918e-06
144,5.69916178640358e-07,7.938890649261634e-07,2.0116856110080783e-06,4.912283529389855e-06,1.0312266816354556e-05,1.557869673847096e-06,2.6235250181650777e-06,2.088708273938372e-05,1.3771117860756342e-06,9.346094460459271e-07,8.459282180759629e-07,1.9954576270460645e-06,2.251732391773352e-06,5.795142969376033e-07,8.731360996022918e-07,1.359374317908666e-06
145,5.670411413378457e-07,7.836993713530167e-07,1.969509625124903e-06,5.119401152604351e-06,1.0055640807116394e-05,1.5781866736440966e-06,2.5082182158114034e-06,2.184174992386516e-05,1.3966680977218208e-06,9.045439017665614e-07,8.45129539309897e-07,2.0347588365832086e-06,2.270441583216757e-06,5.709258036578953e-07,8.858749222251881e-07,1.3471735266971527e-06
146,5.645459204948908e-07,7.763335825147222e-07,1.9356041588413555e-06,5.350711198217718e-06,9.789009980668873e-06,1.5997545528139068e-06,2.4039465378666122e-06,2.2851497693010195e-05,1.41314709325311e-06,8.749319388869086e-07,8.439330124675984e-07,2.0720715131086903e-06,2.292824922507502e-06,5.664380707429347e-07,8.993845840224804e-07,1.3374062914971937e-06
147,5.625902425742448e-07,7.71789304536337e-07,1.9105046891426134e-06,5.610567763272522e-06,9.514593354452527e-06,1.622109842955755e-06,2.3114270463616243e-06,2.390112902646306e-05,1.4260134938511033e-06,8.462080598392571e-07,8.422938321440394e-07,2.106337996030115e-06,2.3198060811960404e-06,5.660954420896931e-07,9.13338683211563e-07,1.3303599995697369e-06
148,5.613977312867108e-07,7.699281855147562e-07,1.8945409373726542e-06,5.90351317144123e-06,9.234582299117814e-06,1.6449556496374212e-06,2.2312250211590117e-06,2.4973729457104576e-05,1.4348985778114457e-06,8.188638551496727e-07,8.401697261460956e-07,2.1364009993458447e-06,2.3524575724757815e-06,5.69957009589935e-07,9.275204760790243e-07,1.326254277464375e-06
149,5.612410166044561e-07,7.705002921703425e-07,1.8879218644357824e-06,6.2337030384743405e-06,8.950396413209334e-06,1.6681978304831954e-06,2.163663988399091e-06,2.6051661493361838e-05,1.4396640976448143e-06,7.933847174661846e-07,8.376689647494717e-07,2.1610275316623444e-06,2.391855444470704e-06,5.780734083609002e-07,9.419079791816361e-07,1.32532061626898e-06
150,5.62385574757928e-07,7.731894163380378e-07,1.8907439791456079e-06,6.604334793666303e-06,8.662315733595272e-06,1.6918821567395584e-06,2.108919278688892e-06,2.7119386252191034e-05,1.440377571887644e-06,7.701725810450068e-07,8.351370901892617e-07,2.17892872992197e-06,2.438898579497372e-06,5.904366574298059e-07,9.566331994290223e-07,1.3277779796031921e-06
151,5.650129665328558e-07,7.777283371576047e-07,1.9029212423055993e-06,7.017232277550262e-06,8.36993211635819e-06,1.7160829263407767e-06,2.067204763332359e-06,2.816668005716432e-05,1.4371747124084022e-06,7.495258601870378e-07,8.331265721281722e-07,2.1889734684421982e-06,2.494129305119975e-06,6.069831163272837e-07,9.718497670656361e-07,1.3337482265947402e-06
152,5.691899273050169e-07,7.840449358743828e-07,1.924160292696177e-06,7.4726346382652305e-06,8.073004581859696e-06,1.7408169328544264e-06,2.038875794739088e-06,2.9189930797762926e-05,1.4301009560376705e-06,7.316366545708356e-07,8.322999178503632e-07,2.190501644410655e-06,2.5576276672471883e-06,6.276491437832407e-07,9.87627895080839e-07,1.3431753844650215e-06
153,5.749049227501573e-07,7.923205154967369e-07,1.953969805221647e-06,7.969099436385783e-06,7.772035491866739e-06,1.7660235747851723e-06,2.024341484693956e-06,3.0190724661276126e-05,1.419041361213038e-06,7.165740545073693e-07,8.333145910576807e-07,2.183389072046675e-06,2.628997976213428e-06,6.523986295794252e-07,1.0039585747437675e-06,1.3557920203189901e-06
154,5.821321719126824e-07,8.029169117109252e-07,1.991628125182767e-06,8.503423122196922e-06,7.468437930221523e-06,1.7915911111519037e-06,2.0238824879169364e-06,3.1172994159761965e-05,1.4038107321089576e-06,7.042866479433949e-07,8.367186799395915e-07,2.16787462184335e-06,2.7074340242494515e-06,6.811971239786098e-07,1.0208091658775288e-06,1.3711364837782657e-06
155,5.908551042077183e-07,8.16240658261402e-07,2.0361723932505466e-06,9.070556756193694e-06,7.164528137719765e-06,1.8173486385715198e-06,2.0375745989770383e-06,3.2140245001567496e-05,1.384345912292281e-06,6.946355150030915e-07,8.428913098334108e-07,2.1444616500624695e-06,2.791920369579676e-06,7.139863074417348e-07,1.0381229740837933e-06,1.3886065998042782e-06
156,6.010488081287537e-07,8.326319338134211e-07,2.0865043155811878e-06,9.663508365291656e-06,6.863493873851435e-06,1.8429802965810744e-06,2.065352497859636e-06,3.309315465275791e-05,1.3608093733260179e-06,6.874353562734781e-07,8.520358582645871e-07,2.1138788508103623e-06,2.881579831418041e-06,7.506780340640052e-07,1.0557816233823651e-06,1.407573975453058e-06
157,6.126689540818902e-07,8.523273762416074e-07,2.141548526407647e-06,1.0273217831754003e-05,6.569298738426762e-06,1.867975980290335e-06,2.107062338728826e-06,3.402738699110558e-05,1.3335199653530367e-06,6.824873923397493e-07,8.641963551894303e-07,2.076951606619791e-06,2.976026014570565e-06,7.911386100508082e-07,1.0736038537658873e-06,1.4275444458183338e-06
158,6.256472959127634e-07,8.754774769203667e-07,2.2002820412763347e-06,1.0888497806977519e-05,6.286406335937403e-06,1.8917205600812475e-06,2.162416372372491e-06,3.493237018394983e-05,1.3028395894396817e-06,6.795983772261661e-07,8.792648555062903e-07,2.0345321379029606e-06,3.0755348235014052e-06,8.351582768734387e-07,1.0913741486073227e-06,1.4482203469493976e-06
159,6.398897330987087e-07,9.021492538525644e-07,2.2615945307460352e-06,1.1496190127885496e-05,6.019277687890545e-06,1.9136063640608237e-06,2.230909099751011e-06,3.579194657109831e-05,1.2691422161521607e-06,6.78602527316966e-07,8.969910616770385e-07,1.9875772316037985e-06,3.180916633061098e-06,8.824249637875929e-07,1.1088671896791603e-06,1.4693752779928514e-06
160,6.552772839000327e-07,9.322987180856708e-07,2.324217315587877e-06,1.2081628572916885e-05,5.771779757535836e-06,1.933045650213407e-06,2.3117558344534347e-06,3.6586599138002874e-05,1.2328488622764735e-06,6.793839227942764e-07,9.170329699046786e-07,1.9371594229576222e-06,3.2931356976180627e-06,9.325017392009748e-07,1.125837442782389e-06,1.4906869265174037e-06
161,6.716355370921337e-07,9.657641097791435e-07,2.3869199396022243e-06,1.2629567731337806e-05,5.546822513486451e-06,1.9494402728451876e-06,2.4038928321658506e-06,3.729627662123997e-05,1.1944766423736615e-06,6.818621627977717e-07,9.390416269879965e-07,1.8843094176510533e-06,3.412881708452013e-06,9.847961045172008e-07,1.141969254720211e-06,1.5117416624870056e-06
162,6.886807820519966e-07,1.0022902716549262e-06,2.448824658763444e-06,1.3125703856379507e-05,5.34641260060672e-06,1.9621870194380453e-06,2.5061293675682227e-06,3.7903038360057365e-05,1.1546774715675505e-06,6.85957050158795e-07,9.627172876346623e-07,1.8299029616817795e-06,3.5402803407049098e-06,1.0385486705703243e-06,1.1568791383106299e-06,1.5322437038961746e-06
163,7.059937275232767e-07,1.0415346263083549e-06,2.5095686635725037e-06,1.3558477912225822e-05,5.171977490769921e-06,1.970704286492826e-06,2.6174566713938894e-06,3.839295066716546e-05,1.1142232891881285e-06,6.915888849745497e-07,9.877927646037923e-07,1.7747069670931843e-06,3.674827092195749e-06,1.0929028741465225e-06,1.1702470346804472e-06,1.5522448162466785e-06
164,7.230345747737234e-07,1.0830355366432614e-06,2.5692156835220155e-06,1.3920453996960675e-05,5.024752016212991e-06,1.9744599799667163e-06,2.737329953269307e-06,3.8756942862544495e-05,1.073915855399018e-06,6.987221358184114e-07,1.0139983421264132e-06,1.719416764458094e-06,3.815563320986722e-06,1.1470445855637396e-06,1.1819848136436895e-06,1.5721934532786106e-06
165,7.392205960148315e-07,1.1261963443745088e-06,2.6279728763908303e-06,1.4208714638102328e-05,4.906125802378675e-06,1.973030796265197e-06,2.865756752015716e-06,3.899068258850561e-05,1.0344719935355956e-06,7.074070598592286e-07,1.041088606250014e-06,1.6646371519124863e-06,3.96141802220904e-06,1.2002933568553646e-06,1.1922819117161741e-06,1.5928204392344424e-06
166,7.540841172265288e-07,1.170316813639455e-06,2.6858799790884373e-06,1.4424200506006493e-05,4.817809610391983e-06,1.9661945889664965e-06,3.0031798079807397e-06,3.9093643820743415e-05,9.964443095429898e-07,7.177756742100017e-07,1.068877476048967e-06,1.61090124675632e-06,4.1115395009046855e-06,1.2520637093600619e-06,1.201486235989581e-06,1.6150224907721373e-06
167,7.67409902490553e-07,1.214614377094753e-06,2.7426982767701784e-06,1.457018669168885e-05,4.761657836185273e-06,1.9539644439574006e-06,3.1502100057545815e-06,3.9067406565077195e-05,9.601974716823333e-07,7.299974229808344e-07,1.0971918137066913e-06,1.5586643287857846e-06,4.265462555743897e-06,1.3017533219356264e-06,1.209931229146784e-06,1.6397830295081024e-06
168,7.792163092504705e-07,1.2581977182346117e-06,2.7980284763227256e-06,1.465024761925889e-05,4.739197080086295e-06,1.9364797760194944e-06,3.3073152278773202e-06,3.891306875427794e-05,9.259527071762381e-07,7.442272886880157e-07,1.1258072972431029e-06,1.5082715002596e-06,4.423061576696219e-06,1.3486871262269068e-06,1.2178440820313377e-06,1.6680570848794999e-06
169,7.896036705159309e-07,1.300057801762797e-06,2.8513982510695148e-06,1.4666553121909821e-05,4.751161940549895e-06,1.9138582044228473e-06,3.4746253731270827e-06,3.862824415483055e-05,8.939018006785487e-07,7.60553783915725e-07,1.154466354655936e-06,1.4600363800124042e-06,4.584349827522811e-06,1.3921717819626597e-06,1.2253437594946105e-06,1.700632368814679e-06
170,7.986271808099316e-07,1.3391527049823107e-06,2.902167433913184e-06,1.4619451707166043e-05,4.797271339434258e-06,1.886248622360016e-06,3.6518899284195473e-06,3.820578477167419e-05,8.643195598768049e-07,7.789472189235899e-07,1.1829487357259303e-06,1.4143659998809303e-06,4.749304832907546e-06,1.4315989871457242e-06,1.2324361833123662e-06,1.7380327704609555e-06
171,8.062978187619331e-07,1.3745657449719538e-06,2.9494218551053716e-06,1.4508377201413193e-05,4.876264844991674e-06,1.8541009446436353e-06,3.838423198223702e-06,3.763650982206136e-05,8.375691234640255e-07,7.992288722574522e-07,1.2111028981742585e-06,1.3717684248856443e-06,4.917903531420664e-06,1.4665478641895785e-06,1.2389641727320096e-06,1.78047061299744e-06
172,8.12669027031051e-07,1.4056315243455273e-06,2.992032783226873e-06,1.4333223764031015e-05,4.986194729429205e-06,1.8183466969575246e-06,4.032935360147743e-06,3.6915041915286246e-05,8.140039331746044e-07,8.210814075566701e-07,1.2388073258721103e-06,1.3327794810913243e-06,5.0903472719272845e-06,1.4968742022882924e-06,1.244560095824784e-06,1.8278261941940203e-06
173,8.178939330280266e-07,1.4319460740003014e-06,3.02885152550163e-06,1.4095401903208047e-05,5.12492479201714e-06,1.7802869050849436e-06,4.233382954414535e-06,3.604494597362876e-05,7.938747716588724e-07,8.440931703452027e-07,1.2659118428441374e-06,1.297906156861385e-06,5.267289708271947e-06,1.522726203624762e-06,1.2486566814931302e-06,1.8796428512432504e-06
174,8.221840310867565e-07,1.4532798507806534e-06,3.0589274140091664e-06,1.3798316728425096e-05,5.290622286285164e-06,1.7413282161425466e-06,4.4370098159223915e-06,3.504007968779475e-05,7.772965401672236e-07,8.677843774359317e-07,1.2921912327517528e-06,1.2675708979302617e-06,5.449935461285034e-06,1.5444363779496325e-06,1.2506028446503122e-06,1.9351874245641606e-06
175,8.257094052215036e-07,1.4694718052434872e-06,3.0816648843635954e-06,1.3447362576301577e-05,5.482010105865503e-06,1.7027775582568193e-06,4.64061284477376e-06,3.392180896321406e-05,7.642498103740378e-07,8.915938101974052e-07,1.317308736163218e-06,1.2420528536836103e-06,5.6399696312201615e-06,1.5623515281131731e-06,1.249896335842722e-06,1.9936455017796477e-06
176,8.285424219070116e-07,1.4803358965555249e-06,3.096887002575283e-06,1.3049621831375848e-05,5.698320641319207e-06,1.665735154829379e-06,4.8409515804800695e-06,3.271389786112654e-05,7.545948079882076e-07,9.14872816619212e-07,1.34082723236875e-06,1.2214755571078189e-06,5.839282013370749e-06,1.5767161523768865e-06,1.2464021127636187e-06,2.0543585014345125e-06
177,8.306819591084883e-07,1.4855901993728217e-06,3.1048371193100754e-06,1.2613430778648837e-05,5.939061309020233e-06,1.6310580558853173e-06,5.035139520488422e-06,3.143791417950482e-05,7.480816819600019e-07,9.368913865956117e-07,1.3622593056595542e-06,1.2058316076843301e-06,6.049500875474516e-06,1.587639592062537e-06,1.2403753940029554e-06,2.1169040763845114e-06
178,8.320861405287061e-07,1.4848932478279424e-06,3.1061505610958313e-06,1.2147910307106776e-05,6.203700735426643e-06,1.5994034244366936e-06,5.220863747803202e-06,3.0111725471428056e-05,7.443415969476029e-07,9.568486777487034e-07,1.3810846445749755e-06,1.1950163756518065e-06,6.271469344373637e-06,1.59512229271663e-06,1.232296682817018e-06,2.1809585202302996e-06
179,8.326557908821355e-07,1.4780356043171972e-06,3.1017639650412943e-06,1.166248927637945e-05,6.491272698250029e-06,1.571322298617396e-06,5.396419068712741e-06,2.8751292859121522e-05,7.428798082553825e-07,9.739510388775975e-07,1.3967702440366708e-06,1.1888563690811976e-06,6.504837156380404e-06,1.5991720759119077e-06,1.2226860070417013e-06,2.24606473482245e-06
180,8.322390474642753e-07,1.4651662697905078e-06,3.0927030907495217e-06,1.1166424187163926e-05,6.799929688145422e-06,1.547333706321216e-06,5.560663807382881e-06,2.737342706676039e-05,7.431229474085443e-07,9.875893504684327e-07,1.4088856673772962e-06,1.1871060910719332e-06,6.747874784794344e-06,1.599983414227116e-06,1.211991082784679e-06,2.311487260040493e-06
181,8.307364564232684e-07,1.4468962477560242e-06,3.079794827846935e-06,1.0668321620326288e-05,7.126648021513583e-06,1.5279493283319327e-06,5.712976880399771e-06,2.5997407446045424e-05,7.445394283421726e-07,9.975380296919505e-07,1.417254366360599e-06,1.1894231447687846e-06,6.99750408635498e-06,1.598047730659313e-06,1.200537816510058e-06,2.3762511277494512e-06
182,8.282180734592819e-07,1.4242301605919346e-06,3.0635082203105826e-06,1.0175660626303909e-05,7.467179547010505e-06,1.5136371830712517e-06,5.853177187030832e-06,2.4645079298783938e-05,7.467556654032846e-07,1.0040219401117647e-06,1.4219782699995084e-06,1.1953345788428142e-06,7.249472815279591e-06,1.5941731245607807e-06,1.1885590951013362e-06,2.4392726729424322e-06
183,8.249112433155683e-07,1.3983762301909312e-06,3.0440078153458673e-06,9.69433537796455e-06,7.81606024858914e-06,1.5047322560625111e-06,5.981302108373953e-06,2.3339885555491267e-05,7.495599818315732e-07,1.0075609940528096e-06,1.4232963025772527e-06,1.2042107249736927e-06,7.498663870550577e-06,1.5894806148890953e-06,1.176288716445647e-06,2.4993980393780684e-06
184,8.210953565587937e-07,1.3705354005577667e-06,3.021217217584495e-06,9.228362072692917e-06,8.166551638792743e-06,1.5013785334207269e-06,6.097191281440133e-06,2.2105346992671e-05,7.528214927356876e-07,1.0087200078111815e-06,1.4214149122710998e-06,1.215333694273157e-06,7.739564097602247e-06,1.5853353834560013e-06,1.1639961278186968e-06,2.5553616951605273e-06
185,8.170360460533268e-07,1.341755451035157e-06,2.994768480398149e-06,8.779972298918712e-06,8.510634704972451e-06,1.5035653601524918e-06,6.200026857478913e-06,2.0963340445939132e-05,7.564720178803441e-07,1.0079650952986761e-06,1.4164735008582192e-06,1.2280933838520772e-06,7.966795772981174e-06,1.583161914701142e-06,1.151924994793107e-06,2.6058430592044265e-06
186,8.12975771579698e-07,1.312861039215618e-06,2.963978865947517e-06,8.350087355175503e-06,8.83920727965925e-06,1.5111987623394501e-06,6.288255019581841e-06,1.99325877122161e-05,7.605747721236113e-07,1.005654021388046e-06,1.40866863255675e-06,1.2421432772487265e-06,8.175573241942498e-06,1.5842416196681261e-06,1.1402617460623953e-06,2.649630305429262e-06
187,8.091339290880874e-07,1.2844247721501425e-06,2.927992531912454e-06,7.938858755454497e-06,9.142570613609221e-06,1.5241215576346616e-06,6.360167858812741e-06,1.9027997580271237e-05,7.653346476657529e-07,1.0020871520367615e-06,1.3983694284839073e-06,1.2573353031285504e-06,8.362071064445697e-06,1.5896267162831467e-06,1.1291990121133507e-06,2.6857831158738043e-06
188,8.057123572774035e-07,1.2567787980069789e-06,2.8860573721389957e-06,7.54602196173183e-06,9.411237815410919e-06,1.5420561960038868e-06,6.4148463077352495e-06,1.826096258223111e-05,7.710027131826494e-07,9.97560141595636e-07,1.386057631979944e-06,1.273522400646542e-06,8.52373940799419e-06,1.6001733022231528e-06,1.1190155488483684e-06,2.713774584578447e-06
189,8.028920591679571e-07,1.2300662063690642e-06,2.837820412696177e-06,7.171102090759603e-06,9.636951764221574e-06,1.56451284265143e-06,6.4528888257914186e-06,1.763986609210938e-05,7.777756894769612e-07,9.923473340882348e-07,1.3721903097268234e-06,1.290460721313676e-06,8.659566060148561e-06,1.6165994663867954e-06,1.1100732580281e-06,2.7335672243493033e-06
190,8.007950357861778e-07,1.204273537047599e-06,2.7835404851718663e-06,6.813624334365265e-06,9.813591709024726e-06,1.5907642797739113e-06,6.476542038094581e-06,1.7170305230702208e-05,7.857388499390723e-07,9.866323491278526e-07,1.3571593303896114e-06,1.3078443558796103e-06,8.770252891495865e-06,1.6394862284208997e-06,1.1027393006216257e-06,2.7455518196662823e-06
191,7.994497629451635e-07,1.1792214613690418e-06,2.7241647001612827e-06,6.473383950972347e-06,9.937608864504072e-06,1.6199540062040288e-06,6.489177292520836e-06,1.6855299462924016e-05,7.948475385061137e-07,9.804866955766597e-07,1.341283094691041e-06,1.3253243901467646e-06,8.85815254944965e-06,1.6692051913223948e-06,1.0973460548461739e-06,2.750401080284936e-06
192,7.988226366620787e-07,1.1545589910435855e-06,2.661252038695455e-06,6.150711688709211e-06,1.0007861645236529e-05,1.651277030213195e-06,6.494414559566924e-06,1.6695824434267425e-05,8.04981909977729e-07,9.738885644059549e-07,1.3247283017463248e-06,1.3424860266008458e-06,8.926715769747765e-06,1.7058453839024372e-06,1.0942068322052304e-06,2.7489198804304255e-06
193,7.988810446604694e-07,1.1298034629971808e-06,2.59673689334998e-06,5.8466161634419855e-06,1.0024922233874355e-05,1.6840986172614918e-06,6.495392069642778e-06,1.6691526692351103e-05,8.160608124449423e-07,9.66704686602797e-07,1.3074452471580846e-06,1.3588922447939247e-06,8.979448627805417e-06,1.7492322739602738e-06,1.0935948851499354e-06,2.7419116916058802e-06
194,7.996037505380908e-07,1.1044586294001188e-06,2.532581787476572e-06,5.562676198142566e-06,9.989988493492547e-06,1.717925867038975e-06,6.494517851437105e-06,1.684110082290332e-05,8.280921110459521e-07,9.586616833682123e-07,1.2892273828614083e-06,1.3741855601684217e-06,9.018830838755507e-06,1.799051898648871e-06,1.0956941605477895e-06,2.730102609779389e-06
195,8.009657428976654e-07,1.0781951516396378e-06,2.470495391373614e-06,5.300636259726002e-06,9.903876328679478e-06,1.7522524130225065e-06,6.493644767509465e-06,1.7141971249887964e-05,8.410951190363426e-07,9.494219962331354e-07,1.2698935231784542e-06,1.3881327910523957e-06,9.045764541253571e-06,1.8550010546742707e-06,1.1005802209439421e-06,2.7141679861987265e-06
196,8.029539484585214e-07,1.0510004412227284e-06,2.411819846995715e-06,5.061852774777898e-06,9.7668045171478e-06,1.7863728907000518e-06,6.494301848228824e-06,1.7589426202004445e-05,8.549898061013182e-07,9.388016722099487e-07,1.24948544050637e-06,1.4005914881894912e-06,9.059780877988301e-06,1.916841275393187e-06,1.108220277155659e-06,2.6948186969273063e-06
197,8.055591849511396e-07,1.0232092211991081e-06,2.357481354400434e-06,4.846900711844798e-06,9.579020384811424e-06,1.819284170701024e-06,6.497628366440803e-06,1.8175743859533507e-05,8.695453963873715e-07,9.269620532306806e-07,1.2283254827902018e-06,1.4114868157366437e-06,9.059735312809669e-06,1.9843150579689156e-06,1.118479252964839e-06,2.672850559256225e-06
198,8.087299631182747e-07,9.953988026655686e-07,2.3079575252631373e-06,4.655579676462984e-06,9.341610378790343e-06,1.8497569447642255e-06,6.504013564051112e-06,1.8889928489500137e-05,8.84383258279393e-07,9.143765967308606e-07,1.2068800234926838e-06,1.420833910568291e-06,9.044466021826402e-06,2.057023755802362e-06,1.1311228708527754e-06,2.6490949583305964e-06
199,8.123536744238632e-07,9.682131578214247e-07,2.263350930707166e-06,4.487272951176486e-06,9.057032152653639e-06,1.8765418497161823e-06,6.512847038355554e-06,1.9718224980211114e-05,8.990273847149174e-07,9.016340906589995e-07,1.18558070656535e-06,1.428711023834929e-06,9.013138737243365e-06,2.1343470020795674e-06,1.1458107567143433e-06,2.624271615360001e-06
200,8.162584189632045e-07,9.422275131645042e-07,2.223586791902729e-06,4.3414072351781655e-06,8.729344660771856e-06,1.8985170702386655e-06,6.5226980419256175e-06,2.06449586658116e-05,9.130084235774483e-07,8.89287989405226e-07,1.1648032231544548e-06,1.435131979333028e-06,8.965396023639115e-06,2.2153822559258003e-06,1.1621112496541086e-06,2.598803876556766e-06
201,8.202265472233695e-07,9.17911392187437e-07,2.1886591563030302e-06,4.217823292778865e-06,8.36427626811233e-06,1.914676223127864e-06,6.531734837622469e-06,2.1653214008413347e-05,9.259738657890172e-07,8.778229051221291e-07,1.1449883594162905e-06,1.4399248323926674e-06,8.901471483616707e-06,2.2989087000617897e-06,1.1795264595545443e-06,2.5727174229360636e-06
202,8.240494132236615e-07,8.956405516182165e-07,2.1588228735157684e-06,4.117003527280013e-06,7.969199004277508e-06,1.9241535144399284e-06,6.5380253564724724e-06,2.2725136313825943e-05,9.377393985818724e-07,8.676781024690844e-07,1.1266996575723824e-06,1.4427312738172352e-06,8.822309542901312e-06,2.3834009873652853e-06,1.197460047895028e-06,2.5457466775608343e-06
203,8.275672856869638e-07,8.757080054842696e-07,2.134662923663911e-06,4.040113081001709e-06,7.552803707822445e-06,1.926410625802482e-06,6.53965647073457e-06,2.3841631839422526e-05,9.482690853629038e-07,8.592567604095612e-07,1.1105153183146362e-06,1.4430840557086302e-06,8.729743034710509e-06,2.4670749590434528e-06,1.2151523356569552e-06,2.51764022409265e-06
204,8.30646730957587e-07,8.583604537625349e-07,2.1170709050407146e-06,3.988799319023628e-06,7.124321315137558e-06,1.921390660288452e-06,6.534825049842231e-06,2.4981333047037675e-05,9.576253216262542e-07,8.52896134507954e-07,1.096872057105897e-06,1.4404500602120101e-06,8.626746949844786e-06,2.5480023590341432e-06,1.2316728976011234e-06,2.4884880780481917e-06
205,8.331793959453352e-07,8.4387918787014e-07,2.1071776723252876e-06,3.964786932155486e-06,6.6927523943770165e-06,1.9095331853267185e-06,6.5219811394946425e-06,2.6119521269518874e-05,9.659470530843097e-07,8.488479910969293e-07,1.085993625482101e-06,1.4342981298143306e-06,8.517610732228474e-06,2.624343002882227e-06,1.245966002028912e-06,2.4588653853695863e-06
206,8.351449484148426e-07,8.32650433943311e-07,2.10621400868603e-06,3.9694338586741165e-06,6.266591480606221e-06,1.8917828883703277e-06,6.49994467449425e-06,2.722862970527508e-05,9.734831060444809e-07,8.472985191309527e-07,1.0778939921389696e-06,1.424281693666051e-06,8.407818690229128e-06,2.6945701717376788e-06,1.2569126801890938e-06,2.4296955736225728e-06
207,8.366403344981215e-07,8.251566560826582e-07,2.1152862382607864e-06,4.003454676484123e-06,5.853729435182583e-06,1.8696275284218226e-06,6.467899797343684e-06,2.828125435473297e-05,9.80618769450278e-07,8.483685842216647e-07,1.0723981016721402e-06,1.4103886235795925e-06,8.303604467736947e-06,2.7575180788660463e-06,1.2634678065253707e-06,2.401917410133171e-06
208,8.378141074484369e-07,8.21891091901624e-07,2.135158507834238e-06,4.066876940595043e-06,5.4611952438809635e-06,1.845022268109598e-06,6.4253109012972024e-06,2.9254444639253444e-05,9.878085720709804e-07,8.520628792441861e-07,1.0691826492803128e-06,1.3929188514919882e-06,8.211332439453557e-06,2.8122835586967613e-06,1.2649030484440212e-06,2.376181855526491e-06
209,8.387770396361116e-07,8.232589311841622e-07,2.166149633304987e-06,4.15906491659222e-06,5.095046898314962e-06,1.820131157381677e-06,6.3719012262876125e-06,3.013267485761228e-05,9.954568073606962e-07,8.582240669302141e-07,1.0678549993205237e-06,1.3723433825345284e-06,8.13686949643446e-06,2.85809375900099e-06,1.2609983697447825e-06,2.352736327379666e-06
210,8.395848295823209e-07,8.295184746195654e-07,2.2081919887046662e-06,4.27864634168061e-06,4.7606444352611565e-06,1.7970333590844628e-06,6.30773970087439e-06,3.0907342668286576e-05,1.0038509733724596e-06,8.66554263339367e-07,1.0680382731456846e-06,1.3491447536571673e-06,8.085024873757782e-06,2.8941420758002363e-06,1.2519915235477132e-06,2.3314522941884686e-06
211,8.402770758257071e-07,8.407683131631322e-07,2.2610138818464145e-06,4.42338651289573e-06,4.4629816869392386e-06,1.7775731653540406e-06,6.233300986130851e-06,3.157294780686114e-05,1.0131474729282663e-06,8.766918524149477e-07,1.0694023495233406e-06,1.3237553586557236e-06,8.059134644721618e-06,2.9194859059364667e-06,1.2383655133216356e-06,2.311880410854493e-06
212,8.408857536348159e-07,8.569550206963285e-07,2.3242922516499333e-06,4.590111219397793e-06,4.206696334910399e-06,1.763370225630738e-06,6.149313931552069e-06,3.21233319837076e-05,1.0233566803847196e-06,8.882625595105259e-07,1.071643910368667e-06,1.2966213245692047e-06,8.060848718837686e-06,2.933262092273761e-06,1.2207358153686514e-06,2.2933467055391645e-06
213,8.414280116347023e-07,8.778783026333229e-07,2.397644673955496e-06,4.774704034571163e-06,3.995932921465201e-06,1.7559305345859884e-06,6.056359720503786e-06,3.255152300637509e-05,1.0343169755810445e-06,9.008806868044872e-07,1.0744998540323606e-06,1.268244993465348e-06,8.09008454463364e-06,2.9352114313913054e-06,1.199867698510319e-06,2.2751519265702757e-06
214,8.419329012059003e-07,9.031877990303104e-07,2.480513684065019e-06,4.972202362519023e-06,3.83441455946264e-06,1.7567837516430779e-06,5.954493663013636e-06,3.285268629324221e-05,1.045671899026269e-06,9.141504485271435e-07,1.0778171138933438e-06,1.2391532406293873e-06,8.145179193977864e-06,2.926102120469148e-06,1.1766251381336116e-06,2.256743200934144e-06
215,8.424441079982048e-07,9.323865926981895e-07,2.5720877492271135e-06,5.17705547943535e-06,3.7256202103506697e-06,1.7675102141009837e-06,5.843398508766046e-06,3.302705307253736e-05,1.0568907908615655e-06,9.276571447931071e-07,1.0815707797163482e-06,1.2099082801907072e-06,8.223293461160865e-06,2.907714543199193e-06,1.1518110871768097e-06,2.2376679030642444e-06
216,8.42962722301835e-07,9.64872559020125e-07,2.671309593695032e-06,5.383603564866824e-06,3.672861184224837e-06,1.789603742233306e-06,5.723194798689123e-06,3.308110724715979e-05,1.0673999844033822e-06,9.409288620599641e-07,1.0857715563319037e-06,1.1811479648219827e-06,8.3208987552805e-06,2.8824482026209974e-06,1.1260373094017033e-06,2.2174012374509424e-06
217,8.433849107596343e-07,1.000015560769862e-06,2.776894725835994e-06,5.586751859343748e-06,3.679270745762089e-06,1.8243208065754248e-06,5.595300123818858e-06,3.3027185438373194e-05,1.0768059913722085e-06,9.53416068067153e-07,1.0903794652312092e-06,1.153524841302386e-06,8.434149534320264e-06,2.8528502811614053e-06,1.0996797198036027e-06,2.1953495948755895e-06
218,8.434725635863945e-07,1.0372082755232979e-06,2.887268220215974e-06,5.78266721719961e-06,3.7477099507966773e-06,1.872648914248728e-06,5.462686897652041e-06,3.288205459274098e-05,1.0850305258160253e-06,9.64508477287943e-07,1.0953076837771099e-06,1.1275729908477564e-06,8.559152675752399e-06,2.821291029233081e-06,1.0728851114977888e-06,2.171090447289767e-06
219,8.428841012041429e-07,1.0758335648637645e-06,3.000438920679905e-06,5.96923002933864e-06,3.880649816410719e-06,1.935321770165235e-06,5.329533932091562e-06,3.26648832916631e-05,1.092234817196068e-06,9.735696286921835e-07,1.1004350395353844e-06,1.1036497087422228e-06,8.692252776388389e-06,2.789808651639452e-06,1.0456407962889506e-06,2.1445282588361263e-06
220,8.413025973420378e-07,1.1151719144306187e-06,3.1139475122768637e-06,6.146006945644598e-06,4.080211186925523e-06,2.0127974065313566e-06,5.200667196048862e-06,3.2394663878320354e-05,1.0986669058214929e-06,9.79976927389242e-07,1.105606878547201e-06,1.0819957669683923e-06,8.830440047243172e-06,2.7600434742581335e-06,1.0179337195995838e-06,2.115762165647227e-06
221,8.386188743879546e-07,1.154341312007193e-06,3.22502148225568e-06,6.313633884868394e-06,4.348363134166269e-06,2.105276825713545e-06,5.081019885933564e-06,3.208740627148298e-05,1.1045849165442518e-06,9.83183877099021e-07,1.110678643486745e-06,1.0628297665112422e-06,8.971852388166507e-06,2.7331898966134633e-06,9.899159378151097e-07,2.0849169569784576e-06
222,8.350292687807078e-07,1.192331611943576e-06,3.330924862574022e-06,6.4728274251517e-06,4.687094205048469e-06,2.212806105685074e-06,4.975118243897865e-06,3.1754733734336894e-05,1.1102334561681185e-06,9.828273889210047e-07,1.1155390727291287e-06,1.0463682560918602e-06,9.116186120502708e-06,2.709947916975602e-06,9.619346235039168e-07,2.052236969412904e-06
223,8.3094716480328e-07,1.2281074879440156e-06,3.429324760785435e-06,6.623691363237127e-06,5.098467983032585e-06,2.3353144332640173e-06,4.886685024019634e-06,3.140482214423548e-05,1.1158343439380555e-06,9.788113931820841e-07,1.1201011064432962e-06,1.032748952130535e-06,9.264862136578812e-06,2.6905086768825825e-06,9.344200697593456e-07,2.0183151239698812e-06
224,8.26807996671e-07,1.2607269227898998e-06,3.51848879951319e-06,6.765777754631245e-06,5.584529123502088e-06,2.472486353889664e-06,4.818481558211018e-06,3.1044098464243245e-05,1.1215756344828682e-06,9.712744422491278e-07,1.1243486221522166e-06,1.021938698984525e-06,9.420854402560991e-06,2.6746030022415055e-06,9.077847778633672e-07,1.984105465804511e-06
225,8.229359419507527e-07,1.2894459272656288e-06,3.597251152163486e-06,6.898537338005726e-06,6.146994319870083e-06,2.6235913140503093e-06,4.772290770235774e-06,3.067830459814579e-05,1.1275623092141488e-06,9.605120622665114e-07,1.1283631252114832e-06,1.0137121071990033e-06,9.588012279737172e-06,2.6615771045354887e-06,8.824345560917161e-07,1.950677042935164e-06
226,8.195192741143567e-07,1.3137804774820495e-06,3.6647531745776187e-06,7.021456083338232e-06,6.786851017254024e-06,2.787408320349153e-06,4.748897601135967e-06,3.0313062216786698e-05,1.1337764211703616e-06,9.469718301853142e-07,1.1322334204390954e-06,1.0077467962592645e-06,9.769997750537424e-06,2.6504438374154258e-06,8.588123420419239e-07,1.918964986281688e-06
227,8.166515579411201e-07,1.3334891388977732e-06,3.7200884712997014e-06,7.133697573787164e-06,7.504145936759292e-06,2.96227057600576e-06,4.7481271620124924e-06,2.9953799535261297e-05,1.1401182078772127e-06,9.312576319228742e-07,1.1359441549149443e-06,1.003812119618408e-06,9.969699925939006e-06,2.639958372872111e-06,8.373670082118734e-07,1.8896436977024358e-06
228,8.144075987806861e-07,1.3484736068062026e-06,3.762202440695883e-06,7.23389565194505e-06,8.298036646362791e-06,3.146260333191929e-06,4.769114813785586e-06,2.9604700543265924e-05,1.1464650951473129e-06,9.140592036831029e-07,1.139334452723994e-06,1.0019324846053672e-06,1.018980887412639e-05,2.6287716474917034e-06,8.184729587492469e-07,1.8630717555358035e-06
229,8.128922344966654e-07,1.3586472106998599e-06,3.790185667085618e-06,7.320607437401617e-06,9.166960029544305e-06,3.337515906555412e-06,4.810826007238875e-06,2.9267189333791463e-05,1.1526450735690303e-06,8.960739258304568e-07,1.1421271746060404e-06,1.002417137806051e-06,1.0433908750511676e-05,2.6155593656885995e-06,8.024019351301288e-07,1.839304863203427e-06
230,8.122110160128933e-07,1.3638213042690682e-06,3.803559200096134e-06,7.392836117736598e-06,1.0108774637556042e-05,3.5344446937049137e-06,4.8724962472295374e-06,2.893901597945537e-05,1.1583617385706593e-06,8.779628210536689e-07,1.1440163174474657e-06,1.0057508630160393e-06,1.0706862870784215e-05,2.599049560081644e-06,7.893624291503308e-07,1.8182074377348822e-06
231,8.124018237085079e-07,1.36364226951831e-06,3.802166121487062e-06,7.449844688152351e-06,1.1120704765515131e-05,3.7356776264307353e-06,4.953612572799758e-06,2.861475505293326e-05,1.1631916545141487e-06,8.602970766298348e-07,1.1447619533199802e-06,1.0124331155664205e-06,1.1014020296516815e-05,2.578065040655831e-06,7.795213290260714e-07,1.7996030509454206e-06
232,8.134005314558927e-07,1.3576564749641323e-06,3.785811832708083e-06,7.4904203918229826e-06,1.2198908685165721e-05,3.939806742279149e-06,5.053622850482265e-06,2.8287730030919165e-05,1.1666528342252646e-06,8.434975205048958e-07,1.1442251945121662e-06,1.022865232598648e-06,1.135981748707049e-05,2.551675489552462e-06,7.729842400929149e-07,1.7833281182406531e-06
233,8.150750720991232e-07,1.345551869138437e-06,3.7540806788731027e-06,7.512384117322729e-06,1.3337727346099246e-05,4.1450853135229995e-06,5.171851530209425e-06,2.7952566705568465e-05,1.1682304501665392e-06,8.278208631956462e-07,1.1423301624909674e-06,1.0373069314664526e-06,1.1746698284571437e-05,2.5193771194290837e-06,7.697851176996222e-07,1.7691264641082758e-06
234,8.172989992842682e-07,1.3274401467263468e-06,3.7065791568499133e-06,7.512845396625298e-06,1.4528934344265027e-05,4.349248201740835e-06,5.307503909834921e-06,2.7607306718519163e-05,1.1673494362225196e-06,8.134304211248586e-07,1.1390244629959462e-06,1.0558672366368954e-06,1.2174740998347015e-05,2.481192573849919e-06,7.698870269412285e-07,1.7564853144944387e-06
235,8.199946411606894e-07,1.3039530975963763e-06,3.6434638671692734e-06,7.4889516463170494e-06,1.576134470757302e-05,4.549436010730003e-06,5.459354285103442e-06,2.7254253007063756e-05,1.1634035283906474e-06,8.005170736820177e-07,1.1343149496136548e-06,1.0785186833275968e-06,1.2641690878224355e-05,2.4376537578430255e-06,7.731855725466233e-07,1.7445414873975052e-06
236,8.231273065928172e-07,1.2760874373935296e-06,3.565864038849521e-06,7.438625334471822e-06,1.7021096968278366e-05,4.742171510036746e-06,5.625283917220168e-06,2.6899070134036245e-05,1.1558843379349358e-06,7.893511614582321e-07,1.1283173594469503e-06,1.1051475348889709e-06,1.3142985277348713e-05,2.3896469047075083e-06,7.795354556720245e-07,1.7320886066200136e-06
237,8.267070972809804e-07,1.2449534347160162e-06,3.475908370373455e-06,7.36110937507163e-06,1.8292736975266807e-05,4.923546050578202e-06,5.802071950784418e-06,2.6548267503162095e-05,1.144540940493435e-06,7.802110659627889e-07,1.1212208291380181e-06,1.1356022100348952e-06,1.3671968181222238e-05,2.3381382423489498e-06,7.88773128536881e-07,1.7177315118128646e-06
238,8.308029294051685e-07,1.211616147350848e-06,3.3763604886088344e-06,7.2573479498686206e-06,1.956055955629615e-05,5.089736720538704e-06,5.98551359852692e-06,2.620647090010285e-05,1.1294590690742024e-06,7.732982737108608e-07,1.1132196946395682e-06,1.1696773696834965e-06,1.4220865950876882e-05,2.2838899693025655e-06,8.006915504950133e-07,1.700259580064256e-06
239,8.355133997087075e-07,1.177053884449875e-06,3.2700984613396056e-06,7.130162769788999e-06,2.0808973041727794e-05,5.237639626078644e-06,6.170776778177493e-06,2.5875511206457576e-05,1.1109929463072488e-06,7.687298306167566e-07,1.1044807168378563e-06,1.2070419585275605e-06,1.4782388270850894e-05,2.227315113259838e-06,8.149998853282151e-07,1.6791213238069966e-06
240,8.409217752719125e-07,1.14213528127968e-06,3.159759697383337e-06,6.984153506655042e-06,2.202164578804325e-05,5.365315663007427e-06,6.352909257356069e-06,2.5555519114911046e-05,1.0895991637992746e-06,7.665549294867186e-07,1.0950960283845372e-06,1.2471960869274501e-06,1.535105591362126e-05,2.168555124688159e-06,8.31329945592462e-07,1.654686266658358e-06
241,8.470805215824107e-07,1.1075771353742219e-06,3.047704789075482e-06,6.82534277789671e-06,2.3181738185807976e-05,5.472115629301351e-06,6.527379419643967e-06,2.5246117146878415e-05,1.0656923193413454e-06,7.667432039347889e-07,1.0850175367847744e-06,1.289566586301333e-06,1.59235862613886e-05,2.1077164764557505e-06,8.492863304471817e-07,1.628082199667804e-06
242,8.539903933338974e-07,1.0739264213028535e-06,2.9360887259386804e-06,6.660654055330908e-06,2.4275125603753114e-05,5.558502750695038e-06,6.6904981685439695e-06,2.494657697442256e-05,1.0396133097934523e-06,7.691710700444821e-07,1.0740652845337446e-06,1.3336944268066447e-06,1.6498487737011193e-05,2.045079304123071e-06,8.684829376532748e-07,1.6007644022463411e-06
243,8.615727451246123e-07,1.0415765379040465e-06,2.826773084128866e-06,6.497307355858014e-06,2.5294564529650432e-05,5.6257116159996874e-06,6.839563760505106e-06,2.4655708698218315e-05,1.0117146707059796e-06,7.736248844632369e-07,1.0620307069767952e-06,1.3793070072880716e-06,1.7075536556249106e-05,1.9811587061649886e-06,8.885285771240896e-07,1.5741722592983567e-06
244,8.696632769648944e-07,1.010796661722027e-06,2.7211400256740327e-06,6.3422069933963025e-06,2.6241503021499523e-05,5.67538970515995e-06,6.972663075927767e-06,2.43724224164966e-05,9.824755275055092e-07,7.798156289992727e-07,1.0487689287982307e-06,1.4262961748048495e-06,1.7655451382332034e-05,1.916676400334567e-06,9.090017412579654e-07,1.5495936439958487e-06
245,8.780170132603272e-07,9.817779690516403e-07,2.619983709031046e-06,6.201418895498406e-06,2.7124831904903078e-05,5.709214937524818e-06,7.088170094775643e-06,2.4096839975371567e-05,9.525351842869976e-07,7.874022988589293e-07,1.034204535052158e-06,1.4747379350313569e-06,1.8239355918147296e-05,1.85252820481794e-06,9.294845136423153e-07,1.5281286480164098e-06
246,8.863487568488782e-07,9.546843486708271e-07,2.5234847480487406e-06,6.0799004066582505e-06,2.795776783332598e-05,5.728431363047293e-06,7.184081114404209e-06,2.3831220962622073e-05,9.226055110892437e-07,7.960257255664028e-07,1.0183185605905817e-06,1.524850349501845e-06,1.882757374142383e-05,1.7897378619935495e-06,9.496364973291046e-07,1.5106839284309703e-06
247,8.944231876174709e-07,9.296592203218195e-07,2.4312492126727253e-06,5.981640658085894e-06,2.8754116201203397e-05,5.733441618010504e-06,7.257552305182676e-06,2.3580229864199297e-05,8.933333588678664e-07,8.05360860533154e-07,1.0011615534126455e-06,1.5768760396509267e-06,1.9418106673987317e-05,1.729365835947895e-06,9.692187729742908e-07,1.4979596923305934e-06
248,9.021186987760015e-07,9.067786054395228e-07,2.342498300635259e-06,5.910181562303146e-06,2.9525238406665065e-05,5.723731403015715e-06,7.305112487125123e-06,2.3350568286686174e-05,8.652185320322901e-07,8.15158995863971e-07,9.828542135275024e-07,1.6310252350892138e-06,2.0005967393921425e-05,1.6724076182262012e-06,9.880649101097413e-07,1.4904155658659038e-06
249,9.094162370336256e-07,8.860179704694694e-07,2.2564370218954613e-06,5.869225160522949e-06,3.0279182318908678e-05,5.698206420971741e-06,7.323575131828275e-06,2.3150308824471377e-05,8.386213862077435e-07,8.252276585831261e-07,9.636125222691749e-07,1.6874308759620744e-06,2.0584135522130618e-05,1.6197351492842222e-06,1.0060625241326265e-06,1.4882831747868082e-06
250,9.163668818648718e-07,8.67298076157136e-07,2.1726286162069554e-06,5.862917163992008e-06,3.102191928977325e-05,5.655743388653854e-06,7.311045506637862e-06,2.2988377614603134e-05,8.138312850371259e-07,8.353627969531915e-07,9.437912317992167e-07,1.7460575265320726e-06,2.11455701646745e-05,1.5720622812778647e-06,1.0231160862175946e-06,1.4916250164065425e-06
251,9.230887273152855e-07,8.505773343126556e-07,2.0911358809636515e-06,5.895624527910975e-06,3.1758953259539565e-05,5.595706802144992e-06,7.267430493259803e-06,2.287440627372367e-05,7.911455533932645e-07,8.452953718349742e-07,9.238506012809388e-07,1.8066250330290387e-06,2.1685221637248576e-05,1.5298863066277182e-06,1.0390525076067673e-06,1.5003366400082162e-06
252,9.297709455534981e-07,8.359036246829165e-07,2.012359256198805e-06,5.9714336392277755e-06,3.2496338817855617e-05,5.5182724216444345e-06,7.19440472346431e-06,2.2818769397214984e-05,7.708923426070422e-07,8.546751150750068e-07,9.042953648246521e-07,1.868553964853885e-06,2.220149922568839e-05,1.4934281003752924e-06,1.053557726166279e-06,1.5141110583818278e-06
253,9.366510508024881e-07,8.234000235265147e-07,1.936725757365223e-06,6.093698641172744e-06,3.324137273802668e-05,5.424485693012337e-06,7.095106699434551e-06,2.2832484684852408e-05,7.533784813565285e-07,8.631140583931735e-07,8.856514989667517e-07,1.9309175563946396e-06,2.2697020229523443e-05,1.4626647528747193e-06,1.0662266169939015e-06,1.532495387558916e-06
254,9.439705353332956e-07,8.13215543806217e-07,1.8644742817825071e-06,6.264759568349871e-06,3.400301980946918e-05,5.3161162892222055e-06,6.973775920527537e-06,2.2926732224594567e-05,7.388258198108945e-07,8.703042724393361e-07,8.684142788072789e-07,1.992455699327459e-06,2.3178571463825006e-05,1.4375130316709945e-06,1.0766704927699067e-06,1.5550474559736168e-06
255,9.51923493055608e-07,8.054579937671826e-07,1.7956149075699977e-06,6.4858148180695355e-06,3.479195373313352e-05,5.195479212501668e-06,6.835431501779763e-06,2.3111822528950027e-05,7.273455724501653e-07,8.760935495942881e-07,8.529756053582127e-07,2.0516879629737562e-06,2.3656473772217298e-05,1.4180627332493208e-06,1.084595361671559e-06,1.5814464798007394e-06
256,9.606050558211692e-07,8.001251759280066e-07,1.7299352062354703e-06,6.756891996379253e-06,3.5620350510739175e-05,5.065316429866449e-06,6.68560200337916e-06,2.339567317128168e-05,7.189393820384746e-07,8.804117592280025e-07,8.395983075760252e-07,2.1070449441351063e-06,2.414374570045414e-05,1.4046841605570292e-06,1.089856407982288e-06,1.6114271948254303e-06
257,9.699923326468163e-07,7.970756892478536e-07,1.667038889662829e-06,7.076794884903738e-06,3.6501490432108554e-05,4.9286809754895885e-06,6.530024274586362e-06,2.3782237375583528e-05,7.135056695968907e-07,8.83133522604501e-07,8.284132679218033e-07,2.1569480794624364e-06,2.4655248664796846e-05,1.397971384132208e-06,1.0925035999234135e-06,1.6445942795553084e-06
258,9.799928496042447e-07,7.960611251319237e-07,1.6065304939265695e-06,7.442952439648922e-06,3.744900569887711e-05,4.7887542237738555e-06,6.374238907234098e-06,2.4270486215179002e-05,7.108373440933743e-07,8.840016212726913e-07,8.194075963354772e-07,2.199954501861056e-06,2.5206670135878594e-05,1.3986052108769128e-06,1.0927627854864071e-06,1.6802907900530315e-06
259,9.90524512149385e-07,7.967825934988033e-07,1.548265019112928e-06,7.85128080236942e-06,3.8475669991280554e-05,4.648619787816368e-06,6.223115337295902e-06,2.4854356289057905e-05,7.10624085756391e-07,8.826478910032763e-07,8.124317989691946e-07,2.2350473817265463e-06,2.5813228207803815e-05,1.407196922564392e-06,1.0909270288910766e-06,1.7175796268849505e-06
260,1.0015590098688444e-06,7.989207143805807e-07,1.4924378867224368e-06,8.296183467033119e-06,3.959187718508618e-05,4.511077504162617e-06,6.080463840960223e-06,2.5523834643810743e-05,7.125059880838694e-07,8.787051357260518e-07,8.072356019367904e-07,2.2617997498815516e-06,2.6488250578947086e-05,1.424160794412669e-06,1.0872259331734807e-06,1.755261733248805e-06
261,1.013115006179236e-06,8.02142589061158e-07,1.43947812157777e-06,8.770619736908705e-06,4.080410184939108e-05,4.378569092783932e-06,5.9489025865642685e-06,2.626718433203964e-05,7.161669256766344e-07,8.719643700282958e-07,8.035089953794456e-07,2.280134561596139e-06,2.724195683458591e-05,1.449682349100462e-06,1.0817685523725272e-06,1.7918482665874331e-06
262,1.0252131489759137e-06,8.061222080174817e-07,1.3899030925251024e-06,9.266090615135444e-06,4.211348165128875e-05,4.2532043266361955e-06,5.829960119221119e-06,2.7073866050029115e-05,7.213656904866886e-07,8.624874105380514e-07,8.009329754647613e-07,2.2898990547407062e-06,2.80807563859015e-05,1.4837887462958692e-06,1.0745979756521406e-06,1.825514368272403e-06
263,1.0378075163419216e-06,8.105785833355355e-07,1.3442219102932615e-06,9.772518878269731e-06,4.351439235255887e-05,4.136771880958654e-06,5.724234628985842e-06,2.7936957395718285e-05,7.278608725431444e-07,8.505874211520429e-07,7.992265266402729e-07,2.290620534001297e-06,2.900721874511805e-05,1.52644850948767e-06,1.0657872603164744e-06,1.8541909753225897e-06
264,1.0507388509716335e-06,8.152982713752616e-07,1.3028592652008734e-06,1.0278306643561992e-05,4.4992948396757936e-05,4.030624497430356e-06,5.6314939929097e-06,2.8853632600417436e-05,7.35321342267128e-07,8.366839619617155e-07,7.98145003525169e-07,2.281537261366159e-06,3.0020589752545038e-05,1.5776103527986754e-06,1.0554752514587406e-06,1.8758928514367185e-06
265,1.063728146976635e-06,8.201105893795087e-07,1.2661271584391771e-06,1.0771073532368781e-05,4.652584796653367e-05,3.935502089811992e-06,5.550726660921755e-06,2.9823148622977612e-05,7.433048510083784e-07,8.211630246648275e-07,7.974849162039015e-07,2.261929958241094e-06,3.111739492567073e-05,1.6371434104525586e-06,1.0438455995015094e-06,1.8891725096176877e-06
266,1.0763954804243397e-06,8.248283948323178e-07,1.2342624035230607e-06,1.123920835885271e-05,4.808019165704898e-05,3.851481183618505e-06,5.4801812275857074e-06,3.084330000526096e-05,7.512707317851609e-07,8.043447004487569e-07,7.97149820009836e-07,2.231661142410357e-06,3.229157338181694e-05,1.7047676500703752e-06,1.0311187181996517e-06,1.8934816189557884e-06
267,1.0883273975240732e-06,8.291976145716714e-07,1.207433156125818e-06,1.1673667136755408e-05,4.9614302814425834e-05,3.7780995876768816e-06,5.417429714641134e-06,3.190716753943971e-05,7.585809796294255e-07,7.865110245901219e-07,7.971601631018093e-07,2.191536710911444e-06,3.353387182590025e-05,1.7800752475120992e-06,1.0175484897899648e-06,1.889286979901751e-06
268,1.099183653013644e-06,8.328827929986705e-07,1.1857005594629043e-06,1.2069163670053834e-05,5.107901270081837e-05,3.7145206708719857e-06,5.359572498947398e-06,3.300145925919129e-05,7.645435520370399e-07,7.679248638575383e-07,7.975421512514118e-07,2.143217513058742e-06,3.4830568094105134e-05,1.8625936652015885e-06,1.0033762078551545e-06,1.8779062165753896e-06
269,1.1087575161402626e-06,8.355287296856835e-07,1.1690343675637322e-06,1.2424184309878278e-05,5.241939518783655e-05,3.6596345743677804e-06,5.303744125068923e-06,3.4106925098893955e-05,7.685570585294006e-07,7.488608555674808e-07,7.982188401788828e-07,2.088831940685457e-06,3.6161946074648434e-05,1.9518141083301608e-06,9.887755409314357e-07,1.8611259400188066e-06
270,1.1169555003093798e-06,8.368957169182785e-07,1.1573717014661265e-06,1.2739794780424224e-05,5.3577984339923596e-05,3.612119191627323e-06,5.247852870062567e-06,3.520087433552915e-05,7.70285171743199e-07,7.296510065526407e-07,7.989951447013816e-07,2.030583565779353e-06,3.75015966376101e-05,2.0471664804763714e-06,9.738418458015811e-07,1.8407657424053633e-06
271,1.1237528116102472e-06,8.369295138039265e-07,1.1506179084242591e-06,1.3017775555841564e-05,5.4500455172091665e-05,3.570548146738611e-06,5.191183843803422e-06,3.6260982888074324e-05,7.697225981725728e-07,7.106762125956668e-07,7.995959905672168e-07,1.9704807881111004e-06,3.881769404788415e-05,2.1479090813389458e-06,9.586310051329288e-07,1.8183724966813923e-06
272,1.1291670410766754e-06,8.356962894975362e-07,1.1485711947534204e-06,1.3259173830459812e-05,5.5142952355056526e-05,3.533618260414579e-06,5.134547582635958e-06,3.726872793026061e-05,7.671089424933631e-07,6.923065982645121e-07,7.996821854574772e-07,1.9101782056145287e-06,4.0076282457750915e-05,2.2529756779285464e-06,9.432257903689951e-07,1.7951164586542298e-06
273,1.133221747641817e-06,8.33333167132167e-07,1.150851291617973e-06,1.3464256716431609e-05,5.547826707119181e-05,3.5004578669160268e-06,5.0800298932639825e-06,3.821058547951584e-05,7.627914028215153e-07,6.748953785787041e-07,7.988403090017096e-07,1.850909652199661e-06,4.1245534618752685e-05,2.3608927766908707e-06,9.277741000850324e-07,1.7718523116894861e-06
274,1.1358784703492836e-06,8.301062047501512e-07,1.1568925934461397e-06,1.3633708060684655e-05,5.549784268673462e-05,3.4708674468357445e-06,5.030611266744779e-06,3.907598492562412e-05,7.571467085316988e-07,6.588369638585132e-07,7.966134711056636e-07,1.7934928936782898e-06,4.2299617615558735e-05,2.469782013477514e-06,9.124689559940477e-07,1.7492390133815236e-06
275,1.1370180379827441e-06,8.26449069203206e-07,1.16599652975568e-06,1.377001544475452e-05,5.520796641843664e-05,3.4453791712120433e-06,4.989761639873402e-06,3.9853974120995184e-05,7.5054462560184e-07,6.445750425867716e-07,7.926158121754346e-07,1.7383743069751229e-06,4.322111206853188e-05,2.5774072589217183e-06,8.975227838777067e-07,1.7277929959775547e-06
276,1.136532130251936e-06,8.228871176463211e-07,1.17744468727447e-06,1.3878124195767404e-05,5.462127562060937e-05,3.42514229465716e-06,4.960931113424872e-06,4.05328737993767e-05,7.432970042207443e-07,6.325327017112452e-07,7.866935899716768e-07,1.6857150488206008e-06,4.400198026621553e-05,2.681257704958346e-06,8.831798126523192e-07,1.7078716018226947e-06
277,1.134406080787281e-06,8.19923330232627e-07,1.19066723183457e-06,1.396484643785346e-05,5.3748742463518686e-05,3.411684221932437e-06,4.946974731336159e-06,4.110385283215306e-05,7.356082655854371e-07,6.230607312554228e-07,7.790102405640146e-07,1.6355354859395386e-06,4.4643920926803436e-05,2.778637984013114e-06,8.697244269325023e-07,1.6896618034365368e-06
278,1.1306691654686685e-06,8.179706197928265e-07,1.2053873907631482e-06,1.4037171615058918e-05,5.259767007141587e-05,3.406572062526664e-06,4.949736648136641e-06,4.156463548260387e-05,7.275573579819541e-07,6.164442660890098e-07,7.699524786199129e-07,1.587878972204707e-06,4.5158542779293784e-05,2.8667634080617437e-06,8.574510034093155e-07,1.6731986686949403e-06
279,1.1252964146108354e-06,8.173196775140731e-07,1.2216487939788018e-06,1.4100562524002262e-05,5.11754170696203e-05,3.411042268766623e-06,4.9699173453332255e-06,4.192083715221928e-05,7.191022016900169e-07,6.129183468064982e-07,7.599348307594501e-07,1.5429020466120655e-06,4.556685807972453e-05,2.9429640438182187e-06,8.466270658435391e-07,1.6584873112291778e-06
280,1.1182048552219297e-06,8.181241270310715e-07,1.2397111795280903e-06,1.4158353176692165e-05,4.949407892881117e-05,3.4257480324205957e-06,5.0071283337124005e-06,4.218555479863982e-05,7.100966662168009e-07,6.126733600350676e-07,7.492669967208271e-07,1.5008135881316182e-06,4.5897288617752634e-05,3.0050730923239957e-06,8.374693074631838e-07,1.6457618394112192e-06
281,1.109331262959369e-06,8.204284957151123e-07,1.259876623428542e-06,1.4212276231574773e-05,4.75729566519869e-05,3.450717618115683e-06,5.0600921676793e-06,4.2377844269902e-05,7.00347213025542e-07,6.158518409424993e-07,7.381248532097393e-07,1.461714376044537e-06,4.618185629048129e-05,3.051862537344493e-06,8.301423759393217e-07,1.635669626731076e-06
282,1.0986886088837852e-06,8.242386843007088e-07,1.2823434324704203e-06,1.4263351907686556e-05,4.543884321305626e-05,3.4854452180680083e-06,5.127034742131582e-06,4.252029297757633e-05,6.897226112128352e-07,6.22522399995204e-07,7.265803325656425e-07,1.4254923047510616e-06,4.645111295701275e-05,3.0832708949034816e-06,8.247871057477255e-07,1.629183865280307e-06
283,1.086373530598943e-06,8.295815069281588e-07,1.3071727694073648e-06,1.431245343553586e-05,4.3125206541565966e-05,3.528964061897978e-06,5.206011920730803e-06,4.263610258836331e-05,6.78247943221912e-07,6.326512273990556e-07,7.146660000174846e-07,1.3918380006406343e-06,4.6729302940925796e-05,3.1003253808175045e-06,8.215283358324276e-07,1.6273251714027343e-06
284,1.0725639031024958e-06,8.365180822390477e-07,1.3343510130816685e-06,1.4360178667132846e-05,4.06708658951663e-05,3.579829049631925e-06,5.294856364849201e-06,4.2745846046160896e-05,6.661049238845528e-07,6.461101399945664e-07,7.024414013041838e-07,1.3603176731507983e-06,4.703161663461037e-05,3.104858388670724e-06,8.204327228057008e-07,1.6309255501928313e-06
285,1.0575102680947817e-06,8.451377763399515e-07,1.3638240886633273e-06,1.4406034528777082e-05,3.8118265669442964e-05,3.6360482256439703e-06,5.391074453333676e-06,4.286457278909657e-05,6.535652393981658e-07,6.627272570509892e-07,6.900257043592949e-07,1.3304571641831828e-06,4.736419712195944e-05,3.0991051606630847e-06,8.214728403068869e-07,1.6406378606864388e-06
286,1.041486956656406e-06,8.555606845622326e-07,1.3954441588999173e-06,1.4447564749396774e-05,3.551140864219785e-05,3.6950738761134686e-06,5.492058058348333e-06,4.300107304166352e-05,6.409305799092663e-07,6.823332945215724e-07,6.776163315734304e-07,1.3018727995199091e-06,4.772583621916934e-05,3.085250131128399e-06,8.245339721007141e-07,1.6571978949417217e-06
287,1.024700253094717e-06,8.679173706558115e-07,1.4288941225187379e-06,1.4480243950092257e-05,3.289359390722974e-05,3.7539547284215137e-06,5.5951772816321e-06,4.3159629093978385e-05,6.284879319500189e-07,7.047482603142351e-07,6.655114262943918e-07,1.2744372194017863e-06,4.81101229099972e-05,3.06512008370318e-06,8.294280359778532e-07,1.6816966022391251e-06
288,1.0072075248990019e-06,8.82282012820233e-07,1.463633203200076e-06,1.4498258157793288e-05,3.0305169799772786e-05,3.8096566059888463e-06,5.69741955196248e-06,4.334145250831351e-05,6.164621748232804e-07,7.297212758616766e-07,6.540905607986611e-07,1.2483468829116937e-06,4.8507458396504127e-05,3.0401356404154036e-06,8.358845798061865e-07,1.715633990669042e-06
289,9.889272964368703e-07,8.986237679496969e-07,1.4988782757494436e-06,1.4495670600367128e-05,2.77816391789473e-05,3.85944149407599e-06,5.795085846039754e-06,4.3543484690684696e-05,6.049861715402167e-07,7.568769407672832e-07,6.437442784366289e-07,1.2240159210721398e-06,4.8906624619624946e-05,3.0113708000080113e-06,8.435344735197001e-07,1.7608051620016833e-06
290,9.69765012626425e-07,9.168382925288282e-07,1.5336878455005222e-06,1.446756310143053e-05,2.5352603192001444e-05,3.901102991625806e-06,5.884005542098504e-06,4.3755613199423716e-05,5.941064221634439e-07,7.857043712182309e-07,6.348237826653563e-07,1.2018844496097704e-06,4.92959585260997e-05,2.979614253131029e-06,8.519434549303887e-07,1.8191687311215006e-06
291,9.497585849174185e-07,9.367979073186395e-07,1.5671303715953527e-06,1.4410946320153779e-05,2.3041860606180976e-05,3.9328606471742255e-06,5.960014565377783e-06,4.3958770952886554e-05,5.838085264474054e-07,8.156051257990721e-07,6.276382879622308e-07,1.1822611806931384e-06,4.966451591862716e-05,2.9454701202189542e-06,8.607260491989943e-07,1.8927162766425876e-06
292,9.29117553995062e-07,9.58332043048194e-07,1.59836831410746e-06,1.4325254562543041e-05,2.0868363014646176e-05,3.953017816105777e-06,6.019336007971444e-06,4.4125694867213216e-05,5.740531319655013e-07,8.459851346393521e-07,6.224605259023662e-07,1.16525034672803e-06,5.000340241439467e-05,2.9094769350793286e-06,8.696403563718577e-07,1.983384061350772e-06
293,9.081508526488464e-07,9.811684326579365e-07,1.626610559827689e-06,1.4212331282030332e-05,1.8847312425775664e-05,3.959891290108873e-06,6.058958021788449e-06,4.422519251787834e-05,5.64821783655254e-07,8.763413790961371e-07,6.195262640793743e-07,1.1507643202101567e-06,5.0307103898559506e-05,2.8721567730102415e-06,8.785561295294578e-07,2.093057375987592e-06
294,8.871781186763533e-07,1.0049138626063358e-06,1.6511287790119885e-06,1.4075965567026779e-05,1.699089101713267e-05,3.952287476733853e-06,6.077194470079504e-06,4.422913745556993e-05,5.561306730215419e-07,9.062983728372946e-07,6.190307848303676e-07,1.1386098483842342e-06,5.0574530790560506e-05,2.8339245088301343e-06,8.873968789064454e-07,2.223567386344912e-06
295,8.664722281933855e-07,1.0290641274329203e-06,1.6714089723859943e-06,1.3921050473630412e-05,1.5308472284751627e-05,3.930143307928851e-06,6.074173744940809e-06,4.4119510875475274e-05,5.479991422675455e-07,9.3557567051722e-07,6.21121488935493e-07,1.1285818219125347e-06,5.080939186415303e-05,2.794886182177074e-06,8.961969542105619e-07,2.3766491885050743e-06
296,8.462051137989506e-07,1.0529966738052325e-06,1.687212125142534e-06,1.3752381739957892e-05,1.3806437502954236e-05,3.894855585373591e-06,6.051739731778071e-06,4.389240597551752e-05,5.404532109591931e-07,9.638992655337862e-07,6.259127603972287e-07,1.1204740674272955e-06,5.101958700566308e-05,2.754733004355841e-06,9.051863348967074e-07,2.553923956545473e-06
297,8.263918395002239e-07,1.075991779896486e-06,1.6984698927517815e-06,1.3573464320203541e-05,1.2487983159751788e-05,3.84914590567468e-06,6.012640097886626e-06,4.355713824847115e-05,5.335787152981428e-07,9.909143495638033e-07,6.335184324197079e-07,1.1140344085462972e-06,5.1215851137421065e-05,2.712967232325251e-06,9.147670535035009e-07,2.756845600390972e-06
298,8.068723063995722e-07,1.0973438429310278e-06,1.7052660953159252e-06,1.3386177210011834e-05,1.1353241166471448e-05,3.7965082322779774e-06,5.959482997045459e-06,4.313063223362747e-05,5.275283611725895e-07,1.0161447917145897e-06,6.440464398367715e-07,1.1089408643260246e-06,5.14102792640568e-05,2.669390782210721e-06,9.254145227235473e-07,2.9865868875356157e-06
299,7.873619028428256e-07,1.1165084454995238e-06,1.7079781603825482e-06,1.3191611139007765e-05,1.0399666218013934e-05,3.7404783810605085e-06,5.894106071693165e-06,4.2629734275249817e-05,5.224761733189013e-07,1.0389835876534419e-06,6.575478869563036e-07,1.1047998379958568e-06,5.1615000605608045e-05,2.62448388415035e-06,9.375849169283904e-07,3.2439742574780547e-06
300,7.675674481653743e-07,1.1332016689013014e-06,1.7073161131543707e-06,1.2991287685454197e-05,9.622505039710497e-06,3.684098739635524e-06,5.817604032194921e-06,4.2065491920335606e-05,5.185940952468439e-07,1.0587270633356768e-06,6.739654629889727e-07,1.101149036109486e-06,5.184078182711643e-05,2.5794501907122645e-06,9.5165128595422e-07,3.529491043862228e-06
301,7.472933936974105e-07,1.147426658435913e-06,1.7041274991811922e-06,1.2787924760330693e-05,9.015206055922683e-06,3.629779436737533e-06,5.730720797571411e-06,4.1441345465512715e-05,5.160510059314945e-07,1.074708329565831e-06,6.931148662101923e-07,1.0974794904415805e-06,5.209548817238773e-05,2.5360530041025557e-06,9.678809655377285e-07,3.8432621268788316e-06
302,7.264698448186059e-07,1.1594033651408553e-06,1.6991346334581463e-06,1.2585646225847543e-05,8.569640718639703e-06,3.5794113630591714e-06,5.63416394320211e-06,4.07539292369293e-05,5.150169005245258e-07,1.0865048025669788e-06,7.147001411429093e-07,1.0932951824081283e-06,5.2382527392577575e-05,2.4964187404702847e-06,9.864653691128575e-07,4.18507428055041e-06
303,7.051799310375142e-07,1.1694168950259918e-06,1.6927747046839605e-06,1.2389887728118769e-05,8.276258684107116e-06,3.534447288648389e-06,5.528663902939065e-06,3.99950401060363e-05,5.156856392714188e-07,1.0941065582809194e-06,7.383355910599477e-07,1.0881875458332024e-06,5.2699009707036103e-05,2.462841469877624e-06,1.0075623139109012e-06,4.554567884986521e-06
304,6.837261907923399e-07,1.1777131439661867e-06,1.6851855032956295e-06,1.2207190095452668e-05,8.124525629025555e-06,3.4958871646576413e-06,5.414903570323952e-06,3.9154481572168825e-05,5.182800750480792e-07,1.09794080768815e-06,7.635714359694785e-07,1.0819049046868573e-06,5.303385153506179e-05,2.4375943885612632e-06,1.0312961313854294e-06,4.951479550611239e-06
305,6.626045100540178e-07,1.1845217718833814e-06,1.6763206108881064e-06,1.204491453328489e-05,8.10364958828474e-06,3.4643176819315593e-06,5.293536759014712e-06,3.8223284276819305e-05,5.23008713515623e-07,1.09873396515482e-06,7.899402695928465e-07,1.0744266958041292e-06,5.336781706613807e-05,2.4227819390349877e-06,1.057742467518731e-06,5.375695137885545e-06
306,6.423782002950809e-07,1.190110851697591e-06,1.6661216256551239e-06,1.1910783814978367e-05,8.203218967514303e-06,3.4400691244516923e-06,5.16530996164001e-06,3.719651174177528e-05,5.300215329874029e-07,1.0972965431490434e-06,8.169967582475607e-07,1.0659975682060258e-06,5.367695317906486e-05,2.420248123648465e-06,1.0869407850973124e-06,5.827133358846805e-06
307,6.235997343406929e-07,1.1947640934280024e-06,1.65463529188854e-06,1.1812138546118203e-05,8.413531772919099e-06,3.423451311077175e-06,5.0310412799833e-06,3.607515061861137e-05,5.394022226630054e-07,1.0943446238728624e-06,8.443293669490165e-07,1.057052761762361e-06,5.393776021374651e-05,2.4315422591833026e-06,1.1188889647288083e-06,6.305611463379188e-06
308,6.067947285533405e-07,1.1986920294413502e-06,1.6420261454952657e-06,1.1755015465807097e-05,8.725656233313409e-06,3.4150146617132158e-06,4.891422910962894e-06,3.486688459591755e-05,5.511777578703113e-07,1.090407199662115e-06,8.715696437615e-07,1.0480701078583085e-06,5.413142350265645e-05,2.457899258143923e-06,1.1534939265608915e-06,6.810695474381065e-06
309,5.924317272108045e-07,1.201971640643448e-06,1.6285481114067627e-06,1.1743511128839234e-05,9.13130219663604e-06,3.4156585037094885e-06,4.747034435789359e-06,3.3585765523054145e-05,5.653249472778696e-07,1.0858066746249395e-06,8.984120900510857e-07,1.039460551979755e-06,5.424599423386875e-05,2.500192545533896e-06,1.1905251398444816e-06,7.341464070847506e-06
310,5.808838711423392e-07,1.2045772796671737e-06,1.614566511376173e-06,1.177983756265107e-05,9.622577129289446e-06,3.426415397638585e-06,4.598656292453355e-06,3.225094600511542e-05,5.817849365669469e-07,1.0807049583498952e-06,9.246282542171426e-07,1.0315768273384412e-06,5.427668903789534e-05,2.558932578922903e-06,1.2295951177066608e-06,7.896213835248994e-06
311,5.724175282726808e-07,1.2064458458019583e-06,1.6006224622281739e-06,1.1864911274873148e-05,1.01917132743483e-05,3.4480499547311372e-06,4.447428815334586e-06,3.0884767954010026e-05,6.004855041555013e-07,1.0751915902810325e-06,9.500385799820529e-07,1.0248284123267938e-06,5.422496175337322e-05,2.6343570155371787e-06,1.2702032539072294e-06,8.472234923418055e-06
312,5.671931608736561e-07,1.2074973612101168e-06,1.5874416020221257e-06,1.1999018544350017e-05,1.0830832629549797e-05,3.480819388683483e-06,4.294671543840076e-06,2.9510641410253873e-05,6.213279019814813e-07,1.0693489437964474e-06,9.74426231602824e-07,1.0197662335885399e-06,5.409716708260801e-05,2.7264844563780757e-06,1.311872161427141e-06,9.065770721511818e-06
313,5.652573268212336e-07,1.2076234449217364e-06,1.5758349436582857e-06,1.2182327824901e-05,1.1531797549420258e-05,3.524566364116363e-06,4.141615379035345e-06,2.815113770668855e-05,6.441372239976242e-07,1.0632820213506455e-06,9.974423010383354e-07,1.0170238432800182e-06,5.3903443064684105e-05,2.8350477458443833e-06,1.3542504769456691e-06,9.672135113144378e-06
314,5.665382355217406e-07,1.2066651486442164e-06,1.5665352781770657e-06,1.2415245227977297e-05,1.2286251454445811e-05,3.5790384084893643e-06,3.989189495406496e-06,2.6826467357423036e-05,6.686355379188055e-07,1.0571449789645722e-06,1.0185680137541867e-06,1.017193991059433e-06,5.3656853385471585e-05,2.9594697872117027e-06,1.397037535705343e-06,1.0285784753933595e-05
315,5.708664733993209e-07,1.2043670071108613e-06,1.5600460374454543e-06,1.2698601942317962e-05,1.3086021164955511e-05,3.644249023060816e-06,3.837927492874003e-06,2.5553209994555173e-05,6.944665182158659e-07,1.051132802941357e-06,1.0371850682702643e-06,1.0207568540744114e-06,5.3372263559036835e-05,3.099055584515061e-06,1.4398136820744955e-06,1.0900160917377761e-05
316,5.780089093356386e-07,1.2003562571234538e-06,1.5565568276303048e-06,1.3033563933206736e-05,1.3923931788806393e-05,3.7207065576991276e-06,3.688136644971664e-06,2.4343327448177694e-05,7.21251210791326e-07,1.0454113097362025e-06,1.0527679089582568e-06,1.0280578090587715e-06,5.306444084918572e-05,3.253235429222132e-06,1.4819700503632282e-06,1.1507577001725164e-05
317,5.876801497083849e-07,1.194195155243374e-06,1.5559435522768777e-06,1.3421078972719322e-05,1.4794771936222613e-05,3.8093304665005006e-06,3.540254424250203e-06,2.3204055262134356e-05,7.486335928810946e-07,1.0400547447535986e-06,1.065099841085139e-06,1.0393242564917992e-06,5.274527930473111e-05,3.421527791408922e-06,1.5227949014261413e-06,1.209974933454068e-05
318,5.995400515069281e-07,1.18544160148515e-06,1.5578802606056748e-06,1.3860902068547165e-05,1.5695913573365044e-05,3.911026730600946e-06,3.3950992210717796e-06,2.2138951130986498e-05,7.762856575878477e-07,1.0350348968250054e-06,1.0743507299728092e-06,1.0547257596722625e-06,5.2420573633017514e-05,3.603233669292887e-06,1.5616221656634007e-06,1.266881304475547e-05
319,6.132052216157167e-07,1.1736763210578518e-06,1.5620791946756896e-06,1.4350800696870313e-05,1.6627132614727686e-05,4.026222307470376e-06,3.253888978071822e-06,2.1149286043072628e-05,8.038735259594358e-07,1.0302161449828676e-06,1.0809477485847658e-06,1.074406355284798e-06,5.2087796761593556e-05,3.7972271844469227e-06,1.5979173424116383e-06,1.3207825892747521e-05
320,6.282714017498583e-07,1.1585526773667775e-06,1.5685431041098034e-06,1.4886519514719344e-05,1.7589423360193847e-05,4.154754348578243e-06,3.1181361416587066e-06,2.0234959419102527e-05,8.310110301495603e-07,1.0253658769550123e-06,1.0853473948915426e-06,1.0984387397703567e-06,5.173676458202478e-05,4.002068633690648e-06,1.6312639209782648e-06,1.3710350994741991e-05
321,6.44350160906887e-07,1.1398841528794576e-06,1.5776446389389757e-06,1.5462278219818476e-05,1.8583110407517172e-05,4.296188760000976e-06,2.9895676028427365e-06,1.9395091422712726e-05,8.572584726212945e-07,1.020262705533716e-06,1.087906142677838e-06,1.1267652246705873e-06,5.1353186307444774e-05,4.216328410789914e-06,1.6613249036760065e-06,1.416973973418034e-05
322,6.610989215024403e-07,1.1177072170031966e-06,1.5899955600846008e-06,1.6071276690387777e-05,1.960626527257592e-05,4.450221901314117e-06,2.870123001535306e-06,1.8628795940897066e-05,8.822104526924177e-07,1.0148523661308929e-06,1.088913278316819e-06,1.159189866092063e-06,5.09230194255542e-05,4.438889223970243e-06,1.6878305685431752e-06,1.4578796815929651e-05
323,6.782029796268197e-07,1.0922700187609096e-06,1.6062414045488937e-06,1.6706068775039245e-05,2.0654323946636208e-05,4.6167025342773705e-06,2.761955100374511e-06,1.7936111809490315e-05,9.055946542027168e-07,1.0092623676156564e-06,1.0886561279779034e-06,1.1953886495435385e-06,5.043580358903165e-05,4.669070623597451e-06,1.7105436884473232e-06,1.4930029480620025e-05
324,6.953422132151523e-07,1.063940321978679e-06,1.6269354965196037e-06,1.7358748489187414e-05,2.1720633793070484e-05,4.795238367736439e-06,2.667324496249706e-06,1.731848437832333e-05,9.272547052640778e-07,1.0036470038245113e-06,1.0874097684961868e-06,1.234875788350223e-06,4.9886244420907555e-05,4.9065995563650765e-06,1.729212893231334e-06,1.5216362451792991e-05
325,7.121766954013275e-07,1.0330796207052941e-06,1.6525408149269402e-06,1.8020734718469624e-05,2.279705521960589e-05,4.984881855036536e-06,2.5883797739597682e-06,1.67782627292982e-05,9.470506625481966e-07,9.980574653931273e-07,1.085380578981809e-06,1.2769372522022605e-06,4.9274007396328e-05,5.151570152320219e-06,1.743631325294671e-06,1.54319736709482e-05
326,7.283191013180758e-07,1.000001600528662e-06,1.6834929578521008e-06,1.8682202336241066e-05,2.3874262248206988e-05,5.184249860421808e-06,2.5269359888882064e-06,1.6317312616040523e-05,9.647958850679222e-07,9.924589789628883e-07,1.0826618715619726e-06,1.320591092623604e-06,4.860256595885127e-05,5.4044002914993e-06,1.7537590709521512e-06,1.5572626476902045e-05
327,7.433006486788318e-07,9.650790296691308e-07,1.7202293341378537e-06,1.9331750431568555e-05,2.4941845711447772e-05,5.391877383560499e-06,2.4843872478991677e-06,1.5935450108196594e-05,9.802471578694128e-07,9.868152519739316e-07,1.0792116290486581e-06,1.364593221538879e-06,4.787837325100968e-05,5.665632504446938e-06,1.7597026383314746e-06,1.5634944408685295e-05
328,7.565709617460038e-07,9.28885769820176e-07,1.7631339150221643e-06,1.9957069864598846e-05,2.598825807041467e-05,5.6064016241062046e-06,2.4617549884262643e-06,1.562960972908258e-05,9.93165064866362e-07,9.811235822900863e-07,1.0748565964509364e-06,1.4075077149050785e-06,4.711072058244115e-05,5.935553500171696e-06,1.7615569436428234e-06,1.561516687974858e-05
329,7.675375449417081e-07,8.922171181581602e-07,1.8124175560071222e-06,2.054684825812248e-05,2.7000464975485885e-05,5.826369595983029e-06,2.4597300259885195e-06,1.5394152591833007e-05,1.00345583513984e-06,9.753767473040599e-07,1.069365008564717e-06,1.4479006890909989e-06,4.6311342050584353e-05,6.213805731501056e-06,1.7593416542035365e-06,1.5509028146829844e-05
330,7.756554593510917e-07,8.55975659881633e-07,1.8680236179492855e-06,2.109302784667866e-05,2.796303855387458e-05,6.049856163325781e-06,2.4786199162467573e-06,1.5221826033309594e-05,1.011242931480356e-06,9.69509588462216e-07,1.0625789267240952e-06,1.4846071759859485e-06,4.549244490477903e-05,6.4991057411982884e-06,1.753096759185738e-06,1.531343675970435e-05
