,EMG1,EMG2,EMG3,EMG4,EMG5,EMG6,EMG7,EMG8,EMG9,EMG10,EMG11,EMG12,EMG13,EMG14,EMG15,EMG16
0,1.2383849631318741e-07,2.3587013483351572e-07,1.4738992080435842e-06,3.603680377424552e-07,2.062202986017043e-07,2.5524744259597556e-07,2.2278279751827656e-07,4.075422002677699e-06,1.3318815774930306e-07,1.7188579243563052e-07,2.7432112047404614e-07,3.779441319556691e-08,1.808726998999846e-07,6.509662546185743e-08,-8.079501220025368e-09,1.6672894825447414e-07
1,1.786422211185657e-07,2.728429959082121e-07,1.5749334099787844e-06,8.740374182264131e-07,2.899201068982425e-07,3.817470740218443e-07,4.393952501065678e-07,6.3837669774986785e-06,2.0265332098165973e-07,2.600039496087838e-07,3.180674266751407e-07,2.0938708804596172e-07,2.306575498776929e-07,9.010027030672003e-08,1.213256686279604e-07,2.824655344174271e-07
2,2.3259377895210914e-07,3.1066140034172496e-07,1.6815212417765981e-06,1.369146357233844e-06,3.70917853839553e-07,5.043566899693779e-07,6.501824813861477e-07,8.63335532836994e-06,2.7180112511171315e-07,3.491191408597027e-07,3.633838295024744e-07,3.761254621392484e-07,2.812921085760899e-07,1.1582700637674902e-07,2.4566943140612583e-07,3.95965306784049e-07
3,2.851892758299701e-07,3.490272749424714e-07,1.7933581488540064e-06,1.842676871434454e-06,4.4864235304412447e-07,6.223913779025355e-07,8.499657344614101e-07,1.0791290129021535e-05,3.400038787439211e-07,4.3759119506929416e-07,4.095737455021866e-07,5.366938542398013e-07,3.32798127157819e-07,1.4193980094134949e-07,3.6370372976744974e-07,5.057424426503036e-07
4,3.3602613869464377e-07,3.876417272058956e-07,1.910175405480358e-06,2.2917775863265533e-06,5.224719164886024e-07,7.351690974551626e-07,1.0350634164891117e-06,1.2829341748578821e-05,4.068048604167854e-07,5.239117830412178e-07,4.56084285854803e-07,6.898677809537141e-07,3.8517892275972245e-07,1.683163622657924e-07,4.7444652139605444e-07,6.108523464253574e-07
5,3.848263171524762e-07,4.262046469581325e-07,2.0316818073996045e-06,2.7137341405338693e-06,5.917398127359473e-07,8.420644723644195e-07,1.2036098630878234e-06,1.4725151710800229e-05,4.718427265001293e-07,6.068097020606869e-07,5.025542351894317e-07,8.344472929749206e-07,4.38380263316192e-07,1.9503804112197822e-07,5.772947302272709e-07,7.106744638370088e-07
6,4.313874808427695e-07,4.64414083560366e-07,2.1573932233570756e-06,3.105874585084406e-06,6.557914182490748e-07,9.42536486835727e-07,1.3554399328524152e-06,1.646276561067939e-05,5.347531178947611e-07,6.852778408144121e-07,5.487716981067877e-07,9.691850156589441e-07,4.922774906682564e-07,2.2231776587977015e-07,6.719671288126904e-07,8.047106484050521e-07
7,4.7554552222537154e-07,5.01981746689849e-07,2.2864544035556963e-06,3.4653949834637285e-06,7.140722271485874e-07,1.0360882813744217e-06,1.491586853401783e-06,1.803273727322009e-05,5.951323675988902e-07,7.585769611790627e-07,5.946079048119198e-07,1.0928182716460554e-06,5.466761201581158e-07,2.5043806501857536e-07,7.583414008410922e-07,8.92515534658078e-07
8,5.171932887490392e-07,5.386748617932678e-07,2.417539008412365e-06,3.7892799950201173e-06,7.661716155487508e-07,1.1222409191726521e-06,1.613620151241098e-06,1.9431826830289884e-05,6.525864970298381e-07,8.263308926341885e-07,6.399563694569486e-07,1.2042415168954825e-06,6.013369288841486e-07,2.7971823376407996e-07,8.363575273821232e-07,9.736582402087955e-07
9,5.562802658784179e-07,5.743401358869184e-07,2.5488265001674635e-06,4.074606226427956e-06,8.117811139027351e-07,1.2006279180039879e-06,1.723187082193469e-06,2.0662221339433554e-05,7.068262560905928e-07,8.885430786596249e-07,6.846676810036835e-07,1.3027247493222346e-06,6.560344807336683e-07,3.1048236912574906e-07,9.060473818273436e-07,1.0477079283449987e-06
10,5.92779879432022e-07,6.08867171543412e-07,2.6780866716477094e-06,4.319194758175886e-06,8.506678490194799e-07,1.2711442939236965e-06,1.8219129465481631e-06,2.173035092215837e-05,7.577053382019776e-07,9.454115647519516e-07,7.285086949483924e-07,1.3879995717142842e-06,7.105985425617871e-07,3.430333752802922e-07,9.676462288201937e-07,1.1142756490739449e-06
11,6.266737184510254e-07,6.421171367740837e-07,2.8029509346111607e-06,4.522200572983722e-06,8.827445073754006e-07,1.3339888283264232e-06,1.911440950912702e-06,2.2645357188283367e-05,8.051505828155548e-07,9.971403391277942e-07,7.711526554721437e-07,1.4601408397273472e-06,7.648897880579179e-07,3.776454294817971e-07,1.0216772261299214e-06,1.173035229461562e-06
12,6.57927707949896e-07,6.738901161311088e-07,2.921357090700288e-06,4.684290706294597e-06,9.081316773798087e-07,1.3895486232029073e-06,1.993397712343625e-06,2.3417030635963265e-05,8.490830199277083e-07,1.043887418447011e-06,8.121794063126391e-07,1.519409465112164e-06,8.187508792575681e-07,4.145564676823336e-07,1.0688804603438893e-06,1.2236944759343438e-06
13,6.864527072061527e-07,7.039852261233561e-07,3.0319872761414993e-06,4.807405005681196e-06,9.271098240566115e-07,1.4382073658583188e-06,2.0692893835012834e-06,2.4053522524441008e-05,8.894436490846703e-07,1.0857581046053805e-06,8.510786157118032e-07,1.566250376021171e-06,8.720080963693469e-07,4.539754339989716e-07,1.1100279725697546e-06,1.2660139076505056e-06
14,7.120952890019975e-07,7.323148016694435e-07,3.13441885267608e-06,4.894314086711927e-06,9.400003517475849e-07,1.4802190992458053e-06,2.1403787802309316e-06,2.4560522258969437e-05,9.262690185405921e-07,1.122792049522644e-06,8.872410566081997e-07,1.601378190304876e-06,9.245114319555176e-07,4.961515550652307e-07,1.1457853765968855e-06,1.2999244288710649e-06
15,7.346669190530491e-07,7.589554994345533e-07,3.2288403578102286e-06,4.948142225065225e-06,9.4706478806778e-07,1.515729957326382e-06,2.207583261955948e-06,2.4943078943267367e-05,9.596909977101757e-07,1.1550236616249739e-06,9.19955326518903e-07,1.6257490615348813e-06,9.76134824057399e-07,5.414699941689736e-07,1.1766825531009503e-06,1.3256470124212292e-06
16,7.540002247050159e-07,7.840712586580477e-07,3.3155335841774993e-06,4.9718831909464424e-06,9.484964589238014e-07,1.5448786053336967e-06,2.2714882760431487e-06,2.520847308354438e-05,9.89889514532672e-07,1.1826099967276428e-06,9.485176481946353e-07,1.6404394183565056e-06,1.0267232625165765e-06,5.904640553117036e-07,1.2031956010209905e-06,1.3436900599611242e-06
17,7.700093847469425e-07,8.07790274381276e-07,3.3945348326902726e-06,4.967991557917929e-06,9.445157540167703e-07,1.5678525151991703e-06,2.3325467080286743e-06,2.5367610648885115e-05,1.0171032987691934e-06,1.2058739113527323e-06,9.724845078583434e-07,1.646601970451481e-06,1.0760433698190015e-06,6.43727978717693e-07,1.2258838339269983e-06,1.3547421071435878e-06
18,7.826944848440323e-07,8.301641282715788e-07,3.4656927696704215e-06,4.938267429240944e-06,9.354858720273276e-07,1.584856104634623e-06,2.39134441882511e-06,2.5434063442831627e-05,1.0416764193377383e-06,1.2251961923729491e-06,9.918568116049189e-07,1.6454676597333322e-06,1.1237820621140308e-06,7.018232783097968e-07,1.2454201459621095e-06,1.3595826686875304e-06
19,7.920702332173851e-07,8.512163550422347e-07,3.528963501807475e-06,4.884079608680715e-06,9.219507833526482e-07,1.5960376462612525e-06,2.448670855276436e-06,2.542160106504174e-05,1.0640398256966978e-06,1.240871338271904e-06,1.0069948964500953e-06,1.6382780747844473e-06,1.169621004732164e-06,7.652305635352678e-07,1.2624629523837096e-06,1.3590418355488185e-06
20,7.981143229072213e-07,8.709820424761601e-07,3.5846604162218495e-06,4.806704679176097e-06,9.045760130352927e-07,1.60147116661658e-06,2.5053407320229672e-06,2.534183862885838e-05,1.0846155438015036e-06,1.2530378545538865e-06,1.0183681454381255e-06,1.6262145586955833e-06,1.2133479132940135e-06,8.343266465721918e-07,1.2775264426888466e-06,1.3539300391313387e-06
21,8.008276230918545e-07,8.894801017512841e-07,3.633535900356762e-06,4.707629298985033e-06,8.840609866138962e-07,1.6012470074176842e-06,2.5620957380963665e-06,2.5203063982794163e-05,1.1037339924297783e-06,1.2617171425404882e-06,1.0263988605813358e-06,1.6103934959617164e-06,1.254875696663365e-06,9.093604426358492e-07,1.2909702897173822e-06,1.344971684642178e-06
22,8.00352757862541e-07,9.066743544810129e-07,3.676702195091492e-06,4.5887945857147045e-06,8.610975351492874e-07,1.595595183635577e-06,2.6198279205927494e-06,2.5009863195531042e-05,1.121631823600855e-06,1.266960146169538e-06,1.0314919261757747e-06,1.5918770708982168e-06,1.2941497284330316e-06,9.904229893497703e-07,1.3030584305465364e-06,1.3328540512978766e-06
23,7.970194571850428e-07,9.225084788327187e-07,3.7154150327431896e-06,4.452707597471321e-06,8.36362556703935e-07,1.584892957907959e-06,2.679839399177616e-06,2.47629298924901e-05,1.1385056868593025e-06,1.2690156704290069e-06,1.0341141362175712e-06,1.5716524740226436e-06,1.3310996692847263e-06,1.0774280823264802e-06,1.3140129803729574e-06,1.3183369629213044e-06
24,7.912708017273966e-07,9.370020624913138e-07,3.7507745287602782e-06,4.302358714979041e-06,8.104892190329799e-07,1.5695253978397854e-06,2.7437562013745416e-06,2.4459772951983178e-05,1.1545449829198441e-06,1.2684038412037149e-06,1.0347868737618902e-06,1.550568803422827e-06,1.3657087760216883e-06,1.1701148293865614e-06,1.3240618262065659e-06,1.3022986723764308e-06
25,7.835729277137506e-07,9.503110887683853e-07,3.7834285632227638e-06,4.141011083774825e-06,7.840336838032692e-07,1.5497749446202184e-06,2.81319772648141e-06,2.4096956397755694e-05,1.1699030291870531e-06,1.265885350899891e-06,1.0340176024097122e-06,1.529273549724557e-06,1.3980885544723733e-06,1.268076728055308e-06,1.3334606160355416e-06,1.2856912727452557e-06
26,7.743921642159725e-07,9.626876937334164e-07,3.813345425221586e-06,3.971987376148222e-06,7.574889740485032e-07,1.5258887901906094e-06,2.889528286137785e-06,2.36726244184894e-05,1.1846405110110298e-06,1.2623694823196364e-06,1.0322380811751514e-06,1.5082055103108824e-06,1.4284422766346028e-06,1.3708397491756432e-06,1.3424336195457666e-06,1.269433787028506e-06
27,7.641801512317687e-07,9.743844945672681e-07,3.839715043184216e-06,3.7985384264034646e-06,7.313303358796466e-07,1.4982145766919353e-06,2.973748912419721e-06,2.318772368845754e-05,1.1986990344258722e-06,1.2587683778713291e-06,1.0297447643670457e-06,1.4876175529254609e-06,1.4569425240524174e-06,1.4779339864649526e-06,1.3510760499037788e-06,1.2543072596377722e-06
28,7.533310128364153e-07,9.856016294801142e-07,3.8610295133279514e-06,3.623785676342123e-06,7.060536436553002e-07,1.467224687224737e-06,3.066478478030951e-06,2.264563692236209e-05,1.211957484855604e-06,1.2558393288361152e-06,1.02664067433071e-06,1.4675990770776912e-06,1.483646568124218e-06,1.5888395677448232e-06,1.3593299241340095e-06,1.2409220627269114e-06
29,7.421507136602594e-07,9.965062200400575e-07,3.875344416888255e-06,3.450630472308767e-06,6.821920513031098e-07,1.433444078194218e-06,3.1680104161192475e-06,2.205055736502043e-05,1.2243522573935512e-06,1.25409539437357e-06,1.0228226667759311e-06,1.4481185601015742e-06,1.5084849670188287e-06,1.702849206488358e-06,1.367025050616801e-06,1.2297459117619915e-06
30,7.308441025772276e-07,1.0072905826153229e-06,3.8806662157534594e-06,3.281570536541573e-06,6.602887950512582e-07,1.3974317476686565e-06,3.2783132148070114e-06,2.1405429336395075e-05,1.2359326220871456e-06,1.2538187810599841e-06,1.0180553404557717e-06,1.4290773805412065e-06,1.5312825426737137e-06,1.818987180601138e-06,1.3739237146003741e-06,1.2211114125444054e-06
31,7.195141869049368e-07,1.018207967423198e-06,3.875339496478766e-06,3.118568947503901e-06,6.408283816409055e-07,1.3598680187104793e-06,3.3969603686369087e-06,2.071131534537564e-05,1.2467799882883689e-06,1.2551681579442343e-06,1.0121292517943667e-06,1.4103917480187535e-06,1.55182382507078e-06,1.9360203579403428e-06,1.379788614968976e-06,1.2151799863230002e-06
32,7.081959251092061e-07,1.0295307171806395e-06,3.858289419001177e-06,2.963112324193816e-06,6.241777005695797e-07,1.3216077609133825e-06,3.5231603756225285e-06,1.9969092890535868e-05,1.2568722747462765e-06,1.258314047825848e-06,1.005017225270027e-06,1.3921431437975447e-06,1.5699203222365158e-06,2.0524987604660523e-06,1.384429068212495e-06,1.2119526248881052e-06
33,6.969239503342507e-07,1.0414896583945232e-06,3.829111239064511e-06,2.816365444873816e-06,6.105760833729789e-07,1.28358924763136e-06,3.6558970828525804e-06,1.9181685948394377e-05,1.2660055034829617e-06,1.2634800757449709e-06,9.968983823957243e-07,1.3746961281798123e-06,1.5853765157754323e-06,2.16674070291448e-06,1.3876404607078856e-06,1.2113791498816548e-06
34,6.857741069691936e-07,1.0542746099964374e-06,3.7881225136534872e-06,2.6793303914731002e-06,6.001703278757166e-07,1.2467351734771418e-06,3.7941004099003807e-06,1.8354807117004007e-05,1.2738231700578201e-06,1.27085811839516e-06,9.8803255595739e-07,1.3586305031737803e-06,1.597887459312606e-06,2.276822881097145e-06,1.38910339213307e-06,1.2134439145577203e-06
35,6.748507557189669e-07,1.0680288290755315e-06,3.736394723551142e-06,2.553043469399942e-06,5.930714964362412e-07,1.2119708765842423e-06,3.936848472148768e-06,1.7496288559181788e-05,1.279925502059069e-06,1.2805057325071488e-06,9.786428400159069e-07,1.3445405037272825e-06,1.607019892597507e-06,2.3807502087735477e-06,1.3883456507502197e-06,1.2181103895797927e-06
36,6.642730548821194e-07,1.0827724432623987e-06,3.6756036915662237e-06,2.4387703055310715e-06,5.893974763569117e-07,1.1802365642088265e-06,4.0835345870697305e-06,1.661512839812716e-05,1.2839674528742756e-06,1.2923040455541002e-06,9.689287234442352e-07,1.3328824530235106e-06,1.612321218590594e-06,2.4768134048882175e-06,1.3848194148185523e-06,1.2252191748014366e-06
37,6.541661578558367e-07,1.0983200056097388e-06,3.607614465983185e-06,2.3380847054371368e-06,5.892670467439569e-07,1.152413995150555e-06,4.2338667821844925e-06,1.5720811050666692e-05,1.2856862182668997e-06,1.3059558239333723e-06,9.591297055968623e-07,1.3239444905865775e-06,1.613442289615447e-06,2.563930072830685e-06,1.3780930354853035e-06,1.2344742485538964e-06
38,6.44616120123072e-07,1.114267427433341e-06,3.5340276182832546e-06,2.252836270878013e-06,5.927600625538326e-07,1.129263414149919e-06,4.387662046006716e-06,1.4822594939753483e-05,1.2848906221437856e-06,1.3210220910954574e-06,9.495204767646464e-07,1.3178820255790866e-06,1.610197854433234e-06,2.6416992994847313e-06,1.3679739291115602e-06,1.245506147263493e-06
39,6.356284241334555e-07,1.1300589846305238e-06,3.455982294822934e-06,2.1851355302996214e-06,5.999003656332206e-07,1.1113981543917086e-06,4.5444948661936335e-06,1.3928498265796818e-05,1.2814334449778169e-06,1.3370126958938358e-06,9.403504394912821e-07,1.314725314037129e-06,1.6025991488451987e-06,2.7101061777597906e-06,1.3544135734223526e-06,1.2579673667254651e-06
40,6.271572291065602e-07,1.1450709803728379e-06,3.374219040046483e-06,2.1373995300115546e-06,6.106767646759696e-07,1.0992465929497256e-06,4.703328913364334e-06,1.3044602073224932e-05,1.2751583743787506e-06,1.3534756575432272e-06,9.317929845873531e-07,1.3143361321066453e-06,1.5908976081765391e-06,2.769230692773283e-06,1.337388945444277e-06,1.2716132478084708e-06
41,6.191819013569014e-07,1.158644370598459e-06,3.289251913438079e-06,2.1123299351010243e-06,6.250772817763012e-07,1.093007233327742e-06,4.862313742819185e-06,1.2175419208848474e-05,1.2659199777230358e-06,1.3700063789154428e-06,9.239066255577808e-07,1.3163643433889098e-06,1.5756187630800094e-06,2.819242833738784e-06,1.3169725370119938e-06,1.286275754454263e-06
42,6.117551558049631e-07,1.1701463531832873e-06,3.201598218199086e-06,2.1127175747209874e-06,6.431401506599775e-07,1.0926254130450915e-06,5.018845952089821e-06,1.1325007178512427e-05,1.2537471973283e-06,1.386193304629483e-06,9.165936262870683e-07,1.3202285369810982e-06,1.5575070770725095e-06,2.860461098398991e-06,1.2934684446104203e-06,1.3017494878160313e-06
43,6.049853432694039e-07,1.1791425644328388e-06,3.1120100592390744e-06,2.1411663794343945e-06,6.649970546727596e-07,1.097796456185218e-06,5.16990976301189e-06,1.0497932520707423e-05,1.2389679259838715e-06,1.4016177157463862e-06,9.096107945603295e-07,1.325127157035958e-06,1.537353222503338e-06,2.893339764241961e-06,1.2674246815634533e-06,1.3177431825844924e-06
44,5.989839247420424e-07,1.1855354366940297e-06,3.0215598674011847e-06,2.1999199748719447e-06,6.908426311423254e-07,1.1079820982050433e-06,5.312729052605368e-06,9.699729855540948e-06,1.2221005944969506e-06,1.4159367711731896e-06,9.026823238880168e-07,1.330133310020633e-06,1.5158432670900842e-06,2.91858854695805e-06,1.2395213043364668e-06,1.3339268978155704e-06
45,5.938505453352426e-07,1.189525142451487e-06,2.9315132933282283e-06,2.2908397112584114e-06,7.20852601124792e-07,1.122419225266115e-06,5.4455425042884865e-06,8.93699267493793e-06,1.2036258060236166e-06,1.4289184151174921e-06,8.956195884639167e-07,1.3344254115097697e-06,1.4935815216394522e-06,2.937331685154998e-06,1.2104339169312323e-06,1.349943832347097e-06
46,5.89702543574576e-07,1.1914675038059172e-06,2.8431245293902224e-06,2.4154395630910796e-06,7.551283392861407e-07,1.140132249311798e-06,5.5679588816034975e-06,8.217208224381806e-06,1.1838809642944096e-06,1.440355998474181e-06,8.883038374551269e-07,1.337574265236069e-06,1.4712202570981562e-06,2.9509760384206496e-06,1.1807687643919926e-06,1.3653604129161467e-06
47,5.866744851554768e-07,1.191736495855448e-06,2.757518675157955e-06,2.5749133710576847e-06,7.9368095721211e-07,1.1599947627719877e-06,5.6805536069944064e-06,7.548345407785857e-06,1.1631067187158516e-06,1.4499535711302e-06,8.805804853989686e-07,1.339665854329922e-06,1.4495161493679415e-06,2.9608627418346016e-06,1.1510791353350135e-06,1.379707527434403e-06
48,5.848778234411524e-07,1.1906107157079795e-06,2.6756289259516848e-06,2.7701796672697857e-06,8.364397466106859e-07,1.1808551532273602e-06,5.784032083846337e-06,6.938285250705472e-06,1.1414957497380214e-06,1.4572791281599347e-06,8.722402369106464e-07,1.3411416854052204e-06,1.4292517038952222e-06,2.968060734180963e-06,1.121886950237477e-06,1.3926574104942188e-06
49,5.843705023521479e-07,1.1882040745085343e-06,2.5980765308432547e-06,3.0019687510625814e-06,8.832638265693687e-07,1.2016664983543733e-06,5.878613884007489e-06,6.394297180354878e-06,1.1191791817778502e-06,1.4617798897605423e-06,8.631313206342427e-07,1.3425392589071157e-06,1.4110919599286843e-06,2.9733768235736447e-06,1.093667894157283e-06,1.404141508773362e-06
50,5.851488625854765e-07,1.1844636123569524e-06,2.5250661431090456e-06,3.2709189614090796e-06,9.339218951105217e-07,1.221516781310132e-06,5.96402736160377e-06,5.922693864264431e-06,1.0961927186266e-06,1.4628538354182087e-06,8.532720941695079e-07,1.344357810709038e-06,1.39549232685515e-06,2.977362692385054e-06,1.0668095520689356e-06,1.4143353904156746e-06
51,5.871623742041738e-07,1.1792220858775361e-06,2.456429981867392e-06,3.5776315157757e-06,9.880556194825976e-07,1.2395462299499782e-06,6.039925824697331e-06,5.528647976670206e-06,1.0724600516219834e-06,1.4600370797512055e-06,8.428345250674092e-07,1.3470511984021875e-06,1.3827260349351743e-06,2.980230315792933e-06,1.0415620039124044e-06,1.4236745878378232e-06
52,5.903409203232249e-07,1.172292214980257e-06,2.3917785631844605e-06,3.9226760811604624e-06,1.045166337912767e-06,1.2549013077931123e-06,6.106210858771272e-06,5.216163225004468e-06,1.0478373334776126e-06,1.453254093448847e-06,8.320629764636354e-07,1.3510617301401786e-06,1.3729486898709423e-06,2.981787166135763e-06,1.018020288923559e-06,1.4328912298507984e-06
53,5.946034493116916e-07,1.163558221927701e-06,2.3306634403256832e-06,4.306575637832104e-06,1.1046287291281664e-06,1.2668279983284144e-06,6.163057203367171e-06,4.988197290797569e-06,1.0222464059591695e-06,1.4429249925021012e-06,8.212567688380145e-07,1.3568049725256393e-06,1.3661707002576155e-06,2.981410562552877e-06,9.96152373656901e-07,1.4428992432635612e-06
54,5.998464536834696e-07,1.1529921885878329e-06,2.272745062775942e-06,4.7297689158009035e-06,1.1657600871300823e-06,1.274814725545471e-06,6.210872360787934e-06,4.846805925973897e-06,9.958392457510076e-07,1.4298192024180576e-06,8.107623602529665e-07,1.3645606787771492e-06,1.3621686743510762e-06,2.97800610242406e-06,9.758257320450653e-07,1.4545873023928152e-06
55,6.059452807888887e-07,1.1406146777719178e-06,2.2179674180098162e-06,5.1924977157074564e-06,1.2279697514356572e-06,1.2786804417773287e-06,6.2503967873609375e-06,4.7931934626948655e-06,9.690765761228758e-07,1.4147653936056401e-06,8.008903798615251e-07,1.3743652192355146e-06,1.360452108766022e-06,2.969989348035628e-06,9.568141078321456e-07,1.468702652074844e-06
56,6.127693146047189e-07,1.1264905141696033e-06,2.1666696489380123e-06,5.694594721417107e-06,1.2908688587767609e-06,1.2785916740553237e-06,6.2828189145775376e-06,4.827684840242585e-06,9.426426476895376e-07,1.3984165011149272e-06,7.918186251469192e-07,1.3859971582811408e-06,1.3603276495914136e-06,2.9553851761799277e-06,9.38836885032315e-07,1.485837022614022e-06
57,6.201788860622797e-07,1.1107707596461207e-06,2.119540031782586e-06,6.235231533737579e-06,1.354204602166746e-06,1.2750100903235546e-06,6.3095973718257025e-06,4.949668444819036e-06,9.172556049130395e-07,1.3811589813707332e-06,7.835515092660376e-07,1.3990098143658455e-06,1.3610240852915523e-06,2.93217378926446e-06,9.216623122883378e-07,1.506471270700611e-06
58,6.280320791624853e-07,1.0937082603698543e-06,2.077428964772219e-06,6.812708354612272e-06,1.417738793630996e-06,1.2685834359264052e-06,6.331932729828182e-06,5.1575833471978044e-06,8.935187901685354e-07,1.3631165402996534e-06,7.759393559567034e-07,1.4127463477417365e-06,1.3617827645866196e-06,2.8988917483899393e-06,9.05229222529877e-07,1.531100689906619e-06
59,6.362305241071242e-07,1.075602383743619e-06,2.041155356003114e-06,7.4243258604402865e-06,1.4812728514437906e-06,1.2600073729454769e-06,6.350317644345423e-06,5.4489760305645664e-06,8.718735866832183e-07,1.3441852471848981e-06,7.687477743450938e-07,1.4263795944647648e-06,1.3618854788813402e-06,2.8551614768822604e-06,8.896993518023615e-07,1.5603706978400293e-06
60,6.447366642717407e-07,1.0567191557940024e-06,2.0113901734837127e-06,8.066339725483614e-06,1.5447889594743165e-06,1.2498940256051122e-06,6.364596975885894e-06,5.8205001025628595e-06,8.526131713513117e-07,1.3240636923443824e-06,7.617333446667001e-07,1.4390334872465196e-06,1.3607137690890586e-06,2.801719318963167e-06,8.753831835706667e-07,1.5950818969319914e-06
61,6.535457862174498e-07,1.0372902802973925e-06,1.988586902271917e-06,8.733943002556968e-06,1.6085807457656495e-06,1.238722196784137e-06,6.37439017446508e-06,6.267775680365529e-06,8.359090095917726e-07,1.3022827065665295e-06,7.5467653031773e-07,1.4499507622539362e-06,1.3578466896173451e-06,2.7399092454210734e-06,8.625925801775014e-07,1.6360555098396112e-06
62,6.626919568915127e-07,1.0176001517559763e-06,1.9729219804611848e-06,9.421183795302535e-06,1.67331945915081e-06,1.2269022995570923e-06,6.379422252953886e-06,6.785258407658227e-06,8.218221448623444e-07,1.2783019219739725e-06,7.474165415915221e-07,1.458652525016376e-06,1.3531025552898175e-06,2.671121494499737e-06,8.515366151138629e-07,1.6839703544662412e-06
63,6.722898591349707e-07,9.980274672726671e-07,1.964260718356385e-06,1.012077724023994e-05,1.73999947797158e-06,1.2148482076849401e-06,6.379551184759666e-06,7.366292553287656e-06,8.103057032203602e-07,1.2516774337527565e-06,7.399144224363404e-07,1.4650477256997165e-06,1.3465105721780041e-06,2.5965926828452247e-06,8.423067898469496e-07,1.739262522595087e-06
64,6.825482234228634e-07,9.789784428631478e-07,1.9621597454057546e-06,1.0823816970628661e-05,1.8097423361847951e-06,1.2029541978452694e-06,6.374559061888638e-06,8.00330909193948e-06,8.0121608694268e-07,1.222194552452314e-06,7.322465399160566e-07,1.469420223141608e-06,1.338244770490291e-06,2.517480128608846e-06,8.349165922837788e-07,1.8021115537529457e-06
65,6.937346871157016e-07,9.608249158506534e-07,1.9658687444449966e-06,1.1519448485285863e-05,1.8835858523572768e-06,1.1915529644791977e-06,6.363858570366198e-06,8.688048603931854e-06,7.943308572909871e-07,1.1899206721232618e-06,7.244964370106857e-07,1.4722594258294568e-06,1.328526540993042e-06,2.434970952038919e-06,8.293403473782151e-07,1.8724672690604523e-06
66,7.061057095582193e-07,9.439415537580791e-07,1.9743198560233285e-06,1.2194826817746438e-05,1.962387588129758e-06,1.1809697106459255e-06,6.346261215995694e-06,9.411765888922375e-06,7.893941063715629e-07,1.1552039037771276e-06,7.16650885615812e-07,1.4740292701167346e-06,1.3175086472530193e-06,2.3503568007395017e-06,8.255448213237396e-07,1.9500320743943778e-06
67,7.198388265393928e-07,9.287658161696408e-07,1.9862061805558854e-06,1.283579267862282e-05,2.0467839750142992e-06,1.1716112351967138e-06,6.319966157712827e-06,1.0165369012354978e-05,7.862110524848491e-07,1.118588638370645e-06,7.085952577531255e-07,1.475035098314932e-06,1.3051909636782033e-06,2.2650614463367386e-06,8.23561222468051e-07,2.0341868831655165e-06
68,7.350115642472203e-07,9.157633500455768e-07,2.000235985545431e-06,1.3428270930390643e-05,2.1371174864533595e-06,1.1639493386225127e-06,6.282908756649565e-06,1.0939391295959725e-05,7.847181115983702e-07,1.0806645374892705e-06,7.00227337789053e-07,1.475437017650529e-06,1.2914799648303775e-06,2.1805850550395205e-06,8.235564823030794e-07,2.1239281702609916e-06
69,7.51625672527229e-07,9.053229885361436e-07,2.015447537722162e-06,1.3959923329318881e-05,2.233373302244534e-06,1.1584080052408798e-06,6.2334162750924115e-06,1.1723751297366304e-05,7.849347623206913e-07,1.0419665305973394e-06,6.915958298472328e-07,1.4753408305164652e-06,1.2764218915952258e-06,2.0983563654466296e-06,8.257944095169349e-07,2.2178674024624958e-06
70,7.696279009632718e-07,8.976815447393987e-07,2.031364244068123e-06,1.4421531596603854e-05,2.3351508575658303e-06,1.1552872616002444e-06,6.1708396678912035e-06,1.2507448200370253e-05,7.868597821033909e-07,1.0029688533411041e-06,6.829112573134322e-07,1.4749019150155438e-06,1.2603758375720197e-06,2.0195567728011848e-06,8.305185847992772e-07,2.314350259154252e-06
71,7.888851238394625e-07,8.929007789417836e-07,2.0479038918175627e-06,1.4807721913696285e-05,2.4416238217092266e-06,1.154785312985351e-06,6.095754856407423e-06,1.3278547126042192e-05,7.904190086393605e-07,9.64101579234326e-07,6.744236177988243e-07,1.4743659355408602e-06,1.2439114916564744e-06,1.9450238213163083e-06,8.3788351271298e-07,2.411729826928126e-06
72,8.091326571711172e-07,8.908679008438477e-07,2.0651743354317987e-06,1.511673907103288e-05,2.5514999090773926e-06,1.1570713423586216e-06,6.0095926513976495e-06,1.4024791167987296e-05,7.954475356081529e-07,9.257284817767788e-07,6.663122849025466e-07,1.4739946599804362e-06,1.227602454030737e-06,1.8752895217128401e-06,8.479464015428254e-07,2.5086864039832334e-06
73,8.299474688146614e-07,8.913196163145103e-07,2.08335885473571e-06,1.5349131289961848e-05,2.6630637247149006e-06,1.1623418141250275e-06,5.9139490830723295e-06,1.4734779450164751e-05,8.016701377199887e-07,8.881074205546275e-07,6.586834621364429e-07,1.4739308699841717e-06,1.2119687541770192e-06,1.8106820027112451e-06,8.606576781734732e-07,2.6044116849487362e-06
74,8.50789363557939e-07,8.938811638267375e-07,2.102708901681024e-06,1.550571948227504e-05,2.7743302548639966e-06,1.1708079057825643e-06,5.809941358161118e-06,1.539916127845066e-05,8.086865660407122e-07,8.514193346452514e-07,6.516558983476872e-07,1.4740804632574194e-06,1.197501370109482e-06,1.7513667732470509e-06,8.758448117864351e-07,2.6985792000647123e-06
75,8.711353182931743e-07,8.980841492720123e-07,2.123475270772305e-06,1.5586004925543662e-05,2.883190236317081e-06,1.1826220180217812e-06,5.697823331814229e-06,1.601122579586123e-05,8.159790567254449e-07,8.158886565762117e-07,6.454504039720945e-07,1.4740516187924347e-06,1.1846102711930396e-06,1.697324451552408e-06,8.932074964371668e-07,2.791158850459083e-06
76,8.906359524699477e-07,9.033924817587389e-07,2.1457295706794284e-06,1.5588144445994537e-05,2.9874031905419456e-06,1.1978202945222747e-06,5.577030209212307e-06,1.656655885718482e-05,8.22978803068907e-07,7.818818962150197e-07,6.403955927471378e-07,1.4731757239085642e-06,1.1735229046735872e-06,1.6483678249896688e-06,9.123260767388095e-07,2.8821715352101102e-06
77,9.091432944032949e-07,9.092933563425948e-07,2.169233680315185e-06,1.551033337498973e-05,3.084533157458791e-06,1.216302905826026e-06,5.446694773565291e-06,1.706169846635907e-05,8.291834854825609e-07,7.49887179878623e-07,6.368539998951444e-07,1.4706147232877757e-06,1.1642282870954757e-06,1.604225282304425e-06,9.326941228491333e-07,2.9714458607978584e-06
78,9.265825736287988e-07,9.154065399364547e-07,2.1934301292407907e-06,1.5352442656089085e-05,3.1720832188617815e-06,1.2378148933833533e-06,5.306275786552019e-06,1.7492344753508068e-05,8.342308289150389e-07,7.204227593373478e-07,6.351472832760036e-07,1.4655123938583787e-06,1.1565134456088829e-06,1.564595692414498e-06,9.537745775041647e-07,3.0584133999706335e-06
79,9.428270234878364e-07,9.215372332092622e-07,2.217473921199736e-06,1.511711467214802e-05,3.2478330662865283e-06,1.2619471944417e-06,5.155826948212167e-06,1.7852577880511595e-05,8.378783803397328e-07,6.939705206236275e-07,6.355112714178356e-07,1.4571407331793053e-06,1.1500879056083135e-06,1.5291268679574935e-06,9.75030072874325e-07,3.142021886253304e-06
80,9.577142177176294e-07,9.276545289635333e-07,2.2403052593325173e-06,1.4810206042970523e-05,3.310138173310559e-06,1.2881916487031127e-06,4.995832491907672e-06,1.8135942870686835e-05,8.39968908528044e-07,6.709541322104857e-07,6.38063517086891e-07,1.4450326443872086e-06,1.14471109718522e-06,1.4974273248025816e-06,9.959129481181344e-07,3.2208369688985444e-06
81,9.711607920450564e-07,9.338039366749586e-07,2.2607907978940204e-06,1.4440669643588892e-05,3.358089765430821e-06,1.3160370384063372e-06,4.826966901649783e-06,1.8337501523933678e-05,8.404305614759713e-07,6.517439109424881e-07,6.42787067099137e-07,1.4290543960738703e-06,1.1402190068471488e-06,1.4691680097734268e-06,1.015880782394571e-06,3.29325228059966e-06
82,9.83236768997272e-07,9.400230828185667e-07,2.2778394998501965e-06,1.4019996738323584e-05,3.3916034035435394e-06,1.3450966854677557e-06,4.65019694180401e-06,1.845554538383203e-05,8.392722965267193e-07,6.366832612482886e-07,6.495395230488578e-07,1.4093261492327967e-06,1.1364502586456123e-06,1.4441323766891333e-06,1.0344633452614184e-06,3.3576547533562148e-06
83,9.941263785112465e-07,9.463269919342205e-07,2.290407849348181e-06,1.3561368047525438e-05,3.4114184973424704e-06,1.37524921986344e-06,4.4672755548688835e-06,1.8492430128169205e-05,8.36597429392197e-07,6.260997734575739e-07,6.580757146604295e-07,1.3860211409208237e-06,1.1331423943747905e-06,1.422116976795191e-06,1.0513480043035093e-06,3.412489574693199e-06
84,1.0040178126709971e-06,9.527136468298843e-07,2.297399476041126e-06,1.3078622128720787e-05,3.4188840400831466e-06,1.406719484284663e-06,4.281216672121218e-06,1.845446957630778e-05,8.326605498509408e-07,6.20269123119262e-07,6.680835742279709e-07,1.3592340216399845e-06,1.1298491719026918e-06,1.4027888566553402e-06,1.0664548618197457e-06,3.456287882456287e-06
85,1.013021846881029e-06,9.591586341004212e-07,2.297557334845211e-06,1.258514672422204e-05,3.4155191308188224e-06,1.440025249575427e-06,4.096260052778425e-06,1.835108207566485e-05,8.278767083612168e-07,6.193673754905349e-07,6.792440762557981e-07,1.3290379181832541e-06,1.1259251043320065e-06,1.3856456155346943e-06,1.0799526217156622e-06,3.4877802722824007e-06
86,1.0211703790058292e-06,9.656502367031564e-07,2.2895661749505645e-06,1.2092851230493964e-05,3.4025809081928953e-06,1.4758035110521786e-06,3.917252909643176e-06,1.8193555430486072e-05,8.227567289483144e-07,6.234489423004156e-07,6.912765721385372e-07,1.2956269706550512e-06,1.1206273398840204e-06,1.3700746217949616e-06,1.0921618105033113e-06,3.5061601327898305e-06
87,1.0284432292434214e-06,9.722300654056018e-07,2.2724586466887606e-06,1.1611419721487959e-05,3.3809200050008785e-06,1.5146258668067416e-06,3.7488693700073407e-06,1.7993753361495547e-05,8.178587296568886e-07,6.324468399159099e-07,7.039251715164382e-07,1.2593846224396123e-06,1.1132974031517326e-06,1.3554044390896158e-06,1.10337688574956e-06,3.511380958501526e-06
88,1.0347474018707451e-06,9.789509259752513e-07,2.2460619282243938e-06,1.1148070427773523e-05,3.3511536406197187e-06,1.5569123130041943e-06,3.5951293111149502e-06,1.7762944292483458e-05,8.137566995552575e-07,6.461942283978794e-07,7.169238758574842e-07,1.2208577455252506e-06,1.1034650148943101e-06,1.3409393079406942e-06,1.1137154963407835e-06,3.50425740938487e-06
89,1.0398585996624965e-06,9.857748465835385e-07,2.2111327318200153e-06,1.070785480384191e-05,3.313966676800761e-06,1.6029454741465434e-06,3.4593359085840947e-06,1.751080002690254e-05,8.109775314917684e-07,6.644614373882325e-07,7.299769950996986e-07,1.1807209252677854e-06,1.090781507579959e-06,1.326063467390993e-06,1.1230552660959348e-06,3.4862447742852754e-06
90,1.043410027892736e-06,9.925108019683926e-07,2.1691148072229502e-06,1.0294192093983303e-05,3.270351486208847e-06,1.6528856533202842e-06,3.344255074220332e-06,1.7244533665174988e-05,8.099429582475813e-07,6.869723087075996e-07,7.427357888797316e-07,1.1397605826535827e-06,1.0749207002365289e-06,1.3104026618406626e-06,1.1310513272253165e-06,3.458980626667456e-06
91,1.0449757654644976e-06,9.988749318561596e-07,2.1217316672594192e-06,9.909346905144779e-06,3.221673048247527e-06,1.7067114560240597e-06,3.2522799555625214e-06,1.696817634372594e-05,8.109484483160311e-07,7.133813425973741e-07,7.547922696934055e-07,1.0988199032634531e-06,1.0556116317586597e-06,1.2939154017159075e-06,1.1372554942716725e-06,3.4238211118816967e-06
92,1.0441992022980363e-06,1.0046760620009682e-06,2.0706556510389242e-06,9.554829860570365e-06,3.1695572512387305e-06,1.7641278049725563e-06,3.1854393913072907e-06,1.6682162743759018e-05,8.14149435773924e-07,7.432451029488806e-07,7.657351393655906e-07,1.0587054118824065e-06,1.032758301467731e-06,1.2768274754729256e-06,1.1413109711960408e-06,3.3816130915334327e-06
93,1.0408815946550652e-06,1.009987400074262e-06,2.0173457581517658e-06,9.231772945270965e-06,3.115735068076579e-06,1.8245326582083103e-06,3.145282601260014e-06,1.6383629213940566e-05,8.195437302470472e-07,7.76035006763636e-07,7.752306509633307e-07,1.0201321242749573e-06,1.0065457957305833e-06,1.2594388928699734e-06,1.1430437409062185e-06,3.332758738669406e-06
94,1.0349889710276948e-06,1.0151322970673973e-06,1.963005014732995e-06,8.941189168012619e-06,3.0619517070841984e-06,1.887070336340191e-06,3.1327508342010293e-06,1.606780983290446e-05,8.269742240627447e-07,8.111887623547255e-07,7.830508872401499e-07,9.837077886181707e-07,9.774877810865306e-07,1.2419228011215646e-06,1.1423587911621778e-06,3.2774421715877315e-06
95,1.0266064825068298e-06,1.0204931836981088e-06,1.9085664585219276e-06,8.683955582244224e-06,3.0098907770634242e-06,1.9507412114650735e-06,3.1481366162515207e-06,1.573041053123375e-05,8.361509004557768e-07,8.481303983940321e-07,7.890666565798862e-07,9.499186371983556e-07,9.463458681660146e-07,1.224226335146782e-06,1.1391448184432561e-06,3.2159052421707616e-06
96,1.0159125206019907e-06,1.0263227854637052e-06,1.8546553857984288e-06,8.460526224622022e-06,2.9610464008347834e-06,2.014527670107196e-06,3.1912090836151916e-06,1.537015212258718e-05,8.466625689595339e-07,8.862329476491538e-07,7.932682748741437e-07,9.19132887307457e-07,9.139413050391978e-07,1.2060692001168127e-06,1.1333805760532245e-06,3.14873370735271e-06
97,1.0031988607881939e-06,1.0326869739332316e-06,1.8015516234501084e-06,8.27060354941675e-06,2.916618777265429e-06,2.077476827949937e-06,3.2615002943121334e-06,1.4990371672905193e-05,8.580016382552531e-07,9.248219711391094e-07,7.957678770207368e-07,8.916178546464285e-07,8.810004620955697e-07,1.1869872380618585e-06,1.1253175830827168e-06,3.077094974268541e-06
98,9.88876347131369e-07,1.0395112796912326e-06,1.7492264556218446e-06,8.112967121811676e-06,2.877538085462761e-06,2.13868631450501e-06,3.358588012972725e-06,1.45989239046567e-05,8.696760216757379e-07,9.632904250371041e-07,7.96743908991495e-07,8.675320752687427e-07,8.481023722902648e-07,1.1664397131849519e-06,1.1155212069215668e-06,3.00277442813218e-06
99,9.734230527986096e-07,1.0466418796987595e-06,1.697471322182648e-06,7.98540661623749e-06,2.8445671008523827e-06,2.197245162208814e-06,3.48222974885045e-06,1.4206409157091003e-05,8.813726525256473e-07,1.0012173416986795e-06,7.964162909156373e-07,8.469097408673438e-07,8.15700335319092e-07,1.1440019670149773e-06,1.1047664758634157e-06,2.927879170971657e-06
100,9.573200025776818e-07,1.0538872934770277e-06,1.646037828379278e-06,7.884566536680281e-06,2.8183172139235097e-06,2.2522674461528635e-06,3.632374507260514e-06,1.3823677308369924e-05,8.930153475490942e-07,1.0383562817092914e-06,7.950676829938757e-07,8.29703849193258e-07,7.841788302764152e-07,1.1195527976822438e-06,1.0938995139098233e-06,2.854392203568608e-06
101,9.410090312659177e-07,1.061062201247744e-06,1.5947449049362166e-06,7.805684120199681e-06,2.7991062175022774e-06,2.303035099759713e-06,3.809047929104088e-06,1.3460130579184243e-05,9.04659816844532e-07,1.0745640736277578e-06,7.930158882173162e-07,8.15869933977908e-07,7.53914839492182e-07,1.0933245981833605e-06,1.083704293193481e-06,2.7839532054975987e-06
102,9.24850786754774e-07,1.068031427660998e-06,1.5436034568967449e-06,7.74248458481305e-06,2.786774645735799e-06,2.3490825106537976e-06,4.012067105407892e-06,1.3123630307449261e-05,9.163518156586993e-07,1.1097982299350812e-06,7.905398153199146e-07,8.053918834442127e-07,7.253202925482574e-07,1.0658001484153042e-06,1.0747954326608964e-06,2.717978054753256e-06
103,9.090938254172445e-07,1.0746994578099438e-06,1.4929569733278117e-06,7.687543004811433e-06,2.780613869643955e-06,2.390109760070836e-06,4.240779706940573e-06,1.2821229049111185e-05,9.280853676972701e-07,1.1441059519373572e-06,7.878310744764848e-07,7.982524659415389e-07,6.988459529106283e-07,1.037582792801493e-06,1.0675769777822809e-06,2.6579086879528632e-06
104,8.938819994461994e-07,1.0809254482496808e-06,1.443523506177251e-06,7.63317643343693e-06,2.779424381589722e-06,2.4258198193359495e-06,4.494011895969837e-06,1.2559463447725203e-05,9.398378808688282e-07,1.177509264939128e-06,7.849786620928527e-07,7.944270906605819e-07,6.74947878064946e-07,1.0093531970969497e-06,1.062260791146533e-06,2.605317166465988e-06
105,8.792680108797868e-07,1.0864514398364758e-06,1.396259779621326e-06,7.572586828104575e-06,2.781633955958321e-06,2.4558265914577348e-06,4.770032053327145e-06,1.2343894464388111e-05,9.51563576507604e-07,1.2099122086504496e-06,7.819676151937166e-07,7.938901955559268e-07,6.540425621458468e-07,9.818626709469811e-07,1.0589060941347467e-06,2.561745772211941e-06
106,8.652145703870646e-07,1.0909306327530258e-06,1.3521197609067173e-06,7.500754885947075e-06,2.7854604129089115e-06,2.4796623823757572e-06,5.0663697362023805e-06,1.21784841838084e-05,9.631302725777314e-07,1.2411748464946165e-06,7.786955580014535e-07,7.965856435485913e-07,6.364794101286861e-07,9.55860935103515e-07,1.057445449804985e-06,2.5284159956333442e-06
107,8.516059129120418e-07,1.0940169779954406e-06,1.3118553971976289e-06,7.4146738741600505e-06,2.789161214997543e-06,2.4968227345058596e-06,5.379712669982306e-06,1.2065406113714549e-05,9.742889422029527e-07,1.2712622396015672e-06,7.750292938990673e-07,8.023700677012022e-07,6.225571338497675e-07,9.319981135040417e-07,1.0576770636663225e-06,2.5060434708498105e-06
108,8.38260115497669e-07,1.095424660650307e-06,1.2759292762683672e-06,7.312859264423373e-06,2.7913347524841197e-06,2.506760756413194e-06,5.706061028870426e-06,1.2005356370214679e-05,9.847244216671967e-07,1.3002607833782834e-06,7.708813026209755e-07,8.109654320578794e-07,6.125690395537551e-07,9.107932238397003e-07,1.05925696607694e-06,2.494882390966827e-06
109,8.24957595208473e-07,1.094919775440787e-06,1.2445100530573643e-06,7.194384332027685e-06,2.791118014921962e-06,2.508785646568141e-06,6.040926071311218e-06,1.1998064474203922e-05,9.94158191719515e-07,1.3282583959069595e-06,7.662263960353317e-07,8.219507591765528e-07,6.068073161026006e-07,8.926582089585087e-07,1.0617694223492173e-06,2.494909852967051e-06
110,8.115127683330547e-07,1.0922621172163206e-06,1.2175111916332404e-06,7.057925934587059e-06,2.7881726665431726e-06,2.5019894098829793e-06,6.379269911789695e-06,1.204271449040084e-05,1.002433443742128e-06,1.3552535938081764e-06,7.6108059853645e-07,8.348123139488721e-07,6.055111126789617e-07,8.779205442406832e-07,1.0648559728571591e-06,2.5059303585902306e-06
111,7.978165875386064e-07,1.0871615649620338e-06,1.1946414290396805e-06,6.9014232400473645e-06,2.782536274797101e-06,2.4853800582190735e-06,6.715208806716364e-06,1.2138106586892308e-05,1.0095388343888998e-06,1.3811272105457863e-06,7.555209746669764e-07,8.490554767135662e-07,6.088298264154608e-07,8.668218262470992e-07,1.0682500545466624e-06,2.5275014326373026e-06
112,7.838229328788238e-07,1.0793362894589318e-06,1.1754525762699684e-06,6.722524302492418e-06,2.7744678979159363e-06,2.4581723814502612e-06,7.041861058589375e-06,1.2282419336384274e-05,1.015605063572326e-06,1.4056252115417771e-06,7.496842291143774e-07,8.643038557550738e-07,6.168367490013126e-07,8.595184782744274e-07,1.07169610602252e-06,2.5588161410889854e-06
113,7.695803497891163e-07,1.0686785541240359e-06,1.1594217609398424e-06,6.5193169814589505e-06,2.7642772211194264e-06,2.4200457651612298e-06,7.351715311972693e-06,1.2472584962307351e-05,1.0209004138781415e-06,1.4283593956137333e-06,7.436879454062471e-07,8.80285501417454e-07,6.295525756175366e-07,8.561093283444033e-07,1.0749144317100764e-06,2.59871123740261e-06
114,7.553177891032491e-07,1.0553843938249276e-06,1.1460666388802966e-06,6.290830005272018e-06,2.7520944137227133e-06,2.37128956794036e-06,7.637495979651426e-06,1.2703741108076331e-05,1.025783411356302e-06,1.4488211674240997e-06,7.375700982455349e-07,8.967503075365691e-07,6.469559458248238e-07,8.566558601994707e-07,1.0776478349807743e-06,2.6457908751512722e-06
115,7.414640362334357e-07,1.0399021565978214e-06,1.1350121417806809e-06,6.037242921992292e-06,2.7377213410682025e-06,2.312844463441812e-06,7.89317567862479e-06,1.2969360163016465e-05,1.0306164822850442e-06,1.4664553192033672e-06,7.313288788980285e-07,9.134244254818902e-07,6.689856025079482e-07,8.611658660818724e-07,1.079710849870637e-06,2.698504679660446e-06
116,7.285538441948441e-07,1.0227603419899897e-06,1.1259907196728203e-06,5.759952073510973e-06,2.7206977396598078e-06,2.2462221320077385e-06,8.114767888592994e-06,1.3262081198198924e-05,1.0357067666543068e-06,1.4808809639002094e-06,7.250215238268491e-07,9.300421813217663e-07,6.955148012249945e-07,8.695703407925485e-07,1.081057628550299e-06,2.755076428367744e-06
117,7.170942286922601e-07,1.0044367698936491e-06,1.1188407230690025e-06,5.461587197139552e-06,2.700457399307088e-06,2.1732809849431094e-06,8.300638068224208e-06,1.3574806747532467e-05,1.0412866575070044e-06,1.4921158378527329e-06,7.188392750648368e-07,9.464425980296586e-07,7.263045782025799e-07,8.817480021210423e-07,1.081851755442564e-06,2.81339794864636e-06
118,7.074748805018928e-07,9.852963524051187e-07,1.1135092431638405e-06,5.1459519871403906e-06,2.6764312884013914e-06,2.095912061477413e-06,8.451284550878256e-06,1.390170349862471e-05,1.047517785094599e-06,1.5005392541546902e-06,7.131080698647506e-07,9.626412911429718e-07,7.60975302619905e-07,8.975835334000673e-07,1.0824208510655397e-06,2.8710461284509313e-06
119,6.999443093023236e-07,9.655460966844806e-07,1.1100070180281982e-06,4.817802244305449e-06,2.6481470957569116e-06,2.015779572204817e-06,8.568842884205591e-06,1.4238833608014392e-05,1.0545174738999032e-06,1.506647389932781e-06,7.08212691665931e-07,9.787963327899288e-07,7.990054800963625e-07,9.169650337335753e-07,1.0830920521016294e-06,2.9253763339941185e-06
120,6.946178620829294e-07,9.452137942337426e-07,1.108342062698028e-06,4.482466834781565e-06,2.6153842821635277e-06,1.934250713966663e-06,8.656649900775269e-06,1.4584124458651899e-05,1.0623704550373985e-06,1.5108883135229984e-06,7.04492635866216e-07,9.9508966675714e-07,8.397670101064101e-07,9.397234948861446e-07,1.0840428452347721e-06,2.973600861954867e-06
121,6.914800473791966e-07,9.241884154158414e-07,1.1085314498300013e-06,4.145434113714473e-06,2.5783262387543333e-06,1.852500055791926e-06,8.718947420446497e-06,1.493647702698638e-05,1.0710868959813412e-06,1.5136310868961728e-06,7.021713319594517e-07,1.0116052548607962e-06,8.826142901466175e-07,9.6561373368941e-07,1.085256542645724e-06,3.0129200944363505e-06
122,6.903785309224987e-07,9.023342884449465e-07,1.1106857361391204e-06,3.8120042871364664e-06,2.53762696444032e-06,1.7716281258544567e-06,8.760525453038408e-06,1.5294243605605448e-05,1.0805374957067438e-06,1.515120944491989e-06,7.013420529904757e-07,1.0282624915340904e-06,9.269654025006509e-07,9.94331353608508e-07,1.0865609759678454e-06,3.0407716139761157e-06
123,6.910204961807649e-07,8.796246638923481e-07,1.115052971241475e-06,3.4870163099602597e-06,2.494372932689611e-06,1.69265795279141e-06,8.78611690118504e-06,1.5654038685943886e-05,1.0904055739614387e-06,1.5154091758523395e-06,7.019841850533557e-07,1.0448075910832234e-06,9.722928804623195e-07,1.0255074679416754e-06,1.0877129633825765e-06,3.055112813754076e-06
124,6.929733903814162e-07,8.562103545019491e-07,1.1219843512947843e-06,3.174657128913691e-06,2.4499635296469494e-06,1.6164375292481594e-06,8.799632632112545e-06,1.6010816636315392e-05,1.1001658505019094e-06,1.5143357595957952e-06,7.039751201105449e-07,1.0608777022152288e-06,1.0180771947463916e-06,1.0587411352448935e-06,1.0885030030509724e-06,3.0546298139676043e-06
125,6.956949982772727e-07,8.323973264673522e-07,1.1318747421692937e-06,2.8784066522263876e-06,2.405930116803868e-06,1.543612338750227e-06,8.803613024098203e-06,1.63590674353737e-05,1.1091382448261959e-06,1.5115727882947148e-06,7.070969067100217e-07,1.0761569922764553e-06,1.0638261678102864e-06,1.0937116575119086e-06,1.0887954915577226e-06,3.038857958583388e-06
126,6.986348990163018e-07,8.085642804597452e-07,1.1451125577396812e-06,2.601097689711683e-06,2.3637269347312008e-06,1.4747446695132257e-06,8.799251967987555e-06,1.6694283725540356e-05,1.116630241861305e-06,1.506684223081242e-06,7.110462332444046e-07,1.0905227269405177e-06,1.1091280559438352e-06,1.1302195395948859e-06,1.0884584006423033e-06,3.0082180927504105e-06
127,7.013867440702078e-07,7.850638734733813e-07,1.1620378949756842e-06,2.3449711127125925e-06,2.32456353915886e-06,1.410421051551889e-06,8.786925837988542e-06,1.7014012701326776e-05,1.122042147582079e-06,1.499173367156225e-06,7.154588635453725e-07,1.1040310680869388e-06,1.1536227460834319e-06,1.1680527460640592e-06,1.0873012675383066e-06,2.9639298032074294e-06
128,7.037886894531329e-07,7.62156392087478e-07,1.1829055852621448e-06,2.111693988042582e-06,2.289323524810129e-06,1.351201423043115e-06,8.766800581831894e-06,1.7318213289904238e-05,1.12485800158802e-06,1.4885917510473714e-06,7.199657086826871e-07,1.1167932148197526e-06,1.1968888195640154e-06,1.2068291600854812e-06,1.0851282346939012e-06,2.907777850062894e-06
129,7.058913857698482e-07,7.400177274214534e-07,1.2078556797181992e-06,1.9024271959851947e-06,2.258536873542931e-06,1.297515283759905e-06,8.739193998879907e-06,1.760897979311904e-05,1.1246490718663256e-06,1.4747371953607617e-06,7.242371818586227e-07,1.1289243991173365e-06,1.2383902369497952e-06,1.2459711271411409e-06,1.0818424970656792e-06,2.841761316450263e-06
130,7.078262024631123e-07,7.188083666678356e-07,1.2368837837208076e-06,1.7179717041614739e-06,2.2323490977552183e-06,1.2496329762987793e-06,8.704637353493596e-06,1.788966513281422e-05,1.1211807885441e-06,1.4577939055788696e-06,7.279609969235988e-07,1.1405825471815836e-06,1.2775544773394923e-06,1.2847576492180783e-06,1.0774953841340536e-06,2.7677455377607433e-06
131,7.096813403973785e-07,6.987299313647754e-07,1.269801014824309e-06,1.5589308509345845e-06,2.2104917784861036e-06,1.207656198143121e-06,8.663735240398552e-06,1.8163352977837282e-05,1.1145237015632132e-06,1.4383250860430344e-06,7.308213115548687e-07,1.1519723816598044e-06,1.3138454273651533e-06,1.3223531969644369e-06,1.0722384052437466e-06,2.68732905183955e-06
132,7.114609884920061e-07,6.800133821934663e-07,1.3062109243427905e-06,1.4258202313717435e-06,2.1923601908722184e-06,1.1714717725481318e-06,8.617031173438179e-06,1.8431211979928192e-05,1.1050772302962792e-06,1.417162521707158e-06,7.325795658718453e-07,1.1633019404481308e-06,1.3467028310335092e-06,1.3578357294797843e-06,1.0662288026976557e-06,2.6019717302064943e-06
133,7.131034292051474e-07,6.628544967526282e-07,1.3455174248673814e-06,1.319083754773223e-06,2.1772817451554543e-06,1.1407183152184326e-06,8.565051509810562e-06,1.8691813100146425e-05,1.093495775607345e-06,1.39523509382322e-06,7.332121417714661e-07,1.1748196809634407e-06,1.3754450586545845e-06,1.3902317515903935e-06,1.0595863837576126e-06,2.5131311313843476e-06
134,7.144925016181374e-07,6.473528907706112e-07,1.386913666362766e-06,1.23904933357406e-06,2.1648548777882013e-06,1.1148191281184182e-06,8.508470422068377e-06,1.8941739555671325e-05,1.0805330624366658e-06,1.3733835684729368e-06,7.329584547151893e-07,1.1869628554935213e-06,1.3992913220341288e-06,1.4184870841374944e-06,1.0523967096692237e-06,2.4222026592488065e-06
135,7.154745371268451e-07,6.335089053830743e-07,1.4293549360790509e-06,1.1859314079060079e-06,2.1551450609920915e-06,1.0931061856501923e-06,8.448185660894122e-06,1.9176722180466887e-05,1.066891763568346e-06,1.352231824310257e-06,7.322183354101171e-07,1.2004553777368064e-06,1.4175251365000115e-06,1.4414288588371508e-06,1.0447006763654156e-06,2.330357572766115e-06
136,7.159130891028483e-07,6.213072404563388e-07,1.4716168140816976e-06,1.159910734146304e-06,2.1486945767995966e-06,1.0750061943729184e-06,8.38519282079947e-06,1.9392626215676377e-05,1.0531700512536148e-06,1.332153662204546e-06,7.314011818190173e-07,1.2162203744726856e-06,1.4297317713814884e-06,1.4578664108600685e-06,1.0364963665204705e-06,2.2384987963679025e-06
137,7.157134154256157e-07,6.108326185318284e-07,1.5124862601155049e-06,1.1611915297701275e-06,2.1464759360519575e-06,1.0601720000375446e-06,8.320332666974969e-06,1.9586127106948527e-05,1.0398668463310808e-06,1.3133109122114569e-06,7.308418799476317e-07,1.2351735667506364e-06,1.4359637680613362e-06,1.4668091578051442e-06,1.0277638554663007e-06,2.1474124099024424e-06
138,7.147641201044694e-07,6.022929420036245e-07,1.5509976642848488e-06,1.1899593743980526e-06,2.1498942319028637e-06,1.0484633631587507e-06,8.254060655574485e-06,1.9754961633218934e-05,1.0273603063732579e-06,1.2957118339588955e-06,7.307819746153532e-07,1.2580612340298616e-06,1.4366796711078358e-06,1.4676649996570972e-06,1.0184463872412918e-06,2.0579687381836235e-06
139,7.128674647823261e-07,5.959232790132175e-07,1.5865797966268831e-06,1.2462785304789716e-06,2.1608161950168302e-06,1.0398263695004965e-06,8.186340576041885e-06,1.9897749930030905e-05,1.015882982953795e-06,1.2792776508367546e-06,7.313793084240891e-07,1.2853985626418056e-06,1.4325358850152566e-06,1.4603784577682497e-06,1.0083837685567672e-06,1.9711731255012446e-06
140,7.097341081388471e-07,5.918790908532883e-07,1.6190434241752815e-06,1.3300020898142598e-06,2.1815482090133057e-06,1.03419807123214e-06,8.116682436105791e-06,2.0013568908329056e-05,1.0055651455457472e-06,1.263919709789128e-06,7.32720976737311e-07,1.3174554647074844e-06,1.4242858870866125e-06,1.4455072712492905e-06,9.972934098829263e-07,1.8880222401823998e-06
141,7.050375412925059e-07,5.901945682826567e-07,1.6484282440289695e-06,1.4407190807910921e-06,2.214738235554532e-06,1.031483909825022e-06,8.044274934881983e-06,2.0101203615582538e-05,9.965038345757872e-07,1.2495979461648864e-06,7.348249330761754e-07,1.3542797124387751e-06,1.4128205628237216e-06,1.424160823362519e-06,9.848852034354324e-07,1.8092999004135082e-06
142,6.984896323631963e-07,5.907979410033743e-07,1.6747823388151296e-06,1.5777331616699536e-06,2.2632437837184465e-06,1.0315669398357816e-06,7.968127641740646e-06,2.0157990216828053e-05,9.887466775057386e-07,1.236336001203776e-06,7.376712372401621e-07,1.3957856305792564e-06,1.3991483604629564e-06,1.3977614151315496e-06,9.710636240776855e-07,1.7354801486129886e-06
143,6.899105794913621e-07,5.935600437910406e-07,1.6979734471326178e-06,1.740065503793685e-06,2.330008815643226e-06,1.0343342129966228e-06,7.887170651613237e-06,2.0179186101962502e-05,9.822230160905643e-07,1.2241950554491517e-06,7.412875862846646e-07,1.4418519280692378e-06,1.3842587232786405e-06,1.367756720503825e-06,9.560288759091697e-07,1.6667856585361726e-06
144,6.792900737183348e-07,5.983450776017215e-07,1.7176273216433874e-06,1.926452425817497e-06,2.417942743732113e-06,1.0397464942184865e-06,7.800313680727011e-06,2.015907387681116e-05,9.767781928238827e-07,1.2132032954187207e-06,7.458088312066111e-07,1.4923093372056179e-06,1.3690002125013214e-06,1.3354475589591093e-06,9.401721729871093e-07,1.6033314547888061e-06
145,6.668187889014102e-07,6.050252830778204e-07,1.7332049881858018e-06,2.1353242606259354e-06,2.5297688997909025e-06,1.0479073241121506e-06,7.706416652617622e-06,2.0093237372622683e-05,9.723283836142138e-07,1.2032533669172905e-06,7.514318702969621e-07,1.54681125252007e-06,1.3540364871511719e-06,1.3019361132958064e-06,9.238945014165825e-07,1.5452713487697402e-06
146,6.528414799377352e-07,6.134473369500059e-07,1.7441325401212678e-06,2.3647932833896234e-06,2.667846138263773e-06,1.0590311246612521e-06,7.6040214481514125e-06,1.9980204943990444e-05,9.689681923384627e-07,1.1940392329571397e-06,7.583101212316328e-07,1.6047255635014534e-06,1.3398355257902496e-06,1.268109252293093e-06,9.075170398302678e-07,1.4928727001077392e-06
147,6.37755966438643e-07,6.233779508392523e-07,1.749923183789264e-06,2.612639225155213e-06,2.834015196572608e-06,1.0733238344121891e-06,7.490908937368019e-06,1.982147703487503e-05,9.669107692838742e-07,1.1850838681299798e-06,7.66478681155748e-07,1.6651689031167647e-06,1.32666472101309e-06,1.234641611289563e-06,8.912762638746872e-07,1.4464780106922365e-06
148,6.21948723845172e-07,6.344679110176906e-07,1.7503063129064652e-06,2.8762421683978765e-06,3.029504064849242e-06,1.0908881414940697e-06,7.364012088912948e-06,1.962002185961307e-05,9.663332078113786e-07,1.1758084158180538e-06,7.75833500608073e-07,1.727173417781128e-06,1.3146186762786627e-06,1.2020208315555451e-06,8.753037478000554e-07,1.4064301352651193e-06
149,6.057788689637373e-07,6.462566960327122e-07,1.7453582673156705e-06,3.152476833085994e-06,3.2548730556115914e-06,1.111684472307954e-06,7.2200379011255596e-06,1.937804446865002e-05,9.67276233427423e-07,1.1656123684058716e-06,7.861455594087609e-07,1.789836036086638e-06,1.3036883734823566e-06,1.1705467788889117e-06,8.5958649295276e-07,1.3730636926895427e-06
150,5.895591598070509e-07,6.582314344995131e-07,1.735568544435872e-06,3.4376349200551918e-06,3.509970864954805e-06,1.135524027263804e-06,7.05636874181456e-06,1.90957615069906e-05,9.696369814960375e-07,1.1540147994298558e-06,7.970947089515959e-07,1.8523016956891294e-06,1.293824858033943e-06,1.1403193059369228e-06,8.439880405330403e-07,1.3467196416193778e-06
151,5.735400228260505e-07,6.699359873055368e-07,1.721774880505994e-06,3.72739877592091e-06,3.793886923154161e-06,1.1621012607729347e-06,6.871638886464418e-06,1.877238193123121e-05,9.731984090099229e-07,1.1407869864982292e-06,8.082892400383924e-07,1.9136436323653267e-06,1.2849500902321033e-06,1.1113007870911732e-06,8.283484139461031e-07,1.3276803916387985e-06
152,5.579416378189283e-07,6.810742337852634e-07,1.7049648382590543e-06,4.0169309406542224e-06,4.104890659392328e-06,1.191025021430984e-06,6.665875332408427e-06,1.840831247919792e-05,9.776568873671631e-07,1.1259102130617002e-06,8.192601045565441e-07,1.972811053711196e-06,1.276909985986788e-06,1.0834369080873513e-06,8.125749450497699e-07,1.3160572665119376e-06
153,5.430164888904955e-07,6.915361336525949e-07,1.6860366296929128e-06,4.3012974706423256e-06,4.440363793128749e-06,1.2217895477337882e-06,6.440418825619087e-06,1.800676472635883e-05,9.826296578393102e-07,1.1094198419197994e-06,8.295057368908671e-07,2.028624418597729e-06,1.269420938259563e-06,1.0567190689804117e-06,7.966418091198145e-07,1.311732852764056e-06
154,5.290671365015832e-07,7.013301773176032e-07,1.6656506075362386e-06,4.5762932755226e-06,4.7967447212324285e-06,1.2537520847509097e-06,6.197794979845404e-06,1.7573862102589626e-05,9.87666845261832e-07,1.0913255338262963e-06,8.386272661411428e-07,2.079738236881136e-06,1.262067373363401e-06,1.0311655270616589e-06,7.80554010165603e-07,1.3143602948804702e-06
155,5.16417849243147e-07,7.10474475171063e-07,1.644219456278243e-06,4.839284340176753e-06,5.169478121425276e-06,1.2862132654990483e-06,5.94150794260842e-06,1.7117336126681446e-05,9.923231323434184e-07,1.0715910779155719e-06,8.464347058821954e-07,2.124723709627658e-06,1.2543439353353514e-06,1.0067930813897125e-06,7.643779393961164e-07,1.323373596468487e-06
156,5.05397054141549e-07,7.189344200473815e-07,1.621996747337437e-06,5.089558754231383e-06,5.552931703310156e-06,1.3185448729256136e-06,5.675676533298238e-06,1.6644540692887397e-05,9.962472634106372e-07,1.050079964847149e-06,8.529100750827315e-07,2.162339112043748e-06,1.245727251608247e-06,9.836145575207554e-07,7.483025898737111e-07,1.338017046909123e-06
157,4.963165363427317e-07,7.266389437490998e-07,1.5992108243218829e-06,5.328045321906024e-06,5.940278177450977e-06,1.3502470938764937e-06,5.404604539521831e-06,1.6160760270908967e-05,9.992133732695572e-07,1.0265084636113659e-06,8.580996782177055e-07,2.191702958355853e-06,1.235770837143982e-06,9.616804887831086e-07,7.326445848718314e-07,1.3574131825650536e-06
158,4.89424925187708e-07,7.335066164720278e-07,1.5761798541222747e-06,5.556644140836834e-06,6.323411774058435e-06,1.3809247789515863e-06,5.132458348039695e-06,1.566862617907995e-05,1.001110330071972e-06,1.000502905944335e-06,8.620630865476677e-07,2.2122803903605724e-06,1.2241515184549263e-06,9.411547429261802e-07,7.177903303897604e-07,1.3806560660831645e-06
159,4.848764569881827e-07,7.394451694399464e-07,1.5533554261747398e-06,5.777499599074528e-06,6.6930732383937696e-06,1.4102571349043985e-06,4.86305872718669e-06,1.5168745222863155e-05,1.0018996844505127e-06,9.718014927329786e-07,8.648678964142113e-07,2.223952016569879e-06,1.2106193038734412e-06,9.223240643212733e-07,7.041038753130135e-07,1.406876581112027e-06
160,4.827466583257633e-07,7.443803844857067e-07,1.5313087102665711e-06,5.992380694691682e-06,7.0394495755656925e-06,1.4380100487908777e-06,4.599668645395328e-06,1.4660839604982216e-05,1.0015341240217406e-06,9.405033653015771e-07,8.665527276664716e-07,2.2271743713162532e-06,1.1949513507052821e-06,9.054869118286083e-07,6.918535642759465e-07,1.4352113303894476e-06
161,4.830695383311516e-07,7.483184031401354e-07,1.51070333591678e-06,6.202198629064345e-06,7.353360952552468e-06,1.4640814753016434e-06,4.344773795503598e-06,1.4144812868342148e-05,9.999234992279113e-07,9.071526940858712e-07,8.670690151685847e-07,2.2229951469344032e-06,1.177012877624325e-06,8.90820126771703e-07,6.812069957904857e-07,1.4647127972429327e-06
162,4.858441147950941e-07,7.513597795067473e-07,1.4922588881196998e-06,6.406759440381856e-06,7.62772398653504e-06,1.4885251639388229e-06,4.099984386393356e-06,1.362167293835258e-05,9.970130866435553e-07,8.72569792020054e-07,8.662827697289928e-07,2.2128799878505163e-06,1.1568255056954644e-06,8.783361867935013e-07,6.722672291888211e-07,1.4943528748880647e-06
163,4.910048935025758e-07,7.536292490445428e-07,1.476675517409534e-06,6.604835735145015e-06,7.85859865851688e-06,1.5114852431217894e-06,3.866102704901912e-06,1.3094242006621084e-05,9.928840636743546e-07,8.375909945710054e-07,8.640669377997116e-07,2.198434163244507e-06,1.1345022904210746e-06,8.679417974475385e-07,6.651083176437485e-07,1.5231777549400728e-06
164,4.984068698368771e-07,7.551794781939262e-07,1.464541196317925e-06,6.794446972041736e-06,8.045184626378008e-06,1.5330618394626576e-06,3.643224804975934e-06,1.2567418817276e-05,9.87775481487005e-07,8.02915429185907e-07,8.604029593215687e-07,2.1811308516528794e-06,1.1101413004578385e-06,8.595421932920563e-07,6.598211249896527e-07,1.5505111876414022e-06
165,5.078411286413118e-07,7.55960437741766e-07,1.4563042973045058e-06,6.9732119479801525e-06,8.188694201673578e-06,1.5532039157317894e-06,3.4307801881072805e-06,1.2047821997931983e-05,9.820232082751449e-07,7.69084832977252e-07,8.553877705077558e-07,2.1621821055591764e-06,1.0838231758232438e-06,8.531017481622367e-07,6.565592521314792e-07,1.5760968966158332e-06
166,5.190511394466238e-07,7.558981638070337e-07,1.4523050157091922e-06,7.138732950308415e-06,8.290748146089793e-06,1.5716573410543006e-06,3.227657709388035e-06,1.1542787304235127e-05,9.759522899251992e-07,7.365099038359561e-07,8.491430240337701e-07,2.1425386949134393e-06,1.0556673821219577e-06,8.486029002409898e-07,6.555321221930686e-07,1.6001348953043578e-06
167,5.317587883634598e-07,7.550127527265261e-07,1.452780111497983e-06,7.288947128881439e-06,8.352352684043483e-06,1.5879618103942625e-06,3.032597436519539e-06,1.1059071035799618e-05,9.69794466154418e-07,7.054951754753253e-07,8.417120311983935e-07,2.1228948575625306e-06,1.0258881296898849e-06,8.459630771253582e-07,6.569465074808094e-07,1.623197847265406e-06
168,5.457083668452875e-07,7.534500264757525e-07,1.4578760647390107e-06,7.422353129287634e-06,8.373999366598672e-06,1.6014997302264516e-06,2.844739204316236e-06,1.0602206950290012e-05,9.636862777949932e-07,6.762779582252995e-07,8.330227482860128e-07,2.1036795050359324e-06,9.948517450655184e-07,8.449880512675045e-07,6.609552367573131e-07,1.6460464656261493e-06
169,5.606805293618106e-07,7.514271324398693e-07,1.4677195720504103e-06,7.538064367967097e-06,8.356359001325933e-06,1.6115454705585891e-06,2.6640356793283525e-06,1.0177029633321781e-05,9.576907617012997e-07,6.490788189816481e-07,8.229145422434621e-07,2.0850820362481855e-06,9.63066984362146e-07,8.453604804419622e-07,6.676399900515691e-07,1.6694043228302978e-06
170,5.764888410158216e-07,7.492168866899037e-07,1.4824306582894524e-06,7.635673195466671e-06,8.30081672556634e-06,1.6173101011655724e-06,2.49133961539006e-06,9.788513760539132e-06,9.517744089300126e-07,6.241334744129185e-07,8.111860894620988e-07,2.067108233308909e-06,9.310743012156849e-07,8.466840704476543e-07,6.770093301062868e-07,1.6937748073258453e-06
171,5.930098914371397e-07,7.471864572266707e-07,1.502018303408222e-06,7.714890633231205e-06,8.209688786669143e-06,1.6180443547723324e-06,2.3281832650740804e-06,9.441893561036687e-06,9.457710061411044e-07,6.016965967074708e-07,7.976742678664945e-07,2.049643044299729e-06,8.993282793635911e-07,8.485973248865187e-07,6.889985449944533e-07,1.7193560716119097e-06
172,6.101964694272597e-07,7.457769511382719e-07,1.5262952955383594e-06,7.775007039925904e-06,8.086293764944516e-06,1.613136379459133e-06,2.1764171624579067e-06,9.142039495417233e-06,9.393851161117439e-07,5.820103579516138e-07,7.823590976059751e-07,2.0325230705525396e-06,8.681571544669741e-07,8.508409394048983e-07,7.03487197781495e-07,1.7460345792508726e-06
173,6.28034539431598e-07,7.454101755591028e-07,1.5549091705795981e-06,7.814566223506738e-06,7.934961432878901e-06,1.602081416039829e-06,2.037870501520117e-06,8.892764526691267e-06,9.322623603606767e-07,5.652454013648007e-07,7.654113602690168e-07,2.015632605696938e-06,8.37783801145121e-07,8.531977467646096e-07,7.203371708517687e-07,1.7734083574844854e-06
174,6.464939518417804e-07,7.464122263754127e-07,1.5873951149749695e-06,7.831697469460168e-06,7.760929633593275e-06,1.5844279870669095e-06,1.9141096308922683e-06,8.696702835716475e-06,9.241223699162244e-07,5.514591276117414e-07,7.471564547790935e-07,1.9990102749724294e-06,8.083533225005947e-07,8.554104388406861e-07,7.394260826005997e-07,1.800854264305457e-06
175,6.654844587194203e-07,7.489788461098925e-07,1.6231492064865276e-06,7.824889541369612e-06,7.5700769907916255e-06,1.5598953178661678e-06,1.8063224885386094e-06,8.55580928144811e-06,9.148789054862351e-07,5.405920571693598e-07,7.280160927228329e-07,1.9828869563775453e-06,7.799579400831646e-07,8.571777682958094e-07,7.606783620301511e-07,1.8276616365643137e-06
176,6.848142740386647e-07,7.53159556011311e-07,1.6613988304367e-06,7.79354211151854e-06,7.368528661465597e-06,1.5285772350976203e-06,1.7153306832533426e-06,8.471978402137929e-06,9.04683467646797e-07,5.32485204538616e-07,7.084517159939105e-07,1.9675774601192207e-06,7.526859363648288e-07,8.582254080048796e-07,7.840828174245929e-07,1.8531641262988847e-06
177,7.042120162216136e-07,7.588679006341118e-07,1.7012773266420902e-06,7.737973878741293e-06,7.162233234425269e-06,1.4910168491921295e-06,1.6417283299192447e-06,8.44728890869422e-06,8.939156968004181e-07,5.269075445331054e-07,6.889100012470393e-07,1.9533065383329612e-06,7.26676483570496e-07,8.584277560096159e-07,8.096467778347071e-07,1.876830221559352e-06
178,7.234292103121919e-07,7.6591752824893e-07,1.7419289375642646e-06,7.6589697862847e-06,6.956571322441209e-06,1.448127816821023e-06,1.586115730019492e-06,8.483702436056087e-06,8.831286919439134e-07,5.235966825886971e-07,6.697900897300627e-07,1.9401364592504576e-06,7.021234941212442e-07,8.578786135221592e-07,8.373126154944745e-07,1.898391250581679e-06
179,7.423252029062298e-07,7.74046388740084e-07,1.782502764160361e-06,7.557094976884798e-06,6.7559946778791205e-06,1.4010519188512769e-06,1.5492836508250714e-06,8.58254222592591e-06,8.72925564603703e-07,5.223005413122465e-07,6.514233716281025e-07,1.92801547223303e-06,6.792166833706005e-07,8.567999198469187e-07,8.669054946897076e-07,1.918014733296389e-06
180,7.608412217601392e-07,7.829191848995866e-07,1.8220232371904386e-06,7.432249175857211e-06,6.5637602865930254e-06,1.3510106788028365e-06,1.532205062968327e-06,8.74438797115988e-06,8.638249545496215e-07,5.228001583702055e-07,6.340564545375624e-07,1.916864273292909e-06,6.580729210861441e-07,8.553837002248085e-07,8.98120627708688e-07,1.936364411540118e-06
181,7.788920795078993e-07,7.921567765890575e-07,1.8592442343227446e-06,7.283889219911265e-06,6.381907337088514e-06,1.299196739562282e-06,1.535872588657103e-06,8.969462394620714e-06,8.56193543204691e-07,5.249209235166048e-07,6.178689985264792e-07,1.9066524828554369e-06,6.387368166931721e-07,8.537309199000716e-07,9.305537796987577e-07,1.954450514373982e-06
182,7.962762008243303e-07,8.013948956309255e-07,1.8926063755510037e-06,7.111709664886416e-06,6.211511468802412e-06,1.2467271250328345e-06,1.5611408087475188e-06,9.257935360430746e-06,8.50233210021828e-07,5.285359600271595e-07,6.030444420354989e-07,1.897390024730493e-06,6.212726251624477e-07,8.518722334720096e-07,9.637663342706114e-07,1.9733774263922445e-06
183,8.126793504385124e-07,8.102994314172171e-07,1.920363342783339e-06,6.916240494787021e-06,6.053102706377532e-06,1.1946202133853404e-06,1.6086776320358375e-06,9.609915758983962e-06,8.459868256742603e-07,5.335642808867774e-07,5.898391713475304e-07,1.8889955899225542e-06,6.058420242133293e-07,8.497915330313282e-07,9.973091326971865e-07,1.994119958689675e-06
184,8.27789226155019e-07,8.185472245857239e-07,1.9408798466524905e-06,6.699112483816793e-06,5.907108107997317e-06,1.1437592252348574e-06,1.6790082582794226e-06,1.0025331629114711e-05,8.433518984873031e-07,5.399623184174445e-07,5.785796954796069e-07,1.8811693740854588e-06,5.92673668837157e-07,8.474527561722278e-07,1.0306736235374105e-06,2.017371278362734e-06
185,8.414475970796102e-07,8.25873180899722e-07,1.9530158112735455e-06,6.46299183170893e-06,5.774151057360404e-06,1.0948552905898802e-06,1.7725701469302153e-06,1.0503681902897212e-05,8.4210200571006e-07,5.476779766745387e-07,5.696104463655283e-07,1.8734237012209513e-06,5.819822136583695e-07,8.448241359340571e-07,1.0632510865906791e-06,2.0435138741158e-06
186,8.536978127696825e-07,8.321816956220769e-07,1.956419424406756e-06,6.2112485950692815e-06,5.655036085514555e-06,1.0484315396984843e-06,1.889713308002925e-06,1.1043521756033763e-05,8.419467806201679e-07,5.56588129456308e-07,5.632546222020545e-07,1.8652895851638543e-06,5.739193289772506e-07,8.418897037202131e-07,1.094389758403809e-06,2.072745067482004e-06
187,8.646834036073094e-07,8.375931423321957e-07,1.95157390504305e-06,5.9474517443604274e-06,5.550415453953273e-06,1.0048452256333078e-06,2.0306363120960613e-06,1.1641779775396864e-05,8.42620357077518e-07,5.664784929553523e-07,5.597969440818461e-07,1.8565594289170952e-06,5.685577055316271e-07,8.386839301281493e-07,1.1235501467029009e-06,2.105253278188981e-06
188,8.745217364430268e-07,8.423594869482905e-07,1.9395852709130297e-06,5.674808754749844e-06,5.460457038126667e-06,9.643521437708213e-07,2.1952911295244763e-06,1.2293189760410946e-05,8.439069204418409e-07,5.770632979483134e-07,5.594875987481528e-07,1.8473537850959248e-06,5.658862707566482e-07,8.353395116230511e-07,1.1504468753870224e-06,2.1412722609966858e-06
189,8.832442913678007e-07,8.467401273873245e-07,1.921828973496916e-06,5.3957839396833e-06,5.384976197610818e-06,9.271551214548662e-07,2.383286314314806e-06,1.2990054597966857e-05,8.456068390370687e-07,5.879990528401148e-07,5.625543225886065e-07,1.8379517801635864e-06,5.65822402172464e-07,8.320808811544126e-07,1.175037280721871e-06,2.1809556407884208e-06
190,8.907655246533188e-07,8.509379822504168e-07,1.8996366642673903e-06,5.112152136974557e-06,5.324017962538065e-06,8.933786565060928e-07,2.593804030706368e-06,1.3722292008535333e-05,8.475475353506742e-07,5.988789737548796e-07,5.69179890603813e-07,1.828540310223687e-06,5.682574311398591e-07,8.291489996709459e-07,1.1973606406523567e-06,2.224207725313701e-06
191,8.968711602425132e-07,8.550865551896142e-07,1.874180274072151e-06,4.825417685042024e-06,5.278193391671275e-06,8.630177327573009e-07,2.8255501472249887e-06,1.4477496019558716e-05,8.496251893919476e-07,6.09276445991982e-07,5.794540998271429e-07,1.8190398674396814e-06,5.731235094260213e-07,8.26722976291015e-07,1.217411473470555e-06,2.2706157525833976e-06
192,9.012746775005398e-07,8.592508114555344e-07,1.846534183863662e-06,4.537228926245268e-06,5.248345296972632e-06,8.359542925096603e-07,3.076727918910526e-06,1.5240815994974325e-05,8.518107057917468e-07,6.188912241710924e-07,5.933459487839128e-07,1.809052523415415e-06,5.804433248207833e-07,8.248893531006642e-07,1.2351544844267571e-06,2.319469937210777e-06
193,9.037380212632414e-07,8.634182328409346e-07,1.8177367642800398e-06,4.24956336558067e-06,5.2351764327863205e-06,8.120594732020294e-07,3.3449969187415886e-06,1.5994921086420968e-05,8.541450472455938e-07,6.276778407865737e-07,6.107015036361086e-07,1.797922341008714e-06,5.903418191523658e-07,8.236392076089264e-07,1.2505594887728176e-06,2.3698375432100977e-06
194,9.041950066671152e-07,8.674766206931118e-07,1.7887630795431693e-06,3.9647418917590965e-06,5.239478778387946e-06,7.913114652741581e-07,3.627423368964816e-06,1.6720844377766586e-05,8.567235400908269e-07,6.358043789704268e-07,6.312644858773613e-07,1.7848795011755202e-06,6.030344049871035e-07,8.228886565390097e-07,1.2635486379767814e-06,2.420715610174345e-06
195,9.027977209493598e-07,8.712316040804473e-07,1.7604783269647261e-06,3.6853680458659382e-06,5.262557166223546e-06,7.738471784760835e-07,3.920480267170073e-06,1.740010428207466e-05,8.596398101816437e-07,6.435218671496022e-07,6.547252165913265e-07,1.7692357067565635e-06,6.187955594474805e-07,8.22544493440149e-07,1.2739247980830575e-06,2.4712227363843667e-06
196,8.998479275290145e-07,8.74481076752499e-07,1.7336169119042372e-06,3.414173270753456e-06,5.3063254541860115e-06,7.599185583071639e-07,4.220158179643669e-06,1.8017288837720997e-05,8.629279437432655e-07,6.510930961396119e-07,6.807637330765921e-07,1.7505866642627762e-06,6.378920876254763e-07,8.225637512882813e-07,1.281382877671548e-06,2.5207190960537177e-06
197,8.957000362867169e-07,8.770587908741671e-07,1.708741101502151e-06,3.1537483451139453e-06,5.373239352090863e-06,7.497911153625543e-07,4.5222115027973164e-06,1.856178197285884e-05,8.665292193157891e-07,6.587642115486041e-07,7.090395603156123e-07,1.7289567870830568e-06,6.605053181293904e-07,8.22949019336598e-07,1.2856169190290281e-06,2.5687809909035048e-06
198,8.907323254989276e-07,8.787860994785811e-07,1.686163584652238e-06,2.906294498065048e-06,5.4663157774616e-06,7.436683900737106e-07,4.822493432164504e-06,1.902784654810904e-05,8.702777495350069e-07,6.667402323268408e-07,7.39138897694912e-07,1.7048388562696793e-06,6.86687115155304e-07,8.237309844725774e-07,1.2864624499408617e-06,2.615061179333818e-06
199,8.853300677211647e-07,8.794049679003355e-07,1.665910599592624e-06,2.673524763586227e-06,5.589073186944631e-06,7.416799430052085e-07,5.117282041864194e-06,1.94128886807152e-05,8.739391738756075e-07,6.751835492118685e-07,7.7052530313663e-07,1.6791011294120914e-06,7.163484623324683e-07,8.249840737464521e-07,1.2839994984349736e-06,2.659160157059397e-06
200,8.798128468877862e-07,8.785919882969419e-07,1.647788678110832e-06,2.4566502848912606e-06,5.74513650843108e-06,7.43891091214084e-07,5.403500866481388e-06,1.97147614032021e-05,8.773022129286497e-07,6.842243713812604e-07,8.025180708746451e-07,1.6527766559207187e-06,7.49252875502273e-07,8.268039228202885e-07,1.278565791822821e-06,2.7006047568769416e-06
201,8.743671108955098e-07,8.760462430018387e-07,1.6315156008458382e-06,2.2563890857567644e-06,5.937703046856687e-06,7.503034226151012e-07,5.678744222811431e-06,1.9930478980555712e-05,8.802299595277217e-07,6.939572555345733e-07,8.343151946178499e-07,1.6268528106187988e-06,7.850055385921988e-07,8.292220491229893e-07,1.270670732064119e-06,2.738907231167863e-06
202,8.690439021803672e-07,8.715758889997509e-07,1.6168437869965556e-06,2.073036331009892e-06,6.169285228801436e-06,7.608527727437967e-07,5.941056929784997e-06,2.0057821717220205e-05,8.826410397336662e-07,7.044325066931762e-07,8.650650390731861e-07,1.602157659075605e-06,8.230497692340756e-07,8.321478778227433e-07,1.260872847673309e-06,2.7736454227890326e-06
203,8.637860753658721e-07,8.651458988795249e-07,1.6036490790909474e-06,1.9065495251419916e-06,6.441694744498346e-06,7.754400564532751e-07,6.188523498474838e-06,2.009824667345246e-05,8.844865927559978e-07,7.15664772328947e-07,8.939505487126266e-07,1.5792951054143187e-06,8.626910669771425e-07,8.353697810473533e-07,1.2497115518046518e-06,2.8045250443446024e-06
204,8.584452369862963e-07,8.569124333759914e-07,1.5919621219849082e-06,1.7565761945044626e-06,6.75594552864354e-06,7.940203530378165e-07,6.4187746470522385e-06,2.005879747755939e-05,8.857179436033284e-07,7.276464109438847e-07,9.20266174801599e-07,1.5586033791377609e-06,9.031734250222821e-07,8.385759048017578e-07,1.2376839992887655e-06,2.8313267353373474e-06
205,8.528185774876727e-07,8.472609270633177e-07,1.5819174316892022e-06,1.6225008117065701e-06,7.11202790591041e-06,8.166822069084902e-07,6.628579033109951e-06,1.9952320736882452e-05,8.862383378498951e-07,7.403453399473394e-07,9.434863267866707e-07,1.5402157344705054e-06,9.437955898251892e-07,8.413961939704732e-07,1.225202901609061e-06,2.85370857380559e-06
206,8.467150290842841e-07,8.36787092780557e-07,1.573669013445768e-06,1.503617585673971e-06,7.5087272753123355e-06,8.436235713359076e-07,6.8139094308959735e-06,1.979622921732863e-05,8.859300999492969e-07,7.536976484712123e-07,9.632837309647259e-07,1.5241965386711816e-06,9.839888930690038e-07,8.434975834435178e-07,1.2125604561958945e-06,2.87106174122714e-06
207,8.399836816583173e-07,8.261742971901975e-07,1.5673596868590245e-06,1.399341062677933e-06,7.943538421818637e-06,8.750436448237838e-07,6.970730512317281e-06,1.9610182065096283e-05,8.847574899681233e-07,7.676033971510024e-07,9.794812900347572e-07,1.5105798762568192e-06,1.023318552620439e-06,8.447330324355917e-07,1.199951734469296e-06,2.882559296351097e-06
208,8.324927904025046e-07,8.160545506794646e-07,1.563147692485295e-06,1.3092500469173758e-06,8.412553765080375e-06,9.110649139292903e-07,7.096032582220456e-06,1.9413344664386816e-05,8.828104491566485e-07,7.819412198762058e-07,9.919728180728112e-07,1.4992669562204198e-06,1.0614809351358625e-06,8.452717812291613e-07,1.1875223117815372e-06,2.8873111815789886e-06
209,8.241369079103884e-07,8.069500405241246e-07,1.5612024370094942e-06,1.2329455238633357e-06,8.910270948544514e-06,9.517511585453854e-07,7.1883907988874664e-06,1.9222334803133347e-05,8.80258740966128e-07,7.966364175134319e-07,1.0006337896439583e-06,1.4899251297293425e-06,1.0983582757778387e-06,8.455889245925324e-07,1.1753725997164326e-06,2.8845869190016665e-06
210,8.148651660862945e-07,7.99268352583792e-07,1.5616245746825017e-06,1.169913871169526e-06,9.429412315497566e-06,9.971584793882784e-07,7.247937890559165e-06,1.9050707040064353e-05,8.773289872053465e-07,8.117277731052407e-07,1.0052612139939834e-06,1.481967264672022e-06,1.1340821854928014e-06,8.463038149656679e-07,1.1635300430097932e-06,2.874073391991234e-06
211,8.046378032296415e-07,7.933052564900188e-07,1.5643921288477697e-06,1.1195204464153001e-06,9.960892489003726e-06,1.0473191091067612e-06,7.27610015050054e-06,1.8909704370758397e-05,8.743243068711965e-07,8.273196658548268e-07,1.0055906822007903e-06,1.4746027348571035e-06,1.1690217006600543e-06,8.480194427533974e-07,1.1519693806787792e-06,2.8559741607875316e-06
212,7.933350968253272e-07,7.892608127590002e-07,1.5694093768284578e-06,1.0810851121284412e-06,1.0494314962918912e-05,1.1021542973096074e-06,7.2752878293983395e-06,1.880931069425642e-05,8.715868562355787e-07,8.434717951745956e-07,1.0013739331935179e-06,1.4669832155718272e-06,1.2036813659503702e-06,8.512532583328388e-07,1.1407247311246839e-06,2.83087120060585e-06
213,7.807408640386499e-07,7.872664322098543e-07,1.5765443402490848e-06,1.0539352422017767e-06,1.1019392695743831e-05,1.1613930766379847e-06,7.248425328743501e-06,1.8758884630844248e-05,8.694229907488538e-07,8.601815745444859e-07,9.924814487159703e-07,1.4583983124067523e-06,1.2385593855599788e-06,8.564097215266516e-07,1.1300044826442267e-06,2.799552169065351e-06
214,7.66625797475508e-07,7.873981921655179e-07,1.585567602873876e-06,1.0373797139884523e-06,1.1527792453664172e-05,1.2245446888874796e-06,7.198267923739641e-06,1.8766964603268706e-05,8.68097391164837e-07,8.774422737120097e-07,9.790098777228308e-07,1.448374881745333e-06,1.274022636079854e-06,8.637675980268805e-07,1.1201678303609066e-06,2.7630036451163824e-06
215,7.508517329846836e-07,7.896618913505325e-07,1.5960791978144716e-06,1.0306523672625421e-06,1.2014149053254235e-05,1.2909449323395708e-06,7.126886195169588e-06,1.8840264034503912e-05,8.678598949731813e-07,8.952340457254704e-07,9.613442944253022e-07,1.4366570806388925e-06,1.3102296789205324e-06,8.734919829889817e-07,1.1115957864749452e-06,2.722510021202514e-06
216,7.334274237276351e-07,7.93957999977673e-07,1.6075060829927886e-06,1.0328892849199694e-06,1.2475516379139165e-05,1.35988382604218e-06,7.035782999306732e-06,1.8982806450422174e-05,8.689312471741521e-07,9.13449992096257e-07,9.40111711875638e-07,1.423202775933084e-06,1.3471067406127139e-06,8.856470181576531e-07,1.1045922142533369e-06,2.6796654603628422e-06
217,7.144883135042279e-07,8.000484420997787e-07,1.6191627804261293e-06,1.043112973338884e-06,1.2909650692439723e-05,1.4307299525350937e-06,6.926538876519328e-06,1.9196152546296508e-05,8.71492278448836e-07,9.318990633912386e-07,9.160309461240781e-07,1.4082304264635627e-06,1.3843951763173582e-06,9.001904684585369e-07,1.099324163378789e-06,2.6362056417304857e-06
218,6.942368871246516e-07,8.075564566115462e-07,1.6303532464188386e-06,1.060202970906658e-06,1.331323415681927e-05,1.5029282805331674e-06,6.801516125576771e-06,1.9480375626269265e-05,8.757010359675713e-07,9.503866939878826e-07,8.897701088657451e-07,1.3922099841101575e-06,1.4218111256162551e-06,9.16969687755742e-07,1.0957661928430529e-06,2.5937178479440295e-06
219,6.72937117195523e-07,8.160280690113465e-07,1.6405064750770454e-06,1.0828814164473951e-06,1.3681166284141077e-05,1.5758853833567773e-06,6.6643290672970176e-06,1.9834891969707605e-05,8.816766498667416e-07,9.687451947231442e-07,8.619170557945977e-07,1.3757449017316772e-06,1.4592830816296742e-06,9.357401080025749e-07,1.0936654277610543e-06,2.553429160818313e-06
220,6.509628760184579e-07,8.250465549141519e-07,1.6493237788415032e-06,1.1097441223141242e-06,1.4007255730031882e-05,1.6489066046486305e-06,6.519938499945501e-06,2.0258768767182605e-05,8.894354157751669e-07,9.868511759271054e-07,8.33028238886564e-07,1.3594039217324152e-06,1.4971088652920848e-06,9.561831971546663e-07,1.0925391882067321e-06,2.5162644738041194e-06
221,6.287892257165521e-07,8.343498280428695e-07,1.6568706330318733e-06,1.1393681862815885e-06,1.4285563615303444e-05,1.721305438883238e-06,6.374248867058012e-06,2.075047292530491e-05,8.988456937804842e-07,1.0047053809680125e-06,8.036461875475083e-07,1.3436111978903426e-06,1.5358976643535348e-06,9.778927549616377e-07,1.0917197596276127e-06,2.483075276749237e-06
222,6.069184588438856e-07,8.438936798303439e-07,1.6635193456685646e-06,1.1704639987918995e-06,1.4511460152151904e-05,1.7925947894439002e-06,6.233284425360227e-06,2.1307133208014627e-05,9.096378684353813e-07,1.022448694146891e-06,7.742574476785324e-07,1.328634967063104e-06,1.5763439465297687e-06,1.0003585909762966e-06,1.0904493785408237e-06,2.454718509343916e-06
223,5.858294363470921e-07,8.538184525587313e-07,1.6697404943539488e-06,1.2019840552450536e-06,1.4682075001467642e-05,1.8625399461592683e-06,6.1023242000939916e-06,2.1923481741904757e-05,9.214372943799629e-07,1.0402632238442108e-06,7.452495077681166e-07,1.3145974640667998e-06,1.619011461009644e-06,1.022984862118013e-06,1.0879521670866924e-06,2.4318801211160996e-06
224,5.659592776894123e-07,8.643330698112969e-07,1.6759117392145969e-06,1.2331676542582462e-06,1.4796334093082491e-05,1.931000565007474e-06,5.9853840797856585e-06,2.2590900189756482e-05,9.337871417223955e-07,1.0582826998316912e-06,7.169134884748459e-07,1.3014645306570121e-06,1.6642453987340165e-06,1.0451470240218556e-06,1.0834318264514676e-06,2.4148468498158924e-06
225,5.476844547790813e-07,8.756246095672067e-07,1.6822958787593422e-06,1.2635779163126894e-06,1.4854905122039134e-05,1.9977817788083082e-06,5.885096836441427e-06,2.3297463743834306e-05,9.461404419286743e-07,1.0765482082568362e-06,6.894963604101432e-07,1.28908607584067e-06,1.7121676031986807e-06,1.0662984295926425e-06,1.0761300963675137e-06,2.4033898363219883e-06
226,5.31308505488454e-07,8.878746570053297e-07,1.6891239336450606e-06,1.2931557929851104e-06,1.4860137901657143e-05,2.0627248072838616e-06,5.802842914237913e-06,2.402945305844685e-05,9.578356110766904e-07,1.0949751644640597e-06,6.632515006349688e-07,1.2773017611911048e-06,1.7626566863284248e-06,1.0860897570546284e-06,1.0655682168360248e-06,2.3967505355717882e-06
227,5.170727347123503e-07,9.013122715235582e-07,1.6966566490409724e-06,1.3222212340536305e-06,1.4815703487018989e-05,2.1259396800135553e-06,5.73911772277556e-06,2.477360691862477e-05,9.681478101413475e-07,1.1133223310647555e-06,6.38417497246567e-07,1.2659903831881995e-06,1.8153036906532746e-06,1.1043941844836362e-06,1.0517780140833662e-06,2.393709673676306e-06
228,5.051750281333452e-07,9.162040439794213e-07,1.7052278994344484e-06,1.3513412614851844e-06,1.4725558423314861e-05,2.187908760174096e-06,5.694111532971096e-06,2.55192112597111e-05,9.764378080026491e-07,1.1311545177182898e-06,6.151564343637052e-07,1.2550028784141757e-06,1.8693902665875892e-06,1.1212027793174182e-06,1.0352652317373778e-06,2.3927629391790265e-06
229,4.95765667714298e-07,9.327875129600417e-07,1.7153049711331411e-06,1.3811112638660633e-06,1.4592468801607772e-05,2.2493488400545565e-06,5.668195907684589e-06,2.6259651599200825e-05,9.82258960941381e-07,1.1478281598830065e-06,5.935379080310461e-07,1.2440647494388806e-06,1.923895067996528e-06,1.1364884292736474e-06,1.0167669054308802e-06,2.392381620305017e-06
230,4.88941598322651e-07,9.512056104820888e-07,1.7275007419437885e-06,1.411990237359637e-06,1.4417192846850332e-05,2.3109259581748065e-06,5.661997971126415e-06,2.699300665544032e-05,9.853812334304597e-07,1.162569829530799e-06,5.735716580130194e-07,1.2327204530081091e-06,1.9775448464389058e-06,1.1501506504173824e-06,9.970250905578933e-07,2.3912273733717117e-06
231,4.847811367469168e-07,9.71471416527105e-07,1.7424587548146616e-06,1.4442372537985585e-06,1.4199040952539698e-05,2.3729807881354856e-06,5.676107805417771e-06,2.7721278376853247e-05,9.858349415881576e-07,1.1746658701095375e-06,5.552527521943709e-07,1.2203559908559457e-06,2.029004582275577e-06,1.1620470232682545e-06,9.766615720446397e-07,2.388158340681329e-06
232,4.833844667838798e-07,9.93468346506253e-07,1.7606649416944388e-06,1.4778774261259118e-06,1.3937192854120965e-05,2.4353786951155708e-06,5.71070519651751e-06,2.844858871428023e-05,9.83912507718612e-07,1.1836461601965584e-06,5.385925442799029e-07,1.20636244511575e-06,2.0772191594576035e-06,1.17202134923028e-06,9.56127632446333e-07,2.382074394058438e-06
233,4.848618464962699e-07,1.0169902351094367e-06,1.7823130480520235e-06,1.5126791355539142e-06,1.363194074800137e-05,2.497541345885962e-06,5.765262850353349e-06,2.9179191923959025e-05,9.800163772884172e-07,1.1892975413494865e-06,5.236214889967409e-07,1.1903943648735988e-06,2.121726392007698e-06,1.179878001271431e-06,9.35704877757865e-07,2.3718549902501107e-06
234,4.892852068693059e-07,1.0417884570027567e-06,1.8072632299445624e-06,1.5481950803817942e-06,1.3285610421431439e-05,2.5586388244321945e-06,5.838333914018045e-06,2.9915567971587897e-05,9.744959939257142e-07,1.1915047814028864e-06,5.104084192142469e-07,1.1725027837534858e-06,2.1627523496965577e-06,1.1853688350277486e-06,9.155673380484098e-07,2.3564504685934297e-06
235,4.966568366519661e-07,1.0675631695245161e-06,1.8350716289801287e-06,1.5838743430342703e-06,1.2902847140623444e-05,2.617824013184885e-06,5.927589756299233e-06,3.0656624830494086e-05,9.676506652076535e-07,1.1901244098169431e-06,4.991006102381591e-07,1.1530111389957018e-06,2.201037335666819e-06,1.1882279795711114e-06,8.959204429951927e-07,2.334971261780948e-06
236,5.069061498762202e-07,1.0939079258138802e-06,1.865095255749962e-06,1.6192220373376154e-06,1.248979194951052e-05,2.674392400290467e-06,6.03025455145583e-06,3.139746905756347e-05,9.598175095382524e-07,1.1850823755307079e-06,4.899070804239308e-07,1.1322943081281438e-06,2.237475047308989e-06,1.1881962918972674e-06,8.77121177700479e-07,2.3067714784656608e-06
237,5.198906939584557e-07,1.1202771983064628e-06,1.8966432350506793e-06,1.6539785358674042e-06,1.2052466934585668e-05,2.727839236595588e-06,6.14364211978209e-06,3.213220240948514e-05,9.513700752871049e-07,1.1766167235653664e-06,4.830381847020972e-07,1.1107091164768607e-06,2.272789066257002e-06,1.185053579570565e-06,8.596504574270698e-07,2.271592628933392e-06
238,5.354044819741194e-07,1.1460247937769712e-06,1.929084102824194e-06,1.688247776350739e-06,1.1595804969448257e-05,2.777826449621664e-06,6.265413483152635e-06,3.285833943705408e-05,9.426233265418634e-07,1.165373100939484e-06,4.786828402147241e-07,1.0886726845647491e-06,2.307470005296161e-06,1.1786835215119985e-06,8.440003709933468e-07,2.2296542634567166e-06
239,5.532085472224043e-07,1.1705076199033181e-06,1.9618637162137275e-06,1.7225196617287186e-06,1.1124137331782093e-05,2.8240854250960037e-06,6.393615772393301e-06,3.358000611624244e-05,9.33766830751654e-07,1.152234357552721e-06,4.770092702795837e-07,1.0666788386243048e-06,2.341953763923752e-06,1.1690737467941262e-06,8.306138423569571e-07,2.1815978248938605e-06
240,5.730524563481501e-07,1.1931625799058966e-06,1.994468830651588e-06,1.757638743574168e-06,1.0642103203058249e-05,2.8663231428212923e-06,6.526795787350115e-06,3.430848977306152e-05,9.24899342727085e-07,1.1380956427366875e-06,4.781435074154926e-07,1.0451900219734468e-06,2.376810833907392e-06,1.1562580613377786e-06,8.198756470242544e-07,2.1283881330587738e-06
241,5.946586429708976e-07,1.213482040421445e-06,2.026372185322221e-06,1.7948187748092433e-06,1.0154748596945928e-05,2.904187512277917e-06,6.664215585201498e-06,3.5060364512757766e-05,9.161148872867478e-07,1.1237592860710098e-06,4.821466290220517e-07,1.0245403637620307e-06,2.412778552777915e-06,1.140342522175959e-06,8.120961103932511e-07,2.0712574303000258e-06
242,6.177114210485226e-07,1.2309606960965483e-06,2.0569709157057525e-06,1.8357034393436492e-06,9.666830082409075e-06,2.9372679519002767e-06,6.805825623838563e-06,3.585427361911667e-05,9.075233840627365e-07,1.1098878237029138e-06,4.89010485229579e-07,1.0049608351668956e-06,2.450663101231962e-06,1.1215953168387078e-06,8.074761310117701e-07,2.0116140040072564e-06
243,6.418811823248728e-07,1.2451215100274782e-06,2.0855300406427645e-06,1.8823634225913781e-06,9.182103543757039e-06,2.9650486215976843e-06,6.9517368385557865e-06,3.6707583740442674e-05,8.991927984362596e-07,1.0969651597070093e-06,4.986617969980367e-07,9.866764033408338e-07,2.4912098835459033e-06,1.1004678744670711e-06,8.060725444470603e-07,1.9508655617826823e-06
244,6.668357577906554e-07,1.255593641947836e-06,2.1111233453318763e-06,1.937144654844466e-06,8.703262759542009e-06,2.9867732010517758e-06,7.101502707444231e-06,3.763369091800393e-05,8.91130523549107e-07,1.085297363807158e-06,5.109789593208714e-07,9.699383807214168e-07,2.5349867900114002e-06,1.0775427423291302e-06,8.077813826896567e-07,1.890275031646044e-06
245,6.922121752936704e-07,1.2621194549211293e-06,2.132600088645504e-06,2.002409312228628e-06,8.232439850467408e-06,3.0013384186073914e-06,7.253738421042505e-06,3.8640160073993865e-05,8.83351548414751e-07,1.0750304387923847e-06,5.258145313523517e-07,9.550185537959226e-07,2.582295096804209e-06,1.0534567144766975e-06,8.12340194432961e-07,1.830969369509905e-06
246,7.176118240341454e-07,1.2644785374303578e-06,2.148724818539818e-06,2.0803125726489607e-06,7.771685939331257e-06,3.007398788358777e-06,7.406128990116401e-06,3.9727462916564545e-05,8.759320685180607e-07,1.0661565034963341e-06,5.429952495551982e-07,9.422711656238931e-07,2.633132158044378e-06,1.0288219992915937e-06,8.193618642565118e-07,1.774026414816642e-06
247,7.426798807043418e-07,1.262465888595132e-06,2.1585681860989063e-06,2.1727037644975083e-06,7.323190984280706e-06,3.003670619539e-06,7.555590305415521e-06,4.088840820286264e-05,8.689895655984165e-07,1.0585625004764468e-06,5.623085526777652e-07,9.321677646330018e-07,2.6872131752533555e-06,1.0042105012842907e-06,8.284182075840333e-07,1.7204649800476296e-06
248,7.672266494787753e-07,1.255965259950032e-06,2.161934171894319e-06,2.2810825728124274e-06,6.889365177874176e-06,2.9892423708737415e-06,7.698562070687104e-06,4.210928356103581e-05,8.626509645423468e-07,1.0521391297790296e-06,5.835003200007796e-07,9.252044449666129e-07,2.7440322961978713e-06,9.802025094730817e-07,8.391349602277251e-07,1.6711197622124004e-06
249,7.912802973540293e-07,1.244995904571851e-06,2.1595118597196372e-06,2.4065196166849534e-06,6.4727939853984856e-06,2.9637504941567033e-06,7.831484425919488e-06,4.3373438980414125e-05,8.570305353852373e-07,1.04684228556612e-06,6.062866596426254e-07,9.217914365713172e-07,2.8029557640101688e-06,9.573891131293436e-07,8.512206395276623e-07,1.6265708284088906e-06
250,8.150210393476739e-07,1.2296865770630408e-06,2.1526738804133502e-06,2.5495642115655575e-06,6.075936181063944e-06,2.927396763953711e-06,7.951341206478216e-06,4.4666095542497114e-05,8.522031888189457e-07,1.042645174734951e-06,6.304041633952394e-07,9.222478603864254e-07,2.863365627654754e-06,9.363079433138352e-07,8.644104077639324e-07,1.587235560832924e-06
251,8.386582179734042e-07,1.2102741251264723e-06,2.1430820493627993e-06,2.7102018238285505e-06,5.700625353391962e-06,2.8808507988144623e-06,8.056079541248143e-06,4.597785838195418e-05,8.482023846749483e-07,1.0394666635184446e-06,6.556842532137636e-07,9.268662816298805e-07,2.924847376685774e-06,9.173968851371598e-07,8.784027737689809e-07,1.5534894442130795e-06
252,8.623368159291064e-07,1.1871882750394016e-06,2.1323089407637833e-06,2.8878898289219846e-06,5.347750179916726e-06,2.8251301945365525e-06,8.144766085473375e-06,4.730495373692744e-05,8.450365620247464e-07,1.0371487732895878e-06,6.820551305677215e-07,9.359355425652562e-07,2.9873440113727735e-06,9.009801674872799e-07,8.928494003598948e-07,1.5256489237952817e-06
253,8.860937821087523e-07,1.161142735253629e-06,2.1216300112713308e-06,3.0816885866453412e-06,5.017331571777978e-06,2.7615383958926565e-06,8.21744261856939e-06,4.864571154425876e-05,8.426947837939871e-07,1.0354453771172495e-06,7.094481788200117e-07,9.496968138878174e-07,3.0511707048546475e-06,8.87255763487473e-07,9.073611415631221e-07,1.503894109211503e-06
254,9.098399535108658e-07,1.1330979807568452e-06,2.1119979920747966e-06,3.290495150942894e-06,4.708754707110299e-06,2.6916550661517255e-06,8.274765666549435e-06,4.999519426817838e-05,8.411514673011344e-07,1.0339860683446518e-06,7.377076527725652e-07,9.68303481942631e-07,3.1168646509130393e-06,8.762876281662398e-07,9.215347126165587e-07,1.4882745249236154e-06
255,9.333819655229746e-07,1.1040834626430779e-06,2.1040636808176255e-06,3.513344862892973e-06,4.420931564283799e-06,2.617311211484661e-06,8.317581177856163e-06,5.134213401957385e-05,8.40361067078073e-07,1.0322797661901548e-06,7.66593170436098e-07,9.918169210594779e-07,3.184953321935214e-06,8.680011136701562e-07,9.350456957938644e-07,1.4787701642855572e-06
256,9.565121617512744e-07,1.0750202037525583e-06,2.0981908698162517e-06,3.749683968024262e-06,4.152459919713408e-06,2.5404888601026497e-06,8.34656072427008e-06,5.267051505741965e-05,8.40217086395491e-07,1.02985683671553e-06,7.958832197092971e-07,1.0202022183707118e-06,3.2557492433829872e-06,8.62184477447436e-07,9.477208031185346e-07,1.4753529091726548e-06
257,9.790965546891236e-07,1.0466466546572854e-06,2.094535616090552e-06,3.999478151573833e-06,3.9018496153950915e-06,2.463135332459427e-06,8.361915978739203e-06,5.3963507220182954e-05,8.405050679520734e-07,1.0265209034946572e-06,8.255147052130996e-07,1.053311118495279e-06,3.3292138476963854e-06,8.585363616655477e-07,9.594862450024927e-07,1.4780292562116108e-06
258,1.0010547871599923e-06,1.0195171659366963e-06,2.093131872317532e-06,4.263067072468884e-06,3.667776280094652e-06,2.3869514584113777e-06,8.363086011924187e-06,5.520648933369412e-05,8.409095207052909e-07,1.022498593742547e-06,8.556404966706741e-07,1.0908617749468658e-06,3.4048904568904454e-06,8.567863272473888e-07,9.702712604444917e-07,1.4867987030967828e-06
259,1.0222566659198242e-06,9.94019190467107e-07,2.0938435313529745e-06,4.540787201116911e-06,3.4493139096004465e-06,2.3132383564109587e-06,8.348501170219335e-06,5.638805359552708e-05,8.4110195201508e-07,1.0183286832080353e-06,8.865366916979665e-07,1.132405188220269e-06,3.4820063328959025e-06,8.568429992673472e-07,9.799753217429418e-07,1.5015175994096075e-06
260,1.0424568394183049e-06,9.703960991353144e-07,2.0962255650434844e-06,4.832515592119027e-06,3.2461223672706152e-06,2.2428529721277294e-06,8.316011018209267e-06,5.7498922952769154e-05,8.408591272135537e-07,1.0146206788081152e-06,9.184551643257419e-07,1.1772860551158869e-06,3.5598150369865064e-06,8.588567520613062e-07,9.884758456582967e-07,1.5217729138260558e-06
261,1.0613576201159373e-06,9.48789144173685e-07,2.099473553516029e-06,5.137379998894057e-06,3.0585642322139238e-06,2.1763018993651458e-06,8.264225474008206e-06,5.852882325596131e-05,8.400927076586067e-07,1.0119118186943323e-06,9.515378093890255e-07,1.2246321928636877e-06,3.6379688893263633e-06,8.631260376063763e-07,9.95683519573404e-07,1.5468605909250383e-06
262,1.0787782347597144e-06,9.292847247890938e-07,2.10254767413128e-06,5.453757040892972e-06,2.887698233807023e-06,2.113940934392337e-06,8.193843362277234e-06,5.946200360433137e-05,8.387740483619821e-07,1.010643420551529e-06,9.857735736632362e-07,1.2734042202296692e-06,3.7167031571731385e-06,8.699258807236356e-07,1.0016572399445778e-06,1.5758568367838057e-06
263,1.0947748313032695e-06,9.119223555244973e-07,2.1043410145182154e-06,5.779437386583126e-06,2.7350906402011235e-06,2.0561329242996876e-06,8.107884068764283e-06,6.027348270457489e-05,8.369023487471404e-07,1.011144988756282e-06,1.0209708437091485e-06,1.3224811462007098e-06,3.7968867350593777e-06,8.794076548880238e-07,1.0066391684194067e-06,1.6076965334979587e-06
264,1.1095911457623835e-06,8.966901372824831e-07,2.1036971824180243e-06,6.111843899161552e-06,2.602460450929165e-06,2.0032492075822623e-06,8.010880214544465e-06,6.0928691153553264e-05,8.345591710504927e-07,1.0136249727811504e-06,1.0567840600827725e-06,1.3707304178231275e-06,3.880034073464221e-06,8.916122457501491e-07,1.0109926286726321e-06,1.6412376454113716e-06
265,1.123512708261739e-06,8.8354087014852e-07,2.099369799318945e-06,6.448295977392723e-06,2.491291950435637e-06,1.9555767694153933e-06,7.907806428263846e-06,6.13874256567045e-05,8.319095739308379e-07,1.0182324644514502e-06,1.0928150889481969e-06,1.4171079963498673e-06,3.968268350293858e-06,9.065073086731433e-07,1.0151809568786599e-06,1.6753726388938357e-06
266,1.1367767067266912e-06,8.723771967953049e-07,2.0901633697452474e-06,6.786231787020927e-06,2.402574965584754e-06,1.9132677126327494e-06,7.80327693963309e-06,6.161073610021304e-05,8.29132833719032e-07,1.0251373498118555e-06,1.1287365368646833e-06,1.4608253544775753e-06,4.06423751399251e-06,9.239810370338996e-07,1.0197419295670597e-06,1.7091343342598959e-06
267,1.1495854554527934e-06,8.630045928622233e-07,2.0752020204640836e-06,7.123243174850094e-06,2.3367202454284865e-06,1.8763424068126786e-06,7.70111332950862e-06,6.156871308465186e-05,8.26398490639477e-07,1.0345206431947986e-06,1.1643230927119423e-06,1.5014857680764818e-06,4.171007880165575e-06,9.438184334912711e-07,1.02516768098007e-06,1.7416659454844391e-06
268,1.1621397357999226e-06,8.551091877936498e-07,2.0541072326647205e-06,7.456857795327032e-06,2.293595439336351e-06,1.844670211663882e-06,7.604128364822519e-06,6.124694581205528e-05,8.238736292484227e-07,1.046488335543276e-06,1.1993497089313117e-06,1.539103123350451e-06,4.291916097408487e-06,9.656837681337708e-07,1.0317730933869163e-06,1.7721605962081418e-06
269,1.1746011485988664e-06,8.482613775451764e-07,2.026985988925102e-06,7.784128457297596e-06,2.2726389111592615e-06,1.8180083538203475e-06,7.513947836254005e-06,6.064887160189646e-05,8.217015867874427e-07,1.061038468154577e-06,1.233472026779505e-06,1.574001807454881e-06,4.430339358088613e-06,9.89104070389249e-07,1.039646965022694e-06,1.8000090792918278e-06
270,1.1870080559598689e-06,8.41948580847139e-07,1.9942396445475697e-06,8.10138891260405e-06,2.2730102357550863e-06,1.7961981095863595e-06,7.430877867368941e-06,5.979203035323336e-05,8.199904190854972e-07,1.0781390040368035e-06,1.2662005749041918e-06,1.6066272758026886e-06,4.5893882895141226e-06,1.013474900587765e-06,1.048695150606206e-06,1.8251024146930508e-06
271,1.1992474930659827e-06,8.356612802306179e-07,1.9563076060411824e-06,8.40468061518043e-06,2.2936874157464443e-06,1.7793231799008737e-06,7.353871571587905e-06,5.869948567067282e-05,8.188186258587665e-07,1.097801591033218e-06,1.2969510209328234e-06,1.6373372071441654e-06,4.7715956069763085e-06,1.0380852989111708e-06,1.0587201847430079e-06,1.8480064992300528e-06
272,1.2111248629437829e-06,8.28987968231129e-07,1.9135290343995294e-06,8.690774742151929e-06,2.3334547827981433e-06,1.7676065521596192e-06,7.280611072020853e-06,5.739183525232893e-05,8.1822421268479e-07,1.1200518784690536e-06,1.3251164627150318e-06,1.666265908424207e-06,4.978706101981332e-06,1.0621148604317177e-06,1.0694482663696099e-06,1.8698826982568782e-06
273,1.2224761035653674e-06,8.216506019267046e-07,1.8661970120076773e-06,8.958051084372478e-06,2.3908481570331623e-06,1.7611450557497076e-06,7.207926176670995e-06,5.5885515823976094e-05,8.181917673912147e-07,1.1448536464416949e-06,1.3501258980851502e-06,1.6932891559419003e-06,5.211623553473494e-06,1.0846226455507803e-06,1.0805146849677927e-06,1.8922509166581214e-06
274,1.2332493760655592e-06,8.134953330459022e-07,1.8146978254254712e-06,9.206646416741742e-06,2.464183312376574e-06,1.7597144229067876e-06,7.132673965314132e-06,5.4197316681396556e-05,8.186467513508134e-07,1.1720594174479504e-06,1.3714356994588146e-06,1.7180347960979785e-06,5.470465069187484e-06,1.104605627960851e-06,1.0915140142222653e-06,1.9167193139146133e-06
275,1.2435135352077013e-06,8.045004943003035e-07,1.759616141704221e-06,9.437830502672326e-06,2.5516914741869243e-06,1.7627253770267175e-06,7.052631567756605e-06,5.2350014913251954e-05,8.194706611108732e-07,1.2013961025879439e-06,1.3884407852636495e-06,1.7399155781753706e-06,5.754597091934131e-06,1.121158375592804e-06,1.1021164264683716e-06,1.9447420284570253e-06
276,1.2533891268848583e-06,7.948027641341695e-07,1.7018081459705513e-06,9.652912257023704e-06,2.651633315947789e-06,1.7693051259748335e-06,6.966890130326077e-06,5.037548075084036e-05,8.20567339324318e-07,1.2324658346619408e-06,1.4004051434623973e-06,1.758241010944045e-06,6.062539529258391e-06,1.1336941638636354e-06,1.112120733103527e-06,1.9774717938433994e-06
277,1.2629502941833364e-06,7.846860158526231e-07,1.6424382933188084e-06,9.852232400268294e-06,2.762276168950739e-06,1.7785084523634074e-06,6.875748898042716e-06,4.831496831658798e-05,8.219308026601507e-07,1.2647440847055157e-06,1.4065413767891064e-06,1.7724307762059347e-06,6.39176763573805e-06,1.1420868487506901e-06,1.121376741193221e-06,2.0157343796277564e-06
278,1.2721616959453107e-06,7.745139314122434e-07,1.5828906521421617e-06,1.003482826226143e-05,2.881780999216142e-06,1.7896014087130832e-06,6.780346549959506e-06,4.621722595280658e-05,8.236339184680215e-07,1.2976141013760903e-06,1.4062193621742767e-06,1.7822504626740198e-06,6.738622727069686e-06,1.1465824817395606e-06,1.1296917013146228e-06,2.0600324175727276e-06
279,1.2808521741797597e-06,7.646543286529533e-07,1.5245753536275947e-06,1.0198833132801114e-05,3.008125485945056e-06,1.8022333262424618e-06,6.682144994991614e-06,4.41349742900031e-05,8.257412642644526e-07,1.3304558930172382e-06,1.399148589724089e-06,1.7879523790176202e-06,7.0984833137479375e-06,1.1475531616346835e-06,1.1368535745866953e-06,2.1105263451621506e-06
280,1.2886806453705592e-06,7.554490233501565e-07,1.468798977751589e-06,1.0342149843793681e-05,3.1391262297569395e-06,1.8163905723957317e-06,6.582303393796584e-06,4.212062141932885e-05,8.282362409826238e-07,1.3627178479039577e-06,1.3854717160258483e-06,1.7902368440319033e-06,7.466125734273498e-06,1.1453326494670883e-06,1.1427084450495941e-06,2.167038529411931e-06
281,1.2951033554302966e-06,7.472155408347714e-07,1.4167479245438361e-06,1.0463029262472385e-05,3.2725630603793006e-06,1.8322522287910142e-06,6.481077817478018e-06,4.0222407652442986e-05,8.310578333317737e-07,1.393930383231169e-06,1.365804491725064e-06,1.790048136945675e-06,7.836172595037628e-06,1.1402326800446531e-06,1.1471616624042328e-06,2.2290741719715087e-06
282,1.2993972448105419e-06,7.40231693740665e-07,1.369474715523261e-06,1.0560441046312926e-05,3.4063942649995235e-06,1.8501382662224624e-06,6.377496297534153e-06,3.8482071683179e-05,8.342199102853633e-07,1.423697263387735e-06,1.3411633856860215e-06,1.7883338060805466e-06,8.203564747372538e-06,1.1326338979832456e-06,1.150127514398627e-06,2.295878753337724e-06
283,1.3007629745100176e-06,7.347219971167978e-07,1.3278455479494432e-06,1.0634129959312333e-05,3.538988903021323e-06,1.870570538401144e-06,6.2694889024921774e-06,3.693449039886236e-05,8.378703072531836e-07,1.4516798530176027e-06,1.312732451834315e-06,1.7858762217141976e-06,8.563933045083416e-06,1.1230250081557524e-06,1.1515318605340412e-06,2.366664219822344e-06
284,1.2985016980193671e-06,7.308749192311319e-07,1.292506903722416e-06,1.0684289937531172e-05,3.669232475187104e-06,1.8942808280518119e-06,6.154465205550392e-06,3.560877733119237e-05,8.422139143797378e-07,1.4775347254927196e-06,1.2816148781147508e-06,1.783207943211145e-06,8.91382027806765e-06,1.1119767251182855e-06,1.1513668112385506e-06,2.440978251757321e-06
285,1.2922145106282443e-06,7.288381360244285e-07,1.2639078929371068e-06,1.0710991293323383e-05,3.7964434443186917e-06,1.922044231180276e-06,6.030202940369798e-06,3.452973985157189e-05,8.473902462816788e-07,1.5008159557594568e-06,1.2487112909203122e-06,1.780636212868809e-06,9.250886987732306e-06,1.1001048525515443e-06,1.1497220144868898e-06,2.51892281853784e-06
286,1.2819100641529952e-06,7.286690058696031e-07,1.2423635970296696e-06,1.0713532207568626e-05,3.920203382114631e-06,1.954447032246205e-06,5.895758041171627e-06,3.371880268828827e-05,8.534264703909638e-07,1.5209793037778159e-06,1.2146907258212746e-06,1.7783965529585e-06,9.574173608316767e-06,1.0880523702800662e-06,1.146782092138366e-06,2.601032044930318e-06
287,1.267933047784344e-06,7.302916298292529e-07,1.2281208652159592e-06,1.0689872567164916e-05,4.040205716263919e-06,1.991817890812786e-06,5.75196815338949e-06,3.3193982889341814e-05,8.602716368603293e-07,1.5375648540331432e-06,1.1800196665210745e-06,1.7768008822707654e-06,9.884212035473086e-06,1.0764989896031262e-06,1.1428074596211425e-06,2.6879934653194664e-06
288,1.250758910353517e-06,7.334804486173381e-07,1.2213901559492502e-06,1.0636684398758702e-05,4.156062686831753e-06,2.034375404932771e-06,5.601324818015371e-06,3.296889781305068e-05,8.678479078231259e-07,1.5503843662019244e-06,1.1450747820307063e-06,1.7762147219919918e-06,1.0182748339201977e-05,1.066171548745083e-06,1.1380735206609557e-06,2.7804978716059033e-06
289,1.2308274238078452e-06,7.378585797623717e-07,1.2223269785121116e-06,1.055044653305461e-05,4.2670101712480304e-06,2.082391979814254e-06,5.4474156366589824e-06,3.305152493681488e-05,8.760565650426505e-07,1.5594919302443402e-06,1.1102696376668625e-06,1.7769044664319353e-06,1.047212838816739e-05,1.0578051380515496e-06,1.1328071080123897e-06,2.879198680132868e-06
290,1.2085302217366472e-06,7.429157548881026e-07,1.2309717399632974e-06,1.0428943215680022e-05,4.371708624989866e-06,2.136197936716174e-06,5.294257887981618e-06,3.34439910730531e-05,8.847196186648679e-07,1.5649863557928377e-06,1.0760681152996727e-06,1.778908616788838e-06,1.0754573748278299e-05,1.0520716144501703e-06,1.127190049227226e-06,2.9845962853666773e-06
291,1.1842586676361255e-06,7.480656354512718e-07,1.247178168910273e-06,1.0272114144511088e-05,4.46835791965073e-06,2.1960821822429252e-06,5.145665399182725e-06,3.4143650808149296e-05,8.935165642138735e-07,1.5668900028545194e-06,1.042888121375363e-06,1.782018493165787e-06,1.103149746374482e-05,1.0495220460592188e-06,1.1213828286094382e-06,3.096925536593503e-06
292,1.1583812034896584e-06,7.527650365741783e-07,1.2705667827598474e-06,1.0081933165932786e-05,4.555019803310309e-06,2.262232378296312e-06,5.0047523821450605e-06,3.5144033191509465e-05,9.019892589313939e-07,1.5651958666731529e-06,1.0110162469801177e-06,1.78592890577141e-06,1.1302898905677762e-05,1.0505535688760968e-06,1.1155264973755291e-06,3.216261179728537e-06
293,1.1311945715812657e-06,7.566702171208243e-07,1.3005115777433507e-06,9.861579953641095e-06,4.629930911519342e-06,2.3347463672930035e-06,4.873710343771035e-06,3.643429940217119e-05,9.09639027132902e-07,1.5599551430874408e-06,9.806099046619316e-07,1.7905207820386965e-06,1.1566977742369169e-05,1.055400528761155e-06,1.1097673237149063e-06,3.342798368727662e-06
294,1.1029606420776876e-06,7.597354259444391e-07,1.336134825614647e-06,9.614279034165018e-06,4.691722043229183e-06,2.4136206826389097e-06,4.753806466119845e-06,3.799758805355822e-05,9.160995561472327e-07,1.5512939792774123e-06,9.517605179390625e-07,1.7960122175409487e-06,1.1820344521360268e-05,1.0641395932942985e-06,1.104292185083423e-06,3.4771157214613393e-06
295,1.074002532027791e-06,7.621839919604277e-07,1.376302869844427e-06,9.342325996878533e-06,4.739521330849967e-06,2.4986458837282008e-06,4.645419612138241e-06,3.9809690435941334e-05,9.212993693579217e-07,1.5393483972420038e-06,9.245427108998066e-07,1.80281853264526e-06,1.2058958343671881e-05,1.0767144553981527e-06,1.0993105374787682e-06,3.6203305928120893e-06
296,1.0447443370189783e-06,7.643923218170681e-07,1.4196259596746268e-06,9.046878721608016e-06,4.7729672864521e-06,2.589335143677918e-06,4.548099978877834e-06,4.1838485832518064e-05,9.254731382630998e-07,1.5241751680445453e-06,8.99021852555288e-07,1.8113508170056674e-06,1.2279260662979061e-05,1.0929974216106108e-06,1.0949754502570406e-06,3.7741015997728824e-06
297,1.0156779736860259e-06,7.667758250588775e-07,1.4644550197902058e-06,8.728563395019648e-06,4.792213763165556e-06,2.6850389623186536e-06,4.4607768615065625e-06,4.4043386242789134e-05,9.289951344805045e-07,1.5057555696689e-06,8.752681558718486e-07,1.8219591344303491e-06,1.2478887983379185e-05,1.112850911612898e-06,1.0913185892782285e-06,3.94045730231187e-06
298,9.873288042132038e-07,7.697083378767545e-07,1.5089422476390645e-06,8.38831868946466e-06,4.797953733094839e-06,2.7851494406129973e-06,4.382120152363666e-06,4.637488168112922e-05,9.321849804673206e-07,1.4841275372834142e-06,8.53396409266445e-07,1.8348929494036137e-06,1.2656884534392612e-05,1.1361506152841047e-06,1.0883033265851924e-06,4.121558353460757e-06
299,9.602275676818483e-07,7.734567740387317e-07,1.5512837756138333e-06,8.027979562277287e-06,4.791395008850886e-06,2.8892037057832882e-06,4.310922919267687e-06,4.8775217439537966e-05,9.352098057690808e-07,1.4595105736613302e-06,8.335679945595816e-07,1.8501710946750508e-06,1.2813673028604508e-05,1.1627930496945187e-06,1.0859676976912853e-06,4.3195691966105496e-06
300,9.348456072810977e-07,7.781295504936342e-07,1.5901186383527431e-06,7.650511616608973e-06,4.774144359950983e-06,2.9968453434886403e-06,4.2463976938856565e-06,5.11805663705674e-05,9.380858355149736e-07,1.4322920434034713e-06,8.159215840827529e-07,1.8674713150929084e-06,1.2950944736049592e-05,1.1926941595718096e-06,1.0844739698394563e-06,4.536712445077192e-06
301,9.115255517659818e-07,7.836529542126942e-07,1.6248542014976199e-06,7.259949348621858e-06,4.748052645102365e-06,3.1077428404867283e-06,4.188339663289657e-06,5.352441263431868e-05,9.407708579798574e-07,1.4029170008876969e-06,8.004883211158534e-07,1.8861235862307759e-06,1.3071477834807925e-05,1.2257404090706537e-06,1.0840034615820369e-06,4.7754086797551696e-06
302,8.904890975059504e-07,7.897811048728967e-07,1.6556812391820203e-06,6.861080288474177e-06,4.715079957319966e-06,3.2215903341973295e-06,4.137098302198711e-06,5.574176970929592e-05,9.433066876475702e-07,1.3718041353884061e-06,7.871498740475e-07,1.905146431228346e-06,1.3178913541189508e-05,1.2616952899213246e-06,1.0846520913889238e-06,5.038315243733358e-06
303,8.71928316924926e-07,7.961443482173225e-07,1.6832723417414215e-06,6.458975814465415e-06,4.6771663999605596e-06,3.338196717059654e-06,4.093334779698613e-06,5.777354817458814e-05,9.458842257697548e-07,1.339310278465645e-06,7.756483269021228e-07,1.923287783746832e-06,1.327755150666723e-05,1.3001272800885928e-06,1.0864259606456926e-06,5.328165626206261e-06
304,8.560826584681195e-07,8.02329621860737e-07,1.7083993288497516e-06,6.058550367497921e-06,4.636081825268757e-06,3.457524527426271e-06,4.057709579690653e-06,5.9570286340278434e-05,9.487765404532041e-07,1.3056995650697494e-06,7.656201555981969e-07,1.939151823387168e-06,1.3372144459379805e-05,1.3404281157047432e-06,1.0892633253542052e-06,5.647497070205282e-06
305,8.432076300416957e-07,8.079652578831385e-07,1.7317020675534925e-06,5.664257587536983e-06,4.593261488675264e-06,3.579563510372504e-06,4.030768837392477e-06,6.109469244546493e-05,9.522611128483577e-07,1.271128863258856e-06,7.566232803314453e-07,1.9514202356414516e-06,1.3467622537985309e-05,1.381930499195791e-06,1.093006708744652e-06,5.998395889736945e-06
306,8.334771829300888e-07,8.127781387610895e-07,1.7536282983629754e-06,5.279853354579209e-06,4.54961318345123e-06,3.7040780429854115e-06,4.013157159036817e-06,6.232205406632384e-05,9.56624042225703e-07,1.2356620208907972e-06,7.481691304732382e-07,1.9589977457471004e-06,1.3568724450911821e-05,1.4240430084254693e-06,1.097351476890559e-06,6.382259098230253e-06
307,8.269358012028311e-07,8.165894347743569e-07,1.7744255619790106e-06,4.9081723813582834e-06,4.5053128541065255e-06,3.8303438101288065e-06,4.005951967594062e-06,6.323658028024348e-05,9.621752503225572e-07,1.1993169776075566e-06,7.397707089284909e-07,1.9609774782741547e-06,1.3679511470770766e-05,1.4663182403418622e-06,1.1018599993189253e-06,6.799521946766267e-06
308,8.2351525137994e-07,8.192525238207897e-07,1.7941052742455972e-06,4.5510497196268905e-06,4.459747349199314e-06,3.956962884222624e-06,4.0107381240906285e-06,6.382392080372319e-05,9.692090735083131e-07,1.1621845704546697e-06,7.309732328717455e-07,1.9565527628621834e-06,1.3802691891467059e-05,1.5084730761939142e-06,1.106064647024928e-06,7.249392919445063e-06
309,8.230557754301108e-07,8.206060074607137e-07,1.8123884380943326e-06,4.209507845957085e-06,4.411722110955403e-06,4.081863891246827e-06,4.029276124352516e-06,6.406607908948785e-05,9.77955888841496e-07,1.1245375156582693e-06,7.21387184182241e-07,1.9449958637279663e-06,1.3938815574238694e-05,1.5504148189522177e-06,1.109535399959917e-06,7.729650561528227e-06
310,8.253119626860717e-07,8.204820210854535e-07,1.8287152363515252e-06,3.884142055939827e-06,4.359791311392734e-06,4.202559450355288e-06,4.063063926085948e-06,6.394442478688885e-05,9.885857017765607e-07,1.086789180469253e-06,7.107958438884017e-07,1.9256519287066785e-06,1.4085664133853997e-05,1.59223487770021e-06,1.1118132156393264e-06,8.236488160064447e-06
311,8.299449966558423e-07,8.187290511116251e-07,1.8423799628097062e-06,3.5755451505530075e-06,4.302494546370331e-06,4.316554684319601e-06,4.113179257330158e-06,6.34476371688292e-05,1.0012436571519472e-06,1.049395572964333e-06,6.9926230601811e-07,1.8980055537647998e-06,1.4238102962729966e-05,1.634102733941626e-06,1.112319344759082e-06,8.76442807380881e-06
312,8.365061062172282e-07,8.152267956553186e-07,1.8527207561964074e-06,3.2846121110917877e-06,4.238470592637461e-06,4.421715857361321e-06,4.18038445507598e-06,6.2577883645501e-05,1.0160411693220585e-06,1.0128494233888107e-06,6.870709822202028e-07,1.8619697105016577e-06,1.4388386059697118e-05,1.6761437428960831e-06,1.1104090047912425e-06,9.306323836856511e-06
313,8.44441317037261e-07,8.098967045212923e-07,1.8592495845577765e-06,3.0126146729928137e-06,4.1665835926249585e-06,4.516467982623395e-06,4.265187613843815e-06,6.135270936353966e-05,1.0329872239958389e-06,9.77690519966095e-07,6.745511097577245e-07,1.818193414126011e-06,1.4526963902125863e-05,1.7184149660779368e-06,1.1055640268077145e-06,9.853332233117504e-06
314,8.531656655204756e-07,8.026988530114424e-07,1.8617005147775005e-06,2.7610650339510615e-06,4.086221813746768e-06,4.599698436620597e-06,4.367696556870388e-06,5.980328320513428e-05,1.0519427706673065e-06,9.444543146645692e-07,6.619640234234418e-07,1.7680161138973276e-06,1.4643840454684259e-05,1.7609338996509473e-06,1.0975905983037558e-06,1.0394757619206587e-05
315,8.622106992110936e-07,7.936491422393406e-07,1.860035720831893e-06,2.5315038178589948e-06,3.997818119916266e-06,4.6703547511373295e-06,4.487344333667681e-06,5.797027120449192e-05,1.07268747031877e-06,9.136175201375567e-07,6.494958220501553e-07,1.7131159669122349e-06,1.4730066709899465e-05,1.8037302129094954e-06,1.0866854163011606e-06,1.0917829673375183e-05
316,8.713165651595955e-07,7.829045052826326e-07,1.8544337726785036e-06,2.3253571139499686e-06,3.903410015110143e-06,4.7270860185395895e-06,4.622662541738336e-06,5.5898631520431515e-05,1.0950585233371603e-06,8.85561584793397e-07,6.372883105991112e-07,1.6552205947762483e-06,1.4778756874097164e-05,1.8469503903371186e-06,1.0733113801595047e-06,1.1407642068933295e-05
317,8.803456957776347e-07,7.708375965653788e-07,1.8452554491933876e-06,2.1439217827826398e-06,3.8068931280446344e-06,4.768312264953832e-06,4.771212114499091e-06,5.363219979299994e-05,1.118987871591598e-06,8.605459526211375e-07,6.254683642702984e-07,1.596002492133099e-06,1.4785378660727655e-05,1.8909232361606686e-06,1.0580206653909374e-06,1.184780616612425e-05
318,8.89109193830696e-07,7.579818194593377e-07,1.8329645449706178e-06,1.988433700984161e-06,3.713766454423439e-06,4.792604848557918e-06,4.9296287860019035e-06,5.12093078663782e-05,1.1443916625618734e-06,8.387272616803618e-07,6.141722546581266e-07,1.5370022924267482e-06,1.4747463746220556e-05,1.936079181165801e-06,1.0413716308146762e-06,1.2222328576920774e-05
319,8.972795239134839e-07,7.449175634691431e-07,1.8179989539434381e-06,1.860140884878736e-06,3.630495259309669e-06,4.799021423303229e-06,5.09372584481574e-06,4.866222443690994e-05,1.1710930961876773e-06,8.201994558652667e-07,6.03554506334213e-07,1.4795554885056364e-06,1.4664038127646735e-05,1.9827883948148363e-06,1.023880352961851e-06,1.251815330894253e-05
320,9.044366696483762e-07,7.322274089131433e-07,1.8006562605159448e-06,1.7603309992180403e-06,3.563787384495062e-06,4.787267189688264e-06,5.258745093894632e-06,4.6021430290692216e-05,1.1988588251940132e-06,8.049832334487268e-07,5.937824836138288e-07,1.4247938801579663e-06,1.4535088966682173e-05,2.031240281710292e-06,1.005979062288992e-06,1.2726854646944594e-05
321,9.101951601146937e-07,7.204745240784778e-07,1.7810806912501967e-06,1.6902795453835934e-06,3.5200574169662686e-06,4.757725683064947e-06,5.4198387973512715e-06,4.332074118055782e-05,1.227413579856012e-06,7.929990656895943e-07,5.850340830879842e-07,1.3736616360229002e-06,1.4361339114505147e-05,2.0813739086552354e-06,9.880293602166948e-07,1.2844553911660784e-05
322,9.143322978586679e-07,7.101420389370056e-07,1.759327603618893e-06,1.6511398305110125e-06,3.5052463823426204e-06,4.711398279446407e-06,5.572611688921854e-06,4.059856439622828e-05,1.256373742510278e-06,7.841215838119766e-07,5.774846673744533e-07,1.3268975196917243e-06,1.4144419025285673e-05,2.132835466429624e-06,9.703320105443706e-07,1.2870454981284792e-05
323,9.168280015945614e-07,7.015863977210594e-07,1.7353815195122655e-06,1.643890470658011e-06,3.5249214639556505e-06,4.649724205185043e-06,5.713437473315654e-06,3.789475195341308e-05,1.2851916748245936e-06,7.783019701735919e-07,5.712670857725247e-07,1.285025139360602e-06,1.3887145016581296e-05,2.184969579478172e-06,9.530862864406809e-07,1.2804880141159557e-05
324,9.177808904587492e-07,6.950418797642522e-07,1.709107644411168e-06,1.6694072333020637e-06,3.5843839313956133e-06,4.57421600034225e-06,5.8394879776285066e-06,3.524623241530228e-05,1.313186215814776e-06,7.756313986987019e-07,5.664311628891711e-07,1.2483700339383673e-06,1.3593251998518308e-05,2.236796449051942e-06,9.3636894612612e-07,1.2647672257536264e-05
325,9.172837220933679e-07,6.906388620693907e-07,1.6802815740260798e-06,1.7285626544653952e-06,3.688649479328109e-06,4.486013792534981e-06,5.948600536735394e-06,3.2684916373987726e-05,1.339617707752996e-06,7.762790578655186e-07,5.629429283876602e-07,1.2170875263706013e-06,1.326636818721174e-05,2.2869784694867822e-06,9.201966490933912e-07,1.239811454370186e-05
326,9.153737769920577e-07,6.884026600219345e-07,1.6487617784977096e-06,1.8222241751421205e-06,3.842391344059732e-06,4.385703875706764e-06,6.0389696670347905e-06,3.023802971782282e-05,1.3637045711877086e-06,7.803840638053858e-07,5.607263205884535e-07,1.1911681601800507e-06,1.2909311646051279e-05,2.3339418253485627e-06,9.046260497356091e-07,1.2056810883841306e-05
327,9.120584052168772e-07,6.882469589529395e-07,1.6146803322560913e-06,1.9511507627176207e-06,4.04991308126175e-06,4.273591761293317e-06,6.108707647239227e-06,2.7928447703327916e-05,1.384628218808776e-06,7.880008710285995e-07,5.597042763886659e-07,1.1704122517011333e-06,1.2524727430409075e-05,2.376248527399852e-06,8.898093181124746e-07,1.1628069974208026e-05
328,9.073387796549846e-07,6.899791889868505e-07,1.5785507536143905e-06,2.1158932456071315e-06,4.315078403510547e-06,4.150185476075e-06,6.155827158929059e-06,2.5774358527860206e-05,1.401648141556876e-06,7.990885234333995e-07,5.598160888176738e-07,1.1544124167398082e-06,1.2116292120289269e-05,2.4130302997589347e-06,8.759892005446829e-07,1.112084978035524e-05
329,9.012249353231585e-07,6.933232633449366e-07,1.5412863019655017e-06,2.3167294241591666e-06,4.641131442969713e-06,4.0165491161444575e-06,6.179036525421102e-06,2.3789529898714814e-05,1.4142581154837102e-06,8.135033418336052e-07,5.610466378340015e-07,1.1425562159181223e-06,1.168932928631185e-05,2.4441624763177094e-06,8.634538490055035e-07,1.054782483337704e-05
330,8.937884592538265e-07,6.979772315208125e-07,1.5041007257921381e-06,2.553567948301372e-06,5.030485032663974e-06,3.874414300941915e-06,6.1787442162022165e-06,2.1984181143924203e-05,1.422260838670688e-06,8.310300999033011e-07,5.634747703664817e-07,1.1340325249832523e-06,1.1250957770703891e-05,2.470053405434594e-06,8.524716848482432e-07,9.92358767323494e-06
