,EMG1,EMG2,EMG3,EMG4,EMG5,EMG6,EMG7,EMG8,EMG9,EMG10,EMG11,EMG12,EMG13,EMG14,EMG15,EMG16
0,9.413281650556205e-08,1.8071290219990467e-07,3.991501929764033e-07,-7.1592214160891e-08,2.0657487100702957e-07,2.0523780453107092e-07,4.5012574327426837e-08,-7.799477307821551e-08,6.071505151158176e-07,6.046215665128955e-09,-1.8824819154765638e-08,1.3258163836382983e-05,3.3618737271895123e-07,1.7403745072886966e-08,1.389099017787341e-07,3.4995832787725965e-07
1,1.4777213364202979e-07,2.4896419722860107e-07,5.014602246121721e-07,-1.6719636037686322e-08,2.3496818054974641e-07,2.630973042217109e-07,1.8763366989817996e-07,7.392854739891337e-08,1.5587693755773152e-06,1.1162699862922461e-07,9.865591259591648e-08,1.750649459168595e-05,3.856833773126856e-07,9.592603030550469e-08,1.7195528736927186e-07,6.694337336721582e-07
2,2.005010391720714e-07,3.1609868309987145e-07,6.014009330050886e-07,4.298583749361405e-08,2.6521050828920793e-07,3.2086438042924653e-07,3.2701103292118465e-07,2.2097201673738028e-07,2.4991726678881668e-06,2.1548307582449293e-07,2.127732021009849e-07,2.1597326014424912e-05,4.377574643576274e-07,1.7246930256445123e-07,2.0689212055644756e-07,9.753090987509432e-07
3,2.515663828754401e-07,3.810002540433286e-07,6.976042333140628e-07,1.076618529060085e-07,2.9694883728148036e-07,3.77596681837359e-07,4.6070803800462785e-07,3.609684309166529e-07,3.421229830185524e-06,3.164062028426955e-07,3.2262730682315175e-07,2.5511490133493447e-05,4.92007093657196e-07,2.461797025634745e-07,2.433721235724561e-07,1.2639714361725332e-06
4,3.004983197812299e-07,4.426980229432509e-07,7.886910743190691e-07,1.7767375938426005e-07,3.2982791949678287e-07,4.3245810641074015e-07,5.866807045157021e-07,4.918573564760588e-07,4.317824043179687e-06,4.132877923393342e-07,4.274123162961326e-07,2.9228324150405965e-05,5.4822766812085e-07,3.163097802994407e-07,2.8106757901549813e-07,1.5323458286103604e-06
5,3.4699255699222124e-07,5.004490417254236e-07,8.733075146104693e-07,2.535536295249984e-07,3.63522275423215e-07,4.847628881420679e-07,7.033650675897211e-07,6.117559198338663e-07,5.181674473093257e-06,5.051934265865603e-07,5.264074535307593e-07,3.272574951007343e-05,6.063733437964485e-07,3.8221086735872004e-07,3.196918091364501e-07,1.7777237030294984e-06
6,3.9079015456571626e-07,5.537654010023338e-07,9.501727225716268e-07,3.359035667167606e-07,3.9776126312859523e-07,5.340705266858449e-07,8.097012360321538e-07,7.191213607020294e-07,6.00584474470726e-06,5.91374542324363e-07,6.189498322776855e-07,3.5978881518239575e-05,6.664226843257137e-07,4.43356306193913e-07,3.5903933247100514e-07,1.9976678143193775e-06
7,4.31649689836759e-07,6.024075913134494e-07,1.0182153764826793e-06,4.253363924776442e-07,4.3232626716968136e-07,5.802408599290025e-07,9.051202378665763e-07,8.129852794146235e-07,6.7849016450619e-06,6.712362532696942e-07,7.044034316161933e-07,3.8957798893295925e-05,7.282981776570154e-07,4.993334154499339e-07,3.9900663024915345e-07,2.190182210014595e-06
8,4.693543082813488e-07,6.463492658695285e-07,1.0767612156370251e-06,5.224484134039423e-07,4.670112607776049e-07,6.233281432070682e-07,9.894640053267607e-07,8.931326820700842e-07,7.516071113389088e-06,7.443461945624543e-07,7.822047722366489e-07,4.1626065196901715e-05,7.918940768140932e-07,5.498512359413412e-07,4.3957798336301e-07,2.35399830911612e-06
9,5.03702139702448e-07,6.856901293425339e-07,1.1255816719883652e-06,6.277981778948253e-07,5.015677365304423e-07,6.634083413739506e-07,1.0628459835137291e-06,9.600989082265722e-07,8.199724900056701e-06,8.104544446700188e-07,8.520161065823289e-07,4.394206597181079e-05,8.571278463212183e-07,5.948181986124427e-07,4.807859566054442e-07,2.4887401309129737e-06
10,5.345032721998504e-07,7.2056829114546e-07,1.1647646990376663e-06,7.418994446463139e-07,5.356669956259148e-07,7.00507249761312e-07,1.1255356694351833e-06,1.0149731029139793e-06,8.838920930142618e-06,8.694533229181979e-07,9.138310566127664e-07,4.58654365813724e-05,9.239300658228396e-07,6.343748602710634e-07,5.226497159048869e-07,2.5949230861419822e-06
11,5.616086938807069e-07,7.511352556301079e-07,1.1945785553338555e-06,8.652533022961216e-07,5.689000535110672e-07,7.346211359598908e-07,1.1779310223063804e-06,1.0591086328575168e-06,9.43833693820744e-06,9.21280035357262e-07,9.679105531156398e-07,4.7367131678760705e-05,9.921919251210328e-07,6.68802803262622e-07,5.651141572072293e-07,2.67387357378923e-06
12,5.849636316605934e-07,7.775513577958199e-07,1.215417773475125e-06,9.984162333874964e-07,6.008192335482855e-07,7.657245161132903e-07,1.220590359779574e-06,1.0938760697764062e-06,1.0003571850787115e-05,9.658166501039902e-07,1.0146495018224289e-06,4.843625343681123e-05,1.061723935087239e-06,6.983894092023375e-07,6.080217785737828e-07,2.7275855060895395e-06
13,6.046502249246007e-07,7.999822083847179e-07,1.22775088710403e-06,1.1420672713537534e-06,6.310038422528066e-07,7.937523203062906e-07,1.2542456960221494e-06,1.1205553984587976e-06,1.0541331023601257e-05,1.0028577955521652e-06,1.0545078237351707e-06,4.907770188246554e-05,1.1322249575727564e-06,7.233406470495734e-07,6.511198998100394e-07,2.7584349170278547e-06
14,6.208695230942631e-07,8.186470949057454e-07,1.232047091015512e-06,1.2970332922594651e-06,6.591100509067636e-07,8.186335928345747e-07,1.2797708504315118e-06,1.1403675619902295e-06,1.10595779599695e-05,1.0322119025311178e-06,1.0879980381354752e-06,4.9302748247487045e-05,1.2032728928210956e-06,7.437871993430115e-07,6.940732099319155e-07,2.768785958570396e-06
15,6.338573477666651e-07,8.338771182576776e-07,1.2287995181268778e-06,1.4642325677433798e-06,6.848694137076829e-07,8.404004005661276e-07,1.2981366914232926e-06,1.1545507809425966e-06,1.156689485094008e-05,1.0539249847776486e-06,1.1156672649514859e-06,4.912146020312488e-05,1.2743639717099043e-06,7.598746828354265e-07,7.364629424758274e-07,2.7607614246570165e-06
16,6.438034596129337e-07,8.460853562641288e-07,1.218685770529637e-06,1.6445409829328769e-06,7.080635623787563e-07,8.592935081084997e-07,1.310351928135148e-06,1.1643809824800636e-06,1.2071865347720093e-05,1.0684386716046907e-06,1.138062953671638e-06,4.8543237115809734e-05,1.3449662025711137e-06,7.718489911442099e-07,7.778131372961952e-07,2.736365041004884e-06
17,6.508480433670079e-07,8.556677354066086e-07,1.202727891289091e-06,1.8386915008181031e-06,7.285363663947756e-07,8.757712842931692e-07,1.3173788274085825e-06,1.1711095644618151e-06,1.2583007237069366e-05,1.0765144858682462e-06,1.1556974879785578e-06,4.758304655761527e-05,1.4145564931509457e-06,7.800532671855993e-07,8.176629849136603e-07,2.6977423311915755e-06
18,6.551548971329853e-07,8.629469523563762e-07,1.1823041598051426e-06,2.0472910057914936e-06,7.46213016011358e-07,8.904034164818855e-07,1.3200937781096297e-06,1.1758609867453877e-06,1.3108529922928715e-05,1.0790477822147123e-06,1.1690110705219835e-06,4.626761616027265e-05,1.4826708205461192e-06,7.848818197828585e-07,8.556006684900213e-07,2.6472448542053836e-06
19,6.569749108984618e-07,8.68201864184874e-07,1.1590018218788056e-06,2.27085331537172e-06,7.61058652216882e-07,9.037285806867987e-07,1.3193182350739496e-06,1.1795540002708569e-06,1.3655665989501393e-05,1.0769576173917749e-06,1.1783547692142309e-06,4.463840490185103e-05,1.5489834565927603e-06,7.868074297276657e-07,8.912072198211519e-07,2.5872173711719676e-06
20,6.566240503584098e-07,8.717106496324152e-07,1.134425293450683e-06,2.5097218397434925e-06,7.730236926341841e-07,9.161789266189866e-07,1.3158136816611305e-06,1.1828748713257379e-06,1.4230074730815375e-05,1.0711146596398315e-06,1.184045886055447e-06,4.275058828783528e-05,1.6133806529370404e-06,7.864588443110382e-07,9.239911776245606e-07,2.5197023729597975e-06
21,6.544294466580921e-07,8.737511409760233e-07,1.1100901146177694e-06,2.763921580451492e-06,7.820654618843182e-07,9.280926656403472e-07,1.3101967487402685e-06,1.186280362481949e-06,1.4835421612444756e-05,1.0622510210154872e-06,1.1864561771170211e-06,4.0668739648937913e-05,1.6759872454256412e-06,7.846021910325293e-07,9.534190577919217e-07,2.446327726387046e-06
22,6.507339726560087e-07,8.745745591928741e-07,1.087438772074129e-06,3.0330401481561933e-06,7.882482406276064e-07,9.397535427184143e-07,1.3028601360756575e-06,1.190014659034735e-06,1.5472880514509273e-05,1.0509403731187968e-06,1.1860166771804826e-06,3.846094022181213e-05,1.7371380062021119e-06,7.820145163787833e-07,9.7906845771051e-07,2.3684369730079835e-06
23,6.459265975238111e-07,8.743741689582395e-07,1.0679118580282318e-06,3.316162030133604e-06,7.918415335120585e-07,9.513953732500401e-07,1.2939636058119552e-06,1.1941444689224124e-06,1.6140562285154467e-05,1.0376860421695817e-06,1.1831497208392342e-06,3.619322526101152e-05,1.7973117135527898e-06,7.793696124927155e-07,1.0008068045886743e-06,2.28728176941827e-06
24,6.404288905584318e-07,8.732521799392675e-07,1.052983068816997e-06,3.611860167100067e-06,7.933205612550345e-07,9.631557668040145e-07,1.2834969985963254e-06,1.1985893561810196e-06,1.6833081285910023e-05,1.0230296842694872e-06,1.1782553374675328e-06,3.392586241736017e-05,1.857033013624004e-06,7.771822111529607e-07,1.0188365864214864e-06,2.2041321383920955e-06
25,6.346637139163609e-07,8.712083354251003e-07,1.0441137569806098e-06,3.918283437105064e-06,7.93272538135321e-07,9.75008687713586e-07,1.271380830561892e-06,1.2031302733112848e-06,1.7541338368350493e-05,1.0075872244053422e-06,1.1718000199882898e-06,3.17125052804807e-05,1.916734790616192e-06,7.757887565415031e-07,1.033565953634213e-06,2.120279917082869e-06
26,6.290512925503014e-07,8.68202662712742e-07,1.0426542953726122e-06,4.233343630047169e-06,7.923056910184518e-07,9.867199887203178e-07,1.2575411055262327e-06,1.2074398888820075e-06,1.825258488513362e-05,9.919859799820805e-07,1.1644036126857483e-06,2.960237800582003e-05,1.9766173650363526e-06,7.753593775330375e-07,1.0454199219808236e-06,2.036944117299503e-06
27,6.240057818757188e-07,8.642867626240688e-07,1.0497580931783367e-06,4.554928131026484e-06,7.909963720869523e-07,9.978571628652345e-07,1.2419244234861117e-06,1.2111714899872406e-06,1.895081944035659e-05,9.767621323546251e-07,1.1567886120812864e-06,2.7644148303187603e-05,2.036598658616512e-06,7.75926613791664e-07,1.0547042169672952e-06,1.9551811903758557e-06
28,6.199066362289539e-07,8.596928857644054e-07,1.0663466169589063e-06,4.881032303796426e-06,7.89868797357289e-07,1.0078797330228652e-06,1.2244762057023992e-06,1.2140780548088734e-06,1.961724590640716e-05,9.623070399621124e-07,1.1496213155552736e-06,2.588913770852525e-05,2.0964295722297218e-06,7.774057428222393e-07,1.0615560076351291e-06,1.8758605288156856e-06
29,6.170808935906241e-07,8.547926926480527e-07,1.0931216169595062e-06,5.2097184496141215e-06,7.89417938645725e-07,1.0162929991408305e-06,1.2051169045692375e-06,1.2161361112705914e-06,2.023076103745006e-05,9.488974378568633e-07,1.1434081295688477e-06,2.439174729048463e-05,2.155913676743566e-06,7.796253861133261e-07,1.0660132418371124e-06,1.7996056015321747e-06
30,6.158194341050041e-07,8.499699502204636e-07,1.1306043453285234e-06,5.538872652308153e-06,7.901262683810481e-07,1.0227493329241688e-06,1.1837387161506088e-06,1.2176655776030792e-06,2.0769435826551227e-05,9.36768233910433e-07,1.1385251561220866e-06,2.3206967838909572e-05,2.2150480451281663e-06,7.823933314680509e-07,1.068173929705975e-06,1.7267028677471661e-06
31,6.16384034469319e-07,8.455292551685385e-07,1.179161000965373e-06,5.865842654333836e-06,7.924299560552816e-07,1.0270191711677384e-06,1.1602395745217178e-06,1.2193645843072373e-06,2.1213765986846968e-05,9.261508420173989e-07,1.135323416805587e-06,2.2387534088722813e-05,2.273995791803978e-06,7.855465878965592e-07,1.0682889564780914e-06,1.657096843648196e-06
32,6.189721571294928e-07,8.417065004394201e-07,1.238986534650713e-06,6.1870872473486096e-06,7.966748250524004e-07,1.0289471729534478e-06,1.1345942441793016e-06,1.2221693683950053e-06,2.1549945982032142e-05,9.172612881057597e-07,1.1342208874445317e-06,2.1982760217400028e-05,2.3329859920200454e-06,7.889462320990928e-07,1.0667243439122388e-06,1.5905096136554685e-06
33,6.236753777286967e-07,8.387258867125538e-07,1.3100913197824851e-06,6.497913112921888e-06,8.030977840157569e-07,1.0284862227044777e-06,1.106923885306652e-06,1.22701128297018e-06,2.1770123881800993e-05,9.102786691357103e-07,1.1357237373250703e-06,2.2038158409658442e-05,2.392225947364312e-06,7.924553645114889e-07,1.0639048158656178e-06,1.5266535395383016e-06
34,6.304622305856962e-07,8.368159865401243e-07,1.3923554346790512e-06,6.792387654407821e-06,8.118342378141992e-07,1.0256957335938718e-06,1.0774974873673893e-06,1.2346335534262361e-06,2.187048888320564e-05,9.053132789807988e-07,1.1403599644374436e-06,2.259472155429311e-05,2.4518049101287187e-06,7.959206505001154e-07,1.0602809423389078e-06,1.465428512440305e-06
35,6.39185129082285e-07,8.361722643104411e-07,1.4856341123600137e-06,7.063633083803841e-06,8.229554588612233e-07,1.0206432625274822e-06,1.0466424722162024e-06,1.2455444895738374e-06,2.1851522338901724e-05,9.023604522010514e-07,1.1485663933510268e-06,2.368823607262677e-05,2.51159414594437e-06,7.991778002164211e-07,1.0562650314257266e-06,1.4069630991635643e-06
36,6.496338105551996e-07,8.369218081468093e-07,1.5898189605317308e-06,7.304672237090196e-06,8.365053641127685e-07,1.013334751177897e-06,1.0146527697412388e-06,1.2601149891287872e-06,2.172082899516774e-05,9.012875449465904e-07,1.1605983810553965e-06,2.5348961891498288e-05,2.5711888428129683e-06,8.020956609647616e-07,1.0521757112737102e-06,1.3514832944641477e-06
37,6.616247820781308e-07,8.391403388264772e-07,1.7047771350601772e-06,7.509677646366978e-06,8.524809366900735e-07,1.003752046240787e-06,9.817981434206397e-07,1.2787594941466184e-06,2.1494330583430572e-05,9.018919717614256e-07,1.176483281642939e-06,2.7601533668665153e-05,2.629867877932796e-06,8.0459075420282e-07,1.048265934099675e-06,1.2991357395162606e-06
38,6.750409034855594e-07,8.429132009019589e-07,1.8301965764478711e-06,7.675097435090146e-06,8.707705658461087e-07,9.919133352338884e-07,9.48399729131647e-07,1.3020312833742887e-06,2.1193812496369296e-05,9.040040541687519e-07,1.1959967596289803e-06,3.0464956405507798e-05,2.6865533506803024e-06,8.065751079620302e-07,1.0447714627735994e-06,1.2499254371935402e-06
39,6.897818334256368e-07,8.483776650352441e-07,1.9654590175021965e-06,7.800067170337184e-06,8.911115075435507e-07,9.778885343542625e-07,9.148628318651481e-07,1.3305506883448606e-06,2.084289500346988e-05,9.075407710326228e-07,1.2186580104764169e-06,3.395262168626414e-05,2.739856795956409e-06,8.079014915252968e-07,1.0418833988633325e-06,1.203803745827082e-06
40,7.056919728833815e-07,8.556924157521207e-07,2.109653659104954e-06,7.885887936427549e-06,9.130847088369732e-07,9.618146673247327e-07,8.816403868980674e-07,1.3649089245200552e-06,2.0463857525566154e-05,9.124472999449141e-07,1.243774273075011e-06,3.8072246842650816e-05,2.7882577424989514e-06,8.083898755488924e-07,1.039695956514778e-06,1.1607767602105683e-06
41,7.225273453852926e-07,8.649643643400798e-07,2.261756052817935e-06,7.934836190661617e-06,9.361363818742694e-07,9.439062911639671e-07,8.491672561174917e-07,1.405647115606595e-06,2.0075885962377145e-05,9.186031714726472e-07,1.2705698652100858e-06,4.282561268979256e-05,2.830337617808402e-06,8.079523032551692e-07,1.0382201629508878e-06,1.1209070773186168e-06
42,7.39951638348149e-07,8.762000004195321e-07,2.4208873758315746e-06,7.948930710016156e-06,9.596057337713955e-07,9.244220500974601e-07,8.177982092831815e-07,1.4532166387819257e-06,1.9694257035795078e-05,9.25807147842955e-07,1.2983549703918352e-06,4.820804814668468e-05,2.864999971434064e-06,8.067152956051398e-07,1.0374263297642218e-06,1.0842131600103423e-06
43,7.575395808982941e-07,8.892794517458528e-07,2.5864767395354626e-06,7.929400002848293e-06,9.827354573540887e-07,9.036637297116051e-07,7.877860442057838e-07,1.5078850734292913e-06,1.93302751057335e-05,9.338488579665409e-07,1.326597088154187e-06,5.420774369099459e-05,2.8916326155793847e-06,8.050143637297478e-07,1.0372435390581235e-06,1.050567333295111e-06
44,7.748157910340365e-07,9.039224254534931e-07,2.7581639003775853e-06,7.877090317799928e-06,1.0046857043916476e-06,8.820383759928539e-07,7.593220815126789e-07,1.569669363018979e-06,1.899196048103863e-05,9.426008575146569e-07,1.354823210193727e-06,6.080499723741879e-05,2.9101109845992834e-06,8.032577634430917e-07,1.03753685667309e-06,1.0196810872661018e-06
45,7.91360651459422e-07,9.196667823776133e-07,2.935496136494212e-06,7.793286950031119e-06,1.024568901945227e-06,8.600633157558525e-07,7.325968576323328e-07,1.6383049425017054e-06,1.868506782021323e-05,9.520624297111919e-07,1.3824504850179437e-06,6.797138876314787e-05,2.9205658701696e-06,8.017803889477816e-07,1.0381123370934223e-06,9.91182407022889e-07
46,8.069334431090598e-07,9.359091199959228e-07,3.117715647319614e-06,7.68031120063304e-06,1.041485581580741e-06,8.382710940211417e-07,7.078252567972278e-07,1.7132032382926258e-06,1.841400253717347e-05,9.623292741504036e-07,1.4087143489227525e-06,7.566877275870351e-05,2.923043672786551e-06,8.007845866489192e-07,1.0387272773320634e-06,9.647218135720726e-07
47,8.215140913533503e-07,9.520357021574202e-07,3.303811897720936e-06,7.5416531291154335e-06,1.054594808663209e-06,8.171144625159554e-07,6.852282304620497e-07,1.7934076419190125e-06,1.8182597653313662e-05,9.735286625748451e-07,1.432776809528513e-06,8.384796389785872e-05,2.9173767287748726e-06,8.003387140344214e-07,1.0390547035515627e-06,9.400325336497729e-07
48,8.352192649452443e-07,9.67602972349425e-07,3.4926633023819307e-06,7.381725232150667e-06,1.0632594891909203e-06,7.969251896496063e-07,6.649983994615867e-07,1.877600372570579e-06,1.7994760353867007e-05,9.857669533079886e-07,1.453949719905911e-06,9.244708675677561e-05,2.903403143688672e-06,8.003739403097052e-07,1.0386390628240995e-06,9.169338677066321e-07
49,8.481647262290896e-07,9.824354066057014e-07,3.6830648784501915e-06,7.205474509988216e-06,1.0671813235988934e-06,7.778963590411991e-07,6.472818402446802e-07,1.9641984087660425e-06,1.7854727558574072e-05,9.990837407548247e-07,1.4718672975655786e-06,0.00010138969430000235,2.881289421416033e-06,8.006951101902692e-07,1.036941205223647e-06,8.953070891283002e-07
50,8.604093464274414e-07,9.965450210303094e-07,3.873675430544974e-06,7.018053643421949e-06,1.0663894832100374e-06,7.600750214971874e-07,6.321687468456401e-07,2.051515281238661e-06,1.7766526012571007e-05,1.0134012482109419e-06,1.4864657099446305e-06,0.0001105828272295506,2.8516815053516126e-06,8.010523598956161e-07,1.0334717082608919e-06,8.750463232371191e-07
51,8.720139811393057e-07,1.0099721998320787e-06,4.063009398441738e-06,6.824614003413534e-06,1.0611025578184565e-06,7.433847429806572e-07,6.196647551697006e-07,2.1378689878648373e-06,1.7732674562612934e-05,1.0285116720046872e-06,1.4978081710287519e-06,0.00011991521514142606,2.8156731083805137e-06,8.012655665596013e-07,1.0278725288623854e-06,8.560175323188111e-07
52,8.830933219950659e-07,1.02271146406036e-06,4.2495151333978966e-06,6.630189164291261e-06,1.051646080007284e-06,7.276850008649087e-07,6.096649489616137e-07,2.221530237929018e-06,1.7752921470394524e-05,1.0441382549449175e-06,1.505952330357655e-06,0.00012925578385025835,2.77469820818812e-06,8.013078386846327e-07,1.0198890145581944e-06,8.380715402404466e-07
53,8.93771663135244e-07,1.0347239826576313e-06,4.4316832936335905e-06,6.439603572969429e-06,1.038485734686601e-06,7.128375031703968e-07,6.019683882451502e-07,2.3006123638363808e-06,1.7823746239754023e-05,1.060018627196392e-06,1.5109763849101055e-06,0.00013845173866448295,2.7304100586273706e-06,8.01274045891353e-07,1.009355195126728e-06,8.210907933875466e-07
54,9.041152626174497e-07,1.0459470802511196e-06,4.608113089759124e-06,6.257361907838382e-06,1.0222361589193838e-06,6.987461081184171e-07,5.963115491103005e-07,2.373103349415854e-06,1.7938829231435996e-05,1.0759466578060635e-06,1.513092015434434e-06,0.00014732684495736848,2.684524477411719e-06,8.013136540038587e-07,9.962283265854304e-07,8.050514617027116e-07
55,9.141168235758423e-07,1.0562790609905258e-06,4.777557065476456e-06,6.087506145803281e-06,1.003585773087382e-06,6.853587049693379e-07,5.923871810458526e-07,2.4370333110800653e-06,1.8090336880539013e-05,1.091792125391407e-06,1.5126987487368742e-06,0.0001556877347173464,2.6386021229208352e-06,8.016148180544472e-07,9.805765691071285e-07,7.900691009419629e-07
56,9.236979317524951e-07,1.0655774631362807e-06,4.939048924133411e-06,5.933402218374234e-06,9.832123910573294e-07,6.726320957845531e-07,5.898960908597787e-07,2.4906141325622418e-06,1.8270086261029444e-05,1.107502538071086e-06,1.5102932245353474e-06,0.00016334610569877079,2.5938944951240153e-06,8.023797415779089e-07,9.625493464942924e-07,7.763468292366253e-07
57,9.327198117190819e-07,1.0736884475724834e-06,5.092105190264161e-06,5.797449031857447e-06,9.617188153259722e-07,6.605010594590255e-07,5.886661203774093e-07,2.5323168353087686e-06,1.8469489040904363e-05,1.1230273709964456e-06,1.5063122569303904e-06,0.0001701484339354985,2.551361584699295e-06,8.037637439876627e-07,9.424167037172838e-07,7.640534758071551e-07
58,9.410589097722183e-07,1.08047586364249e-06,5.236793997758244e-06,5.680847419355992e-06,9.395797579115109e-07,6.488825326350962e-07,5.887305498654474e-07,2.5609869439537514e-06,1.867836048610542e-05,1.1381936084753626e-06,1.5011085896217813e-06,0.00017599334377986985,2.5117318871468236e-06,8.058414019423665e-07,9.206080037048444e-07,7.5324768976915e-07
59,9.487425883272861e-07,1.0858249641787167e-06,5.373529635020642e-06,5.583551525688364e-06,9.171355310585144e-07,6.376809615249806e-07,5.902756615956278e-07,2.5760166952493132e-06,1.8883497270509734e-05,1.1526360376524188e-06,1.4951013766251152e-06,0.00018082481876627524,2.4754798991030575e-06,8.085993008026503e-07,8.976405983016306e-07,7.438693971154159e-07
60,9.560480680093747e-07,1.0896398029387426e-06,5.502704424691244e-06,5.504350353757114e-06,8.94650326827438e-07,6.268049999564247e-07,5.935270456266629e-07,2.5774449757109006e-06,1.9067666116642797e-05,1.1658076017895961e-06,1.4889091241770878e-06,0.00018460684211629377,2.4428022166161137e-06,8.119332097637927e-07,8.739882149074124e-07,7.357628633723577e-07
61,9.634755088917305e-07,1.091853792750031e-06,5.624311315249883e-06,5.4410225978671345e-06,8.72363630792959e-07,6.162339474614493e-07,5.986719163296022e-07,2.5658544603077472e-06,1.9209308072556725e-05,1.1770756606473008e-06,1.4833201308972241e-06,0.00018730107973758742,2.4137023857955612e-06,8.156690286503975e-07,8.500263636104501e-07,7.287222171200063e-07
62,9.716074200438119e-07,1.0924470507012187e-06,5.737602966398419e-06,5.390601524728121e-06,8.504717840059102e-07,6.06069300398549e-07,6.058567246603141e-07,2.5420663384926757e-06,1.9283634811650676e-05,1.1859223402526105e-06,1.4791397487491815e-06,0.0001888694736184047,2.388140509499069e-06,8.19610205313767e-07,8.260778546205491e-07,7.225480461371066e-07
63,9.809574777290707e-07,1.0914482246582724e-06,5.840902752019222e-06,5.349773951834911e-06,8.290963001299432e-07,5.96493979774916e-07,6.152517258845172e-07,2.5067906894843325e-06,1.9266183876235603e-05,1.1921385323000388e-06,1.477014022310975e-06,0.0001893000861948023,2.366077285445542e-06,8.236092485211769e-07,8.024728676265478e-07,7.170791699603855e-07
64,9.918904715654197e-07,1.0888944404737167e-06,5.931737407945296e-06,5.315345247265057e-06,8.082962041210584e-07,5.876713112556666e-07,6.271063463287386e-07,2.4604745815401758e-06,1.913855378459641e-05,1.1958337926757485e-06,1.4773127317509059e-06,0.0001886322703068591,2.347328994406493e-06,8.276468359265006e-07,7.7958083950931e-07,7.121753361795163e-07
65,1.0046154323813818e-06,1.0847783189142985e-06,6.007208765961317e-06,5.2845927582546295e-06,7.880892149426013e-07,5.796647514764501e-07,6.417240280994672e-07,2.4034510496189127e-06,1.8893102562101824e-05,1.1972693663517162e-06,1.480102587918582e-06,0.00018696075203593546,2.3313814619373718e-06,8.318403662797565e-07,7.578266155199484e-07,7.077159944622893e-07
66,1.0192232226066794e-06,1.0790696712679252e-06,6.06431117067352e-06,5.255368988117872e-06,7.684880367902799e-07,5.724161352673587e-07,6.593852459611268e-07,2.3362433070538707e-06,1.8532792510677934e-05,1.1967391212949416e-06,1.4851761830784972e-06,0.00018441590501341778,2.317390125065866e-06,8.363435698952938e-07,7.376823003697994e-07,7.036763402447462e-07
67,1.03571941141952e-06,1.0718073777996864e-06,6.100072398065377e-06,5.2260688473469345e-06,7.495675900610933e-07,5.657601558726515e-07,6.802938718153492e-07,2.259808040866298e-06,1.806709588183602e-05,1.1946294458525987e-06,1.4921107557906502e-06,0.00018113283927734085,2.304419348928299e-06,8.412274251353483e-07,7.196162030850589e-07,7.001880300778871e-07
68,1.054007493248853e-06,1.0631302289849259e-06,6.111660454528411e-06,5.195715502978796e-06,7.314753108916004e-07,5.594432702845017e-07,7.045661049143321e-07,2.1755823763473203e-06,1.750907622450877e-05,1.1915070921503293e-06,1.5003237942423274e-06,0.00017723030386733912,2.2917295878672803e-06,8.464484881826146e-07,7.040265562093167e-07,6.975168120318108e-07
69,1.0738554395994912e-06,1.0532054337011949e-06,6.096633098174949e-06,5.164200095695688e-06,7.143578990657863e-07,5.531686190728612e-07,7.322243387361585e-07,2.085312319775561e-06,1.687532775039104e-05,1.1880640903409323e-06,1.509086535707376e-06,0.00017281123063066326,2.2788626732430683e-06,8.519109782105218e-07,6.912089472774924e-07,6.960219459190566e-07
70,1.0948830120231199e-06,1.0421775820048399e-06,6.053361598060114e-06,5.132413374768711e-06,6.983069684312854e-07,5.467050265975659e-07,7.631731426325657e-07,1.990778631537499e-06,1.6185655592166907e-05,1.1849606438822417e-06,1.5175936812291463e-06,0.00016797508690314273,2.265470738010593e-06,8.575337197643378e-07,6.813576512455747e-07,6.961063831014516e-07
71,1.1165348746979171e-06,1.0301802278612591e-06,5.981481235679777e-06,5.10202985082797e-06,6.833701537827361e-07,5.400107518035558e-07,7.971749744833887e-07,1.8935971722415457e-06,1.5460963200558153e-05,1.1827194615350469e-06,1.525183428092232e-06,0.00016282499294621486,2.2510604973014883e-06,8.632334517890848e-07,6.745711502453425e-07,6.981456239245593e-07
72,1.138040017828184e-06,1.017308982684093e-06,5.882146815039479e-06,5.0750275908211815e-06,6.695772041766128e-07,5.332604205402818e-07,8.338424850509705e-07,1.795183872922839e-06,1.472090688558623e-05,1.1817464464427138e-06,1.5315182727769343e-06,0.00015746260727564565,2.234901852352548e-06,8.688645644169827e-07,6.708641875854745e-07,7.024653529869137e-07
73,1.1584397596308542e-06,1.003562026352361e-06,5.757993231152915e-06,5.0532785645446855e-06,6.569741928168803e-07,5.267463286456311e-07,8.726545069169286e-07,1.69684142340519e-06,1.3982631020403728e-05,1.1823865598719374e-06,1.536500589266334e-06,0.00015197546928564807,2.216196343195677e-06,8.742188672824582e-07,6.701988667037805e-07,7.093842841450256e-07
74,1.1767420052318402e-06,9.888490011913131e-07,5.612841325950945e-06,5.038429304302723e-06,6.456901234593343e-07,5.207547587531484e-07,9.130193645831722e-07,1.5998618647603354e-06,1.3260567368742174e-05,1.1849027535957945e-06,1.5400453870404952e-06,0.00014642907408467666,2.1943418407885267e-06,8.790796404379628e-07,6.72506580824631e-07,7.19246139589442e-07
75,1.1921545946628308e-06,9.730603587420337e-07,5.451149071556651e-06,5.03193381723279e-06,6.359688321087121e-07,5.155264687262495e-07,9.54388032389825e-07,1.505558214215491e-06,1.256676475706796e-05,1.1894308994845521e-06,1.5419358132330842e-06,0.00014087054724467086,2.169103140256171e-06,8.832640597141819e-07,6.77686334067088e-07,7.32411046624599e-07
76,1.2042602656575257e-06,9.561264520428642e-07,5.277291545250673e-06,5.034934980194138e-06,6.281084988738593e-07,5.113037104836567e-07,9.96351023878364e-07,1.4151978333926384e-06,1.1911268271110706e-05,1.1960032118042372e-06,1.5417594646472095e-06,0.0001353349957045174,2.1406440756595594e-06,8.866494658333057e-07,6.8561273585996e-07,7.492363786044962e-07
77,1.2130141690007788e-06,9.380422988837789e-07,5.095091801762968e-06,5.04791736595566e-06,6.223710747916677e-07,5.083769686902905e-07,1.0386306131863446e-06,1.329879108237449e-06,1.1302305570714109e-05,1.2045826721937032e-06,1.5389134355493088e-06,0.00012984564611842083,2.109459042152749e-06,8.89210346453422e-07,6.961528219141112e-07,7.700412539134641e-07
78,1.2185756560840268e-06,9.188938750207569e-07,4.907877640204729e-06,5.070347085100572e-06,6.189283283071044e-07,5.070618183907945e-07,1.0809762807519406e-06,1.2504419845313317e-06,1.0746318607743184e-05,1.2150228522088153e-06,1.5327582975929008e-06,0.00012441522835422098,2.0762656499625315e-06,8.910540935350497e-07,7.091823368029809e-07,7.950586544907043e-07
79,1.2211057973838938e-06,8.989311874999949e-07,4.7187142881124915e-06,5.1005082608352385e-06,6.178410311915845e-07,5.076346294335177e-07,1.1231063161786525e-06,1.1774886845535083e-06,1.0248002183272312e-05,1.2270038130406413e-06,1.5228383097687311e-06,0.000119055136987903,2.0418709996246506e-06,8.923972929866746e-07,7.24615229654718e-07,8.244170754234487e-07
80,1.2206864492943394e-06,8.786422931257454e-07,4.530426518546925e-06,5.13558946788431e-06,6.190615767325256e-07,5.102961188823198e-07,1.1647943283643703e-06,1.1114929372263964e-06,9.810323659838415e-06,1.2400455911299487e-06,1.5089585688577167e-06,0.00011378184316691038,2.006978448054391e-06,8.934634313907467e-07,7.424000733278925e-07,8.581331940609654e-07
81,1.2174084416110002e-06,8.587229398063686e-07,4.345488711066964e-06,5.172010178494216e-06,6.224815954919072e-07,5.151842965046972e-07,1.20601655543367e-06,1.0528764197350404e-06,9.434399044503143e-06,1.253614071126102e-06,1.4911209431770725e-06,0.00010861157214925967,1.97198711078059e-06,8.943799203304849e-07,7.624506732323261e-07,8.960858381453995e-07
82,1.211500793235619e-06,8.399387005081566e-07,4.166006002580507e-06,5.205920821331883e-06,6.280211337790096e-07,5.224126862858925e-07,1.2470272587881416e-06,1.001970998653672e-06,9.119357010155334e-06,1.267223898120677e-06,1.469532836645105e-06,0.00010355155718685407,1.9368991666582443e-06,8.951407919037928e-07,7.845757270527651e-07,9.380056312711897e-07
83,1.203343993631856e-06,8.230057784357438e-07,3.993840416331983e-06,5.233756914675795e-06,6.356871430404644e-07,5.320849366858762e-07,1.28830827786811e-06,9.589327164803684e-07,8.862424199478508e-06,1.2804620143445655e-06,1.4447216030922838e-06,9.86001116956944e-05,1.9014025809551276e-06,8.956193757991518e-07,8.084750613004645e-07,9.834839198852144e-07
84,1.1933489756485532e-06,8.085740905249296e-07,3.830764273992658e-06,5.252748912583085e-06,6.455384620897133e-07,5.442624611612371e-07,1.3304082706147409e-06,9.23714755569667e-07,8.659210155484958e-06,1.2930265736957553e-06,1.4175386729066226e-06,9.375598638197266e-05,1.8651525927033208e-06,8.956005307465803e-07,8.338177562281047e-07,1.0319716855697757e-06
85,1.1817991976713263e-06,7.972535288323359e-07,3.6784895604738335e-06,5.26127724291867e-06,6.57595206381977e-07,5.58919335229989e-07,1.373752794118538e-06,8.961028584033629e-07,8.504046648282088e-06,1.3048071376246569e-06,1.3889727373406517e-06,8.902845216168626e-05,1.828138324790325e-06,8.948130548139956e-07,8.603350371389239e-07,1.0827727548393083e-06
86,1.1687587628360891e-06,7.896015943481377e-07,3.53857758308733e-06,5.258966670953611e-06,6.717738365022937e-07,5.759211489567409e-07,1.4185336894480548e-06,8.757526291842602e-07,8.39034297742977e-06,1.3158342463888566e-06,1.3599870829377314e-06,8.444129052977721e-05,1.7908550679296896e-06,8.929666036489292e-07,8.878211444787975e-07,1.1350196585513823e-06
87,1.1540815795838184e-06,7.860767665256611e-07,3.412378357577911e-06,5.2465616602172175e-06,6.878686379495821e-07,5.950300208452456e-07,1.4647252442002818e-06,8.622063928405357e-07,8.311012877581233e-06,1.3261462934735867e-06,1.3315590516048778e-06,8.002926862211952e-05,1.754154585753746e-06,8.898350387100511e-07,9.160724417968508e-07,1.1876510336879252e-06
88,1.1374911447885972e-06,7.870045384583144e-07,3.3010546846275853e-06,5.225744642883491e-06,7.055670322637641e-07,6.159206365150743e-07,1.5121839355861224e-06,8.548964884586082e-07,8.259030277439901e-06,1.3357491097943478e-06,1.3047842336426234e-06,7.582936827402581e-05,1.7189449133161942e-06,8.853714050377373e-07,9.448793839630198e-07,1.2394883749549317e-06
89,1.1186901768642749e-06,7.925718189753744e-07,3.2055786740572253e-06,5.198990257650562e-06,7.245126142027773e-07,6.382088692062118e-07,1.5607366895082256e-06,8.531373170666396e-07,8.228037703680039e-06,1.3445960565128442e-06,1.2808384621605484e-06,7.187117693441016e-05,1.6859417414858182e-06,8.797533699347909e-07,9.740658367036329e-07,1.2893971987550559e-06
90,1.0974802940924422e-06,8.02832624067725e-07,3.12661154193232e-06,5.169406535658413e-06,7.443991489288607e-07,6.615297456958276e-07,1.6101825397811534e-06,8.561377861127104e-07,8.212769548872736e-06,1.3525623235474956e-06,1.2608195542410184e-06,6.817063450296832e-05,1.6555463284152655e-06,8.733228261929286e-07,1.0034806773224675e-06,1.3363770752545033e-06
91,1.0738512075791128e-06,8.177115659558399e-07,3.0643152587803195e-06,5.140472386585907e-06,7.650107274806109e-07,6.856693529053088e-07,1.6602327863692366e-06,8.630649528635805e-07,8.208970333949097e-06,1.3595275194386051e-06,1.2456286304757065e-06,6.472842789567077e-05,1.6278753507227997e-06,8.66494321685176e-07,1.032912564936456e-06,1.3795510670207984e-06
92,1.047970806085782e-06,8.370003027695836e-07,3.018231969978727e-06,5.115695764786225e-06,7.861651183867957e-07,7.106538029040889e-07,1.7104994277797676e-06,8.731166653568261e-07,8.212964673179896e-06,1.3655222318345436e-06,1.2359761474725894e-06,6.153173017616736e-05,1.6029010479739662e-06,8.596938679207501e-07,1.0620034770594437e-06,1.418170540998646e-06
93,1.0201055281608688e-06,8.603590760673985e-07,2.987373274498406e-06,5.098344932620249e-06,8.076257393158875e-07,7.366958634015123e-07,1.7605822227780032e-06,8.855481179096886e-07,8.222055459577067e-06,1.3708167382437488e-06,1.2324479389471597e-06,5.8558333484574825e-05,1.5805538786477936e-06,8.533341396979276e-07,1.0902352569586602e-06,1.451660511584449e-06
94,9.906008764694742e-07,8.873417060070412e-07,2.970516176718699e-06,5.091327710598182e-06,8.290538229990536e-07,7.640457025207352e-07,1.8101677408928626e-06,8.996555829730184e-07,8.236221050520541e-06,1.375911649497399e-06,1.2355208186227272e-06,5.5783157245353665e-05,1.5607217103652723e-06,8.478160068933916e-07,1.1170083163577092e-06,1.479596591113857e-06
95,9.599351133256769e-07,9.174151044280666e-07,2.9664605748754503e-06,5.097091310575337e-06,8.50019482730006e-07,7.928766954728026e-07,1.859047367816214e-06,9.147497740336299e-07,8.259334586354497e-06,1.381439479509702e-06,1.2455127579670096e-06,5.318578076259203e-05,1.543251361622787e-06,8.435316354979891e-07,1.1417891541652465e-06,1.5015617160544752e-06
96,9.287349119584644e-07,9.499354583090499e-07,2.9739960751708915e-06,5.117400441976329e-06,8.700970507529772e-07,8.232509010716586e-07,1.9070884462968363e-06,9.301528284445551e-07,8.298316817522411e-06,1.3880193391293396e-06,1.2625293476097e-06,5.0755900380393755e-05,1.5279865302311746e-06,8.408401621593739e-07,1.1641991728769865e-06,1.5170162776917435e-06
97,8.977241023666386e-07,9.841184501220372e-07,2.991629719296526e-06,5.1530562668446005e-06,8.890324391627526e-07,8.551133324257778e-07,1.9542286451108896e-06,9.452376939369997e-07,8.360990045212358e-06,1.3961175565780657e-06,1.2864440861147672e-06,4.8494230506347584e-05,1.5147437685995172e-06,8.400258560877503e-07,1.1839388934629253e-06,1.5253498280761783e-06
98,8.676536950157155e-07,1.019069008989391e-06,3.0173843601154236e-06,5.203734895668793e-06,9.068522326879206e-07,8.882815377882467e-07,2.0004568170946734e-06,9.594889042108873e-07,8.454251350824037e-06,1.4059562167276555e-06,1.316903972045026e-06,4.640888039171765e-05,1.5032173718433385e-06,8.412812627420968e-07,1.2006770947358928e-06,1.5261092833849875e-06
99,8.392276694039296e-07,1.0538819505563579e-06,3.048920364741727e-06,5.267989431522852e-06,9.238030440656123e-07,9.224597551931254e-07,2.0457005535902832e-06,9.725431753456384e-07,8.583246796550428e-06,1.4175003767672345e-06,1.3533416601797075e-06,4.450927198183524e-05,1.4929000877027984e-06,8.447307191685044e-07,1.214052870844246e-06,1.5192414218625925e-06
100,8.130310163108879e-07,1.0877827902150503e-06,3.083949397228211e-06,5.343297226826673e-06,9.401906017846079e-07,9.572868096568993e-07,2.0896531463229073e-06,9.842023754934495e-07,8.751361199042708e-06,1.430513365597011e-06,1.3949921757881185e-06,4.2800416306575384e-05,1.48310021259174e-06,8.504566859440634e-07,1.2237275369811807e-06,1.505185951526309e-06
101,7.894912275649177e-07,1.120248191748388e-06,3.120680065825899e-06,5.426128698191578e-06,9.56262381993082e-07,9.923541173045845e-07,2.1316585453924017e-06,9.944508137183207e-07,8.960632434625386e-06,1.4446128619543434e-06,1.4409235714584836e-06,4.1280343240494795e-05,1.4731214246031892e-06,8.585116150776044e-07,1.229427200685021e-06,1.4848179255791385e-06
102,7.689002057887571e-07,1.1510199584873294e-06,3.15801393715373e-06,5.5122564507557464e-06,9.72182015955471e-07,1.0271630995946912e-06,2.1706985602972e-06,1.0034760287643764e-06,9.21221767469309e-06,1.4592608981870219e-06,1.4900727948656127e-06,3.994164270506385e-05,1.4625412513744496e-06,8.68945819544848e-07,1.2310048760242705e-06,1.4593771282410793e-06
103,7.514835130357203e-07,1.1799882502146471e-06,3.1953644706632044e-06,5.597480167125191e-06,9.880714625821117e-07,1.0610829026118656e-06,2.205445858152864e-06,1.0116311696597693e-06,9.506629322868472e-06,1.4737045767542706e-06,1.541259503082694e-06,3.8775048319404874e-05,1.4513725347464157e-06,8.818245543006511e-07,1.228463857079029e-06,1.4304029590163028e-06
104,7.374530439902084e-07,1.2070387869450356e-06,3.232294858793989e-06,5.67855837726326e-06,1.004055815327562e-06,1.0933883417867044e-06,2.234378740750753e-06,1.0193303857727131e-06,9.843635122586153e-06,1.4869457943499085e-06,1.5931696882294184e-06,3.777235320032898e-05,1.4399962145731614e-06,8.971925561306712e-07,1.221893756271619e-06,1.3995669573361484e-06
105,7.269930094478145e-07,1.231966602611358e-06,3.2684008932345126e-06,5.75388166009582e-06,1.0202273632418013e-06,1.1233988298314816e-06,2.2559790818328764e-06,1.0269709039057983e-06,1.0221840723477651e-05,1.4977957937683872e-06,1.644377178428292e-06,3.692766213976552e-05,1.428952319606848e-06,9.150285376830282e-07,1.211445804063248e-06,1.3684552527906811e-06
106,7.202093229657857e-07,1.2544513893638601e-06,3.3035606990258225e-06,5.823580237215182e-06,1.036554116999371e-06,1.1506159154065746e-06,2.268991140232345e-06,1.034907710294096e-06,1.0638133613974604e-05,1.5050310136598475e-06,1.6935160259512305e-06,3.623702274589855e-05,1.4187104726204336e-06,9.352186837576104e-07,1.197407338915667e-06,1.33844570234788e-06
107,7.171070720126887e-07,1.2740694765609559e-06,3.3382126572025956e-06,5.889142552966943e-06,1.0528274281182743e-06,1.1747251375160048e-06,2.2726620994373554e-06,1.0434072143746558e-06,1.1087374265551614e-05,1.507595745261449e-06,1.7395136668899748e-06,3.569643727064505e-05,1.4095092773528706e-06,9.575525660369525e-07,1.1802327546118648e-06,1.3106730585371427e-06
108,7.17608381028898e-07,1.290383140276746e-06,3.373377086562015e-06,5.952863213207421e-06,1.0686702784883873e-06,1.1955212584386462e-06,2.2668536583095796e-06,1.0525906103197354e-06,1.1562531253866435e-05,1.5047500752527405e-06,1.7816118617109708e-06,3.529867467046153e-05,1.4013215695721297e-06,9.817556672178178e-07,1.160495733392449e-06,1.2860179745005527e-06
109,7.215685616644853e-07,1.3030963707494787e-06,3.410435304096545e-06,6.017374378507138e-06,1.0835797090568023e-06,1.2129425457973302e-06,2.2519820969842405e-06,1.0624225520735653e-06,1.2054912093765776e-05,1.4961615436988516e-06,1.8192108262011925e-06,3.5030269972029285e-05,1.393914023352093e-06,1.0074989819310322e-06,1.1388608862274025e-06,1.2651062307539562e-06
110,7.287664715101741e-07,1.3121683916453035e-06,3.4507762527794333e-06,6.085293610536695e-06,1.0969900824636235e-06,1.2272072613525576e-06,2.2288932775630563e-06,1.072722025995864e-06,1.2554110818464254e-05,1.4819821462986702e-06,1.851820966342471e-06,3.487011678256656e-05,1.386902269827687e-06,1.0343548880339299e-06,1.1160508655330336e-06,1.248325011096067e-06
111,7.388935111496177e-07,1.317809736548408e-06,3.495421578320113e-06,6.158869252588053e-06,1.108361685595656e-06,1.2388646987379808e-06,2.1987978088466722e-06,1.0831831838729144e-06,1.3047937649095241e-05,1.4628174077600852e-06,1.8791082476346213e-06,3.47901368056012e-05,1.379748122480058e-06,1.061783601061439e-06,1.092751003391593e-06,1.2358744338369471e-06
112,7.515564146173448e-07,1.3203675744580233e-06,3.5447580982765e-06,6.239624943813196e-06,1.1172724109810276e-06,1.2486779466675459e-06,2.163227914511265e-06,1.0934260369031262e-06,1.3522951410517122e-05,1.4395181718839404e-06,1.9008668682842217e-06,3.475801163409556e-05,1.3717474064229383e-06,1.0891793063456034e-06,1.0695101761339468e-06,1.2278405644411584e-06
113,7.662801982899007e-07,1.3201621701736217e-06,3.598454780020581e-06,6.3282751714410965e-06,1.1234411264166822e-06,1.2574273791621125e-06,2.1238822170257205e-06,1.103074247905656e-06,1.3965724976344671e-05,1.4129605586807823e-06,1.9169680330032094e-06,3.4741773248523545e-05,1.3621102646732277e-06,1.1159292079418076e-06,1.0467187294616668e-06,1.2242325186948299e-06
114,7.825346201400106e-07,1.3173967200240191e-06,3.6555032425997934e-06,6.425055213679744e-06,1.1266539490284146e-06,1.2657778036287327e-06,2.082362252647645e-06,1.111873718135579e-06,1.4364164317294012e-05,1.3839852030311573e-06,1.9273786897411336e-06,3.471529323516456e-05,1.3501801230611418e-06,1.1414338320270834e-06,1.0246916704871932e-06,1.2249815793544667e-06
115,7.998088942963291e-07,1.3122289705540658e-06,3.714254449800174e-06,6.53018469025066e-06,1.126657563800658e-06,1.2742650373247638e-06,2.039979792652427e-06,1.119831721074663e-06,1.4707772081314157e-05,1.3534043766132464e-06,1.932222039144468e-06,3.4662560808621575e-05,1.3356754079456606e-06,1.1650557018093715e-06,1.0038077874405935e-06,1.2299673389877132e-06
116,8.176784361163092e-07,1.3049287768069522e-06,3.7724465147962623e-06,6.644153452820447e-06,1.123120211487523e-06,1.2833134358481203e-06,1.9977420193853793e-06,1.1272551011990575e-06,1.498668958427422e-05,1.321938767071503e-06,1.9317789949849063e-06,3.4578272622574736e-05,1.3187727200112407e-06,1.1860677819232025e-06,9.845685138211458e-07,1.239050474509089e-06
117,8.358044834519369e-07,1.2959586157941602e-06,3.827379435707577e-06,6.7677790730641e-06,1.115737381528457e-06,1.293215967759207e-06,1.956436451682512e-06,1.1346168481908577e-06,1.5191643709166219e-05,1.2901685899465486e-06,1.926344544009455e-06,3.446396887789177e-05,1.300029484250291e-06,1.203700886818704e-06,9.675127632249653e-07,1.252035282985677e-06
118,8.538815854426836e-07,1.2859037571662641e-06,3.876332160881895e-06,6.902093633456664e-06,1.104440743912045e-06,1.3041271915355597e-06,1.9167402602295575e-06,1.142368280005875e-06,1.5316607539934922e-05,1.2586081199737072e-06,1.9160152790900557e-06,3.432265790591768e-05,1.280298414081342e-06,1.217305427437786e-06,9.530914734178669e-07,1.2686327196494884e-06
119,8.715817581429888e-07,1.275314927225897e-06,3.917055917744549e-06,7.048121723818844e-06,1.089539392971317e-06,1.3160781073238185e-06,1.8793553355079187e-06,1.15082886614876e-06,1.536190586150753e-05,1.2277995823848046e-06,1.9006176829107707e-06,3.4156650385473e-05,1.2606804060263856e-06,1.2265678405692587e-06,9.416115653324599e-07,1.288552832506366e-06
120,8.885385253303524e-07,1.2645946614829292e-06,3.9480151665676335e-06,7.206583190706275e-06,1.0716868628427737e-06,1.3289545833817146e-06,1.8451410134480177e-06,1.160132993586581e-06,1.5334062940089392e-05,1.1982820994451688e-06,1.879876084623235e-06,3.396913030506795e-05,1.2424262773653286e-06,1.2316205291626344e-06,9.332601321440923e-07,1.3116551151109107e-06
121,9.043867729955037e-07,1.2540073412283658e-06,3.968167672125557e-06,7.377501133078972e-06,1.0517388300226802e-06,1.342483764775133e-06,1.815174981522946e-06,1.170199125329976e-06,1.52425257222032e-05,1.1704723852374491e-06,1.8536833915376115e-06,3.376519427078837e-05,1.2267840453917666e-06,1.2329068538101077e-06,9.281498938803245e-07,1.337967704161007e-06
122,9.188381560463005e-07,1.2437690791386439e-06,3.976453199307508e-06,7.559799935013096e-06,1.0306163474359222e-06,1.3563104483190092e-06,1.7907025113236246e-06,1.1807533459950071e-06,1.5096459564024064e-05,1.14459538543274e-06,1.82224811050201e-06,3.35502915527196e-05,1.2148864209774587e-06,1.2309083699688625e-06,9.263114338053615e-07,1.3675428604607201e-06
123,9.317485547161803e-07,1.2341188139417875e-06,3.97150272359632e-06,7.751167198184821e-06,1.009218838607698e-06,1.3701112677399291e-06,1.7730074110016203e-06,1.191377152406999e-06,1.4903300015592879e-05,1.1207353862157219e-06,1.7860832567328783e-06,3.332881959251617e-05,1.2076871662024291e-06,1.2259869770228911e-06,9.27641941953299e-07,1.4002839324574295e-06
124,9.431272952498993e-07,1.2253125891907516e-06,3.951879916630522e-06,7.948325298290154e-06,9.883687420047998e-07,1.3836420629629436e-06,1.7632939611650722e-06,1.2015219344715619e-06,1.4668521342260101e-05,1.0989614190698433e-06,1.7460015861151788e-06,3.310542767796054e-05,1.2059169078455616e-06,1.218410933482387e-06,9.318894465532625e-07,1.4358767519982312e-06
125,9.530675978494093e-07,1.2175453231499278e-06,3.916632459255271e-06,8.14753824177308e-06,9.687881453434126e-07,1.3966821848689242e-06,1.7626456213562217e-06,1.2105680711172937e-06,1.4395800628809566e-05,1.0794081120650358e-06,1.703146375446042e-06,3.2887750775657835e-05,1.2100909855785268e-06,1.208402070424767e-06,9.387086225273842e-07,1.4738401367432908e-06
126,9.6163667939591e-07,1.2108533240900062e-06,3.865775518976785e-06,8.345145506087638e-06,9.511412686196403e-07,1.4089230925220392e-06,1.7720381938666277e-06,1.2180191253702214e-06,1.4087072885075012e-05,1.0622348542663162e-06,1.658889481606505e-06,3.268744891634339e-05,1.2205664092686497e-06,1.1961033273914702e-06,9.477338555241485e-07,1.5135840226208526e-06
127,9.68799509973332e-07,1.2050711644634633e-06,3.800465291975249e-06,8.538061662602201e-06,9.361202866828598e-07,1.419918500242376e-06,1.792325828413065e-06,1.2237079303220947e-06,1.3742863070416455e-05,1.0475167411941603e-06,1.6145806818877205e-06,3.251828007338599e-05,1.237573047416677e-06,1.1815496417986231e-06,9.585895789926382e-07,1.5543982449245992e-06
128,9.744329416211478e-07,1.199894207938694e-06,3.7227434190524335e-06,8.724208690874723e-06,9.244799529163401e-07,1.429154412352631e-06,1.8241621479381094e-06,1.2278245437674789e-06,1.3363514732134105e-05,1.0352001000408947e-06,1.571368591471466e-06,3.23925962803169e-05,1.261187717022107e-06,1.1647209300968872e-06,9.708842405414943e-07,1.595449614146528e-06
129,9.784148520734832e-07,1.19502291380876e-06,3.6349859708558557e-06,8.902776558781408e-06,9.169755886803798e-07,1.436153561777454e-06,1.8679147133243821e-06,1.2307683383342842e-06,1.2950624343781605e-05,1.0251759587287662e-06,1.5302098243463882e-06,3.231826499248382e-05,1.291307354673751e-06,1.1456453718675217e-06,9.842652830202924e-07,1.6358763743484009e-06
130,9.807157810936375e-07,1.1902821286177812e-06,3.5394414341540174e-06,9.074136306887874e-06,9.142615633388226e-07,1.4405190619584657e-06,1.9236396621714985e-06,1.2329602713160626e-06,1.2507544245160497e-05,1.0173567295432372e-06,1.491954554161039e-06,3.229684536386136e-05,1.3276582754085102e-06,1.1244596163232987e-06,9.984494547540002e-07,1.6749221629453296e-06
131,9.814556189639324e-07,1.1856149866449521e-06,3.438143962205588e-06,9.23927747890383e-06,9.168276861818321e-07,1.4419141401179275e-06,1.991146093989309e-06,1.2347244770644863e-06,1.2038752523490674e-05,1.0116472717297841e-06,1.457389052592873e-06,3.232287811152884e-05,1.3698002527291334e-06,1.101358272343678e-06,1.0131606240130591e-06,1.7119674516926083e-06
132,9.809334084366095e-07,1.1809622087724861e-06,3.333112535129417e-06,9.398882145495683e-06,9.249978312197173e-07,1.4400203836361432e-06,2.070172735852165e-06,1.23630767015761e-06,1.1548731909558824e-05,1.0078868822039998e-06,1.4272064684702463e-06,3.238424415887693e-05,1.4170976827910244e-06,1.0764899435869183e-06,1.0280722609413671e-06,1.7464453490466349e-06
133,9.796171518971375e-07,1.1761494516900733e-06,3.2265050121077535e-06,9.552472154245522e-06,9.389530919244662e-07,1.4345131187398038e-06,2.1605814632311387e-06,1.238033171480149e-06,1.1041149195196907e-05,1.0058452313950467e-06,1.401921908156583e-06,3.2463713840732216e-05,1.468701844203388e-06,1.0499246675569925e-06,1.0428253272038743e-06,1.777813676126523e-06
134,9.780707242680399e-07,1.1708922725067212e-06,3.120518536622945e-06,9.69815251922436e-06,9.587374625209606e-07,1.425065532812365e-06,2.262357360801432e-06,1.2404596900508424e-06,1.0518529418152238e-05,1.0052066024532036e-06,1.3818009484022838e-06,3.2541286491607976e-05,1.5235598078633323e-06,1.0217190822072724e-06,1.0570698881953347e-06,1.8056675771884406e-06
135,9.768377004605169e-07,1.1649097504289441e-06,3.0171192815176153e-06,9.83303292134247e-06,9.842819526282657e-07,1.4113498089332996e-06,2.3753925466532805e-06,1.2443915120037107e-06,9.982166985657214e-06,1.0055107792036826e-06,1.3668625529169503e-06,3.259634356274514e-05,1.580392439329245e-06,9.919992335598812e-07,1.0704648898959774e-06,1.8298448007474769e-06
136,9.763425353170496e-07,1.1580621092198386e-06,2.91780306569623e-06,9.953872311793737e-06,1.0154935499848431e-06,1.3930040246269982e-06,2.499287502532712e-06,1.250737788507485e-06,9.432597560484166e-06,1.0061501333021954e-06,1.3569065927573085e-06,3.260870436603229e-05,1.6376570890494404e-06,9.610066484043288e-07,1.0826373492762275e-06,1.850366875620977e-06
137,9.768628507724735e-07,1.1504325941507211e-06,2.8234921187683996e-06,1.0057531453234919e-05,1.0523316963186155e-06,1.3696324331546619e-06,2.6333260741572815e-06,1.2603938696744575e-06,8.871125663405495e-06,1.0065037751970604e-06,1.3515093899428914e-06,3.255849449448637e-05,1.6936200892872809e-06,9.291152590945677e-07,1.0931567199693318e-06,1.867246943701604e-06
138,9.785622050149728e-07,1.1423032777619635e-06,2.734570872116589e-06,1.0141170589921678e-05,1.0947928036824542e-06,1.3409317410921468e-06,2.7765551697800815e-06,1.2742380988215279e-06,8.301491863785762e-06,1.0061464434308666e-06,1.3500333723230096e-06,3.2425886152832336e-05,1.7465735146625024e-06,8.968093833323563e-07,1.101570458876044e-06,1.8803579070180834e-06
139,9.815406953223983e-07,1.1340271140067087e-06,2.651007239835473e-06,1.0202277510843039e-05,1.1428892456695075e-06,1.3068509994016117e-06,2.9278677690740157e-06,1.2931243111662223e-06,7.730083808848794e-06,1.0049590242033454e-06,1.3516793457206339e-06,3.2192052348588564e-05,1.7950662862078548e-06,8.646305722177745e-07,1.1074999663670095e-06,1.8895011872519045e-06
140,9.858982183957764e-07,1.125869408191731e-06,2.5724779974434764e-06,1.0238643880766478e-05,1.1967130589156283e-06,1.2676221310069839e-06,3.0860611006788456e-06,1.3178287742114246e-06,7.164577229079458e-06,1.0030375480751875e-06,1.3555795048799895e-06,3.184130257642504e-05,1.8380332977473202e-06,8.331509975229813e-07,1.110753707354092e-06,1.8945598336190647e-06
141,9.91788046854212e-07,1.1179157947772423e-06,2.4984563104492006e-06,1.0248422374667814e-05,1.2565317758125144e-06,1.2236969711163268e-06,3.2498753919277312e-06,1.3490323948464857e-06,6.612291196618829e-06,1.0005122690704305e-06,1.3609531822026854e-06,3.136257602307995e-05,1.8748256401474317e-06,8.029624287058307e-07,1.1114041663432168e-06,1.895517724975161e-06
142,9.994114306397867e-07,1.1100845076746147e-06,2.4282540105484982e-06,1.0230282389098093e-05,1.3228352755956438e-06,1.1756955610310598e-06,3.418020019119446e-06,1.3873071836802076e-06,6.0792753813932765e-06,9.974499960930403e-07,1.367232860933205e-06,3.0748301778274724e-05,1.9051888038778867e-06,7.746302320005736e-07,1.1097997470011496e-06,1.892353278310556e-06
143,1.0089594123042321e-06,1.102215155151695e-06,2.361025962698567e-06,1.0183528266804106e-05,1.3962809506855338e-06,1.124343264927861e-06,3.589159568407568e-06,1.433074336931548e-06,5.570175267426964e-06,9.938433323441605e-07,1.3740122944551e-06,2.999142831422994e-05,1.929174870448005e-06,7.486345239886949e-07,1.106494760840145e-06,1.8849827158655542e-06
144,1.0205375195234785e-06,1.094195550565911e-06,2.295784053753968e-06,1.01080434805498e-05,1.4775249264621743e-06,1.0704077534476046e-06,3.761816895747379e-06,1.4865977658852787e-06,5.088447739818862e-06,9.896159133213646e-07,1.380878254055213e-06,2.908532005005113e-05,1.9469378939009187e-06,7.253382918428568e-07,1.1021182210341565e-06,1.873274196425119e-06
145,1.034103826396447e-06,1.0860745416650987e-06,2.231464015328076e-06,1.0004042169532609e-05,1.567029568607203e-06,1.0147274560876561e-06,3.934195298378293e-06,1.5480347212855726e-06,4.636630844857174e-06,9.846512717881659e-07,1.3873329268193384e-06,2.8029217500562976e-05,1.9584954239611677e-06,7.049857017146119e-07,1.0972574706380383e-06,1.8570851999776956e-06
146,1.0494655155639088e-06,1.0780874819159523e-06,2.1670438865423348e-06,9.87166947857375e-06,1.664954240807299e-06,9.582679135767784e-07,4.103967763367998e-06,1.6175059744953009e-06,4.216579322269805e-06,9.788573166578086e-07,1.3928715652325117e-06,2.683439199750919e-05,1.9636498454949455e-06,6.877251249259767e-07,1.092407219584551e-06,1.8363909312828206e-06
147,1.06634973240122e-06,1.0705778376338294e-06,2.1016870155587382e-06,9.710464812479984e-06,1.7711316770360943e-06,9.020554361740089e-07,4.268135528498296e-06,1.6951620534355778e-06,3.829617962426427e-06,9.722269056359158e-07,1.397112706307184e-06,2.552458312300706e-05,1.9620871037258303e-06,6.736375370929809e-07,1.0880003944875117e-06,1.8114259655801896e-06
148,1.084488881458956e-06,1.0638948094130315e-06,2.034854011936917e-06,9.518911818364829e-06,1.8850662301382983e-06,8.470344644830847e-07,4.423118838083576e-06,1.7812430906978573e-06,3.4765678346563263e-06,9.64837217271414e-07,1.3998725632131974e-06,2.4130860164327238e-05,1.953462813331048e-06,6.627458373983254e-07,1.0844925427927674e-06,1.7826235644192754e-06
149,1.103635322542258e-06,1.058330883456064e-06,1.966338614777662e-06,9.294709237089569e-06,2.0059159535224053e-06,7.939905148065703e-07,4.565179969162272e-06,1.8761105119667386e-06,3.1576713789807583e-06,9.56772379571763e-07,1.4011177899523616e-06,2.2685822777018236e-05,1.9374041546233353e-06,6.550282010560621e-07,1.0823839812939677e-06,1.750432712513703e-06
150,1.1235056403604318e-06,1.0540871134980833e-06,1.896260274790239e-06,9.036036920917837e-06,2.132490805518055e-06,7.435452351375636e-07,4.6910747638297856e-06,1.9802013604951517e-06,2.872551813079637e-06,9.480558960520569e-07,1.4008206392620601e-06,2.1220492032601498e-05,1.9135795771620693e-06,6.504591275348559e-07,1.0821419043636384e-06,1.715273962930879e-06
151,1.143735431089528e-06,1.0512776779650621e-06,1.825068012800298e-06,8.743031977479625e-06,2.2633086552054353e-06,6.961620146831586e-07,4.798643014165362e-06,2.093888824056659e-06,2.620318508834191e-06,9.3869180401928e-07,1.398879081424022e-06,1.9763328536799603e-05,1.881914134244174e-06,6.490342620573479e-07,1.0841198633722058e-06,1.6776266095353137e-06
152,1.1638711161815497e-06,1.0499722571088689e-06,1.753533596818629e-06,8.418468530031803e-06,2.3966824952581333e-06,6.521477634814514e-07,4.887055556852142e-06,2.217300567373818e-06,2.3997267019427505e-06,9.287796329371361e-07,1.3951844358773645e-06,1.833963699333088e-05,1.8427950015740528e-06,6.50743124573103e-07,1.0885172065164843e-06,1.638063540912797e-06
153,1.1833873885144672e-06,1.0501923019109145e-06,1.6826694386307925e-06,8.067423375173765e-06,2.530793014923215e-06,6.116652829721148e-07,4.956650999973771e-06,2.350170732828059e-06,2.2092265870286144e-06,9.185668415986874e-07,1.3896758674893746e-06,1.6971246838304825e-05,1.797091752448261e-06,6.555229849842922e-07,1.0953521806648312e-06,1.5971937668723565e-06
154,1.2017501730282404e-06,1.0518588772321932e-06,1.6135569101074166e-06,7.696337764189836e-06,2.6637232653358088e-06,5.747602330890833e-07,5.008464258323467e-06,2.4917661416915464e-06,2.0469507115141914e-06,9.083663253770889e-07,1.382258815595547e-06,1.567695769700022e-05,1.7459814989895652e-06,6.632270291366666e-07,1.1044378085346939e-06,1.5555844306321524e-06
155,1.218484031430338e-06,1.054771213258865e-06,1.5471475461075932e-06,7.3119193883090856e-06,2.7934471780822008e-06,5.414028566048447e-07,5.043599156251042e-06,2.640876427241119e-06,1.9108172573487233e-06,8.984190946244166e-07,1.3727159459296855e-06,1.4473197433070022e-05,1.6907338198310796e-06,6.736048787986283e-07,1.1153624407262967e-06,1.5136842055344579e-06
156,1.2331780007127811e-06,1.0586013269949931e-06,1.4841339673628676e-06,6.92020168233571e-06,2.917823982131241e-06,5.115579402567747e-07,5.062741952304456e-06,2.7958289447889086e-06,1.7987393007127057e-06,8.888280273286611e-07,1.3607866937089889e-06,1.3374314859590712e-05,1.632643880336108e-06,6.862934410607757e-07,1.1274892030231195e-06,1.4717656823635978e-06
157,1.2454729756889225e-06,1.0628816854216233e-06,1.4249299447061382e-06,6.52610093237768e-06,3.0346941061453766e-06,4.852540397027558e-07,5.0661233187763774e-06,2.9544872081311936e-06,1.7087759947013844e-06,8.795862853480461e-07,1.346359481564547e-06,1.23927497856018e-05,1.5730991190899277e-06,7.00824288895263e-07,1.1399951660833086e-06,1.4299753971344e-06
158,1.2551043483654138e-06,1.0670585411216716e-06,1.369706868181863e-06,6.133605254170615e-06,3.1420800746517765e-06,4.6258172697617934e-07,5.053840637208698e-06,3.1142538712944444e-06,1.639186839604893e-06,8.70636248856345e-07,1.3295232968755896e-06,1.1539353740410225e-05,1.513590117692526e-06,7.166566358385486e-07,1.151960471894905e-06,1.3885087769496194e-06
159,1.2619809855385977e-06,1.0706474049142126e-06,1.3184322785077748e-06,5.746247501454784e-06,3.2383609300795806e-06,4.436333306848382e-07,5.026158234762831e-06,3.272176327227711e-06,1.5884954202544466e-06,8.619432991540068e-07,1.3104051761913336e-06,1.082379495563829e-05,1.455597589888534e-06,7.332300782134418e-07,1.1624990359508124e-06,1.3477745010181225e-06
160,1.2662151690389668e-06,1.0733990276125096e-06,1.2709138797988607e-06,5.367429829623959e-06,3.3223213133315135e-06,4.2845691034554553e-07,4.9835887723063044e-06,3.4251803324728676e-06,1.5555950263119493e-06,8.536296271409736e-07,1.2890198425839263e-06,1.0254951490808644e-05,1.4004787663461894e-06,7.500130886957218e-07,1.1709301683784281e-06,1.3084337925154566e-06
161,1.2680411909423033e-06,1.075351886380536e-06,1.2268698859015022e-06,5.000498018807882e-06,3.3931620517386683e-06,4.1703699286358855e-07,4.926839446310013e-06,3.5703391392337008e-06,1.539782890064572e-06,8.460901653938132e-07,1.2653106074160893e-06,9.841264863012568e-06,1.3494857304215012e-06,7.665238903263501e-07,1.1769458052424237e-06,1.2713178586718396e-06
162,1.2676628417976504e-06,1.0767379662604083e-06,1.1860261827123692e-06,4.648681172818347e-06,3.450592838767336e-06,4.092871634370607e-07,4.856762433183637e-06,3.705132839691306e-06,1.540621658339359e-06,8.399321501209225e-07,1.2393291919940961e-06,9.5909702409341e-06,1.303870460516125e-06,7.823172402901287e-07,1.1806153676381243e-06,1.2372821941257842e-06
163,1.2651573970857707e-06,1.0778202250113222e-06,1.1482033300221847e-06,4.314981523454129e-06,3.4948852862705974e-06,4.050615741717333e-07,4.774400469441836e-06,3.827709795198686e-06,1.5576895127852237e-06,8.35785162860008e-07,1.2114185629000713e-06,9.512069981719997e-06,1.264895665492307e-06,7.96967326049263e-07,1.1821822290006354e-06,1.2070637634062116e-06
164,1.2604935079778744e-06,1.078776106607688e-06,1.1133230394786797e-06,4.001998414810376e-06,3.526778506534731e-06,4.0417388997309985e-07,4.681168835359659e-06,3.937052366673454e-06,1.590389190504447e-06,8.341749665953146e-07,1.1822963200909096e-06,9.612009784554515e-06,1.2337128616530955e-06,8.100641770885122e-07,1.1818486659247733e-06,1.1811821053549398e-06
165,1.253589821708505e-06,1.079673330147772e-06,1.0813279842627168e-06,3.711714936661151e-06,3.547483543138653e-06,4.0639545445688217e-07,4.579039855159566e-06,4.032844142350148e-06,1.6378947419821939e-06,8.355122647437042e-07,1.1529893677632803e-06,9.897165792071175e-06,1.211252098330381e-06,8.21206784056942e-07,1.1797181587475167e-06,1.159900077709034e-06
166,1.2443558712405241e-06,1.0804886058162652e-06,1.052136742349803e-06,3.4453637609187355e-06,3.5588037792963743e-06,4.114447073739771e-07,4.470419298037838e-06,4.114997102258173e-06,1.6991875859570089e-06,8.401122810390162e-07,1.1246569667767775e-06,1.0372402694034184e-05,1.1982143632720023e-06,8.300272717220699e-07,1.1758717381593047e-06,1.1432360007156086e-06
167,1.2327368508966413e-06,1.0810985380625683e-06,1.0256903139684046e-06,3.2034009354964314e-06,3.5630147118055615e-06,4.1901283437922655e-07,4.357640526236883e-06,4.183148542437447e-06,1.7731371773762557e-06,8.482169677061407e-07,1.0984122067807615e-06,1.1040927078198563e-05,1.1951448292722373e-06,8.362701221113319e-07,1.1704408889031725e-06,1.1310067530994062e-06
168,1.218779736127006e-06,1.0812338213761041e-06,1.0019714519876821e-06,2.985524185752179e-06,3.562592607590595e-06,4.2883081782761584e-07,4.24244736812646e-06,4.23649086701869e-06,1.8585752921389662e-06,8.600346652180795e-07,1.0752112871967294e-06,1.1904344648304262e-05,1.202516211803755e-06,8.398248200904573e-07,1.1635798654425862e-06,1.1229291260010728e-06
169,1.2026850594942175e-06,1.0804627872955604e-06,9.80954194074573e-07,2.7907258352854785e-06,3.5600884171107727e-06,4.40722681439683e-07,4.125791116827726e-06,4.273938108003838e-06,1.954296573046977e-06,8.757487264326759e-07,1.055797968569776e-06,1.2962712146000497e-05,1.220733622640247e-06,8.406505111944699e-07,1.155388860408275e-06,1.1187587785206116e-06
170,1.1847905754441761e-06,1.0782668356782193e-06,9.625847800117085e-07,2.6174262291476373e-06,3.5580429058111697e-06,4.5459325311337657e-07,4.007857852233062e-06,4.2944080855228365e-06,2.0590540707754963e-06,8.954702926104104e-07,1.0406836804092678e-06,1.4214557800254038e-05,1.250059632489856e-06,8.38709509411534e-07,1.1458617819109467e-06,1.1183330738848711e-06
171,1.1654876463976578e-06,1.0741899952007464e-06,9.468137071514628e-07,2.463703984085143e-06,3.5588494515511428e-06,4.703700666349117e-07,3.888205905732223e-06,4.297087994901916e-06,2.171654960711409e-06,9.191868329934461e-07,1.0301550423577267e-06,1.5656872673707732e-05,1.2905470735997863e-06,8.34000283057069e-07,1.1348620048106607e-06,1.121496658749482e-06
172,1.1451404015752925e-06,1.067993535019426e-06,9.336130968743058e-07,2.3275489095277778e-06,3.564655221930947e-06,4.879586504560788e-07,3.766110999437174e-06,4.281634269656539e-06,2.291045562390194e-06,9.467330185294084e-07,1.0242975887023049e-06,1.7284988286044783e-05,1.3420093391169406e-06,8.266287607777034e-07,1.1221554248613774e-06,1.1280410775783178e-06
173,1.1240608503239404e-06,1.0597426823449769e-06,9.229511801340725e-07,2.207024028806965e-06,3.577294329464964e-06,5.072246716311425e-07,3.641085343428682e-06,4.248284883840052e-06,2.4162474219722407e-06,9.777719633198564e-07,1.0230249718368464e-06,1.9092336083306583e-05,1.4040101929144635e-06,8.168521183213311e-07,1.107541680576036e-06,1.1377595892444503e-06
174,1.102519522119698e-06,1.04976287908219e-06,9.1472879321185e-07,2.100316584706631e-06,3.598214613961841e-06,5.279874148239966e-07,3.513292103255483e-06,4.197914925354614e-06,2.546213731149733e-06,1.0118036940158106e-06,1.0261186673890971e-06,2.1070216152414073e-05,1.475893377388949e-06,8.050802966652397e-07,1.0910188504213307e-06,1.1505803661302296e-06
175,1.0807481482236589e-06,1.038494456874454e-06,9.087152069034851e-07,2.005731006028288e-06,3.6284232938013787e-06,5.50023925051018e-07,3.3836852233253985e-06,4.132060112660189e-06,2.679687316364969e-06,1.048234585656347e-06,1.033326906999549e-06,2.3207678321147e-05,1.5568673616816988e-06,7.918280109757068e-07,1.0728481859796405e-06,1.166591096528441e-06
176,1.058912625129433e-06,1.0263835590274985e-06,9.045456219957424e-07,1.921623140169009e-06,3.6684554844903376e-06,5.73069966326996e-07,3.2539220583402456e-06,4.052860713388905e-06,2.8150610477090947e-06,1.0864613118245117e-06,1.0445077647415463e-06,2.5491527477080064e-05,1.6461116296900188e-06,7.776626038636094e-07,1.053486421960944e-06,1.1858846591800516e-06
177,1.0370689738983561e-06,1.0138578631916553e-06,9.017813694783216e-07,1.8463010760541153e-06,3.7183512619878996e-06,5.968131292134989e-07,3.1261161966594942e-06,3.9628689227350665e-06,2.9503336177267456e-06,1.1258790846232564e-06,1.0596707537820133e-06,2.7906468346049517e-05,1.7428478198943903e-06,7.632205834613741e-07,1.0334582904894337e-06,1.2083923438385696e-06
178,1.0151711010521786e-06,1.001307204533563e-06,8.999636295091314e-07,1.7780723582122212e-06,3.7776477840298572e-06,6.209091963834481e-07,3.0024681076815097e-06,3.864756998816529e-06,3.0832533664913297e-06,1.1658628564771204e-06,1.0788596306112713e-06,3.043538500699981e-05,1.8463352689230063e-06,7.492511399154492e-07,1.0132340707125491e-06,1.2338154103868109e-06
179,9.931707825776089e-07,9.890659066649928e-07,8.986343908295922e-07,1.7155430819801785e-06,3.845389668144154e-06,6.450229588381041e-07,2.8848752746370484e-06,3.761052134072356e-06,3.211525823774624e-06,1.2058419341352115e-06,1.1020092130745404e-06,3.3059560113395765e-05,1.955794246821363e-06,7.365720687826356e-07,9.93172095838579e-07,1.2616104927537685e-06
180,9.711252608053143e-07,9.774234694088195e-07,8.97370530952382e-07,1.657966387943806e-06,3.920152789229448e-06,6.688473581408764e-07,2.7746637738101007e-06,3.654012022907666e-06,3.3328882285711488e-06,1.2454095940326792e-06,1.1288859164824167e-06,3.575846800408016e-05,2.0703036217550136e-06,7.259504304664622e-07,9.735373105664748e-07,1.2909894022234042e-06
181,9.492077854961822e-07,9.666092586904088e-07,8.958345834852092e-07,1.60534025636393e-06,4.000082950388054e-06,6.920936403566937e-07,2.6724956191960205e-06,3.545664454590128e-06,3.44498988110281e-06,1.284306798554302e-06,1.1590956298820967e-06,3.850886168149627e-05,2.1887351405554633e-06,7.180198088693894e-07,9.545189515149799e-07,1.3209747603634854e-06
182,9.276227841096366e-07,9.5676395611541e-07,8.937687174100509e-07,1.5581640826346095e-06,4.082951080334954e-06,7.145042894129777e-07,2.5783830117590635e-06,3.4379330279548545e-06,3.5451892242997275e-06,1.322302791950167e-06,1.1921147750535008e-06,4.128308073523027e-05,2.3097397197730657e-06,7.132669029144414e-07,9.362232671287258e-07,1.350566073784596e-06
183,9.065102736386874e-07,9.479654096070178e-07,8.90913284239213e-07,1.5170372991150808e-06,4.166223448255288e-06,7.358814766694043e-07,2.491735274712675e-06,3.332719311268054e-06,3.630583281620179e-06,1.3591509961169754e-06,1.2273356498273751e-06,4.4047367413999006e-05,2.431721090478686e-06,7.12036669792869e-07,9.186888896490326e-07,1.3789435310522063e-06
184,8.859191049755383e-07,9.402596692082095e-07,8.869545671120649e-07,1.4823620895287546e-06,4.247147047226107e-06,7.560725451141736e-07,2.4114736002112365e-06,3.231853354618256e-06,3.6984718669746135e-06,1.3946655911047496e-06,1.2641395629626674e-06,4.676296978342768e-05,2.552763822400153e-06,7.145287041423831e-07,9.019144088636907e-07,1.4055254318952098e-06
185,8.658506378157471e-07,9.336252709724841e-07,8.815822851394461e-07,1.45422745777335e-06,4.322850693904014e-06,7.749478186829489e-07,2.3362686428316385e-06,3.1369184869621912e-06,3.746946281062627e-06,1.4287787894531707e-06,1.3019750976095482e-06,4.9392743772098026e-05,2.670591557503233e-06,7.208070995905507e-07,8.858732245271572e-07,1.4298590298496594e-06
186,8.463138776398956e-07,9.279333970160311e-07,8.745645171166162e-07,1.4324033896307206e-06,4.390461125028856e-06,7.924144759973692e-07,2.264819287379937e-06,3.0490334477089677e-06,3.7751775371967285e-06,1.461489524972741e-06,1.3403664186313418e-06,5.1911084213113864e-05,2.782583936392825e-06,7.308334887240064e-07,8.705380136781995e-07,1.451569863259749e-06
187,8.273398089236346e-07,9.229900666652251e-07,8.657229761228084e-07,1.416427697274861e-06,4.447233575074331e-06,8.0840956444143e-07,2.1960416839026766e-06,2.968705726698076e-06,3.7833791143103587e-06,1.4927928526967507e-06,1.378826737661697e-06,5.4309956582203915e-05,2.8858274327282268e-06,7.444885428864641e-07,8.559063034617881e-07,1.4704824111320511e-06
188,8.089341693932601e-07,9.186294042744326e-07,8.548938334629388e-07,1.4057729303322658e-06,4.490696346853039e-06,8.228683246677465e-07,2.1291539138107824e-06,2.895795686621431e-06,3.772545808044561e-06,1.5227148818895397e-06,1.4167786844824605e-06,5.659550200262551e-05,2.9772995081322665e-06,7.615615687662828e-07,8.419937574460688e-07,1.4867304479976332e-06
189,7.909955709397147e-07,9.147775477770408e-07,8.420028284543644e-07,1.399956445123228e-06,4.5187556088635236e-06,8.357422857063039e-07,2.0636976951317615e-06,2.829533643905719e-06,3.7440147453085107e-06,1.5514096459409975e-06,1.453561042391864e-06,5.877866716822621e-05,3.054219028652433e-06,7.817366416978102e-07,8.288076578947188e-07,1.500669938994656e-06
190,7.732622737303481e-07,9.114503887461226e-07,8.271686986894655e-07,1.3984979895884385e-06,4.5296552524982586e-06,8.470365068728392e-07,1.999500618064282e-06,2.7685514744897337e-06,3.699191877204302e-06,1.5791471399747455e-06,1.4884607598104323e-06,6.086933431365905e-05,3.114340869233033e-06,8.046032144310185e-07,8.163176567674884e-07,1.5126454137684397e-06
191,7.553364813372791e-07,9.086991189397175e-07,8.106866228889945e-07,1.4008468044811172e-06,4.521940255267734e-06,8.567822671469919e-07,1.936600791881419e-06,2.710930449071692e-06,3.6397725262172385e-06,1.6061445729866526e-06,1.52072784331046e-06,6.287629834179429e-05,3.1560507998934547e-06,8.296904665075164e-07,8.044164935821667e-07,1.5228039481458902e-06
192,7.368019836297694e-07,9.065591263361213e-07,7.929319213038799e-07,1.4063833106554165e-06,4.494756645330031e-06,8.649877031834152e-07,1.875182992900579e-06,2.6543154016487476e-06,3.5681129583009597e-06,1.6323730662666057e-06,1.5495701852429268e-06,6.48080120900248e-05,3.1783832946635577e-06,8.565025655658985e-07,7.929085169111606e-07,1.5310852923645546e-06
193,7.173969886167181e-07,9.050394014606906e-07,7.743204715079458e-07,1.4144003121107426e-06,4.4482544516213345e-06,8.716323867572374e-07,1.8155206473336548e-06,2.5962199147144963e-06,3.4872027621961846e-06,1.6574499847948316e-06,1.5740986161103398e-06,6.667438836303618e-05,3.1810397752073012e-06,8.845188730217763e-07,7.815771546904632e-07,1.5373532166353012e-06
194,6.971406846681618e-07,9.041214502023716e-07,7.553471227815152e-07,1.4240281116831215e-06,4.383558610792666e-06,8.766878506483454e-07,1.757887552662947e-06,2.5345368023292734e-06,3.4002186958589035e-06,1.6806109591699103e-06,1.5932971826303213e-06,6.849065180472768e-05,3.164262678971005e-06,9.131537339943053e-07,7.702728908247635e-07,1.5415047394266707e-06
195,6.763352414997775e-07,9.037556884515452e-07,7.366257617842551e-07,1.4342364840732761e-06,4.3024425121350735e-06,8.801437179526093e-07,1.7024636179188616e-06,2.468027766693883e-06,3.310038944998655e-06,1.7007386276189635e-06,1.6061334054467064e-06,7.02764801121813e-05,3.1285209305984954e-06,9.417373869014293e-07,7.589097010848132e-07,1.54346951960435e-06
196,6.554579064900865e-07,9.038952904846746e-07,7.188722003549944e-07,1.4439408531022105e-06,4.207071853628413e-06,8.820053986504914e-07,1.6492767770055294e-06,2.39651973036885e-06,3.2190030476823466e-06,1.7164711014766262e-06,1.6117963631079508e-06,7.20483214769811e-05,3.074380958677845e-06,9.695912227209116e-07,7.474017995802085e-07,1.5432186043307274e-06
197,6.350175933441516e-07,9.045514949157579e-07,7.028217461207324e-07,1.4520660817194255e-06,4.099801893365182e-06,8.822479358065456e-07,1.5981709947410454e-06,2.320742055681239e-06,3.1288645210385643e-06,1.7264297201342565e-06,1.6099494759561846e-06,7.381323558229535e-05,3.002868925763893e-06,9.961669764744606e-07,7.35684233809561e-07,1.5408659581130237e-06
198,6.154521901393762e-07,9.058142212752369e-07,6.891312117280242e-07,1.4575359234546477e-06,3.98304053236283e-06,8.80811277239273e-07,1.548822724246856e-06,2.2419734673795668e-06,3.040747292283578e-06,1.7295400336966958e-06,1.6008093919960018e-06,7.557036597481374e-05,2.91593242837966e-06,1.0211298586436865e-06,7.237990866273925e-07,1.5367432255997949e-06
199,5.970983727617696e-07,9.078388785128201e-07,6.78327561564969e-07,1.4593332446555182e-06,3.859252842165342e-06,8.776880128212707e-07,1.500854785595781e-06,2.161702644359062e-06,2.955079343229674e-06,1.7253033823845286e-06,1.5849739001188813e-06,7.731790012592576e-05,2.8164333900672765e-06,1.0443364008017427e-06,7.118972286339339e-07,1.5313318757168838e-06
200,5.802236021227397e-07,9.10834419852579e-07,6.708142656600372e-07,1.4566542547421839e-06,3.7309544933459333e-06,8.730133134540338e-07,1.45397970844994e-06,2.081372616931655e-06,2.871609315162433e-06,1.713859056070172e-06,1.5632260336907583e-06,7.906007552966532e-05,2.707694015435483e-06,1.0657491989543247e-06,7.001667234620748e-07,1.5251025965361826e-06
201,5.650839151281514e-07,9.150624453979496e-07,6.669107313727629e-07,1.449016718215973e-06,3.6005565601430705e-06,8.67047336199021e-07,1.4080597261596875e-06,2.002221664796841e-06,2.7896355007855133e-06,1.6958073163707662e-06,1.5364803918582861e-06,8.080932352056844e-05,2.59298841817038e-06,1.085326404559627e-06,6.887877148211432e-07,1.518414705020345e-06
202,5.519469060534188e-07,9.208211135850968e-07,6.668875244203802e-07,1.43627790496981e-06,3.47013938285826e-06,8.600607159977623e-07,1.3630784917867656e-06,1.925273609971897e-06,2.708544830033443e-06,1.671913077424848e-06,1.5057535936697826e-06,8.258158021061397e-05,2.475229692045856e-06,1.102937856282203e-06,6.779078762029904e-07,1.5115515664124294e-06
203,5.410709649283695e-07,9.283841820606998e-07,6.709613798372434e-07,1.4186354886376816e-06,3.341276215504101e-06,8.522313871449496e-07,1.3190928590504832e-06,1.8514390323353809e-06,2.6285023693779545e-06,1.6428449375474266e-06,1.4721182269515347e-06,8.438758013315524e-05,2.356875580793853e-06,1.1183581692585235e-06,6.676387783891058e-07,1.5048032424474018e-06
204,5.326947145674127e-07,9.379107816452173e-07,6.792558433301305e-07,1.396626041721837e-06,3.214945121393018e-06,8.436341513049545e-07,1.2762230648555765e-06,1.7815556145692747e-06,2.550821543375006e-06,1.6090432203785452e-06,1.4366723665606004e-06,8.622514296975653e-05,2.2399549162619247e-06,1.1313200675613591e-06,6.581092700679442e-07,1.498496113317913e-06
205,5.270444566137324e-07,9.493775693131005e-07,6.917648300987448e-07,1.3710426837154102e-06,3.0915523695849873e-06,8.343276482215939e-07,1.2346859330974595e-06,1.7162958334415e-06,2.477719147638665e-06,1.570757515353955e-06,1.4004583161010766e-06,8.807511339548343e-05,2.1260869292486437e-06,1.141595747170428e-06,6.495144315537158e-07,1.4929503645461364e-06
206,5.243266970232212e-07,9.625644171674454e-07,7.083416865518369e-07,1.3427554662646833e-06,2.971135600847652e-06,8.244642171240281e-07,1.1948151254980606e-06,1.6560449221252669e-06,2.4117113862966756e-06,1.528238703598594e-06,1.3643599621111272e-06,8.990068677848718e-05,2.0164538050116333e-06,1.1490521819292417e-06,6.420886665279011e-07,1.4883865632730096e-06
207,5.247035145704761e-07,9.770935425558622e-07,7.287256743181307e-07,1.3125897439546134e-06,2.853726244475484e-06,8.143057107779218e-07,1.1570122445125319e-06,1.6008450144446464e-06,2.3551208084164097e-06,1.4819778429519082e-06,1.329055865123459e-06,9.164976665555935e-05,1.9117983886885198e-06,1.1536249769799062e-06,6.360626352429851e-07,1.4848736148153763e-06
208,5.282683536226272e-07,9.92492072431612e-07,7.5260632329613e-07,1.2813671470623796e-06,2.73967396935342e-06,8.041359738147586e-07,1.1216408595041649e-06,1.5504265916245803e-06,2.309905044602797e-06,1.4328360354204485e-06,1.2949965608273967e-06,9.326053064657392e-05,1.8124978272288031e-06,1.1553112031235623e-06,6.316710322823179e-07,1.4823828987561897e-06
209,5.350448855418721e-07,1.008223985773145e-06,7.796764214421907e-07,1.2499725499231818e-06,2.6297444824834e-06,7.941727375915686e-07,1.0889374188723273e-06,1.5043229415289567e-06,2.2777995169763253e-06,1.3819695317172054e-06,1.2623825278907856e-06,9.46677118765675e-05,1.7186720661373191e-06,1.1542570745144732e-06,6.291617082727264e-07,1.4808527344319012e-06
210,5.450200715491736e-07,1.023706660127408e-06,8.096181345252166e-07,1.2193147628602379e-06,2.524970262111237e-06,7.845177514537423e-07,1.0589918030086643e-06,1.4620126215367047e-06,2.260684940489887e-06,1.330605161331527e-06,1.2311558001807339e-06,9.580443969412159e-05,1.6302846047164695e-06,1.150772201553208e-06,6.287589693106397e-07,1.4801791481827747e-06
211,5.581743984241433e-07,1.038388896732789e-06,8.420635893019449e-07,1.1902248107988722e-06,2.426389613474866e-06,7.751277306272205e-07,1.0317709068827055e-06,1.4230033127767452e-06,2.2609672504004836e-06,1.2798425486084341e-06,1.2010089843847726e-06,9.660018073174628e-05,1.5472378828031784e-06,1.1451941767462798e-06,6.306390160575485e-07,1.4802015772445695e-06
212,5.744681990232299e-07,1.0518554077369368e-06,8.76608329966072e-07,1.1633726858803375e-06,2.3348618286286644e-06,7.658339796577245e-07,1.0071555019827995e-06,1.386853589772697e-06,2.281768351216e-06,1.230584130656706e-06,1.1714374573020256e-06,9.698382847628564e-05,1.469440755968616e-06,1.1377868684442833e-06,6.349659376654814e-07,1.4807357013901462e-06
213,5.93812576683093e-07,1.063834149901315e-06,9.12852745791763e-07,1.1392372224383304e-06,2.251023400218124e-06,7.564216003651485e-07,9.850155431183308e-07,1.3532010080098773e-06,2.3269024085230458e-06,1.1835593200198612e-06,1.141851654545504e-06,9.689563626430826e-05,1.3968130500123832e-06,1.128786305733403e-06,6.419227900992401e-07,1.4815992959667604e-06
214,6.160735061100603e-07,1.0741057955826299e-06,9.503929842718365e-07,1.1181145844149906e-06,2.1752945461636032e-06,7.467060162625211e-07,9.652855563274524e-07,1.3218046726524148e-06,2.400694779353471e-06,1.1393984371272739e-06,1.111730211518001e-06,9.629938956050708e-05,1.329235016769088e-06,1.1185138846408187e-06,6.516787001561018e-07,1.4825922916594635e-06
215,6.410898817185637e-07,1.0824355559897575e-06,9.887629733016424e-07,1.1001297318361403e-06,2.1078604128108923e-06,7.365604672305178e-07,9.47957737239691e-07,1.2925316424889296e-06,2.5076868418695616e-06,1.0986949030604182e-06,1.0807966808202537e-06,9.518612207840125e-05,1.2664917136679674e-06,1.1074227502762847e-06,6.643398997829859e-07,1.4834408436940976e-06
216,6.686572187135359e-07,1.088567382854307e-06,1.0274103368211088e-06,1.0852630542171617e-06,2.0486388739439556e-06,7.259326792504013e-07,9.330462814283476e-07,1.2652535544564473e-06,2.65232818761138e-06,1.0620038966644638e-06,1.0491673093203457e-06,9.356738040462752e-05,1.208333802416408e-06,1.0960201658274775e-06,6.799314452801437e-07,1.4837524394457003e-06
217,6.984797421737645e-07,1.092213771222473e-06,1.0657459762282815e-06,1.0734117006093416e-06,1.9972582935088213e-06,7.148983657192519e-07,9.205886441720201e-07,1.2397377973892275e-06,2.838781978768759e-06,1.0298307069524806e-06,1.0173385838098396e-06,9.146300308136352e-05,1.154711361149909e-06,1.0847563125544092e-06,6.983898678787273e-07,1.4830496595807678e-06
218,7.301322957449835e-07,1.0930525179247855e-06,1.1031963397398033e-06,1.0644285201067654e-06,1.953088468052906e-06,7.037148404635202e-07,9.106336491468849e-07,1.2156672623534866e-06,3.070833012512065e-06,1.0026517167128567e-06,9.85979663406286e-07,8.889664719479721e-05,1.105967148069787e-06,1.073978786808611e-06,7.195551238952001e-07,1.4808620243715688e-06
219,7.630638938223002e-07,1.0908178689021003e-06,1.139227787213841e-06,1.058085269942373e-06,1.9153817962447357e-06,6.928007676359342e-07,9.03231106159524e-07,1.192795415056681e-06,3.35179616526723e-06,9.809069522634404e-07,9.557047256189434e-07,8.590448506210888e-05,1.0627574452353088e-06,1.0639209087242438e-06,7.431905703707055e-07,1.4768186446872004e-06
220,7.96647274609909e-07,1.085445066609021e-06,1.1734426004247047e-06,1.0540077308651517e-06,1.8834456275974185e-06,6.826414455044727e-07,8.984651962899569e-07,1.171060686712972e-06,3.684381914510449e-06,9.649332588310236e-07,9.269726732620203e-07,8.254213188215564e-05,1.0258053635398313e-06,1.0546897150169162e-06,7.69043607399924e-07,1.4707620181991457e-06
221,8.302564710119752e-07,1.0771365974641655e-06,1.2057540418778571e-06,1.051654767600472e-06,1.8566820569560985e-06,6.736916888291397e-07,8.96458885928144e-07,1.1505250507220616e-06,4.070561124974538e-06,9.549125409806131e-07,9.001012773909788e-07,7.88774304180403e-05,9.957255727163602e-07,1.04628219395667e-06,7.968916154615038e-07,1.4628590020279431e-06
222,8.633484306084802e-07,1.066327801264807e-06,1.2364720036599642e-06,1.0503636269286324e-06,1.834499060366211e-06,6.663267327605348e-07,8.973127607440425e-07,1.1312469428777725e-06,4.5115262777159566e-06,9.508853540438765e-07,8.753448713703896e-07,7.497815749231688e-05,9.729647410664348e-07,1.0386196602610111e-06,8.265107077998513e-07,1.4535829700522903e-06
223,8.955160992657285e-07,1.0536152512498062e-06,1.266202945711868e-06,1.0494238005041657e-06,1.8162349850614946e-06,6.608302648770124e-07,9.010425139124129e-07,1.1132607847217172e-06,5.007783278081553e-06,9.527702067272266e-07,8.529589674297906e-07,7.090662667439142e-05,9.577809622062732e-07,1.0315570539999276e-06,8.576043008335709e-07,1.4435386781299924e-06
224,9.26475131179934e-07,1.0396706173282712e-06,1.295640440335999e-06,1.0481058800473107e-06,1.8011728406691606e-06,6.574012721594498e-07,9.075526181522386e-07,1.0966208275927527e-06,5.559212115437013e-06,9.603373043527923e-07,8.331706622639672e-07,6.671908345440256e-05,9.502329736567207e-07,1.0248590654429245e-06,8.897914946282006e-07,1.433275294840601e-06
225,9.559954599316259e-07,1.0251422499262883e-06,1.3253677444718358e-06,1.0456731659347485e-06,1.7886425171846543e-06,6.56178958752111e-07,9.166269655423394e-07,1.0813774417090665e-06,6.164957975848841e-06,9.731798981092274e-07,8.161014886504426e-07,6.246597796813548e-05,9.501908373371747e-07,1.0181896372198538e-06,9.226890008732486e-07,1.4232083314496814e-06
226,9.838532724814547e-07,1.0105984764007763e-06,1.3557514998935648e-06,1.0414666992869052e-06,1.778176652907325e-06,6.572630748747295e-07,9.279228012053746e-07,1.0675257228129529e-06,6.823337569956112e-06,9.907310155710428e-07,8.017665795728463e-07,5.8195840624532814e-05,9.573556320345646e-07,1.0111763305880764e-06,9.559988064536613e-07,1.413618230923432e-06
227,1.0098467590623441e-06,9.96551013484645e-07,1.3869336380636965e-06,1.0349963749944355e-06,1.7696291184118206e-06,6.607083124108861e-07,9.410020344859839e-07,1.0550306121731496e-06,7.53193259621157e-06,1.0123137591583834e-06,7.901630284950184e-07,5.3961165184397296e-05,9.712687374193784e-07,1.0035285373714414e-06,9.89498625151135e-07,1.4046405690149776e-06
228,1.033813809222128e-06,9.834909365239216e-07,1.4188834579529365e-06,1.0259110329478021e-06,1.7631487620432545e-06,6.665113868691889e-07,9.554217578406466e-07,1.0438927277066407e-06,8.28767589928029e-06,1.03719022970781e-06,7.813324940581265e-07,4.981917335043798e-05,9.913354881115328e-07,9.951134379765163e-07,1.0229781287836326e-06,1.3962534268445458e-06
229,1.0555843282053206e-06,9.718599299567224e-07,1.4514937827129753e-06,1.0139058410550276e-06,1.7589903146194113e-06,6.745979788016354e-07,9.708286659401456e-07,1.0341703035147467e-06,9.086752662359183e-06,1.064587376933625e-06,7.753335940242659e-07,4.582670363304079e-05,1.016873419702431e-06,9.859554508740928e-07,1.0562305828585872e-06,1.3883385354105938e-06
230,1.074928949597354e-06,9.619805329179452e-07,1.484706721705374e-06,9.987306878612662e-07,1.7572626248743055e-06,6.848014971721957e-07,9.870076435907192e-07,1.0259424653405705e-06,9.924383350504493e-06,1.0936833756017038e-06,7.722009695933233e-07,4.2036113927895894e-05,1.0471311192224347e-06,9.762037361096155e-07,1.0890789434131056e-06,1.3807725792956504e-06
231,1.0915989736651466e-06,9.540119396870842e-07,1.5185876946426473e-06,9.803262835721444e-07,1.757756380851643e-06,6.968603971820972e-07,1.0039034225213729e-06,1.0192546276295746e-06,1.0794505273257323e-05,1.1235414734392259e-06,7.719435664475906e-07,3.849594707790537e-05,1.0812626529767702e-06,9.660902863351655e-07,1.1213410290330112e-06,1.3734097845295857e-06
232,1.1053959744379457e-06,9.47946019857193e-07,1.5532607413630288e-06,9.589423225526094e-07,1.759943167920328e-06,7.104435042094159e-07,1.0216289192619073e-06,1.014111904610958e-06,1.1689417819942455e-05,1.153041819529953e-06,7.745299098017531e-07,3.525292216237964e-05,1.1183592204680306e-06,9.558664876462723e-07,1.1527424954037964e-06,1.3659871281148899e-06
233,1.1161566384017653e-06,9.436146048439396e-07,1.5887464995101533e-06,9.351196271916949e-07,1.763158701700468e-06,7.251753864931601e-07,1.0404219501707259e-06,1.0105264895546268e-06,1.2599852321408563e-05,1.18092336921267e-06,7.798565801329318e-07,3.235162697134162e-05,1.157599342091193e-06,9.457345967536229e-07,1.1829022231184106e-06,1.358091021934549e-06
234,1.1237152787658149e-06,9.406984315143775e-07,1.6248362309683268e-06,9.095826575132179e-07,1.7668941905644234e-06,7.406733233784039e-07,1.0605398411620061e-06,1.008535606818396e-06,1.3515861142459589e-05,1.2059695433396254e-06,7.87737733121476e-07,2.9832484277958204e-05,1.1983876642664899e-06,9.358133656395809e-07,1.211452207132802e-06,1.3492267460402732e-06
235,1.1279446237563615e-06,9.38744280038055e-07,1.6610843311007784e-06,8.831377640272256e-07,1.7710229964767307e-06,7.56590423899399e-07,1.082187580805523e-06,1.008147936413148e-06,1.4428130223267631e-05,1.227224574757896e-06,7.978908396207816e-07,2.7730316552157764e-05,1.2403467211321407e-06,9.261343613744528e-07,1.2381513318853843e-06,1.3389819111733113e-06
236,1.1287881891130797e-06,9.371991239619785e-07,1.6968834859450939e-06,8.565881448714042e-07,1.7757987431393481e-06,7.726080406093329e-07,1.1055607091010124e-06,1.0092881669654575e-06,1.5328654347409583e-05,1.24409805143634e-06,8.099116683987515e-07,2.607421193211274e-05,1.283212004020429e-06,9.166452090701376e-07,1.2628493991504573e-06,1.327181753175248e-06
237,1.1262168466915444e-06,9.354866321500689e-07,1.731497585316178e-06,8.306552808686838e-07,1.7816322338526328e-06,7.884137789943941e-07,1.1309169652195605e-06,1.011798814313423e-06,1.621016596068169e-05,1.2563055529882365e-06,8.232877882063129e-07,2.4887619000708066e-05,1.3267317711539602e-06,9.07219175654788e-07,1.2853817106483804e-06,1.313855005754004e-06
238,1.1202279691239806e-06,9.331102022629204e-07,1.7640098449395362e-06,8.059423137520192e-07,1.7888411639780283e-06,8.037350271444415e-07,1.1585441480390174e-06,1.0154920289669996e-06,1.70653738738808e-05,1.2637318048108698e-06,8.374584716255096e-07,2.4188261942249835e-05,1.3705976178041396e-06,8.976709264987402e-07,1.305504451187138e-06,1.2990441290870704e-06
239,1.1109491379083178e-06,9.297068043897972e-07,1.7933127952608336e-06,7.829492702763322e-07,1.7975667448387674e-06,8.183797228466574e-07,1.1886315223816313e-06,1.0202431678808827e-06,1.7887258829053645e-05,1.2663956628745884e-06,8.518868879297753e-07,2.398826798065604e-05,1.4144127940323871e-06,8.877703181496931e-07,1.3228683444173298e-06,1.2826652824317967e-06
240,1.0987508746723555e-06,9.250288083643542e-07,1.818242371158689e-06,7.621183477675055e-07,1.8078576133694404e-06,8.322358496629854e-07,1.221157276267884e-06,1.026056499825278e-06,1.866958792888779e-05,1.264558018215814e-06,8.661351943796794e-07,2.429432420184933e-05,1.4576804140540726e-06,8.772575056208134e-07,1.337068698269988e-06,1.2644893414881244e-06
241,1.0842911572443565e-06,9.189144585900382e-07,1.837795942376339e-06,7.439311702761303e-07,1.8197732674863539e-06,8.452415347591034e-07,1.2558784650236892e-06,1.0330006914761307e-06,1.940661114618055e-05,1.2587911092325668e-06,8.799258064419523e-07,2.510761910663432e-05,1.4997780463908835e-06,8.659136934208447e-07,1.347813773466181e-06,1.2442370028505975e-06
242,1.0684770347994595e-06,9.112829606655514e-07,1.85131450316407e-06,7.290433572542197e-07,1.833405825083703e-06,8.573284129342882e-07,1.2924204278780987e-06,1.0410632051741056e-06,2.009273376565004e-05,1.2498677448066633e-06,8.931740714305584e-07,2.6423678908825843e-05,1.539967941874535e-06,8.536967262238646e-07,1.3551158689306448e-06,1.2217527705556088e-06
243,1.0523409674689589e-06,9.021288646608317e-07,1.8585792246970553e-06,7.183370088222605e-07,1.8488375793047949e-06,8.683913911510321e-07,1.3303885873083475e-06,1.0500500583157203e-06,2.0722866564300168e-05,1.2385455404937432e-06,9.060340863145025e-07,2.8232153993397478e-05,1.5774704265700322e-06,8.407895364522975e-07,1.3593415259440612e-06,1.1970915002929167e-06
244,1.0368797967033539e-06,8.914860398289824e-07,1.859839752812772e-06,7.128379659131337e-07,1.8660803811741418e-06,8.783509069598186e-07,1.3694243963256483e-06,1.0595584339096472e-06,2.1292671935357726e-05,1.2254231258865198e-06,9.189162542641522e-07,3.0516668942536232e-05,1.6115066391791652e-06,8.274771116672535e-07,1.36107039003518e-06,1.1704623873784728e-06
245,1.0229415647963522e-06,8.793797298075271e-07,1.8557550265493347e-06,7.136043136386987e-07,1.884988315706749e-06,8.87236215229109e-07,1.4091767813052806e-06,1.069019746069559e-06,2.1797792010946628e-05,1.2109299395167094e-06,9.323604058967755e-07,3.32548307963326e-05,1.641326057598976e-06,8.140167635915982e-07,1.3609083056264255e-06,1.1421940977635565e-06
246,1.0111905510781569e-06,8.658360898742256e-07,1.8471967157198786e-06,7.216853810846038e-07,1.9051339900433438e-06,8.951783594050251e-07,1.44922287510421e-06,1.077854940506102e-06,2.2232759499814575e-05,1.1953585011086688e-06,9.46849897156201e-07,3.6418559530770596e-05,1.6663504258997113e-06,8.006486627375219e-07,1.3594229806393356e-06,1.112736906695803e-06
247,1.002112076419111e-06,8.509514230188756e-07,1.8349872041406265e-06,7.381189317831667e-07,1.925712096011035e-06,9.023529934338074e-07,1.4890600234072579e-06,1.0857161437796371e-06,2.259162982101298e-05,1.1788953944061875e-06,9.627741309405533e-07,3.997549158329466e-05,1.6863418007980686e-06,7.876535965871199e-07,1.3571757694964316e-06,1.0825756281338966e-06
248,9.960178660073384e-07,8.349155379189348e-07,1.8197289517033965e-06,7.638980544443889e-07,1.945547761026457e-06,9.089652287716664e-07,1.5282567203688858e-06,1.0926612343017175e-06,2.28708027411331e-05,1.1616763476426118e-06,9.80557922554036e-07,4.389151584285701e-05,1.7013862377483063e-06,7.753322877957357e-07,1.3547081283848322e-06,1.0521407620358105e-06
249,9.930624265818324e-07,8.179547527306807e-07,1.80175571403107e-06,7.999195291524107e-07,1.963213822770693e-06,9.152436697483472e-07,1.5666473311494177e-06,1.0991264660932006e-06,2.3071676292861126e-05,1.1438322318255995e-06,1.0007881880531824e-06,4.813226434598226e-05,1.7117147645267436e-06,7.639600859188071e-07,1.352446365880374e-06,1.0218694938636724e-06
250,9.932857304882552e-07,8.002836644536068e-07,1.7811388754415706e-06,8.469546787535004e-07,1.9772161108164424e-06,9.213926399786697e-07,1.6043983992910503e-06,1.1057355008317238e-06,2.3200748911473555e-05,1.1255111316170354e-06,1.0241975319399121e-06,5.266172874203252e-05,1.7175035696653232e-06,7.538034729558089e-07,1.3505982757347444e-06,9.92311104546747e-07
251,9.96641815807364e-07,7.821289890924608e-07,1.757738456363349e-06,9.056410902508556e-07,1.9862234846606236e-06,9.275562421695289e-07,1.6419328949403506e-06,1.1130993079965892e-06,2.326704030792488e-05,1.1068924973298615e-06,1.0515361469392294e-06,5.7440430441141205e-05,1.718743900374988e-06,7.451642095267326e-07,1.3490981764831119e-06,9.640999380242412e-07
252,1.002972704724686e-06,7.637947086774554e-07,1.7313057471975408e-06,9.764933873244472e-07,1.9893123956071383e-06,9.338426583543873e-07,1.6798224937951756e-06,1.1217077137986376e-06,2.3278678944780117e-05,1.0881716102536444e-06,1.0834564225628925e-06,6.242652034625723e-05,1.7152357124737433e-06,7.383818371458647e-07,1.3476232773617757e-06,9.378402992397225e-07
253,1.0119491912193955e-06,7.456864447877271e-07,1.701607530519243e-06,1.0599414031584328e-06,1.986150609185069e-06,9.403711640789958e-07,1.7187420906403005e-06,1.1319024520513155e-06,2.3241145934561713e-05,1.0695418617269328e-06,1.1204652271090806e-06,6.757713211016804e-05,1.7066763949065716e-06,7.337895453606479e-07,1.3457032552993022e-06,9.140604606298969e-07
254,1.0230287829961412e-06,7.282506227421867e-07,1.6685632959272723e-06,1.1563801462572365e-06,1.9770551588856397e-06,9.472767967685002e-07,1.7594510516001392e-06,1.1438752090010145e-06,2.3158096122285625e-05,1.0512148442449882e-06,1.1629189011195398e-06,7.284536611412584e-05,1.692794858653845e-06,7.316735292702318e-07,1.3429130208805194e-06,8.932600275323412e-07
255,1.035463052368906e-06,7.118836156632829e-07,1.6324075543821371e-06,1.2662194090320696e-06,1.9629335945697393e-06,9.546709868987116e-07,1.8026994495923498e-06,1.1576515412604544e-06,2.3033384830494133e-05,1.0334393420161573e-06,1.2110256626847868e-06,7.817539718883681e-05,1.673534546920321e-06,7.322679845064247e-07,1.3390482411806063e-06,8.75947444103264e-07
256,1.0483621811577797e-06,6.968824214924863e-07,1.593826523045827e-06,1.3899254017259546e-06,1.945147376669833e-06,9.626386604855466e-07,1.8490998848188232e-06,1.1730537666366035e-06,2.2872473265844395e-05,1.0165009290808597e-06,1.264841371263753e-06,8.350030971227516e-05,1.6492191367478333e-06,7.357633201690168e-07,1.334136768248859e-06,8.625997894844022e-07
257,1.06081714678011e-06,6.834351650253888e-07,1.5539568082301195e-06,1.5280272383826202e-06,1.9252949112871233e-06,9.71292594249254e-07,1.8990743901687849e-06,1.1896629814285117e-06,2.268205837589695e-05,1.0007351707902056e-06,1.3242617457298862e-06,8.874136384757952e-05,1.6205724848180872e-06,7.423095598203682e-07,1.328278162060966e-06,8.535788977380142e-07
258,1.0720577276441609e-06,6.716256842754362e-07,1.5142002766641537e-06,1.6810710138921166e-06,1.9049366427390173e-06,9.807849711882251e-07,1.9528317197732574e-06,1.206818028990727e-06,2.2468081757264857e-05,9.86550823323454e-07,1.3890004790578194e-06,9.38068586524702e-05,1.5885718933522388e-06,7.520263727980771e-07,1.3215069535650172e-06,8.49072397706877e-07
259,1.0815485401079453e-06,6.614363671290633e-07,1.4759537946592132e-06,1.8495201281522095e-06,1.8853788221561855e-06,9.91243677352616e-07,2.0102964964307345e-06,1.2236800860532386e-06,2.2234152968283532e-05,9.74413887542957e-07,1.458551665851725e-06,9.859364209069466e-05,1.5542533289659326e-06,7.65008098396437e-07,1.313837139708418e-06,8.49078839778939e-07
260,1.0889348857637214e-06,6.527395834059566e-07,1.4404021347728523e-06,2.033614348158447e-06,1.8676028595154884e-06,1.0027250941306662e-06,2.0710384250955094e-06,1.2393495230840914e-06,2.198169711499936e-05,9.64777082456084e-07,1.5321856284088775e-06,0.00010299535827086388,1.5186047113617413e-06,7.813129883747608e-07,1.3054088554352962e-06,8.534110507490416e-07
261,1.0939418740151122e-06,6.453057074060307e-07,1.4084436279822866e-06,2.233247667904867e-06,1.852335230369577e-06,1.0152095382769198e-06,2.1342540563571835e-06,1.2529653352995683e-06,2.1710693711700944e-05,9.580188002907809e-07,1.608997287833742e-06,0.0001069168863141459,1.4825524480600158e-06,8.009689479761992e-07,1.2965541322077203e-06,8.616979626428386e-07
262,1.0963821002272516e-06,6.388600603543021e-07,1.3807361145063365e-06,2.4479273691697873e-06,1.8402056158375683e-06,1.0285846974750206e-06,2.1987679926176043e-06,1.263715621589401e-06,2.1420401420971955e-05,9.544253877626797e-07,1.687953908163734e-06,0.00011028735942217263,1.446924409007996e-06,8.239865112401297e-07,1.287695545569983e-06,8.733868416114486e-07
263,1.096211793644871e-06,6.331598751603765e-07,1.357808401522462e-06,2.676797206092741e-06,1.831853832208868e-06,1.0426305326171666e-06,2.263018260233483e-06,1.2708173880462183e-06,2.1110502121831086e-05,9.541622741286682e-07,1.7679456270791663e-06,0.00011306170831442948,1.4123474092896899e-06,8.503215296662252e-07,1.2791685329737425e-06,8.877584669086037e-07
264,1.0935125786468804e-06,6.280259184401749e-07,1.3401360761399916e-06,2.918670635163217e-06,1.8278680306668519e-06,1.0570461800575724e-06,2.325071173940626e-06,1.2736215684320076e-06,2.0781769047079507e-05,9.572227257412666e-07,1.847886596393815e-06,0.0001152082384282703,1.3791720272284818e-06,8.79800561472647e-07,1.2711350402913656e-06,9.03964866080314e-07
265,1.08843602884047e-06,6.233216222764848e-07,1.3281181443299278e-06,3.172078337646921e-06,1.8286371725063028e-06,1.0715070026438639e-06,2.3827696423678656e-06,1.2718362554624113e-06,2.043593762323952e-05,9.63404255083536e-07,1.926788682365552e-06,0.00011669224271788103,1.3474968150274612e-06,9.120687493158914e-07,1.2636127160420143e-06,9.211007617038854e-07
266,1.0811881731946644e-06,6.189586090050765e-07,1.3220266434150603e-06,3.4353866725344898e-06,1.8342803703999072e-06,1.0857412560474675e-06,2.4340526722137555e-06,1.2656671215952736e-06,2.0076332837643242e-05,9.723218750983984e-07,2.003680147909063e-06,0.00011747014859589993,1.3172806441418767e-06,9.465726691820782e-07,1.2565482385605501e-06,9.382999493613406e-07
267,1.072031790938415e-06,6.149469043937289e-07,1.321992067787618e-06,3.7069908730247622e-06,1.8446848235562918e-06,1.099601039232071e-06,2.477323566145395e-06,1.2557620892571623e-06,1.970884913095666e-05,9.834456231839298e-07,2.0774094290273676e-06,0.000117498830608547,1.288471857038718e-06,9.825633676528156e-07,1.249926630741307e-06,9.547818467145061e-07
268,1.0612415535496875e-06,6.113865865779155e-07,1.3279707905923424e-06,3.9854681159994725e-06,1.8595708779964376e-06,1.1130678447792934e-06,2.511684987211437e-06,1.2430413200995069e-06,1.9340950637707877e-05,9.961775229283941e-07,2.146508664254789e-06,0.00011675227447671396,1.2610594422318873e-06,1.0191317202016887e-06,1.2438773308119645e-06,9.69815938023844e-07
269,1.049020627971292e-06,6.08369640109336e-07,1.3396852330201579e-06,4.269538327202832e-06,1.8785106580351078e-06,1.1261843357022375e-06,2.536973975715959e-06,1.2285318075873558e-06,1.8978958227329227e-05,1.0099434074675563e-06,2.2092366935483657e-06,0.00011523574618508897,1.2350576657451888e-06,1.05529598066493e-06,1.23868305227092e-06,9.827280753749159e-07
270,1.0354826571179353e-06,6.058882443574774e-07,1.356608083497571e-06,4.55778038698024e-06,1.9008855771823232e-06,1.1389551246489967e-06,2.5536470024534053e-06,1.2132446036319806e-06,1.862593370175489e-05,1.0242130570730944e-06,2.2638209039735826e-06,0.00011299168649312904,1.2104937138185244e-06,1.0901257760928334e-06,1.234673555329493e-06,9.930294078071859e-07
271,1.0207452009985395e-06,6.038066411678952e-07,1.3779917582919036e-06,4.84824260471288e-06,1.9258328054043318e-06,1.151254355249615e-06,2.5625830546430924e-06,1.1980822357634806e-06,1.828097216443349e-05,1.0384514808544105e-06,2.3088385132234414e-06,0.00011009471612455638,1.1873628950549272e-06,1.1228762476201533e-06,1.2320796518656618e-06,1.0005376184721733e-06
272,1.0050237918562011e-06,6.018770189983383e-07,1.4028745857870247e-06,5.13825614863731e-06,1.952258093157847e-06,1.1627985271561365e-06,2.5648599583152665e-06,1.183793156940631e-06,1.7939358774603497e-05,1.052114711076801e-06,2.343487943465495e-06,0.00010663662620076469,1.165541653274818e-06,1.153100111817477e-06,1.2309467481095662e-06,1.0053655437658887e-06
273,9.88635398098514e-07,5.997881717569019e-07,1.430065167398557e-06,5.424629745336164e-06,1.9789259269311544e-06,1.1732369059209205e-06,2.561538612697374e-06,1.1709809978637948e-06,1.7593318093928275e-05,1.064713520923941e-06,2.367477561872901e-06,0.00010270846970789113,1.1447729309094602e-06,1.1806514595088777e-06,1.231141993477756e-06,1.0078366473345803e-06
274,9.719574239311977e-07,5.972503143505226e-07,1.4581990683976016e-06,5.704009981641819e-06,2.0045386044557553e-06,1.182303490986358e-06,2.5534648032298116e-06,1.1601193481283365e-06,1.7233325893156735e-05,1.0758555974502964e-06,2.3807228257839214e-06,9.839115937573185e-05,1.1247893944023289e-06,1.2055295650329792e-06,1.2323866669752142e-06,1.0084004190090047e-06
275,9.553865399194964e-07,5.940860497547776e-07,1.485922311638284e-06,5.973057510217936e-06,2.027734839953954e-06,1.1898901009430335e-06,2.5411442658268376e-06,1.1515613680460802e-06,1.6849777917383936e-05,1.085242288554281e-06,2.383257870684058e-06,9.37583451248384e-05,1.1055034933295552e-06,1.2277047878968688e-06,1.2342409227129444e-06,1.0075384395054253e-06
276,9.392984010312222e-07,5.902752744262863e-07,1.5121279071492097e-06,6.228283722906256e-06,2.047064871737179e-06,1.195979518159137e-06,2.524807478146071e-06,1.145557857204227e-06,1.6434587567301514e-05,1.092684567109803e-06,2.3753272998662847e-06,8.888307927007924e-05,1.0871284574431705e-06,1.2471088416649468e-06,1.236083315368717e-06,1.0057294592093463e-06
277,9.240441853927286e-07,5.859273540804784e-07,1.5361042438456299e-06,6.465689106885043e-06,2.061039195114872e-06,1.2005357401603264e-06,2.5046477545075056e-06,1.1422461425864762e-06,1.5981737341273096e-05,1.0981558744639828e-06,2.3574238712238246e-06,8.384011197431344e-05,1.0701492932619095e-06,1.2637186861138165e-06,1.237187024898967e-06,1.003534407513738e-06
278,9.099838299605352e-07,5.81205734321055e-07,1.5575027112387709e-06,6.680745694895296e-06,2.068270497199079e-06,1.2034778994106504e-06,2.480997799860619e-06,1.1416250814867903e-06,1.5486340127535173e-05,1.1018119186473267e-06,2.330267967430048e-06,7.870345493391413e-05,1.0551908481933083e-06,1.2775711399977058e-06,1.236846674203787e-06,1.001654865386898e-06
279,8.974784230857432e-07,5.762848158868343e-07,1.5761412745000675e-06,6.869145609916334e-06,2.06769267382263e-06,1.2047491576787292e-06,2.4542848806668218e-06,1.143566805891147e-06,1.4944251179183524e-05,1.1039172416389696e-06,2.294758235250833e-06,7.354150590638091e-05,1.0428785750346338e-06,1.2887458924599718e-06,1.2344080623303825e-06,1.0008375630216963e-06
280,8.868186355006828e-07,5.713834878043887e-07,1.5917664863717741e-06,7.027828992143382e-06,2.058841533934041e-06,1.204386877999473e-06,2.424904858049268e-06,1.1478419755123134e-06,1.4354123488279891e-05,1.104712387502765e-06,2.2518231025169378e-06,6.841207203171239e-05,1.0337400955587298e-06,1.2973904940179451e-06,1.2292672155195937e-06,1.0017272919705304e-06
281,8.781593573513019e-07,5.66798289343314e-07,1.6039210324949407e-06,7.155347487197359e-06,2.0420858503360006e-06,1.2025078480580779e-06,2.3932325105506737e-06,1.154183533939772e-06,1.3719836690190464e-05,1.1043307781818648e-06,2.202206956051475e-06,6.336092726553947e-05,1.0281636739475095e-06,1.3037087452844258e-06,1.220993072642196e-06,1.004787780312044e-06
282,8.71509731399784e-07,5.628649422906753e-07,1.6119731186338001e-06,7.251222048475721e-06,2.01860407780196e-06,1.1992548836124466e-06,2.359764473798374e-06,1.162463111903911e-06,1.305025653142602e-05,1.1028324527448842e-06,2.1464026100417814e-06,5.8425448363837435e-05,1.026423364391284e-06,1.3078651835075017e-06,1.209458391411387e-06,1.0102756290363596e-06
283,8.667631296047224e-07,5.598957854827927e-07,1.6152833933815784e-06,7.314864979227643e-06,1.9900406115543386e-06,1.1948155700233058e-06,2.3252292930637147e-06,1.1728726231184264e-06,1.2356611129827247e-05,1.1002734250371766e-06,2.084852795149709e-06,5.3639204702568304e-05,1.02875310981225e-06,1.309902383080056e-06,1.1948092470846933e-06,1.0182324298127438e-06
284,8.637350654397176e-07,5.581452963378323e-07,1.613459111321915e-06,7.345045144435363e-06,1.9580527670836337e-06,1.189477944445033e-06,2.290591810800321e-06,1.185911129436649e-06,1.1650059781897106e-05,1.0966988281347543e-06,2.0182450655624522e-06,4.903261754783481e-05,1.0354180084090955e-06,1.3097385969215072e-06,1.1773456248595341e-06,1.0285140996929022e-06
285,8.621838191806092e-07,5.577962864437535e-07,1.6065502190247208e-06,7.340336082667084e-06,1.9240087284047043e-06,1.183607106330313e-06,2.2570161989689814e-06,1.202209421072753e-06,1.0941095164897207e-05,1.0920994702222516e-06,1.9476226530002314e-06,4.4630224834848714e-05,1.0467321670815887e-06,1.3072289266165293e-06,1.1574567248278748e-06,1.0408900544572358e-06
286,8.618136955186696e-07,5.589589400570915e-07,1.5950071530254468e-06,7.300107731853526e-06,1.8888786683851695e-06,1.177553527420149e-06,2.2258252096167215e-06,1.2223926149652201e-06,1.0240104715903216e-05,1.0863937348067923e-06,1.8742186917230844e-06,4.044871265859119e-05,1.0630088401557672e-06,1.3022782583370333e-06,1.1356179619624001e-06,1.0551981517835957e-06
287,8.622863683523116e-07,5.616751639367552e-07,1.5794590808753443e-06,7.225401909578172e-06,1.8532145697918912e-06,1.17157861722761e-06,2.198423578074134e-06,1.2470239813506733e-06,9.557590842552913e-06,1.0793941385635964e-06,1.79916918942523e-06,3.649762394268044e-05,1.084467017755325e-06,1.2949550089609317e-06,1.1123622452552657e-06,1.0714627997142564e-06
288,8.632398796224942e-07,5.659199809928646e-07,1.5605527296868233e-06,7.119286869437053e-06,1.8171596491507503e-06,1.165820052154228e-06,2.1761994156183494e-06,1.2765348847644365e-06,8.90362908463276e-06,1.0707832423038925e-06,1.723345547195767e-06,3.27811264975616e-05,1.1111460496161855e-06,1.2855191494096212e-06,1.0881912696300113e-06,1.0898914176655106e-06
289,8.642806185417599e-07,5.716134470234364e-07,1.5388985710772443e-06,6.9865129228675845e-06,1.78051671806769e-06,1.1602758829839362e-06,2.1604685861688608e-06,1.3111331469711675e-06,8.287103383063793e-06,1.0601792279033915e-06,1.6474047643349346e-06,2.9299401467389604e-05,1.1428890961478137e-06,1.2743464654020737e-06,1.063505276744023e-06,1.1108047425959432e-06
290,8.649462574203709e-07,5.786557917649951e-07,1.515019105460978e-06,6.8325631616395015e-06,1.742904329292889e-06,1.1548154538307318e-06,2.152463096213101e-06,1.3507440720743556e-06,7.715241383803762e-06,1.0472291067528552e-06,1.5719744389348016e-06,2.6049758595484028e-05,1.179429212179359e-06,1.26181576219841e-06,1.0386371324588828e-06,1.1346068805411135e-06
291,8.647122993186558e-07,5.869721072491686e-07,1.4893330658007837e-06,6.662546353122124e-06,1.7039289369407616e-06,1.1492419325222073e-06,2.1532954594002188e-06,1.3949986781940079e-06,7.193566064868754e-06,1.0316245269393187e-06,1.4978084012804255e-06,2.3027640064928124e-05,1.220535252103292e-06,1.2482524888674977e-06,1.0139465522750348e-06,1.161758476765227e-06
292,8.631002827265709e-07,5.965282838950878e-07,1.4622494034677137e-06,6.480532331593846e-06,1.6632712463502398e-06,1.1433754983286094e-06,2.163872082444545e-06,1.4432938611910054e-06,6.726042713624051e-06,1.0131128502773738e-06,1.4257762336188931e-06,2.022742343646779e-05,1.2660993995983639e-06,1.2339313950112713e-06,9.898477856502958e-07,1.1926724603222436e-06
293,8.598216181091569e-07,6.072943397050062e-07,1.4342757703527119e-06,6.289597087755067e-06,1.6207086582108327e-06,1.1370678097542904e-06,2.1848130950738553e-06,1.4949608312326024e-06,6.315153063305359e-06,9.916209721357392e-07,1.3567069176036864e-06,1.7643006727694845e-05,1.3161235291584901e-06,1.219057641019104e-06,9.667374166326032e-07,1.2275956668428336e-06
294,8.54847014021791e-07,6.191883884053497e-07,1.4059995634780474e-06,6.09232812521045e-06,1.576181879712744e-06,1.1301265878472093e-06,2.216436559132272e-06,1.5494805356874237e-06,5.961898969602728e-06,9.673791267931847e-07,1.291236724857597e-06,1.5268187106994215e-05,1.3707270871213573e-06,1.2037525026555538e-06,9.449070141021937e-07,1.2665878706158782e-06
295,8.483767574093329e-07,6.320452493955853e-07,1.377980861057525e-06,5.891389019401528e-06,1.5299159133973414e-06,1.122274049517332e-06,2.258766534295598e-06,1.6066187497347352e-06,5.665976104773857e-06,9.408658789212109e-07,1.2297548251188982e-06,1.3096908716318574e-05,1.43023987564548e-06,1.1881468588276264e-06,9.245160651747646e-07,1.3096067513940852e-06
296,8.407428785313414e-07,6.456054299047835e-07,1.3506997749882309e-06,5.689872711598919e-06,1.4824780634917892e-06,1.1132413448474478e-06,2.311498015692189e-06,1.6664553716737246e-06,5.426266446871119e-06,9.126691905803329e-07,1.172438929165266e-06,1.1123481912292254e-05,1.4952533227256512e-06,1.1725328168324687e-06,9.056254434362509e-07,1.3566318108607208e-06
297,8.322839465249295e-07,6.59517883657222e-07,1.3245503760331069e-06,5.491338674430078e-06,1.4347105442483517e-06,1.1029203723198357e-06,2.3739884828606973e-06,1.7293748016948127e-06,5.241438667258872e-06,8.834333584132312e-07,1.1193375785455356e-06,9.342728862447879e-06,1.5665450681507627e-06,1.1574033328729978e-06,8.882312919623527e-07,1.407737223974621e-06
298,8.232649390596322e-07,6.733769712560011e-07,1.299784396630646e-06,5.299618525108574e-06,1.3875936769462493e-06,1.0914283122776886e-06,2.445382637719285e-06,1.7960356083522063e-06,5.110181724429125e-06,8.538357390630085e-07,1.0704249967279346e-06,7.749929270861402e-06,1.6449359140182474e-06,1.143337335453528e-06,8.722419915723645e-07,1.4630366864196111e-06
299,8.138779652569638e-07,6.867951655988603e-07,1.2764523019721902e-06,5.118560507902026e-06,1.3421052802690146e-06,1.07903261841618e-06,2.5248183537562004e-06,1.8672796093244656e-06,5.0309233117168854e-06,8.245341256547997e-07,1.0255874018943106e-06,6.340607588627166e-06,1.7311377523898969e-06,1.130859645767239e-06,8.574391228690547e-07,1.522530602843083e-06
300,8.04268631754875e-07,6.994709640082051e-07,1.2544550002872463e-06,4.9517865530267895e-06,1.2991504034404999e-06,1.0660076956716562e-06,2.611590951072014e-06,1.9439684576050998e-06,5.00150752688505e-06,7.961491834804795e-07,9.845891113766654e-07,5.110348710344454e-06,1.8256192043159295e-06,1.1203743937667061e-06,8.435298190532342e-07,1.5859819712810157e-06
301,7.945443153816336e-07,7.111890127400903e-07,1.2336706748394423e-06,4.802426806485366e-06,1.259602915631934e-06,1.0525537159098138e-06,2.7052111563564613e-06,2.0268333984724056e-06,5.019222225846265e-06,7.692739772241142e-07,9.470745234714252e-07,4.054668279150504e-06,1.9285247876415094e-06,1.1121495602298783e-06,8.302891073524256e-07,1.6528845347896311e-06
302,7.847668982651915e-07,7.217430471047258e-07,1.2140132991011148e-06,4.672845235997042e-06,1.2243491417971592e-06,1.0388032070523308e-06,2.805352402983048e-06,2.1164643368220398e-06,5.0809614506028705e-06,7.444566936795725e-07,9.12651742481294e-07,3.168862874625294e-06,2.0396618802877184e-06,1.1063142999359055e-06,8.176543231435111e-07,1.722480558763168e-06
303,7.749408435294786e-07,7.308617035766967e-07,1.1953955174222785e-06,4.564506036638032e-06,1.1942304303402567e-06,1.024823065303402e-06,2.9117395845753632e-06,2.2134130460849413e-06,5.183230562716159e-06,7.221730527963909e-07,8.810675297518926e-07,2.4480674923201663e-06,2.1585419508761773e-06,1.1028674638071554e-06,8.056950985899518e-07,1.793811738466626e-06
304,7.650360731859326e-07,7.382071546172347e-07,1.1777409203466848e-06,4.478115716660485e-06,1.1699659608165129e-06,1.010612355345901e-06,3.024039452894998e-06,2.3182326886139177e-06,5.32204303821791e-06,7.028190596869415e-07,8.523404703845254e-07,1.887735944624626e-06,2.2844268156598095e-06,1.1016882965344556e-06,7.945216232699653e-07,1.8658327327815018e-06
305,7.550486470690466e-07,7.434456378898492e-07,1.1611064161953292e-06,4.413974448965378e-06,1.1521366694589344e-06,9.96163082193608e-07,3.141775267755794e-06,2.431370207484152e-06,5.4928490166572545e-06,6.867146887912888e-07,8.267167331537366e-07,1.4841884763925257e-06,2.4163165015724953e-06,1.102535107294381e-06,7.842261533670153e-07,1.937539790751037e-06
306,7.450214230893386e-07,7.46349428124824e-07,1.1457647638383617e-06,4.3723233435655835e-06,1.1411756901973139e-06,9.815402456008316e-07,3.2642668637380672e-06,2.553011657512046e-06,5.690530089709934e-06,6.741093305924369e-07,8.0452689863507e-07,1.2347875740812333e-06,2.552883792644072e-06,1.105081146281088e-06,7.749114400155927e-07,2.008050139348345e-06
307,7.350089069564738e-07,7.468543335286946e-07,1.132155179116967e-06,4.353515648030969e-06,1.1373500758682521e-06,9.669150103305009e-07,3.390565366453323e-06,2.6829792031156755e-06,5.909553576271286e-06,6.652017569134734e-07,7.860940798459117e-07,1.1378427346715105e-06,2.6924024917559097e-06,1.1090353859031116e-06,7.667543011044817e-07,2.0766543456663933e-06
308,7.250630692606698e-07,7.450163314223252e-07,1.1207920316213032e-06,4.357986037572639e-06,1.1407894232821477e-06,9.525424690144748e-07,3.5193348704933463e-06,2.8206898499649152e-06,6.144443499470392e-06,6.601620511944973e-07,7.717045432716519e-07,1.1925696953644532e-06,2.83272319715832e-06,1.114251019955819e-06,7.599940596718948e-07,2.14283759449495e-06
309,7.152472343854415e-07,7.409347855796872e-07,1.1122034163738067e-06,4.386106588605445e-06,1.1515331553199032e-06,9.387026311033275e-07,3.6487413157503843e-06,2.965224764370328e-06,6.390256263387135e-06,6.591269743342317e-07,7.615894292427695e-07,1.3991522176435238e-06,2.971368512402107e-06,1.1206896142287505e-06,7.548533003296986e-07,2.2062081448280285e-06
310,7.056238818871123e-07,7.347570280054494e-07,1.1069049103125981e-06,4.438019413296133e-06,1.1695219433327578e-06,9.256749194624975e-07,3.7765290740340897e-06,3.115503459738704e-06,6.64262449036028e-06,6.621863344327089e-07,7.559011532394992e-07,1.7587193191436605e-06,3.1057490357073914e-06,1.1282893811942742e-06,7.514795642922143e-07,2.2663624632129186e-06
311,6.962455789760545e-07,7.267465037958819e-07,1.1054310462452194e-06,4.513485464313277e-06,1.194531835903849e-06,9.137782958986204e-07,3.900364554454358e-06,3.2703458901772227e-06,6.898059690726099e-06,6.693833370714873e-07,7.546939640087692e-07,2.2731709357185146e-06,3.233404177945983e-06,1.1368870512134131e-06,7.499253052998923e-07,2.3228111613914594e-06
312,6.872120890976799e-07,7.173106464257021e-07,1.1083791699717041e-06,4.611779041641619e-06,1.2261155115111425e-06,9.033984550900704e-07,4.018305157394763e-06,3.4283006306748513e-06,7.15506335889018e-06,6.80699966790177e-07,7.579221390543689e-07,2.945006233109799e-06,3.352184874037385e-06,1.1462306885005176e-06,7.501496934246759e-07,2.375014265932377e-06
313,6.787454969674067e-07,7.069700016858095e-07,1.1163568129067636e-06,4.731658812021695e-06,1.2636028736638447e-06,8.949406480188869e-07,4.129161354780635e-06,3.587436132930569e-06,7.4146926672277715e-06,6.96016081233483e-07,7.65438054994088e-07,3.7772590357211376e-06,3.4603590664999475e-06,1.1560444490110292e-06,7.520528534943855e-07,2.422406587622295e-06
314,6.711808741959706e-07,6.963150097347464e-07,1.1298483240026691e-06,4.871406197647524e-06,1.3061597622157804e-06,8.88746655788525e-07,4.2325801127845285e-06,3.745274707262458e-06,7.679529756306932e-06,7.150773628070306e-07,7.769802308549761e-07,4.7734287423673855e-06,3.55665075048657e-06,1.1661335719661534e-06,7.555369618796246e-07,2.464297146936651e-06
315,6.648888245498452e-07,6.859540859064117e-07,1.149114338968263e-06,5.028860238668566e-06,1.3528817216642624e-06,8.85042099185234e-07,4.328809781584775e-06,3.8987911659143e-06,7.952090632786413e-06,7.374842830864847e-07,7.921833584043388e-07,5.937249133001425e-06,3.6402304506236805e-06,1.1764734092972561e-06,7.60562566750542e-07,2.4997806881302394e-06
316,6.60233402301167e-07,6.764402257891135e-07,1.1741610744695285e-06,5.2013419585451e-06,1.4028966254810017e-06,8.839229981865895e-07,4.418227519238158e-06,4.0444137041343686e-06,8.233918998889843e-06,7.626936050567876e-07,8.106084187176735e-07,7.2722999542311064e-06,3.710646897405416e-06,1.1871812833433827e-06,7.671672010895766e-07,2.527854286574888e-06
317,6.575728977023768e-07,6.682062655940688e-07,1.2047502374150433e-06,5.385498714452864e-06,1.4554442187497395e-06,8.85361396026889e-07,4.5008121971671936e-06,4.178175732132015e-06,8.5254075772453e-06,7.900343437096082e-07,8.317599777692066e-07,8.781616616315123e-06,3.7676176734525458e-06,1.198390857551413e-06,7.754218522161614e-07,2.5476557067132367e-06
318,6.572333483853591e-07,6.615420415267277e-07,1.2404627418779141e-06,5.577400084347242e-06,1.5099166008629464e-06,8.892423574203223e-07,4.575836092241946e-06,4.296108320563974e-06,8.825972332104688e-06,8.187326598815491e-07,8.551307458840624e-07,1.0467394933914905e-05,3.8106645604513796e-06,1.2101784087266949e-06,7.853403254591259e-07,2.558649438385454e-06
319,6.594577399940437e-07,6.566046606925128e-07,1.280858681931965e-06,5.773150676125344e-06,1.565857661684072e-06,8.954203523233381e-07,4.6419156264368015e-06,4.394751196692818e-06,9.134616337851598e-06,8.479592379706252e-07,8.803026307902906e-07,1.233069989300876e-05,3.838834674766667e-06,1.2226025113857082e-06,7.968169276519553e-07,2.5607303998619566e-06
320,6.6437676333582e-07,6.534456843427862e-07,1.3256794388314262e-06,5.96974574400626e-06,1.6229042542048858e-06,9.037313301048017e-07,4.697270312717396e-06,4.4716495295691605e-06,9.450775502861607e-06,8.769425641752911e-07,9.070000414867727e-07,1.4371068842903354e-05,3.85077163306325e-06,1.2357488683036047e-06,8.096681195124772e-07,2.5542781198428255e-06
321,6.719996175144122e-07,6.520513940829708e-07,1.3749285155383932e-06,6.165639816352049e-06,1.680655347257207e-06,9.139587959974412e-07,4.739993790742056e-06,4.5257396433164825e-06,9.774689400897514e-06,9.051008074092958e-07,9.350211165805436e-07,1.6586115988844262e-05,3.8450787088894575e-06,1.2496759185277087e-06,8.237302932007624e-07,2.5401570690143897e-06
322,6.822085954392344e-07,6.523715325158699e-07,1.4287463678664274e-06,6.360786855080171e-06,1.7385192430323014e-06,9.258383413138646e-07,4.768278181500554e-06,4.557450038873704e-06,1.010711340067229e-05,9.32046406571038e-07,9.641310891073492e-07,1.8971360384423958e-05,3.820705413404535e-06,1.2643048004292991e-06,8.388746981685727e-07,2.5196316476436304e-06
323,6.94760094921707e-07,6.54324619934762e-07,1.4871925306753552e-06,6.556260759690488e-06,1.795630135608249e-06,9.391250879300579e-07,4.780614377340817e-06,4.5683745534797955e-06,1.0449165772977405e-05,9.5744967783534e-07,9.940347376064174e-07,2.1520232811339127e-05,3.7771883821906337e-06,1.2793698943485026e-06,8.549333810314024e-07,2.4941879599902156e-06
324,7.092994222272863e-07,6.578181030933127e-07,1.5500966858859799e-06,6.75366585397817e-06,1.850861676795867e-06,9.536398201969669e-07,4.776043126858639e-06,4.560617426455305e-06,1.0802262423395203e-05,9.809520464515254e-07,1.024431719024395e-06,2.422390715992448e-05,3.7147900952867674e-06,1.2944752250977288e-06,8.716534591959069e-07,2.465289766683245e-06
325,7.253998665159933e-07,6.627875373680401e-07,1.61701531622687e-06,6.954461804913606e-06,1.9028997253660031e-06,9.692340441408207e-07,4.754468272902484e-06,4.536112139028022e-06,1.116739354602082e-05,1.0022442761755088e-06,1.0550438771793106e-06,2.7070748271611245e-05,3.6346300134488832e-06,1.3092012597944787e-06,8.887073183602069e-07,2.434152638521795e-06
326,7.426375113313928e-07,6.691946846678496e-07,1.6872600367060085e-06,7.159312033904787e-06,1.950358994436572e-06,9.857051045010852e-07,4.7168222336013595e-06,4.496202374677354e-06,1.1544235220344704e-05,1.0211529136637348e-06,1.085569467433845e-06,3.0045508732219868e-05,3.5387503091576277e-06,1.3231673310769793e-06,9.057060225266478e-07,2.4016403189799777e-06
327,7.606680900460286e-07,6.769638153110446e-07,1.7599867421428448e-06,7.3676841305602916e-06,1.9919386328314402e-06,1.0027212523446399e-06,4.664815317584416e-06,4.4416201347035874e-06,1.1930832261422586e-05,1.037560032972864e-06,1.1156800197091883e-06,3.3128472883749525e-05,3.429971046350241e-06,1.3360037640511761e-06,9.222180480365755e-07,2.368311774761292e-06
328,7.792260775625006e-07,6.859159167707093e-07,1.8343230211736427e-06,7.577866518496471e-06,2.026558940369018e-06,1.0198134335677572e-06,4.600330816723408e-06,4.372748977327262e-06,1.2323432806324754e-05,1.0512567858264675e-06,1.1451206717955405e-06,3.629462903491394e-05,3.3115150268942094e-06,1.3472595387919574e-06,9.378467301666452e-07,2.3345878189975153e-06
329,7.980365847138024e-07,6.957646678660039e-07,1.909486849497816e-06,7.787284673776307e-06,2.0534149018340008e-06,1.0364632414176231e-06,4.524888771997538e-06,4.289909273164662e-06,1.271624398332215e-05,1.0619415892932093e-06,1.1737777016274418e-06,3.9512796173885545e-05,3.1866317841498505e-06,1.3563181561706382e-06,9.523335877096523e-07,2.3009476318309757e-06
330,8.167236048198743e-07,7.061664636434388e-07,1.984879100740958e-06,7.992898380077484e-06,2.071961557476522e-06,1.0522246185637589e-06,4.43947533724881e-06,4.193543378513588e-06,1.310137416946067e-05,1.0693872816107495e-06,1.2015934868671787e-06,4.274455817149436e-05,3.0585176691154024e-06,1.362432112774214e-06,9.655722035123145e-07,2.267999126611839e-06
