,EMG1,EMG2,EMG3,EMG4,EMG5,EMG6,EMG7,EMG8,EMG9,EMG10,EMG11,EMG12,EMG13,EMG14,EMG15,EMG16
0,1.1741758331132058e-07,4.669563962039947e-07,3.883788282195168e-07,2.874520637101229e-06,4.4446883376831157e-07,8.845909524686164e-08,3.3634180785626814e-07,7.560770000579159e-07,6.149699259230904e-07,-7.176851704821216e-09,5.013318044148062e-07,4.951229156862857e-05,5.237456000995408e-08,5.413984237750207e-08,7.330039743081573e-08,4.812397151674236e-07
1,1.450993354142082e-07,6.395577429620495e-07,4.807049566033313e-07,4.116037356510333e-06,7.899955361149444e-07,2.09847561043488e-07,3.603988592104378e-07,8.664020179538166e-07,7.770026026517998e-07,8.896839131078893e-08,6.396174363868219e-07,5.788038527608555e-05,1.2028708890806183e-07,1.0977804411701733e-07,1.583176171187912e-07,5.502684385109582e-07
2,1.7361056237954946e-07,8.097686644822133e-07,5.700665688880227e-07,5.316118759752847e-06,1.1291630073826887e-06,3.28925942417526e-07,3.875613946729206e-07,9.7609778433256e-07,9.464401616845329e-07,1.845911008848216e-07,7.713663671975557e-07,6.620403424671266e-05,1.87124887066837e-07,1.6458276763710537e-07,2.412689199014658e-07,6.218320639283214e-07
3,2.027917627492726e-07,9.764578666636767e-07,6.559647571933262e-07,6.468210845783546e-06,1.4558417152140883e-06,4.435826350125148e-07,4.178013432603311e-07,1.0846460818785501e-06,1.1226669885030007e-06,2.7862164673834955e-07,8.946399571825743e-07,7.433976611609878e-05,2.519497152430664e-07,2.174963761976541e-07,3.206650604199537e-07,6.950252369769726e-07
4,2.3250712448066092e-07,1.1383390418785636e-06,7.379265538067382e-07,7.565023497035199e-06,1.7658189616043408e-06,5.518906396028441e-07,4.510598450546937e-07,1.1915879723032888e-06,1.304924492825581e-06,3.7005499837503403e-07,1.0080354432424459e-06,8.21397101064563e-05,3.13929050129676e-07,2.67866051652119e-07,3.9538083053255347e-07,7.689757020952876e-07
5,2.626550450774759e-07,1.2939484040845896e-06,8.155356075625159e-07,8.598192621506595e-06,2.0566544863033365e-06,6.523293176623932e-07,4.872419221287901e-07,1.2964939565575345e-06,1.492278627730345e-06,4.579850666732176e-07,1.1108556701627736e-06,8.945442002579587e-05,3.724705104952844e-07,3.153699218187446e-07,4.6471652855289626e-07,8.428386584128836e-07
6,2.931457559007347e-07,1.4416441473431392e-06,8.884499592584092e-07,9.55842982660002e-06,2.3272570191163766e-06,7.439584876853019e-07,5.26216824737805e-07,1.3989568168978648e-06,1.683665607917561e-06,5.416751875420996e-07,1.2029310189390201e-06,9.614187476196932e-05,4.2730047492033935e-07,3.5987694686703664e-07,5.283450031811758e-07,9.157791298867111e-07
7,3.2387115423915695e-07,1.579657904151689e-06,9.563354492591214e-07,1.0436348478524357e-05,2.5776055539013983e-06,8.264166373420029e-07,5.678205404586793e-07,1.4985961963968732e-06,1.8780191668292943e-06,6.206548341488523e-07,1.2842724639867482e-06,0.00010208189018404333,4.78382905942211e-07,4.013551965241735e-07,5.862294000672131e-07,9.869536051708518e-07
8,3.546991577777942e-07,1.7062061014562817e-06,1.018760298018689e-06,1.1223761035879109e-05,2.808519920626279e-06,8.997493853150159e-07,6.118415155938337e-07,1.5950137835586666e-06,2.0743482936876467e-06,6.947964647651386e-07,1.3548732774907377e-06,0.00010718469281680987,5.257655008572264e-07,4.398548820858319e-07,6.385356511456252e-07,1.0555149248064417e-06
9,3.8548450341287267e-07,1.8196121617547786e-06,1.0751777377235048e-06,1.1914935953731081e-05,3.0213936733269837e-06,9.641981540033956e-07,6.579949434517567e-07,1.6877247829287018e-06,2.271632032626652e-06,7.643181632236105e-07,1.414699142895221e-06,0.00011138494465819503,5.695014049642978e-07,4.755238056786879e-07,6.855550089143117e-07,1.1206167230699053e-06
10,4.160744650187529e-07,1.9183824667587758e-06,1.1250536808180008e-06,1.2507376634586334e-05,3.2179750048146825e-06,1.0200689394368933e-06,7.058954530042223e-07,1.7761951444257404e-06,2.468649484638246e-06,8.296807833953136e-07,1.4637829864740365e-06,0.00011462856193337996,6.096541631971141e-07,5.085925536845943e-07,7.276606104888146e-07,1.1813778198862592e-06
11,4.46310050392124e-07,2.001235132518529e-06,1.1680392441614808e-06,1.3001952711196598e-05,3.400190535516837e-06,1.0676726601861758e-06,7.550280208449773e-07,1.860001572184281e-06,2.6639556360788044e-06,8.914099233989436e-07,1.5023230705323418e-06,0.0001168716014995967,6.463208691716484e-07,5.393333833591307e-07,7.652794036638168e-07,1.2369016809907083e-06
12,4.76029288824286e-07,2.0671590372614725e-06,1.204008455061181e-06,1.3402407692141058e-05,3.5699761785109564e-06,1.1072590305855554e-06,8.047394265248698e-07,1.9389425300606265e-06,2.8560022771357772e-06,9.499353022223178e-07,1.5306901470769874e-06,0.00011809707629798588,6.79626508623301e-07,5.680495037757054e-07,7.988668729202495e-07,1.2864541289368988e-06
13,5.050619405330767e-07,2.1155848522962225e-06,1.232938333001091e-06,1.3714369385585438e-05,3.729138675378974e-06,1.1389656682767411e-06,8.54272570868992e-07,2.0129859854924577e-06,3.043285196087237e-06,1.0055223878736297e-06,1.549455955996669e-06,0.00011833171341460581,7.096939377511283e-07,5.950823578276104e-07,8.289274501802451e-07,1.329683190085695e-06
14,5.332149592539108e-07,2.1466266622209056e-06,1.2548334826854175e-06,1.3943997711291241e-05,3.879251518465846e-06,1.1628964396281444e-06,9.028317150065492e-07,2.082142267898405e-06,3.2244389388772386e-06,1.0583003264987237e-06,1.559525625767437e-06,0.00011764667536203683,7.366258822557188e-07,6.207746418905845e-07,8.560751320812087e-07,1.3666567129800428e-06
15,5.60288302408957e-07,2.1612247178927112e-06,1.2698104305121951e-06,1.4096520738875977e-05,4.02157152588458e-06,1.1793328613994723e-06,9.496477999935251e-07,2.146400920135968e-06,3.398231117487165e-06,1.1083375158865596e-06,1.5621930160475807e-06,0.00011614504113035506,7.605135852803352e-07,6.454081160404424e-07,8.810239999576379e-07,1.3976720635177173e-06
16,5.861435245263629e-07,2.1610464202561533e-06,1.2781899283445313e-06,1.4175323458066928e-05,4.156981718001789e-06,1.1888935843887667e-06,9.940049232250767e-07,2.2057505833261667e-06,3.5634637116891414e-06,1.1556817226553337e-06,1.5590241162403816e-06,0.0001139451826816212,7.814953697682058e-07,6.691896652347113e-07,9.044687904685994e-07,1.423065678262339e-06
17,6.107799078305729e-07,2.148159251848309e-06,1.2804661887985175e-06,1.4182195215269924e-05,4.285963018138283e-06,1.1924823398100005e-06,1.0352010959515436e-06,2.260190519857186e-06,3.7188891237010436e-06,1.2003305337393334e-06,1.5517012127007049e-06,0.00011116518051654477,7.998291215769005e-07,6.922858576400354e-07,9.269647683684699e-07,1.4431997225328236e-06
18,6.343572806825916e-07,2.1246353259332335e-06,1.277235831971682e-06,1.4118435805322239e-05,4.4085896567830805e-06,1.191121955229523e-06,1.0724912237733448e-06,2.30966841226428e-06,3.863314845874623e-06,1.2421994368299256e-06,1.5419141482822389e-06,0.00010791275563000698,8.158718176813331e-07,7.14840183794419e-07,9.488843355253761e-07,1.4585051843822258e-06
19,6.571463997376739e-07,2.092285297990095e-06,1.2691727833367355e-06,1.3985977471957925e-05,4.524548970527415e-06,1.185863684515913e-06,1.1051120468905407e-06,2.3539855082568977e-06,3.995929964975609e-06,1.2811173836839515e-06,1.5312629178948447e-06,0.0001042853336001206,8.29994468059436e-07,7.369515796540692e-07,9.704143251864093e-07,1.469475999615472e-06
20,6.794510296354517e-07,2.052599324349399e-06,1.257001362242377e-06,1.3788044718981276e-05,4.633186442816444e-06,1.1777518271978803e-06,1.1323991454595547e-06,2.392740144637005e-06,4.116542888932113e-06,1.3168121470579258e-06,1.521154039804039e-06,0.00010037738323042659,8.425268480127361e-07,7.58654442285543e-07,9.915552645511308e-07,1.4766890955126994e-06
21,7.015680115920842e-07,2.006810421952855e-06,1.2414603488271296e-06,1.3529350701083564e-05,4.733573809802427e-06,1.1677433621575346e-06,1.1539009651438788e-06,2.4253082605087964e-06,4.225359890245306e-06,1.3489082877246083e-06,1.512731459666781e-06,9.628461459228257e-05,8.537127951392527e-07,7.799139070435115e-07,1.0121411324421698e-06,1.480856591258766e-06
22,7.237776885757959e-07,1.9560023137774033e-06,1.2233266341250403e-06,1.3215984107543904e-05,4.8245995487946855e-06,1.156635295878558e-06,1.1694343126739038e-06,2.450822975057333e-06,4.322413858493361e-06,1.376953220106986e-06,1.5068641509061288e-06,9.209998423310024e-05,8.636840621262571e-07,8.006183741041345e-07,1.0319303374535805e-06,1.4827991648787907e-06
23,7.463220999317252e-07,1.901261164287895e-06,1.2034415392848635e-06,1.2855127475694386e-05,4.9050813900457714e-06,1.145082255299571e-06,1.1791052085802638e-06,2.468178513911698e-06,4.4071598391358755e-06,1.4004405592605419e-06,1.504161085885491e-06,8.790872612951234e-05,8.725356502405669e-07,8.205745443763314e-07,1.0507717871819194e-06,1.4833016976410938e-06
24,7.693885582443176e-07,1.8438109258193398e-06,1.1826313401649752e-06,1.2454734058033362e-05,4.973899240614493e-06,1.133662568881695e-06,1.1833048271194702e-06,2.476135325017468e-06,4.4785101691895705e-06,1.4188925351672617e-06,1.5050095500839748e-06,8.378945170605599e-05,8.804848946471169e-07,8.395060015670793e-07,1.0687140914800583e-06,1.4829716418922588e-06
25,7.931163299781156e-07,1.7850182146312052e-06,1.1615728036723806e-06,1.2023251948757518e-05,5.030147022502312e-06,1.1229080890453956e-06,1.1826448605787516e-06,2.473552093668476e-06,4.535065472148705e-06,1.4320574618971802e-06,1.5096770087420247e-06,7.9816701167355e-05,8.879595808834088e-07,8.570502293320987e-07,1.085928809873687e-06,1.4822263242035975e-06
26,8.176161923287285e-07,1.7262719575915055e-06,1.140718416913607e-06,1.1569366838066727e-05,5.073301868582173e-06,1.113291168652268e-06,1.177819829501709e-06,2.45967045145565e-06,4.5751850088595365e-06,1.440076349073482e-06,1.5184460428364955e-06,7.606018531200427e-05,8.955103931609691e-07,8.727658651094619e-07,1.102548186619646e-06,1.481365760053624e-06
27,8.429981408177354e-07,1.668858789063958e-06,1.120306182382951e-06,1.1101677875115462e-05,5.103352722292203e-06,1.105229101764217e-06,1.1694533796068237e-06,2.4343343889272838e-06,4.596884396571007e-06,1.4434286333825694e-06,1.5316810536599493e-06,7.258526443153697e-05,9.036573586646062e-07,8.861586812188769e-07,1.118602558459466e-06,1.4806026617719753e-06
28,8.69365258531973e-07,1.6138994461830436e-06,1.1004004638019113e-06,1.0628308852514548e-05,5.120745429135519e-06,1.0991293629249498e-06,1.1580184937832527e-06,2.3980733383055748e-06,4.597866086655042e-06,1.4427080827471793e-06,1.5497886744249985e-06,6.945672551142005e-05,9.12849533727225e-07,8.967642884135909e-07,1.1340637691821202e-06,1.4800345138822009e-06
29,8.967462240416403e-07,1.5623180357671755e-06,1.0809111130304484e-06,1.0156554706528006e-05,5.126236994732215e-06,1.0954175136317958e-06,1.1438789862287541e-06,2.352040029328402e-06,4.575877219106977e-06,1.438439379687865e-06,1.5731201652286765e-06,6.674064498910997e-05,9.235243896402706e-07,9.043060785322133e-07,1.1489079330952404e-06,1.4796916372360169e-06
30,9.250252367882352e-07,1.5148341828244436e-06,1.061623944384868e-06,9.692687818764294e-06,5.121029057218162e-06,1.09448880087599e-06,1.1273997119752774e-06,2.29779846641439e-06,4.52926282777779e-06,1.431022447093004e-06,1.6018701708562735e-06,6.450161477165708e-05,9.36117129889476e-07,9.088028818497062e-07,1.1631505368174464e-06,1.479727923759605e-06
31,9.539327756016145e-07,1.4720041956219637e-06,1.0422895469114917e-06,9.241986597589165e-06,5.107029615173383e-06,1.0966155268598124e-06,1.1090029741195476e-06,2.2369981246855473e-06,4.4574516078553826e-06,1.4207464808364851e-06,1.6360141706205611e-06,6.279761224654195e-05,9.51000256697996e-07,9.105052667636247e-07,1.1768146582959511e-06,1.4805656367944512e-06
32,9.831025756278738e-07,1.4342712978242509e-06,1.0227184533765992e-06,8.808855268225007e-06,5.086693805961303e-06,1.1019099516400287e-06,1.089110585595794e-06,2.171098510533339e-06,4.361180802805768e-06,1.407808065239041e-06,1.6753133774536668e-06,6.167579594999112e-05,9.68447898569797e-07,9.097681175665078e-07,1.1898662165147664e-06,1.4828075610834637e-06
33,1.0121622344218921e-06,1.401962379386658e-06,1.0028415404309107e-06,8.396760610146795e-06,5.0625679384749305e-06,1.110378548836294e-06,1.0680529529910838e-06,2.1012807951329596e-06,4.242410981532429e-06,1.3923569438047817e-06,1.7193377683692763e-06,6.117148880733464e-05,9.886304250751402e-07,9.069988209328476e-07,1.202217823950631e-06,1.4870320541642796e-06
34,1.040810494214053e-06,1.3752884674558149e-06,9.827549875452269e-07,8.007912938058373e-06,5.036974626897796e-06,1.121973636948157e-06,1.0460575419333544e-06,2.028472171479346e-06,4.10396742529049e-06,1.3746019267226059e-06,1.7674344417297819e-06,6.130960159030189e-05,1.0116164989332318e-06,9.026230916338216e-07,1.2137726496433322e-06,1.4936447969145237e-06
35,1.0688309614051213e-06,1.3543989080148008e-06,9.62707436252264e-07,7.64297594167844e-06,5.011843682086054e-06,1.1365515207003613e-06,1.0232947643536827e-06,1.9533812900914888e-06,3.9489987858158545e-06,1.3548803684641242e-06,1.8186769909465242e-06,6.210535375697697e-05,1.037407898841916e-06,8.970152601291893e-07,1.2243884333041542e-06,1.5027979582863806e-06
36,1.096016047906516e-06,1.3393900621054664e-06,9.429797802515379e-07,7.301081294770744e-06,4.988650016055464e-06,1.1537942276525237e-06,9.998699480657257e-07,1.8765988814404065e-06,3.780573089761492e-06,1.3336503266424404e-06,1.8718550482795378e-06,6.356325799020442e-05,1.0659640482026339e-06,8.904740940981501e-07,1.2337751895624282e-06,1.5143983991640212e-06
37,1.1220514108158786e-06,1.3302237168204063e-06,9.237489431883772e-07,6.980089151031695e-06,4.968497941520286e-06,1.1732247694532287e-06,9.757573270692555e-07,1.7988070755297126e-06,3.6017323297680683e-06,1.3114966571676961e-06,1.9255027489376153e-06,6.567664972133463e-05,1.0971519929758688e-06,8.832663976870981e-07,1.241442530275262e-06,1.5281980708001855e-06
38,1.1464584641208488e-06,1.3266640603604674e-06,9.050793167760426e-07,6.676952011302088e-06,4.9521976759935814e-06,1.1943289882712291e-06,9.50795528778842e-07,1.720968562089007e-06,3.4157960098926904e-06,1.2891297622574578e-06,1.9779972868687886e-06,6.842894911772243e-05,1.1306702639200881e-06,8.756477720859953e-07,1.246734422942432e-06,1.5438387311503328e-06
39,1.1686345157165254e-06,1.3283018817087821e-06,8.870207266492321e-07,6.388261779513378e-06,4.940223299442131e-06,1.2166519803138996e-06,9.248065240762233e-07,1.644318388130943e-06,3.2264531906628204e-06,1.2672965047919923e-06,2.0277210890974916e-06,7.179446424552166e-05,1.1660435212162477e-06,8.678437994667981e-07,1.2489097449807682e-06,1.5608464879277951e-06
40,1.187948247465885e-06,1.3346299560911455e-06,8.696632326697231e-07,6.111065882782881e-06,4.932676809546216e-06,1.2397611088183811e-06,8.977548452619982e-07,1.5701498680239078e-06,3.037581280387756e-06,1.246661940463297e-06,2.073146913189773e-06,7.573662480008745e-05,1.202688102090851e-06,8.600599307000505e-07,1.2472628426780835e-06,1.5786651474607043e-06
41,1.2038276661947685e-06,1.345125974559041e-06,8.531282449659191e-07,5.843731280316853e-06,4.929373826459685e-06,1.2631183888423773e-06,8.698203876583273e-07,1.4995727943604218e-06,2.8530367794595947e-06,1.227745284773628e-06,2.112751401611276e-06,8.020451315959012e-05,1.2399450241730791e-06,8.525049801880588e-07,1.2412927174790118e-06,1.5966761552974277e-06
42,1.2158173063948088e-06,1.3593151953431204e-06,8.375795548743853e-07,5.5864670505680325e-06,4.929989358860145e-06,1.2859961378843375e-06,8.413401910049168e-07,1.4334159645721682e-06,2.676568002453486e-06,1.2109218675487252e-06,2.144882358693592e-06,8.513013060521956e-05,1.2770462653597292e-06,8.453720320132259e-07,1.2308509125474293e-06,1.61419390896665e-06
43,1.223633969016181e-06,1.3767797136676431e-06,8.232225378085939e-07,5.341311518685817e-06,4.934137742281111e-06,1.3075168777081254e-06,8.126802835795838e-07,1.3722872933068224e-06,2.5118500283850112e-06,1.1964707433036115e-06,2.167811509714906e-06,9.042796882761837e-05,1.3131152492885828e-06,8.388056261296378e-07,1.2161720729840221e-06,1.6305496928206709e-06
44,1.2272308059782927e-06,1.397103328090966e-06,8.102361941705416e-07,5.111670314157295e-06,4.941340368144538e-06,1.3268002518171883e-06,7.841372006623692e-07,1.3166757681018684e-06,2.3625754485184667e-06,1.1845919014641038e-06,2.180039199466082e-06,9.599654738336149e-05,1.3472278430868699e-06,8.329098887867163e-07,1.197765687653645e-06,1.645217439792161e-06
45,1.2268035150192245e-06,1.419797882316446e-06,7.986990237876751e-07,4.9015918115843475e-06,4.950932221522586e-06,1.3431545550147535e-06,7.559148078949666e-07,1.2669795458115894e-06,2.232492149851379e-06,1.17534475940731e-06,2.180629721821471e-06,0.0001017201191435517,1.378434646858904e-06,8.277822559175686e-07,1.1762411046675508e-06,1.6577985009322865e-06
46,1.2226812549444084e-06,1.4442883358102207e-06,7.885801816159305e-07,4.715003531511137e-06,4.961985469191817e-06,1.3562157094459048e-06,7.281645510364323e-07,1.2234526310050458e-06,2.125308096358402e-06,1.1685797565693581e-06,2.169274859165725e-06,0.00010746882778166591,1.4057762137304185e-06,8.235152656612349e-07,1.1522074263060455e-06,1.6678919182128448e-06
47,1.2151522270937975e-06,1.4699783320332887e-06,7.797817544840466e-07,4.555207499524083e-06,4.973296091191869e-06,1.365935356707188e-06,7.010522422117745e-07,1.1861508911296924e-06,2.0445123249063522e-06,1.16396343974476e-06,2.146125822501566e-06,0.00011309727567326498,1.428399946967101e-06,8.201584551774971e-07,1.1263044689412027e-06,1.675079831907759e-06
48,1.2043386370741363e-06,1.4963120529214525e-06,7.721609678844403e-07,4.4247997070231895e-06,4.983439682733965e-06,1.3724292623420648e-06,6.747831037227209e-07,1.1549361751420614e-06,1.9932536520782625e-06,1.1611071010778796e-06,2.1117573888826954e-06,0.00011844603211774787,1.4456994472267122e-06,8.17681847501292e-07,1.0992292963684421e-06,1.6790772619674598e-06
49,1.1901996598401845e-06,1.5227385466388705e-06,7.655028850455889e-07,4.325841774291721e-06,4.990871190284117e-06,1.3757962604686483e-06,6.495549733898397e-07,1.129542852800597e-06,1.974340346028755e-06,1.1596796898822488e-06,2.0673114212642196e-06,0.0001233548415246305,1.4573429642188799e-06,8.159550722415201e-07,1.0716674552920127e-06,1.6798221956478923e-06
50,1.1726521936143656e-06,1.5486347095879943e-06,7.595038469279144e-07,4.260011128194222e-06,4.994019723499273e-06,1.375993225064961e-06,6.254995790860283e-07,1.109679383038631e-06,1.9903261115380656e-06,1.1593919186960861e-06,2.014468037446343e-06,0.00012768850833307202,1.4631964480666292e-06,8.147519541885261e-07,1.0442276945666934e-06,1.6773526884183667e-06
51,1.1517184978783617e-06,1.5733411436810027e-06,7.538288121307168e-07,4.2286315246280225e-06,4.991337313437211e-06,1.372818181987569e-06,6.026783740518066e-07,1.0951203639767088e-06,2.0436232111145627e-06,1.1599101632531864e-06,1.9551313316909446e-06,0.00013136003927136824,1.4632707721210566e-06,8.138192568697914e-07,1.0174407990176823e-06,1.6715889061142933e-06
52,1.1276036193110603e-06,1.5963073810130001e-06,7.482106294603101e-07,4.2325884891236134e-06,4.9813107472595235e-06,1.3660428850108892e-06,5.811226825511508e-07,1.0857561944947856e-06,2.136522689826147e-06,1.1608248070571096e-06,1.8910847638688128e-06,0.00013433263626084132,1.4578007477828773e-06,8.129869642507118e-07,9.917484207125894e-07,1.6622162800355658e-06
53,1.1006862453213928e-06,1.617166927037427e-06,7.424923226341765e-07,4.2721913169009786e-06,4.962507540327811e-06,1.355642619055611e-06,5.608513596898754e-07,1.0815681906892364e-06,2.2710704299250073e-06,1.1617146850866998e-06,1.8238440699354565e-06,0.00013659931329887436,1.4473113905047327e-06,8.122201555479468e-07,9.674616947217987e-07,1.6487780095446055e-06
54,1.071482026465293e-06,1.6356706715406479e-06,7.365764564626365e-07,4.347165134251221e-06,4.933685987020791e-06,1.3419802487530669e-06,5.418385493112168e-07,1.0825191765028999e-06,2.448938202483031e-06,1.1622758440664105e-06,1.7547121718771826e-06,0.0001381598904652107,1.4324844763490933e-06,8.115578014515832e-07,9.447779086822823e-07,1.6309634673646293e-06
55,1.0406136752335562e-06,1.651606936189878e-06,7.303585973156884e-07,4.4568505663537575e-06,4.89384818284557e-06,1.325828357376406e-06,5.23986921389533e-07,1.0884395597451654e-06,2.6713768769110995e-06,1.1624130909493002e-06,1.6849018274196427e-06,0.00013901695942361274,1.413954913198639e-06,8.110102119086257e-07,9.238835180045296e-07,1.608881638594368e-06
56,1.008754472665209e-06,1.6648230131236574e-06,7.237259335489299e-07,4.600405462185769e-06,4.842265037829145e-06,1.30821372940973e-06,5.071673003134701e-07,1.09900981406733e-06,2.9391613282567036e-06,1.1622102492203868e-06,1.6156129743514296e-06,0.00013919081269770094,1.3922372184841082e-06,8.105385837482597e-07,9.050379875932124e-07,1.583099936037812e-06
57,9.765433069750762e-07,1.6753087742295111e-06,7.166080623791579e-07,4.7768286271690436e-06,4.7787548812456065e-06,1.290194004762963e-06,4.912956278007031e-07,1.1138428457260564e-06,3.252492657260554e-06,1.1618296851606828e-06,1.548033955897116e-06,0.00013873624769983884,1.3677635586714667e-06,8.101155989502101e-07,8.885468082394285e-07,1.5544780378100055e-06
58,9.445475372528149e-07,1.6832413459321913e-06,7.090194764824439e-07,4.984878067494981e-06,4.704024237156362e-06,1.2726998797421832e-06,4.763628377213015e-07,1.1325587930634327e-06,3.6109609496652736e-06,1.1614223413295192e-06,1.483273483688967e-06,0.00013774868355947382,1.3409529662588001e-06,8.097652524810148e-07,8.746877672547052e-07,1.5239369206221277e-06
59,9.133045645652005e-07,1.6889666052723045e-06,7.010738693004345e-07,5.223036906672808e-06,4.619572324900775e-06,1.2564545440196336e-06,4.6241235836863033e-07,1.1547397854977944e-06,4.013618234886835e-06,1.1610488793986058e-06,1.4222632871580244e-06,0.0001363569356778958,1.3123080436709064e-06,8.095771878735194e-07,8.63691712502705e-07,1.492273824118826e-06
60,8.833648514938104e-07,1.6929494245824068e-06,6.929689114802029e-07,5.489586618127218e-06,4.527361180711007e-06,1.241939193283223e-06,4.4952008281612037e-07,1.1798172134605375e-06,4.459089095369636e-06,1.1606059788330548e-06,1.365731316544767e-06,0.00013470539527798238,1.2825145488583203e-06,8.097148074101657e-07,8.557504760721629e-07,1.4600962049034974e-06
61,8.552640342596011e-07,1.6956772868079095e-06,6.849324213332566e-07,5.782736263096383e-06,4.4296592281996855e-06,1.2294313370817185e-06,4.3777395844846466e-07,1.2070500971845375e-06,4.945607025024615e-06,1.1597893630434864e-06,1.3142920491949573e-06,0.00013293296513386434,1.2524315005712737e-06,8.103552097722373e-07,8.510030816911322e-07,1.4278609892946948e-06
62,8.294532039964081e-07,1.697505335171275e-06,6.771745361830322e-07,6.100686901871699e-06,4.328933275271014e-06,1.2191159772888363e-06,4.2724937838439375e-07,1.235613246852918e-06,5.470894413589217e-06,1.1581403966809636e-06,1.2685321067447383e-06,0.00013115730025063365,1.2229286031220067e-06,8.115907133153633e-07,8.495233259173125e-07,1.395978984743686e-06
63,8.062597216358247e-07,1.6985321916100887e-06,6.698885356292227e-07,6.441505576310704e-06,4.2276761167117164e-06,1.2112008909184986e-06,4.180162860714864e-07,1.2646721111873985e-06,6.031901360813702e-06,1.155209129142705e-06,1.2289808159153017e-06,0.00012946793152640625,1.194714537981704e-06,8.133957941872405e-07,8.513082582912859e-07,1.364925805649015e-06
64,7.85889433926613e-07,1.698586762880276e-06,6.63270028406884e-07,6.8027648362418536e-06,4.128279578512169e-06,1.2059647869428723e-06,4.1016299948389435e-07,1.2933869518760027e-06,6.624517263279581e-06,1.1507559573838002e-06,1.1960614920964524e-06,0.00012792543638825567,1.168306020885704e-06,8.156675362704393e-07,8.562463764765772e-07,1.3352552166610638e-06
65,7.684287434524979e-07,1.6973013281267047e-06,6.575372419210238e-07,7.181100276786087e-06,4.0329455906975346e-06,1.2037185428289868e-06,4.0379114517024654e-07,1.3209192491755584e-06,7.243356526905322e-06,1.1448462122331655e-06,1.170133246228916e-06,0.00012656202081346663,1.144119573362668e-06,8.182881870000308e-07,8.640835934089515e-07,1.3075027116518666e-06
66,7.538269572025372e-07,1.694241396895639e-06,6.529433782912354e-07,7.572026000482177e-06,3.943588992140069e-06,1.2047165550869182e-06,3.989877816440733e-07,1.3465082739014288e-06,7.88166088928751e-06,1.1377948143349035e-06,1.1515376947090054e-06,0.00012538154179400385,1.1225693042195976e-06,8.211618303266305e-07,8.74410644404587e-07,1.2820749426454157e-06
67,7.418842519898864e-07,1.6890865050833435e-06,6.497446812622163e-07,7.970213417207199e-06,3.8617625140889946e-06,1.2090713393727247e-06,3.9581501731524087e-07,1.3695731172279713e-06,8.531385642529861e-06,1.1300129599635286e-06,1.140554515340954e-06,0.00012435934526154428,1.1040777119955052e-06,8.242272707083969e-07,8.866823659223203e-07,1.259181966594806e-06
68,7.322800413880342e-07,1.6818122897873816e-06,6.481451428161779e-07,8.370104252611624e-06,3.7886087351068334e-06,1.2167077978976645e-06,3.9432147096593396e-07,1.3897510545456903e-06,9.183431415412127e-06,1.1218386419260652e-06,1.1373219575903354e-06,0.00012344265113583628,1.0890127000306969e-06,8.274991956968078e-07,9.002690309337776e-07,1.2388150302699225e-06
69,7.246399226373777e-07,1.6727954368567627e-06,6.482868435858934e-07,8.766618932264963e-06,3.724821542880685e-06,1.2273687644875279e-06,3.9453875361622654e-07,1.406863361217723e-06,9.827714769126976e-06,1.1134511253433152e-06,1.1417833366858181e-06,0.000122553061198776,1.0776631349918645e-06,8.311061450843796e-07,9.145171796765536e-07,1.2207591333416824e-06
70,7.186068412284212e-07,1.6627852092789803e-06,6.502871403818052e-07,9.155716520100977e-06,3.670624745057963e-06,1.2406408505795685e-06,3.9646123497411e-07,1.4208742142989131e-06,1.0453013134022229e-05,1.1048986158074409e-06,1.1536492696425242e-06,0.00012159532157606644,1.0702766861560814e-06,8.352385112594319e-07,9.288033900795835e-07,1.2046108098187963e-06
71,7.13881275948588e-07,1.6527419414365755e-06,6.542546826943373e-07,9.53448528265449e-06,3.6257714575046167e-06,1.255953366614624e-06,4.0005591255080016e-07,1.431864710408248e-06,1.1047182408828315e-05,1.0961686865210888e-06,1.1723777482570884e-06,0.00012047595926221232,1.0670565218469921e-06,8.400380313760975e-07,9.425989481625869e-07,1.189816403471071e-06
72,7.102124359469634e-07,1.6436132268427668e-06,6.602642062467602e-07,9.900552180018794e-06,3.5895581472682242e-06,1.2725665019739026e-06,4.053107351825711e-07,1.439967627409757e-06,1.1598174480202843e-05,1.0872512470980767e-06,1.1971817446071695e-06,0.00011912645065515093,1.0681048104173758e-06,8.455272480915067e-07,9.55549330897633e-07,1.1757854054448614e-06
73,7.07378030777956e-07,1.6361434258487145e-06,6.683306752810364e-07,1.0251190642636115e-05,3.560854785885567e-06,1.2896260884398167e-06,4.122628320825567e-07,1.4452680332074023e-06,1.2095396709262203e-05,1.078175645240669e-06,1.2270488634819981e-06,0.00011751557249833542,1.073385245297839e-06,8.516124788298271e-07,9.675109130133807e-07,1.1620579032189122e-06
74,7.052076649676838e-07,1.6307780245123127e-06,6.783950793715241e-07,1.0583160125045088e-05,3.5381528220804233e-06,1.3063082535644067e-06,4.20972044388853e-07,1.4477964446578856e-06,1.2530747834444798e-05,1.0689804066970646e-06,1.260768128581624e-06,0.00011564076932758644,1.0827152449816272e-06,8.581357335195569e-07,9.784936353551617e-07,1.1484506674499894e-06
75,7.036034101447376e-07,1.6276843669582055e-06,6.903049192531939e-07,1.089375321970053e-05,3.519628876701164e-06,1.3219564178768108e-06,4.314755816038482e-07,1.447663707567077e-06,1.2899048969895175e-05,1.0596531442563374e-06,1.2969694077835278e-06,0.00011350922643752006,1.0957640939624952e-06,8.649216807675952e-07,9.885669304033868e-07,1.135116818082263e-06
76,7.024850401939738e-07,1.6268701639139415e-06,7.037918790384152e-07,1.1182106285383248e-05,3.503224099532254e-06,1.3360778895592255e-06,4.437564179098106e-07,1.4451898155068928e-06,1.3197675840896504e-05,1.0501351488646126e-06,1.334193589903927e-06,0.00011113056167392681,1.112040773391524e-06,8.718010226668802e-07,9.97817252528059e-07,1.1224651239375577e-06
77,7.017313120160733e-07,1.6283143936973054e-06,7.184702044717169e-07,1.1449560386433216e-05,3.486739663386183e-06,1.3481963167107511e-06,4.577225171473648e-07,1.440882127205317e-06,1.3425376154953446e-05,1.0403768312870569e-06,1.3709937611723848e-06,0.00010852726495570164,1.1308988841683129e-06,8.786468537079767e-07,1.0063397694559053e-06,1.1109703377086268e-06
78,7.012369038976523e-07,1.6319952748644425e-06,7.338626457740119e-07,1.1698747059302624e-05,3.4679474124558277e-06,1.357731562822817e-06,4.731975479777236e-07,1.43529061783852e-06,1.3581324312448827e-05,1.0303706179940374e-06,1.405988732836062e-06,0.000105748698392175,1.151619456540188e-06,8.85418071439288e-07,1.0142123082343327e-06,1.1010094703561684e-06
79,7.010410961280904e-07,1.637789530205537e-06,7.49426610400115e-07,1.1932010758212379e-05,3.4447150201174853e-06,1.364059424284518e-06,4.89934902592047e-07,1.4288664018405171e-06,1.366607037594558e-05,1.0201250043845522e-06,1.4378895893265872e-06,0.00010287476226146484,1.1735713670514292e-06,8.921986964207834e-07,1.0214585370968965e-06,1.092789768981839e-06
80,7.013605113018762e-07,1.6453352664665264e-06,7.64580234221295e-07,1.215042547753208e-05,3.4151451610775526e-06,1.3667104655987806e-06,5.076681308427577e-07,1.4219008009412777e-06,1.368420570601508e-05,1.009599708166104e-06,1.4656541199586421e-06,0.0001000068497498072,1.1963563904990662e-06,8.99247542722807e-07,1.028043792332106e-06,1.0863550341514072e-06
81,7.024745116644788e-07,1.653946264521668e-06,7.787609197765762e-07,1.2354096789373487e-05,3.3776841028637445e-06,1.3655655438353646e-06,5.261844650000733e-07,1.4145138770877958e-06,1.3646199872765077e-05,9.987066872282757e-07,1.4886884130631624e-06,9.725151081936312e-05,1.2198167420263598e-06,9.069791410996679e-07,1.033912362826446e-06,1.0817247596911997e-06
82,7.046006357762578e-07,1.66259148535036e-06,7.914970450681817e-07,1.2543013767616623e-05,3.331107210137916e-06,1.3609392014534728e-06,5.453606139274297e-07,1.4066495308813508e-06,1.3567309452840203e-05,9.874360798836432e-07,1.5068359202470158e-06,9.470516678668584e-05,1.2439078280139581e-06,9.158286159141397e-07,1.0389943616324995e-06,1.0791035323084376e-06
83,7.078945640302612e-07,1.669930915938455e-06,8.024547105519312e-07,1.2717387976814083e-05,3.274473327703512e-06,1.3534971637315102e-06,5.651331272818547e-07,1.3981307377272566e-06,1.3464332002631081e-05,9.759661411141527e-07,1.520199536515725e-06,9.244658009094342e-05,1.2685791241491147e-06,9.261273931411036e-07,1.0431613111797196e-06,1.078915912836702e-06
84,7.125441045825801e-07,1.6744169168350512e-06,8.114656820915145e-07,1.2877195553568751e-05,3.2072655985558947e-06,1.3440383619822426e-06,5.854635550200267e-07,1.3888138140571824e-06,1.335287306590745e-05,9.646272099300637e-07,1.5290213369793924e-06,9.053822060033609e-05,1.2937411583390565e-06,9.380661050808004e-07,1.0462106265273657e-06,1.0816472807816148e-06
85,7.188245129848886e-07,1.6744836560431377e-06,8.185342153469179e-07,1.3021549327311127e-05,3.1295147675323714e-06,1.3332703620985864e-06,6.063303749796815e-07,1.3786995685100082e-06,1.3246457917642798e-05,9.538197929820152e-07,1.5336213603673745e-06,8.90324943014413e-05,1.319275244164463e-06,9.516794142339498e-07,1.0479246869727933e-06,1.0877116610504669e-06
86,7.270494252415442e-07,1.668815724583933e-06,8.238083444882339e-07,1.3148841204192992e-05,3.0415849422639236e-06,1.321679676614941e-06,6.277124526235951e-07,1.367859508739091e-06,1.3156579142738997e-05,9.439762162833872e-07,1.534378301202326e-06,8.797747112364856e-05,1.3450382661712274e-06,9.668337649130141e-07,1.0481883903550764e-06,1.0974233654435077e-06
87,7.374746748051199e-07,1.6566044822547379e-06,8.275389113401245e-07,1.3257573670857388e-05,2.9439212140351883e-06,1.309491355495145e-06,6.495722862469581e-07,1.3563004639761016e-06,1.3092764045212578e-05,9.355009674051479e-07,1.5317922099313577e-06,8.74181537619405e-05,1.3708627708987773e-06,9.832538450567727e-07,1.047084747247521e-06,1.110990033226686e-06
88,7.502402367125135e-07,1.6376586732325522e-06,8.300499370772751e-07,1.3346786215273165e-05,2.837115555547181e-06,1.2967089158304885e-06,6.718600925856883e-07,1.343933080216248e-06,1.3062690526449358e-05,9.286769206863147e-07,1.5264912924631467e-06,8.739278944667382e-05,1.3965499984717628e-06,1.0005628843837415e-06,1.0448683489781728e-06,1.1284995276760066e-06
89,7.653717064494755e-07,1.6123148142094286e-06,8.317014217868881e-07,1.3415454808764829e-05,2.722108814755866e-06,1.2832285535578076e-06,6.945076163798973e-07,1.3306246447895961e-06,1.3072336191098102e-05,9.236017948504735e-07,1.5191520438097665e-06,8.792889902451385e-05,1.4218573355921233e-06,1.0182874826314186e-06,1.041838479837524e-06,1.1499530543516669e-06
90,7.828046399046543e-07,1.581240470122628e-06,8.328232788063389e-07,1.3461334540115813e-05,2.600307635409362e-06,1.2689457083264567e-06,7.174162865611701e-07,1.3163081868266297e-06,1.3125841512102394e-05,9.201897078781017e-07,1.5105180781013339e-06,8.904357014335859e-05,1.4465502775678301e-06,1.0358529592710919e-06,1.0382176213343977e-06,1.1753164014754448e-06
91,8.023912355146027e-07,1.5452797175750855e-06,8.336431426620699e-07,1.3480385213755755e-05,2.473589092767431e-06,1.2537643938111212e-06,7.404914946357953e-07,1.30109842777979e-06,1.3225111818453954e-05,9.182558080581667e-07,1.5015067410493493e-06,9.074531637712328e-05,1.4705304315009168e-06,1.05267261099776e-06,1.0340864274882463e-06,1.2044835891071564e-06
92,8.238814994426659e-07,1.505373332465071e-06,8.342655002727644e-07,1.3467482049686434e-05,2.344145355539129e-06,1.237528225838507e-06,7.637074645658417e-07,1.2852721522539877e-06,1.3369705264406622e-05,9.176680951472359e-07,1.4932176511492173e-06,9.303217250176072e-05,1.4939191847790606e-06,1.0683771634412983e-06,1.0293809187585537e-06,1.23718299833524e-06
93,8.469076490863754e-07,1.4624664558727278e-06,8.347311076067927e-07,1.3417865524569927e-05,2.2141931352124724e-06,1.220021833190679e-06,7.871349155446689e-07,1.2691140448386075e-06,1.3557333496597218e-05,9.184658163304718e-07,1.4868058914367981e-06,9.588632864137382e-05,1.5170180004350013e-06,1.0830152622121002e-06,1.0239697573128166e-06,1.2729579498240065e-06
94,8.709913895609596e-07,1.4173862195274356e-06,8.351004235812134e-07,1.3328403563033997e-05,2.0857106435252824e-06,1.201142896248149e-06,8.10932358148751e-07,1.2528113101614943e-06,1.3784609919671245e-05,9.208520177717984e-07,1.4833234514998537e-06,9.92694676205056e-05,1.5401707814630506e-06,1.096994459982047e-06,1.0177902935783925e-06,1.311240312429965e-06
95,8.955502371101323e-07,1.3707863862498695e-06,8.35467377732953e-07,1.319830672151985e-05,1.9603119396442337e-06,1.1811120510918554e-06,8.353520508849925e-07,1.2364774655672845e-06,1.4047487315443326e-05,9.251287131299192e-07,1.4836091520385953e-06,0.00010312173038826782,1.563595294376634e-06,1.1108271870222256e-06,1.0109302570405956e-06,1.3514448384613637e-06
96,9.199069923451938e-07,1.3231963856201512e-06,8.358875494172413e-07,1.3029299912660296e-05,1.8392450616881046e-06,1.160521207234411e-06,8.607617241424345e-07,1.2201797221464369e-06,1.4341116605471895e-05,9.316824685513113e-07,1.4882616773895674e-06,0.0001073658155489122,1.5872597675526277e-06,1.1249462503492335e-06,1.0035645485992971e-06,1.3930623847588528e-06
97,9.433606728585202e-07,1.2750999376803726e-06,8.363147604623303e-07,1.2825322752582013e-05,1.7234702303846147e-06,1.1402002442785012e-06,8.876417824758346e-07,1.203876966742378e-06,1.465917475956425e-05,9.409599824835553e-07,1.4976863203885779e-06,0.00011191620117974257,1.6108349415280322e-06,1.1396791851977263e-06,9.958107656364026e-07,1.435743475388201e-06
98,9.653126891598922e-07,1.2269781576999932e-06,8.366488500886057e-07,1.2591862783785653e-05,1.613766955040947e-06,1.1210181444533537e-06,9.165318893144407e-07,1.1873637248179793e-06,1.4993075171310103e-05,9.533662929017137e-07,1.5121426203554003e-06,0.0001166897484389289,1.6336910036145887e-06,1.1552965165206985e-06,9.876378343083224e-07,1.4792896538076334e-06
99,9.853367075350734e-07,1.179312017776917e-06,8.368794806421455e-07,1.2335052207862184e-05,1.5107856665171821e-06,1.1037212702433394e-06,9.479479375425016e-07,1.170328920244124e-06,1.5331787939598712e-05,9.691612093920644e-07,1.5317409218212937e-06,0.0001216113909334041,1.6549247199443274e-06,1.172050362491885e-06,9.788933409312207e-07,1.523513784341855e-06
100,1.003107841410167e-06,1.1325593414656447e-06,8.371933429842835e-07,1.2060699831210143e-05,1.4150052609977525e-06,1.0888545440679836e-06,9.82348630870914e-07,1.1524878093347232e-06,1.5662676372885373e-05,9.884146374600212e-07,1.5563994651741012e-06,0.00012661028567569516,1.6734512593452407e-06,1.1901466445040283e-06,9.69436144552537e-07,1.5680959559955944e-06
101,1.0182596499544853e-06,1.0871184743841985e-06,8.379408084451737e-07,1.1773408288336153e-05,1.3266825922223888e-06,1.0767652907986749e-06,1.020186935763107e-06,1.1336679251539055e-06,1.597298236487115e-05,1.0110036347503323e-06,1.5857890761272789e-06,0.0001316090862383532,1.688162802887782e-06,1.2096498002513859e-06,9.59278797757628e-07,1.6125602156267385e-06
102,1.0303407177058356e-06,1.0432890130721656e-06,8.395010055791427e-07,1.1475877288859665e-05,1.2458831603370028e-06,1.067649619142665e-06,1.0619520080313022e-06,1.113781860348097e-06,1.625132416665652e-05,1.0366316219791082e-06,1.619315463294735e-06,0.00013651774047133673,1.6980942879455848e-06,1.2304041329254634e-06,9.4860111351957e-07,1.656307606612527e-06
103,1.038948094299915e-06,1.0012443823426694e-06,8.421594990892523e-07,1.1168582239036197e-05,1.1725441732435307e-06,1.0615865853564512e-06,1.108119370973125e-06,1.0927186639915541e-06,1.648864631497421e-05,1.064876302205404e-06,1.6561982180882708e-06,0.0001412382521871887,1.7025621882100805e-06,1.2520555881624782e-06,9.376212257178273e-07,1.6985776415410934e-06
104,1.0439140878608659e-06,9.610374773989598e-07,8.46064779773099e-07,1.0850034337837743e-05,1.1064829666417288e-06,1.0585265026014056e-06,1.1590750555949014e-06,1.0702634018215534e-06,1.667792892960356e-05,1.095253462133683e-06,1.6956119822119945e-06,0.00014567204038436278,1.7012728652230156e-06,1.274174476915378e-06,9.2647212738539e-07,1.7383524470776589e-06
105,1.0453642536687778e-06,9.226563163750332e-07,8.512698906867728e-07,1.0517533870176746e-05,1.0473603953228489e-06,1.058242480623067e-06,1.215101955389001e-06,1.0461425682182883e-06,1.6812860415135313e-05,1.1272256576966581e-06,1.7367499311805853e-06,0.00014971936025767336,1.694384880048846e-06,1.296403677558614e-06,9.151826326955349e-07,1.7743390371372009e-06
106,1.0436018699060093e-06,8.861199466902799e-07,8.578147355174327e-07,1.0168087903196185e-05,9.94663098343e-07,1.0602973879357764e-06,1.2763897763617912e-06,1.0201729807654916e-06,1.688753889461086e-05,1.1601534304776075e-06,1.7787361321065409e-06,0.00015327175362787152,1.6824990152963312e-06,1.318510068305243e-06,9.037165252605185e-07,1.8051400782339736e-06
107,1.0389261678413803e-06,8.515706409459024e-07,8.657554203865174e-07,9.799238466760424e-06,9.477648598838515e-07,1.0640938449893893e-06,1.3429892170237451e-06,9.923896894208636e-07,1.6898174712113452e-05,1.193324399375302e-06,1.8204808498213887e-06,0.00015621144999149192,1.6665205071822675e-06,1.3402717415871077e-06,8.920321909447749e-07,1.8295778655753712e-06
108,1.0315247418836204e-06,8.193153394095686e-07,8.751028479002165e-07,9.409680602238544e-06,9.06083638298273e-07,1.0690258221881393e-06,1.4147262311444608e-06,9.630622486079359e-07,1.684439872415276e-05,1.2261040800896531e-06,1.86063163183249e-06,0.00015843005876614783,1.6474143264474233e-06,1.361312576388596e-06,8.801748728404255e-07,1.8469966559640123e-06
109,1.0214807527365317e-06,7.898020272980329e-07,8.857495231292286e-07,8.999602566191296e-06,8.692299681796944e-07,1.0746333099182202e-06,1.4911624996137908e-06,9.326101942540822e-07,1.6728188752098698e-05,1.258034841873467e-06,1.8977325245722966e-06,0.00015985610098527442,1.6260278304310815e-06,1.3810615969306226e-06,8.683664446189787e-07,1.857396045557578e-06
110,1.0088167806204642e-06,7.63546015066431e-07,8.974639010456862e-07,8.570747582565008e-06,8.370057508164501e-07,1.080614349851851e-06,1.5716645500368073e-06,9.014766728378231e-07,1.6551674842584894e-05,1.288787220038376e-06,1.9305520325991825e-06,0.00016046427707960348,1.6030790903526091e-06,1.3988859717127222e-06,8.570265870425922e-07,1.8613366053318135e-06
111,9.935349559665344e-07,7.410334353004908e-07,9.099543904782108e-07,8.126279447718608e-06,8.092759732343427e-07,1.0866943016649786e-06,1.6555545995631382e-06,8.700178437488184e-07,1.6315786616283763e-05,1.3181149613728238e-06,1.958295406188938e-06,0.00016025657650250958,1.5791932814136563e-06,1.414309556934234e-06,8.46697698217281e-07,1.859642304524466e-06
112,9.757115299416466e-07,7.226398094298327e-07,9.229694554714637e-07,7.67054601883432e-06,7.858595260024989e-07,1.0925250072454059e-06,1.7422221274937375e-06,8.384586578514043e-07,1.6019851638218636e-05,1.345914019210403e-06,1.980485259706814e-06,0.0001592393237435218,1.5548597957532828e-06,1.4271293098553571e-06,8.379324816162653e-07,1.853137583591182e-06
113,9.556363851183103e-07,7.085954230097411e-07,9.363748110003278e-07,7.208776713632565e-06,7.665072216444002e-07,1.0977455046382277e-06,1.8311006323716034e-06,8.069332166681438e-07,1.5661465924403935e-05,1.3723025583382846e-06,1.9967143229399473e-06,0.00015742029819481438,1.5303437132422606e-06,1.4372940933135786e-06,8.312520952939234e-07,1.842671096981246e-06
114,9.338654426761023e-07,6.989959044210595e-07,9.501445141916859e-07,6.746721069789173e-06,7.509334427009861e-07,1.102101784890661e-06,1.9215789570239238e-06,7.755747848876673e-07,1.5237432325311431e-05,1.397644768419344e-06,2.006551700988191e-06,0.00015481758608815784,1.5056438317250586e-06,1.4446799812177324e-06,8.271759401260325e-07,1.829320872177368e-06
115,9.111157688442117e-07,6.938248789301441e-07,9.642688497653137e-07,6.290264419832115e-06,7.388507241506257e-07,1.1054413663206718e-06,2.0129855154150107e-06,7.445887120625819e-07,1.4746542251784621e-05,1.4224819418914022e-06,2.0095183004219955e-06,0.00015146441829673414,1.4805363449693646e-06,1.4490054616297083e-06,8.262083049518421e-07,1.8145046075735008e-06
116,8.880952877116031e-07,6.929565862365165e-07,9.786452988785606e-07,5.845054774434221e-06,7.299767341835009e-07,1.107652704462825e-06,2.1046079084871414e-06,7.142487918134144e-07,1.4192262040882676e-05,1.4473698214217233e-06,2.0050016653208144e-06,0.0001474108690980025,1.4547102033225225e-06,1.4499514381758774e-06,8.2876347372712e-07,1.7998817349397544e-06
117,8.653952193540334e-07,6.961402446058044e-07,9.9302449456438e-07,5.4161468866996074e-06,7.240374431612768e-07,1.1087202131922524e-06,2.1956129328628887e-06,6.848197990722983e-07,1.3582889202764393e-05,1.4727043157771608e-06,1.9922807540866687e-06,0.00014272584772281565,1.427929043430078e-06,1.4473686655780403e-06,8.351334737565243e-07,1.7871241157858278e-06
118,8.434780114529819e-07,7.029998060814158e-07,1.0070580970901423e-06,5.00775386604253e-06,7.208148491827724e-07,1.1088121023661498e-06,2.2849334133260906e-06,6.564919915315675e-07,1.292937155572213e-05,1.498616749027011e-06,1.970798342022004e-06,0.0001374967629352296,1.4001148225871024e-06,1.441386756277721e-06,8.45510698261704e-07,1.7777160323903647e-06
119,8.2270582785839e-07,7.130907421485048e-07,1.0204514291536193e-06,4.623266936532099e-06,7.202182364674386e-07,1.1082413406247227e-06,2.3712415617464467e-06,6.29411990763317e-07,1.2242855490875635e-05,1.524959054098607e-06,1.940536995517609e-06,0.00013182442981123248,1.3713458313977675e-06,1.4323371486304605e-06,8.599917517470965e-07,1.7728523263462091e-06
120,8.033462303551721e-07,7.260172580958716e-07,1.0331558998367975e-06,4.265509915702102e-06,7.223007097241525e-07,1.1073255521104386e-06,2.4529120127603622e-06,6.03776338639209e-07,1.1533755964128732e-05,1.5513556251355983e-06,1.9022663650500743e-06,0.00012581371439691606,1.3418352712128434e-06,1.4206030901888816e-06,8.785565280267838e-07,1.7733957165423588e-06
121,7.855437476627145e-07,7.415315383577662e-07,1.045476643987086e-06,3.936977292431695e-06,7.27188339340154e-07,1.106283837203171e-06,2.527931930168797e-06,5.798690789663626e-07,1.0812324047457556e-05,1.5772664252391775e-06,1.857489957626855e-06,0.00011956214066699134,1.3119236858640604e-06,1.4065530398215858e-06,9.010628013109365e-07,1.7798762467285778e-06
122,7.693007294553773e-07,7.595242033965025e-07,1.0580081946321552e-06,3.639860841305365e-06,7.349711271024107e-07,1.1052584712681027e-06,2.593984067004596e-06,5.580104818208901e-07,1.0089173806440156e-05,1.6020409147717707e-06,1.8080892409471129e-06,0.00011315092290141006,1.282056764440613e-06,1.3905359245840472e-06,9.272688599267684e-07,1.7925251295717762e-06
123,7.545137068716274e-07,7.799170021170551e-07,1.071454100204534e-06,3.3758877530257287e-06,7.456293514304056e-07,1.1044048155291904e-06,2.6488684103986803e-06,5.384918218068161e-07,9.374877054962187e-06,1.6249957358399748e-06,1.7559094219583284e-06,0.00010664481071011474,1.2527117928064299e-06,1.3728094988326272e-06,9.568592407983585e-07,1.8113310560773853e-06
124,7.410642124592571e-07,8.025581030969419e-07,1.0864746118146373e-06,3.1461849693828983e-06,7.590120433325634e-07,1.1039150917217169e-06,2.6910650840415867e-06,5.21539175192418e-07,8.679119287437859e-06,1.6455011077786709e-06,1.702522205832725e-06,0.0001001025479596266,1.2242927571334735e-06,1.353422442951212e-06,9.894545174032217e-07,1.8361333199078744e-06
125,7.289163376912225e-07,8.272035930930018e-07,1.103641511045701e-06,2.9513144812346196e-06,7.748256938075337e-07,1.103935914880606e-06,2.720063004698775e-06,5.072958108586259e-07,8.010059638746794e-06,1.662999681263382e-06,1.649159932952657e-06,9.359052631073693e-05,1.1970528713172947e-06,1.3322079086566505e-06,1.0246253228410883e-06,1.8667134274087484e-06
126,7.181673530406555e-07,8.535752093674881e-07,1.1234706763964e-06,2.7913618322891115e-06,7.926188505560331e-07,1.1044748705206268e-06,2.736310095022177e-06,4.958209525201849e-07,7.374035568753819e-06,1.6769402471492067e-06,1.5967239052667818e-06,8.71892291844892e-05,1.1711071716857644e-06,1.3089562066671533e-06,1.0619239916840628e-06,1.9027877150332728e-06
127,7.090390798617254e-07,8.814054014298001e-07,1.1464657480956597e-06,2.6659395804813817e-06,8.117926041044391e-07,1.1054017119658069e-06,2.740957058097569e-06,4.871012772837315e-07,6.7755805023157525e-06,1.6866880292752844e-06,1.5458316103387583e-06,8.098812896697262e-05,1.1465522263788872e-06,1.283652614716022e-06,1.1008986577258003e-06,1.943890037807815e-06
128,7.01841732455049e-07,9.104272640463595e-07,1.1731154503554878e-06,2.574150376208282e-06,8.316332925021231e-07,1.1065526215533076e-06,2.735593553215066e-06,4.810623916019478e-07,6.21775820088527e-06,1.6915058589393802e-06,1.496886182998126e-06,7.507399988610411e-05,1.123602533885033e-06,1.2565840438290839e-06,1.141079561162136e-06,1.9892710827625093e-06
129,6.969342947265702e-07,9.403912785659504e-07,1.2038330910311995e-06,2.5145879745542647e-06,8.513386282463687e-07,1.1078392380713458e-06,2.721996645517372e-06,4.775746075684767e-07,5.7026754611309355e-06,1.6907152205813023e-06,1.4501342092356064e-06,6.952199678241874e-05,1.1026344943351811e-06,1.228239649534374e-06,1.181997506165366e-06,2.037921021755109e-06
130,6.946743857900887e-07,9.71155312529152e-07,1.2389112130794598e-06,2.4853598333415045e-06,8.700669672113691e-07,1.1092435870439603e-06,2.7018435126939817e-06,4.7645194711176746e-07,5.231845631047874e-06,1.6839791995149447e-06,1.4057142641530047e-06,6.439324167072536e-05,1.0841425100541838e-06,1.1991525043454812e-06,1.2232158514596193e-06,2.0886482081136623e-06
131,6.953654902849272e-07,1.0027419905371053e-06,1.2785359745259875e-06,2.484124714126561e-06,8.87042518260788e-07,1.1107171741632525e-06,2.676451025195548e-06,4.774636873391136e-07,4.80621449587925e-06,1.671410244884799e-06,1.363736711313634e-06,5.973564196698029e-05,1.068681117021576e-06,1.1698420309063267e-06,1.2642671241207616e-06,2.140113336037624e-06
132,6.992435603111333e-07,1.0352824741677231e-06,1.3227851921173e-06,2.5082207527568352e-06,9.016492586450736e-07,1.1121453986857317e-06,2.6466567248782878e-06,4.803783655217138e-07,4.425981128013896e-06,1.6533911439521466e-06,1.3243848532726548e-06,5.55852124404652e-05,1.0568141468482116e-06,1.1408028688278536e-06,1.3045173338903916e-06,2.190882848193212e-06
133,7.065045195014329e-07,1.0689028005068442e-06,1.3715640380522208e-06,2.5548842220873914e-06,9.13422797228601e-07,1.1134432361120395e-06,2.6128594361374127e-06,4.850003256268466e-07,4.0904457578894775e-06,1.6304089584291717e-06,1.2879674023623909e-06,5.196741907184748e-05,1.0490436162707973e-06,1.11244516225964e-06,1.343083851055976e-06,2.2395174688028214e-06
134,7.173123297370484e-07,1.103626427013639e-06,1.4245381583875563e-06,2.621400433671341e-06,9.219685142674683e-07,1.1146361278873523e-06,2.5751748028085783e-06,4.911501486650303e-07,3.798014326250411e-06,1.603073483137982e-06,1.2548715825689614e-06,4.889774023300879e-05,1.0457467769132553e-06,1.0850476248084145e-06,1.3788503196599606e-06,2.284542003414581e-06
135,7.317683552930881e-07,1.1393053213836722e-06,1.4811029859664845e-06,2.705055894861459e-06,9.269357331424669e-07,1.1157943855135542e-06,2.533654068870793e-06,4.986167841192475e-07,3.5463900194138382e-06,1.5721278688124065e-06,1.225435664436983e-06,4.638123922312968e-05,1.0471707618701595e-06,1.0587780648091149e-06,1.4105820178266105e-06,2.3243507814872123e-06
136,7.498820386742141e-07,1.1755724534554572e-06,1.5403781816077365e-06,2.802944278325031e-06,9.281073584248248e-07,1.1168884127087238e-06,2.488473848050019e-06,5.071371408929836e-07,3.3328733970737696e-06,1.5384082895534652e-06,1.1998232894158549e-06,4.441209364837953e-05,1.053453564963322e-06,1.0337468299406617e-06,1.4371502801322848e-06,2.3573314427725425e-06
137,7.715552860504481e-07,1.2118355063336395e-06,1.6012287005821602e-06,2.911783820296914e-06,9.255310257563212e-07,1.1177055771583504e-06,2.440013380143374e-06,5.164240180360465e-07,3.1545541898704314e-06,1.5028430328763277e-06,1.1779792662904423e-06,4.2973787984148685e-05,1.06464771337214e-06,1.0100900044254164e-06,1.4577767847668368e-06,2.382238006276611e-06
138,7.965776060605786e-07,1.2473369472316e-06,1.6623012296358563e-06,3.0278496852965693e-06,9.195880212698589e-07,1.117891408801333e-06,2.3888276854728153e-06,5.26212717338189e-07,3.008275843695783e-06,1.4663796360097452e-06,1.1596638529829545e-06,4.204016738750232e-05,1.080769217586994e-06,9.880557134651722e-07,1.4721209046817276e-06,2.398496629143485e-06
139,8.246498650250169e-07,1.2812556125815108e-06,1.722067517027127e-06,3.147071787876375e-06,9.10931875987168e-07,1.117081772213651e-06,2.3355896534455734e-06,5.362563104375716e-07,2.8906219188105174e-06,1.4298087530317677e-06,1.1445176632640263e-06,4.1577261365128405e-05,1.101819419253484e-06,9.679946564537079e-07,1.4801417116715153e-06,2.4061831146070692e-06
140,8.554102921953681e-07,1.3127727539282339e-06,1.7789255688884192e-06,3.265368458098831e-06,9.0031313296709e-07,1.115020941213205e-06,2.2810662502224912e-06,5.462754558087111e-07,2.798146383477415e-06,1.3936432552696353e-06,1.1321817104555035e-06,4.1545530851986565e-05,1.1277307603675716e-06,9.502593414562594e-07,1.4818634407183647e-06,2.4057858095885286e-06
141,8.884087797069592e-07,1.3410496837682433e-06,1.8313628017043973e-06,3.3791462490520806e-06,8.884077068042095e-07,1.1115786763356156e-06,2.2261468970139633e-06,5.559659747650969e-07,2.7276141761163435e-06,1.3581167042441113e-06,1.1224736305608342e-06,4.1902958423349635e-05,1.1583015511690138e-06,9.351373672841776e-07,1.4772253653310582e-06,2.3980129245342453e-06
142,9.230640204226483e-07,1.3651838092975037e-06,1.8780962837700464e-06,3.485693103062724e-06,8.757382713607379e-07,1.1066893513362204e-06,2.171890847526381e-06,5.6508716604624e-07,2.676009309606244e-06,1.323278567641676e-06,1.115453924927637e-06,4.261024003543525e-05,1.1931673601288206e-06,9.22853192309642e-07,1.4661091357499863e-06,2.383653194307643e-06
143,9.586844932924758e-07,1.3842755592953458e-06,1.918165291817156e-06,3.5833068361573684e-06,8.626708713815122e-07,1.1002975520016929e-06,2.119534684627796e-06,5.735360362720597e-07,2.640415554653641e-06,1.2891722416656964e-06,1.1112815003979855e-06,4.363773010505531e-05,1.2318051432391148e-06,9.135602980743353e-07,1.448481490385476e-06,2.363420592621768e-06
144,9.9454628026683e-07,1.3976065422475587e-06,1.9510201885516895e-06,3.6712367340391212e-06,8.494447588767146e-07,1.0923281093622302e-06,2.07040382798796e-06,5.813488056785277e-07,2.6178854388602787e-06,1.255995163229525e-06,1.1100308472615078e-06,4.497070855493484e-05,1.2736076844415838e-06,9.073025416030513e-07,1.424468294024793e-06,2.3379182740272356e-06
145,1.0299609962008068e-06,1.4047600760012897e-06,1.97659866516913e-06,3.7495417077820647e-06,8.36206096677791e-07,1.0826426578517304e-06,2.025739039699185e-06,5.886581565954599e-07,2.6053032252458755e-06,1.2240921422127117e-06,1.1116772747118173e-06,4.6608528661098044e-05,1.3180147086905539e-06,9.039931285663561e-07,1.3942916848215358e-06,2.3077879283629617e-06
146,1.0643135739173866e-06,1.405563662418539e-06,1.995309957615598e-06,3.818912315540837e-06,8.230239276541948e-07,1.071028830605683e-06,1.986581961669418e-06,5.956369173702412e-07,2.5994069652353945e-06,1.1938212310124996e-06,1.1161962531025177e-06,4.855777325208295e-05,1.3645560190971657e-06,9.034159601736756e-07,1.3582196937056313e-06,2.273856132893737e-06
147,1.097087464617871e-06,1.3999760735233406e-06,2.0078553925673196e-06,3.88049258684037e-06,8.099181293806417e-07,1.0572940136571294e-06,1.953838938376999e-06,6.024391644406944e-07,2.5971168209763657e-06,1.1654772589033272e-06,1.1235919784826682e-06,5.082713280985777e-05,1.412732015301745e-06,9.052179126230963e-07,1.316658614212031e-06,2.237148072836401e-06
148,1.1278561541489484e-06,1.3881230050110186e-06,2.0149487569330744e-06,3.935712711190883e-06,7.969248182878803e-07,1.041402059475136e-06,1.9284140126996103e-06,6.091645791479096e-07,2.595895348918106e-06,1.139300862079746e-06,1.1338754113362982e-06,5.342913749194895e-05,1.4618705876523963e-06,9.089082426260529e-07,1.2703117009361762e-06,2.1988124540135535e-06
149,1.1562108185667005e-06,1.3704327865218068e-06,2.0171445643858934e-06,3.986099371628428e-06,7.841480900691039e-07,1.0235376068654575e-06,1.91122494324291e-06,6.158566353693422e-07,2.5937465614333883e-06,1.1154752215184944e-06,1.147103813195163e-06,5.638219413475202e-05,1.5111053988704055e-06,9.139219767615343e-07,1.2202222242902055e-06,2.1599775663536128e-06
150,1.1816908745626319e-06,1.3476666754747575e-06,2.014863791516097e-06,4.033020367074933e-06,7.717463689903567e-07,1.0040535846174415e-06,1.9030787032287347e-06,6.225054667826931e-07,2.588884782453705e-06,1.0941032000025307e-06,1.1634109691951676e-06,5.970597147742262e-05,1.5594504494933342e-06,9.197450773703322e-07,1.1676315083235691e-06,2.121549929459407e-06
151,1.2038008855220359e-06,1.3208186774269972e-06,2.0084700554163737e-06,4.077389662696068e-06,7.598737431759622e-07,9.833341126675823e-07,1.9045193844078588e-06,6.290284281905068e-07,2.5794915515091193e-06,1.0751903744690353e-06,1.18293600035303e-06,6.34134587135277e-05,1.605886037191771e-06,9.26005896456856e-07,1.1137623254094532e-06,2.084070296605592e-06
152,1.2220806755787857e-06,1.2909941290749753e-06,1.9982786510212687e-06,4.119487195095516e-06,7.486329693732378e-07,9.61658600493451e-07,1.9157410429393237e-06,6.352428529144617e-07,2.5638643380274313e-06,1.0586376735038706e-06,1.2057089221867419e-06,6.75063460865013e-05,1.649440906263967e-06,9.324510634725061e-07,1.0596894992346731e-06,2.0477553709646564e-06
153,1.2361884017666043e-06,1.2592987223893514e-06,1.9845450918638355e-06,4.159039345785156e-06,7.380709775950912e-07,9.391418001420953e-07,1.9365677112839205e-06,6.408700351855962e-07,2.540772611853797e-06,1.0442801151804075e-06,1.2315902135132642e-06,7.197573903101271e-05,1.6893067388850537e-06,9.388293034195434e-07,1.0063553718254379e-06,2.0127097619442147e-06
154,1.2460113320344281e-06,1.2267338475568751e-06,1.9674979093428664e-06,4.195485570566985e-06,7.282055805640602e-07,9.157797811686001e-07,1.96648520465894e-06,6.455822953238183e-07,2.5095845068869837e-06,1.0319692642963706e-06,1.26027191988096e-06,7.680613700717233e-05,1.7249360791246029e-06,9.447801520307622e-07,9.54630137961253e-07,1.979115139714439e-06
155,1.2517493736548374e-06,1.1941297878461508e-06,1.947409292566942e-06,4.2282360535729e-06,7.19049420260593e-07,8.915955187040905e-07,2.004713940932763e-06,6.490698700552344e-07,2.4700685686771836e-06,1.0216267556448234e-06,1.2912784466593544e-06,8.197940392801122e-05,1.7559825464057883e-06,9.49813799982271e-07,9.05301201250387e-07,1.9472322157292677e-06
156,1.2538628572034798e-06,1.1621135564804467e-06,1.924661273219423e-06,4.256873280932653e-06,7.105985900663324e-07,8.667964114992101e-07,2.050269807806114e-06,6.51108484883156e-07,2.4223328240487854e-06,1.01324483355925e-06,1.3239778899778387e-06,8.747586046018428e-05,1.782109744975901e-06,9.534043270180213e-07,8.590328186152185e-07,1.9173308745206324e-06
157,1.2529032741130403e-06,1.1310892684631984e-06,1.8997901913700588e-06,4.281396771510143e-06,7.027909162550549e-07,8.418107266921764e-07,2.1020001673796912e-06,6.516068843181606e-07,2.367180856294685e-06,1.0068779594622835e-06,1.3576522954739969e-06,9.32710685584096e-05,1.8029105528203377e-06,9.551497051968921e-07,8.163784833879591e-07,1.8897174184339856e-06
158,1.2494006743562891e-06,1.1012609923784474e-06,1.8735189997619368e-06,4.302539676095785e-06,6.954896349659396e-07,8.171818333387724e-07,2.158656613439783e-06,6.505936429022862e-07,2.3063551049620887e-06,1.0026230168213837e-06,1.3915785422500198e-06,9.932925209641064e-05,1.818068421098064e-06,9.548993588185019e-07,7.778052444584047e-07,1.8647355165415503e-06
159,1.2438755719165179e-06,1.0727303463432962e-06,1.8467546048372814e-06,4.3220182965321965e-06,6.885349242333816e-07,7.934358524477289e-07,2.2190058965858754e-06,6.481530007062629e-07,2.242192272246405e-06,1.0005648938772983e-06,1.4250826854344749e-06,0.00010559636036279979,1.8276341532546876e-06,9.527549096274725e-07,7.436831009137587e-07,1.8426336207703391e-06
160,1.2368299093299622e-06,1.0456200390778018e-06,1.8205001357349897e-06,4.342541019559124e-06,6.818211040322799e-07,7.710223775901916e-07,2.281883917983116e-06,6.443729256243025e-07,2.177047337657954e-06,1.0007174704465474e-06,1.4575912524319672e-06,0.00011199569033334573,1.8322091622871717e-06,9.48946470463998e-07,7.14273092173294e-07,1.8234713101533243e-06
161,1.2286398534506192e-06,1.020109571215852e-06,1.7956971325549237e-06,4.367561948475114e-06,6.753152684544862e-07,7.50309618336882e-07,2.346119059584599e-06,6.393237091135333e-07,2.1129818036121576e-06,1.0029799797708494e-06,1.4886277675073415e-06,0.00011842696360592584,1.832899888075675e-06,9.436798263691332e-07,6.897275297178946e-07,1.8071528497287592e-06
162,1.219452577987777e-06,9.96342906983415e-07,1.773102354059795e-06,4.400940947872259e-06,6.689988183164498e-07,7.315740177517884e-07,2.4103511355442006e-06,6.330756989561698e-07,2.051718678662812e-06,1.0071086164016494e-06,1.5177262145693716e-06,0.00012476772372287692,1.8310422401235286e-06,9.370490047938175e-07,6.700858256365827e-07,1.7934706685048606e-06
163,1.2091833767430807e-06,9.743201881421087e-07,1.7532842608506433e-06,4.4466574074982115e-06,6.627992018060323e-07,7.149981889104775e-07,2.472856454115847e-06,6.257680115750523e-07,1.994706892589585e-06,1.0127084308615646e-06,1.5443895789591317e-06,0.0001308748816116933,1.8278569396686055e-06,9.290578533096864e-07,6.552863033900371e-07,1.7821154301654204e-06
164,1.1976346807956077e-06,9.539044909251115e-07,1.7367042368479456e-06,4.508555310780877e-06,6.565988012888042e-07,7.007248979302522e-07,2.5315062799974036e-06,6.176514709954506e-07,1.943276283357641e-06,1.0192641472207815e-06,1.568152934312925e-06,0.00013658408822689956,1.8242353169206984e-06,9.197330917127081e-07,6.452186153600909e-07,1.7727595521269467e-06
165,1.1846847696326919e-06,9.349186858716509e-07,1.7237614073263908e-06,4.590029467127755e-06,6.50341442453459e-07,6.88931238800085e-07,2.5839382648594604e-06,6.090335685792703e-07,1.8988562476373323e-06,1.0262441000004116e-06,1.5886359880443454e-06,0.00014170776910998753,1.8207231090368966e-06,9.09253457621833e-07,6.397764704723629e-07,1.7652643165206144e-06
166,1.1704107695980815e-06,9.171881016146443e-07,1.7147321926485934e-06,4.69369819132287e-06,6.44133120970679e-07,6.798373666625247e-07,2.6279569375625146e-06,6.001821062379424e-07,1.8631825902355933e-06,1.0332248752925853e-06,1.6055173292408102e-06,0.00014604098481006477,1.817636268111155e-06,8.979983148018829e-07,6.388500897388973e-07,1.7598205005254775e-06
167,1.1550526316607225e-06,9.004828495585565e-07,1.7096841984906358e-06,4.821225292828087e-06,6.382141273879828e-07,6.73656596584293e-07,2.6620887881367453e-06,5.912716796832685e-07,1.8384370648735038e-06,1.0399270078806415e-06,1.6184653437837028e-06,0.00014938661379057695,1.8151876313571363e-06,8.8647009636411e-07,6.422763059983196e-07,1.7568226430091557e-06
168,1.1388802027981282e-06,8.84469355891108e-07,1.7084835578849207e-06,4.9733779674178624e-06,6.328332721383822e-07,6.705583258971803e-07,2.686088907270193e-06,5.823846256604071e-07,1.827265966063568e-06,1.046178649261727e-06,1.6270907179934768e-06,0.0001515953366793153,1.8135433259943002e-06,8.751528014878449e-07,6.498061764184851e-07,1.7565887996137622e-06
169,1.122110544100111e-06,8.687497979750339e-07,1.7108811317572763e-06,5.1502670316614235e-06,6.28151232143887e-07,6.706647041206947e-07,2.7011314021308217e-06,5.735612705715364e-07,1.8326526908882699e-06,1.051921323345672e-06,1.6309909350306147e-06,0.00015259418016049387,1.8128369269088216e-06,8.644277017009521e-07,6.610942758594075e-07,1.7591799083155422e-06
170,1.1049438786508901e-06,8.529248622372221e-07,1.716579943709685e-06,5.351665318392658e-06,6.242184002175492e-07,6.740644261533913e-07,2.709516613224593e-06,5.648832364110366e-07,1.8576822688117691e-06,1.0572777101571187e-06,1.6298350952623066e-06,0.00015237980011532413,1.8131966909268907e-06,8.54621198144151e-07,6.756857639313428e-07,1.7644323650388907e-06
171,1.0876184326277456e-06,8.366090626923201e-07,1.725269078669446e-06,5.577304369296308e-06,6.209968284086996e-07,6.80818036324949e-07,2.714022057543613e-06,5.565114602090136e-07,1.9052917504282596e-06,1.062568215678709e-06,1.6233626381507187e-06,0.0001509885936135882,1.814782115202818e-06,8.461290956531945e-07,6.930238807632497e-07,1.7721832633593399e-06
172,1.0703576730130653e-06,8.194750863235289e-07,1.7367049525316421e-06,5.827060540551304e-06,6.184040682120404e-07,6.909414302258967e-07,2.7173000491449073e-06,5.486400630050135e-07,1.9781072027278895e-06,1.068197878800086e-06,1.6114014553851768e-06,0.00014848114836751362,1.817817657368579e-06,8.39464355981428e-07,7.125089280187518e-07,1.782522084538966e-06
173,1.053253242088625e-06,8.013832361249263e-07,1.7508698146787652e-06,6.1009795199283765e-06,6.163525818736371e-07,7.043826732784015e-07,2.7215908916691704e-06,5.414457214447884e-07,2.07839129731447e-06,1.0744909512942458e-06,1.5940589361276813e-06,0.00014495097332207384,1.8226022688584657e-06,8.351781133651109e-07,7.335802791153824e-07,1.795803455207467e-06
174,1.036223746880311e-06,7.824470810425247e-07,1.7680791900252786e-06,6.39914990789395e-06,6.147750520971816e-07,7.210036294860748e-07,2.7286501914849616e-06,5.350920092256938e-07,2.2080397838104105e-06,1.0815995954723975e-06,1.571854740722907e-06,0.00014053276834513314,1.8294265862933054e-06,8.337540681272041e-07,7.557798079767587e-07,1.812399187889462e-06
175,1.01909501295298e-06,7.62931689502492e-07,1.7888784327921806e-06,6.721485968027142e-06,6.136708754225633e-07,7.405816799955053e-07,2.7397195765333073e-06,5.297441418866496e-07,2.3685619985911126e-06,1.0895144801779304e-06,1.5455420072029655e-06,0.00013539648071487923,1.8384021740892255e-06,8.355562657929477e-07,7.78783452539215e-07,1.8324829632334352e-06
176,1.0017336772558429e-06,7.431304785732124e-07,1.813765640721974e-06,7.067491672118995e-06,6.131554194938528e-07,7.628352617984381e-07,2.755505030703917e-06,5.255501098637259e-07,2.5610511573207202e-06,1.098102268839337e-06,1.5158187989603835e-06,0.00012973490040618752,1.8493438196999032e-06,8.408338130644613e-07,8.023752783240103e-07,1.8560328874385118e-06
177,9.84143766697823e-07,7.233514164834398e-07,1.8429468674499213e-06,7.436045230735606e-06,6.134347096728007e-07,7.874470572074298e-07,2.7761652883388963e-06,5.226038064379479e-07,2.786162909110297e-06,1.1071062961727855e-06,1.4832452719145428e-06,0.00012375047807212786,1.8617875570574703e-06,8.497464999902355e-07,8.263631694377934e-07,1.8829057971773142e-06
178,9.664633475943695e-07,7.039381403698499e-07,1.8762552289345534e-06,7.825197141745273e-06,6.14708253143596e-07,8.140735650896288e-07,2.801334862782789e-06,5.209169479462966e-07,3.0440790113609305e-06,1.116148358175526e-06,1.4483693683941325e-06,0.00011764104090353861,1.875054382649824e-06,8.623607590969589e-07,8.505009754626804e-07,1.912787432470974e-06
179,9.488762448829551e-07,6.852396637140041e-07,1.9132085001579662e-06,8.231985076153292e-06,6.170809596514891e-07,8.42333123442568e-07,2.8302488663556637e-06,5.204130417361355e-07,3.3344815734436364e-06,1.1247879002491422e-06,1.411833335335088e-06,0.00011158692300678339,1.8883026617139408e-06,8.786174754409047e-07,8.744472236806058e-07,1.9450645845424874e-06
180,9.315629426186826e-07,6.675672195982026e-07,1.9531038039252928e-06,8.652318455043483e-06,6.205347030176779e-07,8.717759154490517e-07,2.8620066770625706e-06,5.209508275538855e-07,3.6565818352433967e-06,1.1325993959246985e-06,1.3743244563995794e-06,0.00010574396781783628,1.9006309143505035e-06,8.983306565450209e-07,8.977525097095441e-07,1.978794409636777e-06
181,9.147392736652581e-07,6.511973251591075e-07,1.9950421914963103e-06,9.080965374479174e-06,6.249520902496046e-07,9.018616028734226e-07,2.895913265629079e-06,5.223623621593953e-07,4.009152444521315e-06,1.1391944332508785e-06,1.3365074922968085e-06,0.00010024289019961516,1.91121066587264e-06,9.212440318281825e-07,9.199379244514519e-07,2.0128051528175677e-06
182,8.98665602470363e-07,6.363964609702336e-07,2.0378806678485803e-06,9.511590515230328e-06,6.301489827537833e-07,9.319353823350877e-07,2.9317289887305654e-06,5.244743188261093e-07,4.390472275534023e-06,1.1441987598495317e-06,1.2990895406529838e-06,9.519164431443516e-05,1.9193570878470445e-06,9.471076055985565e-07,9.406905145963184e-07,2.0458065152096627e-06
183,8.836131618420183e-07,6.234144408031678e-07,2.0802486870134743e-06,9.936728435342438e-06,6.35873133875795e-07,9.612107192145285e-07,2.9696307277560558e-06,5.271179233209028e-07,4.7981572181664925e-06,1.1472863845885472e-06,1.2629018659667764e-06,9.067786790273243e-05,1.9245468765793766e-06,9.757295313412818e-07,9.600152459220153e-07,2.076404077592988e-06
184,8.698824759689949e-07,6.124545820749472e-07,2.1207232679398704e-06,1.0347594391439037e-05,6.417845526579738e-07,9.888214442037943e-07,3.009861674830425e-06,5.30165509800247e-07,5.228973206716778e-06,1.1483128447682984e-06,1.2288527502046833e-06,8.677028853295618e-05,1.9264416185656993e-06,1.0069928068636786e-06,9.781817424484053e-07,2.1030409094182954e-06
185,8.57820201485452e-07,6.036419610733479e-07,2.1580855212331365e-06,1.0733924987642276e-05,6.474762897141582e-07,1.0139683708973524e-06,3.0523197491008252e-06,5.335911802251069e-07,5.678782172581545e-06,1.147407370047392e-06,1.1978126322409587e-06,8.351904745944563e-05,1.9249284430395936e-06,1.040839985571566e-06,9.955420795040953e-07,2.124037447110941e-06
186,8.477494115239202e-07,5.969920568612154e-07,2.191494709516161e-06,1.1084426628459837e-05,6.525342334432958e-07,1.0361047804476504e-06,3.096371287603709e-06,5.374973080580829e-07,6.1426392696936475e-06,1.1449238850179482e-06,1.170540952015543e-06,8.095567776597464e-05,1.9201587944289033e-06,1.0772275909160375e-06,1.0124072239340786e-06,2.13787693546138e-06
187,8.398726666651376e-07,5.924004444089945e-07,2.2204423027024943e-06,1.1388141152211738e-05,6.565625629104636e-07,1.0550320648885311e-06,3.1409436537179804e-06,5.420675582087331e-07,6.614877955166406e-06,1.1413606576831572e-06,1.1476544308472154e-06,7.909327831435572e-05,1.912520687762205e-06,1.1160556805791494e-06,1.0290512586910461e-06,2.143614653559614e-06
188,8.34234897612184e-07,5.89665752245415e-07,2.2444892016425435e-06,1.163621869764387e-05,6.591612240619051e-07,1.0708047035309336e-06,3.1847425284705767e-06,5.474843020134632e-07,7.089013503823096e-06,1.137302301051797e-06,1.1295916625402666e-06,7.792662995276882e-05,1.9024910668689565e-06,1.1570874776439686e-06,1.0457591597961618e-06,2.141129939991432e-06
189,8.307578216117189e-07,5.885378817496898e-07,2.2629887754732113e-06,1.1823242071814788e-05,6.59942920498569e-07,1.0835315034507064e-06,3.226432041064643e-06,5.538712331917931e-07,7.557518399611509e-06,1.1333231480742472e-06,1.1165834431750963e-06,7.743238782448166e-05,1.8904468981389416e-06,1.1998855875140618e-06,1.0628001367735965e-06,2.1310661361555443e-06
190,8.293030397064127e-07,5.887713807585016e-07,2.2749988131615072e-06,1.1947596895386499e-05,6.586261837134899e-07,1.0932477288595435e-06,3.264768669885771e-06,5.61274325177607e-07,8.011703524987803e-06,1.1298910586678193e-06,1.1086812785891645e-06,7.7569605785771e-05,1.8765394646415554e-06,1.2438009688139396e-06,1.0803426186947092e-06,2.1144941259082167e-06
191,8.297023091138433e-07,5.901618864395631e-07,2.2793940564519804e-06,1.2010860072422507e-05,6.551136078481574e-07,1.0999013966360337e-06,3.298779381283791e-06,5.696763225167345e-07,8.44183471876719e-06,1.1273300737128825e-06,1.1058483334785511e-06,7.828014022317928e-05,1.8606135626396938e-06,1.2880609245755865e-06,1.098417455040068e-06,2.0925032188463315e-06
192,8.317254488427004e-07,5.925648660536124e-07,2.2750928911827183e-06,1.20164665943078e-05,6.494734048116298e-07,1.1034139486823753e-06,3.3279585199752726e-06,5.790306598078617e-07,8.837448086994144e-06,1.1258148856852744e-06,1.1080368721200063e-06,7.948886126269446e-05,1.8421522306582474e-06,1.3319038997326746e-06,1.116954539296144e-06,2.06597781373423e-06
193,8.350204095141122e-07,5.958721379759452e-07,2.2612993040879325e-06,1.1968052026775952e-05,6.418506325446606e-07,1.1037945997127743e-06,3.3523022942914536e-06,5.892667370214296e-07,9.187818162185108e-06,1.1253748672375445e-06,1.1151845555198012e-06,8.110472309391327e-05,1.8203158513745836e-06,1.3746035886658787e-06,1.1358451527705085e-06,2.0355980950454294e-06
194,8.390776129456435e-07,5.99948341757727e-07,2.2376530391174638e-06,1.1868050133273469e-05,6.323941495061294e-07,1.1012486511599045e-06,3.3720752154094895e-06,6.002562692710114e-07,9.482566922675734e-06,1.125931481967668e-06,1.1271453638142037e-06,8.302611234149524e-05,1.7940890732385888e-06,1.4153920512917602e-06,1.1550011511842693e-06,2.001877536045674e-06
195,8.432472616229182e-07,6.04623376889762e-07,2.204267518118654e-06,1.1717244599613587e-05,6.212694619817721e-07,1.0961752222130302e-06,3.3874394137854576e-06,6.117992400471981e-07,9.712355969134509e-06,1.1273792964634785e-06,1.1436355019836878e-06,8.515353058716691e-05,1.7624424218322297e-06,1.4534226284101923e-06,1.1744063856857366e-06,1.965166707641981e-06
196,8.468226798931211e-07,6.097520372831487e-07,2.1617294160058013e-06,1.1515455186963093e-05,6.087338724769913e-07,1.0890391973999375e-06,3.3981742044098555e-06,6.236591890987533e-07,9.869283744642948e-06,1.1296301306482745e-06,1.1642526900959336e-06,8.740408350826448e-05,1.7244829736912663e-06,1.4878009525739508e-06,1.1941313568780968e-06,1.9257277938590235e-06
197,8.491495908521699e-07,6.152390792854397e-07,2.111069407001762e-06,1.1262725249707567e-05,5.951609452583336e-07,1.0802571847598302e-06,3.403590111418769e-06,6.355974152072675e-07,9.946710639081895e-06,1.1325654316172048e-06,1.1885381604766475e-06,8.971611098139282e-05,1.6796721796359468e-06,1.5176896702179019e-06,1.2142799680599845e-06,1.883891510730639e-06
198,8.496723384277734e-07,6.210374424849882e-07,2.053616056105761e-06,1.0960349025189899e-05,5.809665416403933e-07,1.0702008086581352e-06,3.40254290407257e-06,6.473538884880365e-07,9.939688771602664e-06,1.1360223124212283e-06,1.2160192509561827e-06,9.20403523347135e-05,1.6280675165623734e-06,1.5424812889103486e-06,1.234921339870123e-06,1.840186348017844e-06
199,8.479312972078382e-07,6.271694580765486e-07,1.9907623937908818e-06,1.0611530563573396e-05,5.665179704566622e-07,1.059231427306362e-06,3.393421406070849e-06,6.58603231531534e-07,9.847187285576522e-06,1.139891379577272e-06,1.2462044987556123e-06,9.432807371872836e-05,1.5703884034468715e-06,1.5619325120072991e-06,1.2561003663348304e-06,1.7953840146694563e-06
200,8.436362543899121e-07,6.337136227300291e-07,1.9238485838209243e-06,1.0221616000304425e-05,5.520917041769949e-07,1.0476741718910303e-06,3.374235001394735e-06,6.68951870442651e-07,9.674206438580337e-06,1.1441767607978906e-06,1.278567524395851e-06,9.6529315649364e-05,1.507810697846349e-06,1.5761880226496321e-06,1.277903788111344e-06,1.7504901316884937e-06
201,8.368085176255963e-07,6.407432117533491e-07,1.8542259609252654e-06,9.797891022008694e-06,5.378701865848549e-07,1.0357740473640684e-06,3.3429870259446673e-06,6.780074446510732e-07,9.430972467124284e-06,1.1489289972028002e-06,1.312601925917136e-06,9.860057632457293e-05,1.441645086138073e-06,1.5857213214609086e-06,1.3004614703936805e-06,1.7066861945268397e-06
202,8.278246295856619e-07,6.4828321777932e-07,1.7833305412340222e-06,9.349076194112036e-06,5.239879774443832e-07,1.0236769416819146e-06,3.2981651902965515e-06,6.854852619314594e-07,9.129898186979201e-06,1.1541490581213853e-06,1.347896246644102e-06,0.00010050862295704368,1.3731445363253193e-06,1.5912273366479183e-06,1.3238502903499898e-06,1.6651808736790184e-06
203,8.172899810077844e-07,6.562980074046009e-07,1.7126381145571521e-06,8.88468758803266e-06,5.106218129771753e-07,1.0114139754476348e-06,3.2390603871860174e-06,6.912475027814309e-07,8.783227936318639e-06,1.1597438286739704e-06,1.3840734522392458e-06,0.00010222585159762735,1.3034894853357928e-06,1.5934798035818193e-06,1.3479940042680786e-06,1.6270043160425145e-06
204,8.058529753995907e-07,6.646850970964183e-07,1.6435299396034528e-06,8.414360264180478e-06,4.980350618724662e-07,9.98911323920645e-07,3.1658807515745867e-06,6.952326660477e-07,8.402500152596546e-06,1.1655643100028511e-06,1.4206258620168335e-06,0.00010372855358992593,1.2338034981941536e-06,1.5931712245389697e-06,1.3726731969560575e-06,1.592866693642109e-06
205,7.940947382771466e-07,6.732640966704013e-07,1.577168017693248e-06,7.94721068768499e-06,4.865298639810113e-07,9.86063928355131e-07,3.079726617203975e-06,6.973944562199849e-07,7.998805154306839e-06,1.1715431589343688e-06,1.456808089491581e-06,0.00010500271378223679,1.165126068876087e-06,1.5907797047222133e-06,1.39764807347982e-06,1.563143935360096e-06
206,7.825071778908524e-07,6.817788723033178e-07,1.5144560099273171e-06,7.491308626637591e-06,4.763757459335516e-07,9.728171697299139e-07,2.982407959567201e-06,6.977430336789293e-07,7.582878557206161e-06,1.1778696038479115e-06,1.49163984874662e-06,0.00010604634981203706,1.0983900780654057e-06,1.586528035062507e-06,1.4227393087206794e-06,1.5379483820369369e-06
207,7.714943072010207e-07,6.899388252216251e-07,1.4560545512455533e-06,7.053312359526129e-06,4.6777343668343503e-07,9.591942104882986e-07,2.876125007177546e-06,6.963996735067292e-07,7.1649009303452765e-06,1.1850587237839643e-06,1.523994820901497e-06,0.00010686389900600443,1.0344280997283486e-06,1.580435726916618e-06,1.4477593859359632e-06,1.5171928988591516e-06
208,7.61379185817997e-07,6.974578580504515e-07,1.4023884755785592e-06,6.638366478508747e-06,4.6084718770889046e-07,9.452824122843457e-07,2.7631708593235407e-06,6.935620539082763e-07,6.754150334381779e-06,1.1938329951680554e-06,1.5527640226730946e-06,0.0001074604956233267,9.739967455434193e-07,1.5723626013267776e-06,1.4724019983828575e-06,1.5005988576575187e-06
209,7.524181359100264e-07,7.040482033360272e-07,1.3536535022608982e-06,6.250276878967672e-06,4.5564872912445633e-07,9.311866520283193e-07,2.645805227240656e-06,6.8941281116657e-07,6.358668091373605e-06,1.2049653879981049e-06,1.577047924762613e-06,0.00010783845127931073,9.178008072843622e-07,1.561989268766987e-06,1.4962444687414813e-06,1.487713409551425e-06
210,7.448019631621028e-07,7.094429521804092e-07,1.30983363391267e-06,5.8917479338788975e-06,4.521628133625651e-07,9.169421922820374e-07,2.52625190911155e-06,6.840628488935801e-07,5.985056795491483e-06,1.2192447190050488e-06,1.5962422563046568e-06,0.00010799239726645045,8.664808387863137e-07,1.5488401191225539e-06,1.518824067948162e-06,1.478006881969379e-06
211,7.38653992400685e-07,7.13508360926523e-07,1.270735921148568e-06,5.5644787363769066e-06,4.503187016378084e-07,9.024376835066627e-07,2.4066465182934435e-06,6.775768491064724e-07,5.6384357274844366e-06,1.237457516988208e-06,1.6099550242433741e-06,0.00010790863793449536,8.205691089337241e-07,1.5324576762694576e-06,1.53964804174922e-06,1.4710318487162315e-06
212,7.340285754088555e-07,7.163316319092559e-07,1.2360771487642279e-06,5.269137039967673e-06,4.500225739705765e-07,8.874243636427107e-07,2.2888947380778393e-06,6.700428574221434e-07,5.322510492755767e-06,1.2602782736026854e-06,1.6179617306104796e-06,0.00010757510929553489,7.804699892847612e-07,1.5126416033327378e-06,1.5581909836570627e-06,1.466616784962232e-06
213,7.308825611978963e-07,7.181641895902058e-07,1.205575648456224e-06,5.005346475069113e-06,4.512085200520466e-07,8.715989603001303e-07,2.1745663362688726e-06,6.616040812731821e-07,5.039683088936565e-06,1.288160177840375e-06,1.620336587475494e-06,0.00010699135324014454,7.46480265234686e-07,1.4895769907283228e-06,1.573989397067884e-06,1.4650310356961368e-06
214,7.290398855958563e-07,7.193011872391642e-07,1.1789437344626628e-06,4.771806509391595e-06,4.5388181598079084e-07,8.546658629284246e-07,2.064869814767671e-06,6.52453627682934e-07,4.791165179891594e-06,1.321310082184781e-06,1.6175157990782237e-06,0.00010616565349036688,7.18833691086566e-07,1.4638061765221793e-06,1.5867151477032364e-06,1.4670060820612076e-06
215,7.282105871652062e-07,7.200178782745903e-07,1.1558135298929178e-06,4.566582591426783e-06,4.581176612346939e-07,8.363712874170013e-07,1.960651271532077e-06,6.428645887745469e-07,4.577158188451407e-06,1.3597160585669733e-06,1.6101119829702111e-06,0.0001051064917193273,6.977468326312062e-07,1.4360912241356566e-06,1.5961479433248617e-06,1.4736064260661871e-06
216,7.280768883825356e-07,7.205509503649613e-07,1.135713119945753e-06,4.387497297531887e-06,4.6401775560628967e-07,8.166076099982777e-07,1.8624227961478986e-06,6.332298944645051e-07,4.397148809828052e-06,1.403177967790521e-06,1.59866186575792e-06,0.00010382131069905731,6.834088264761042e-07,1.4072076360212747e-06,1.6021592184359562e-06,1.4860377335826416e-06
217,7.283865643548323e-07,7.210878243045445e-07,1.118110458297855e-06,4.2324801912862755e-06,4.716768696421465e-07,7.955658101896396e-07,1.7704237184691375e-06,6.240254819297878e-07,4.250238191728811e-06,1.4513233830466336e-06,1.5835197098637963e-06,0.0001023181204147902,6.759125902000083e-07,1.377756981736854e-06,1.6046964807557334e-06,1.5054580910622304e-06
218,7.289860685185719e-07,7.217599008024942e-07,1.1024843310756613e-06,4.099756208886753e-06,4.811760001910833e-07,7.737622542520306e-07,1.684688173696089e-06,6.157382186655584e-07,4.1354169414583005e-06,1.5035965093677828e-06,1.5649541314815027e-06,0.00010059997601508791,6.752027512226983e-07,1.3480998729694906e-06,1.6036972344068383e-06,1.5328648850730754e-06
219,7.297922246258212e-07,7.22648050382858e-07,1.0883701387357099e-06,3.987877271023166e-06,4.925762701470685e-07,7.518841831895746e-07,1.6051554992266628e-06,6.088533427329099e-07,4.051774745392719e-06,1.559209561644435e-06,1.5433815906669388e-06,9.865803539047392e-05,6.810713521056931e-07,1.3184068690620091e-06,1.5990572529207346e-06,1.5690837590951633e-06
220,7.307500923398896e-07,7.238341248707423e-07,1.0753277412310037e-06,3.895679327441211e-06,5.059147832181323e-07,7.30612420012337e-07,1.531791673097284e-06,6.038699086127336e-07,3.998595006863184e-06,1.6170820179629353e-06,1.5195131965511447e-06,9.64748007838685e-05,6.931728626138925e-07,1.2887609664615384e-06,1.5907277905746933e-06,1.614791611594685e-06
221,7.317944265308308e-07,7.25472989335039e-07,1.0629165162795202e-06,3.822144461533267e-06,5.212034979250662e-07,7.105433410353612e-07,1.4645954799866989e-06,6.012664141095917e-07,3.975249110443657e-06,1.6758366005816667e-06,1.494247772875287e-06,9.403814311699578e-05,7.110360660063482e-07,1.2592451155053767e-06,1.5787683099805446e-06,1.6705348588141498e-06
222,7.328081959258525e-07,7.27788269458677e-07,1.050791589578994e-06,3.76612527262276e-06,5.384134013840694e-07,6.921609755035905e-07,1.4035128230821089e-06,6.014347559181578e-07,3.980923785332234e-06,1.7338744985072006e-06,1.4684407075377077e-06,9.135792505129182e-05,7.340688739939094e-07,1.2299536391520961e-06,1.5632467455942834e-06,1.7367410220103213e-06
223,7.335996380028238e-07,7.309823529238765e-07,1.038821635459968e-06,3.726154074048792e-06,5.574519218006663e-07,6.758131348757073e-07,1.348375562691093e-06,6.046410441593795e-07,4.014327335491814e-06,1.789483205422197e-06,1.4427830292389767e-06,8.847529733420325e-05,7.615582882102244e-07,1.2009565722265538e-06,1.5441737640776698e-06,1.813689814753891e-06
224,7.339116755451562e-07,7.351569565076363e-07,1.0270783140711099e-06,3.7005722137316413e-06,5.781459022821254e-07,6.617163740846744e-07,1.2988681527074477e-06,6.110279408821388e-07,4.07355304586459e-06,1.841004991186352e-06,1.4178273424904173e-06,8.545844161393313e-05,7.926765794555228e-07,1.1722948917732972e-06,1.5216333973116468e-06,1.9014521040484912e-06
225,7.334448842769876e-07,7.40298422463303e-07,1.0157305534609016e-06,3.6877828204671904e-06,6.002361822937454e-07,6.499828636452193e-07,1.2545186249543205e-06,6.206464610586641e-07,4.156245407490627e-06,1.8871295731345649e-06,1.3940205278305805e-06,8.23876105538895e-05,8.265148028987493e-07,1.14398397231255e-06,1.4959508322452227e-06,1.9998838681219207e-06
226,7.318884307189638e-07,7.463117380082845e-07,1.0049828397661411e-06,3.6863225971987663e-06,6.234158729189879e-07,6.406369573849822e-07,1.2147316133736853e-06,6.334919816869976e-07,4.259985438880422e-06,1.9271800623341395e-06,1.3716694721629672e-06,7.933897478914956e-05,8.621722363206772e-07,1.1160151674409652e-06,1.4677004484139157e-06,2.1087235632926315e-06
227,7.289576016324757e-07,7.530913793064745e-07,9.951154151024962e-07,3.6947955289544842e-06,6.473975395379432e-07,6.336179384521231e-07,1.1788170103529264e-06,6.495119548612575e-07,4.38259146769537e-06,1.961158151354906e-06,1.3508938328644932e-06,7.637524979597155e-05,8.988925831220163e-07,1.0884117647246866e-06,1.4376072512226464e-06,2.2277126546708008e-06
228,7.244058220105579e-07,7.606038203924076e-07,9.865300821692656e-07,3.711869227312654e-06,6.719323746655855e-07,6.287700129305539e-07,1.146036673996889e-06,6.68582050955224e-07,4.522155476319508e-06,1.9895055105137255e-06,1.3316300981021047e-06,7.354426658469415e-05,9.361327985262968e-07,1.0612985116910767e-06,1.4064749062411901e-06,2.3566088137920615e-06
229,7.180120415017831e-07,7.689083689595327e-07,9.796928104252835e-07,3.736368998696935e-06,6.967958415031424e-07,6.25823158204236e-07,1.1157303699167333e-06,6.9048965259081e-07,4.676901950478401e-06,2.0127451257019594e-06,1.3137062634058105e-06,7.088133433721156e-05,9.734742365311157e-07,1.0349340717206252e-06,1.3751505434891002e-06,2.4950586944386618e-06
230,7.096188539806593e-07,7.780851126484488e-07,9.75013117885547e-07,3.767333990086938e-06,7.21798240235437e-07,6.244098752042824e-07,1.0874532153111573e-06,7.149661198706469e-07,4.845039966595736e-06,2.0312059439896854e-06,1.2969548368700563e-06,6.841157787047144e-05,1.0104837935544632e-06,1.0097255890247912e-06,1.344460726884611e-06,2.6424204217119517e-06
231,6.99230518994821e-07,7.881449238950636e-07,9.727637995487131e-07,3.803895538010254e-06,7.467761109852515e-07,6.241629278853277e-07,1.0610463870334581e-06,7.417432899889209e-07,5.024675101631684e-06,2.0449014042432307e-06,1.281308901171352e-06,6.615125214742963e-05,1.0466801495789408e-06,9.861939818350392e-07,1.3151229023896485e-06,2.7976289599013386e-06
232,6.870441508279097e-07,7.990018555796552e-07,9.73055498833918e-07,3.84497361293341e-06,7.715401593978543e-07,6.248372602732601e-07,1.0366552517669904e-06,7.705600068491488e-07,5.213722224134551e-06,2.053490084539851e-06,1.2668151597279398e-06,6.410854067385911e-05,1.0815817166044193e-06,9.648810589719347e-07,1.2877111214767658e-06,2.959129701785099e-06
233,6.733589642782331e-07,8.105074774917245e-07,9.758369347811827e-07,3.888959323033363e-06,7.958396085070577e-07,6.263426824710766e-07,1.014699422867006e-06,8.011087947768468e-07,5.4097806194144595e-06,2.056313664411883e-06,1.2535395399413362e-06,6.228487889464351e-05,1.1147289046454814e-06,9.462658658816724e-07,1.2626876595451631e-06,3.124893197235187e-06
234,6.584863111626127e-07,8.22491563364441e-07,9.809311082771758e-07,3.93356734701128e-06,8.193616847935131e-07,6.287106421978135e-07,9.957641813599573e-07,8.329850167465534e-07,5.610004149092614e-06,2.052573323183209e-06,1.2414712078117076e-06,6.067764341425074e-05,1.1456742281927178e-06,9.307091415709086e-07,1.2404344138007572e-06,3.292515521173129e-06
235,6.427447863706711e-07,8.347628750198743e-07,9.88105408098693e-07,3.975885515556759e-06,8.417632756899458e-07,6.32107121273596e-07,9.804419218235908e-07,8.656811874776504e-07,5.8109673609322446e-06,2.041572871941451e-06,1.2305136855889665e-06,5.928386462732373e-05,1.1739559184885763e-06,9.1840426232237e-07,1.2212572545730026e-06,3.4593519579016136e-06
236,6.264737350351284e-07,8.470916434684996e-07,9.971248090655788e-07,4.012584076653966e-06,8.627617641862597e-07,6.368565586521808e-07,9.69222521824616e-07,8.98610296822272e-07,6.008634992062757e-06,2.0228698290883395e-06,1.22052697985598e-06,5.810357541379331e-05,1.1990302398559717e-06,9.093434612275095e-07,1.2053835979988192e-06,3.622603650822578e-06
237,6.100135945974794e-07,8.592248083515638e-07,1.007757808020002e-06,4.040288006364581e-06,8.822273204070619e-07,6.433764213059346e-07,9.62472962785008e-07,9.31127599499852e-07,6.198714454869439e-06,1.9962990712758722e-06,1.2113917070014476e-06,5.71413567587025e-05,1.2202220952435076e-06,9.033244385154471e-07,1.1929680855696659e-06,3.7792708245986596e-06
238,5.936796183796959e-07,8.709276322698866e-07,1.019768237037458e-06,4.056049736839355e-06,9.001576085227833e-07,6.520648767305122e-07,9.604490491857928e-07,9.625856214252179e-07,6.377389884832105e-06,1.9619860405402857e-06,1.20306135776713e-06,5.6404940206580245e-05,1.2367912818511599e-06,9.000029768429127e-07,1.184091856816795e-06,3.925989692049787e-06
239,5.777429586834191e-07,8.820043579196536e-07,1.032921509403383e-06,4.057733002828765e-06,9.165672691967485e-07,6.632392800370553e-07,9.632902963740204e-07,9.924528447673666e-07,6.541984765283995e-06,1.9204072868733463e-06,1.1955866727132782e-06,5.590070634791326e-05,1.2481059589566138e-06,8.989512474600102e-07,1.1787248247728611e-06,4.059058090302311e-06
240,5.624229342991213e-07,8.922752727823812e-07,1.0469758281804425e-06,4.044128401005367e-06,9.314289388561237e-07,6.771316294560057e-07,9.709971555481087e-07,1.020409906153897e-06,6.691121838766326e-06,1.872369406394269e-06,1.189180488092707e-06,5.562827757675173e-05,1.2538436726016858e-06,8.997014504500141e-07,1.1766726593597194e-06,4.174915377122634e-06
241,5.479150655673215e-07,9.015215348251812e-07,1.0616544530395647e-06,4.0148217948290845e-06,9.446872063412651e-07,6.938972444615484e-07,9.834194416605462e-07,1.0463183067124682e-06,6.8242996967158815e-06,1.818801451193916e-06,1.1842696314228188e-06,5.557750321676582e-05,1.2541363856908224e-06,9.018440765206043e-07,1.177575059228545e-06,4.270819814057744e-06
242,5.344464618464748e-07,9.094379731045155e-07,1.0766497853609405e-06,3.97003327246077e-06,9.562702245147365e-07,7.13614963889337e-07,1.0002896505366976e-06,1.0700842202497064e-06,6.941103882627618e-06,1.7605016474327841e-06,1.1813984491357093e-06,5.573016603657032e-05,1.2495688784994443e-06,9.051597792865513e-07,1.180973423761569e-06,4.3452613831345875e-06
243,5.222950795801971e-07,9.156593510397777e-07,1.0916346011408248e-06,3.9105836302846035e-06,9.66059674464583e-07,7.362742994624757e-07,1.0212922422486053e-06,1.091566281947285e-06,7.040459418566302e-06,1.6980335601724121e-06,1.181054715942198e-06,5.606766467240724e-05,1.2410018578739596e-06,9.096234625696361e-07,1.1864213670612666e-06,4.397974288512256e-06
244,5.117394465117169e-07,9.198711052193455e-07,1.1062055828782063e-06,3.837919916070372e-06,9.738547186320422e-07,7.617499959992688e-07,1.0461091000235164e-06,1.1106216324056959e-06,7.1203095982948925e-06,1.6317814048709723e-06,1.1835666545553916e-06,5.658180393064784e-05,1.2293497245084239e-06,9.152949838339782e-07,1.1936192128066777e-06,4.429697540966556e-06
245,5.029915511564398e-07,9.219056931805989e-07,1.1198057396709505e-06,3.7540397469078024e-06,9.793776002211348e-07,7.89778570648974e-07,1.0744020568850646e-06,1.1272065780736297e-06,7.17776794168395e-06,1.5621379313488405e-06,1.1890764035362149e-06,5.7280120189337595e-05,1.2154814282614323e-06,9.222383361150511e-07,1.202506952692569e-06,4.441841044228759e-06
246,4.961765804014104e-07,9.217227085002257e-07,1.1317429092932481e-06,3.6612318992560724e-06,9.82304341583032e-07,8.199621958325705e-07,1.1057954607594532e-06,1.1414334402193728e-06,7.209508637201549e-06,1.4897723097006122e-06,1.197558529120882e-06,5.818023011127889e-05,1.2002240908360775e-06,9.304603061409704e-07,1.2132056526400213e-06,4.436083326326756e-06
247,4.913477166418423e-07,9.193041767841139e-07,1.1413093414534852e-06,3.5616842233310126e-06,9.823006974362088e-07,8.518005665549709e-07,1.1398988321438403e-06,1.1535782258816458e-06,7.212222242467583e-06,1.4157427988413221e-06,1.2089263774335674e-06,5.92983598573215e-05,1.1843384372200882e-06,9.398427385942217e-07,1.2258343321419132e-06,4.413918113713082e-06
248,4.884873392746112e-07,9.146092124799158e-07,1.147875453834615e-06,3.4571532534359605e-06,9.791010735609313e-07,8.847145560467716e-07,1.1762781404325223e-06,1.164024803516709e-06,7.183043669427448e-06,1.3413279855626064e-06,1.2232173410200771e-06,6.064096132450859e-05,1.168473559811032e-06,9.501304030709969e-07,1.2404074717706851e-06,4.3763965990313235e-06
249,4.874968636009024e-07,9.076463228339947e-07,1.1508798221589946e-06,3.3488833775453863e-06,9.72628370223527e-07,9.180603653047014e-07,1.2143573496793843e-06,1.1731432391801231e-06,7.1198484218349e-06,1.2677729272576576e-06,1.2406861222082628e-06,6.22019555207686e-05,1.1531587253519207e-06,9.610126125709807e-07,1.2569226010672755e-06,4.324337720467018e-06
250,4.882070081969618e-07,8.985460311817747e-07,1.1498485578349539e-06,3.23772394845279e-06,9.630419199692264e-07,9.511924157601876e-07,1.2533616038782045e-06,1.1811960123086585e-06,7.02140764557171e-06,1.1961477403084882e-06,1.2617106728768914e-06,6.396344660174941e-05,1.1387908859812746e-06,9.72259955572088e-07,1.275467810086655e-06,4.2588203899604896e-06
251,4.903961585677e-07,8.875384610509226e-07,1.1445650713186153e-06,3.124228260104356e-06,9.506435466207601e-07,9.83569204032864e-07,1.292350890389563e-06,1.1883486845946683e-06,6.887387777917172e-06,1.1273076158173019e-06,1.286649744661842e-06,6.589868672090877e-05,1.1256112201784973e-06,9.838081339247194e-07,1.2961598505045312e-06,4.181464131595741e-06
252,4.937878451274929e-07,8.748753549399683e-07,1.1352142743510683e-06,3.0086454275400974e-06,9.357814698185782e-07,1.0148046592000657e-06,1.3303100005767115e-06,1.1947457815670114e-06,6.718048731345793e-06,1.0618901647362925e-06,1.3157596939920731e-06,6.79764751653323e-05,1.113707399376124e-06,9.95738572605586e-07,1.3189970658827727e-06,4.094322269264134e-06
253,4.980396740869217e-07,8.607693312033774e-07,1.1222959729126454e-06,2.890903755781453e-06,9.188846025318262e-07,1.0446372711649219e-06,1.3662500755002964e-06,1.200583850841251e-06,6.513871818963089e-06,1.0003401657025398e-06,1.3491534328705517e-06,7.016573309995997e-05,1.10302265316388e-06,1.0082331364274525e-06,1.3437987211078746e-06,3.999628478624377e-06
254,5.027505391383282e-07,8.453933207602479e-07,1.1063880111505187e-06,2.7707107499154935e-06,9.005197359932156e-07,1.0728942348596095e-06,1.3992763751654946e-06,1.2061403209017391e-06,6.27588415267408e-06,9.429450964753265e-07,1.3867825236815462e-06,7.243960388320318e-05,1.093392283088445e-06,1.0215593248531152e-06,1.3702155259081982e-06,3.8996195482308394e-06
255,5.074901530585925e-07,8.289328267266157e-07,1.0879537560545533e-06,2.6478099784915843e-06,8.813511771582563e-07,1.099495452010071e-06,1.4286045965574073e-06,1.2117246435015135e-06,6.0067185376148166e-06,8.898657468945659e-07,1.4284095818089426e-06,7.477799484124193e-05,1.0846731916324793e-06,1.0360589583416297e-06,1.3977151128635496e-06,3.7964446799405646e-06
256,5.118442915303872e-07,8.116453120199184e-07,1.0672860310621912e-06,2.5223369288048487e-06,8.620497827313841e-07,1.1244619713354289e-06,1.453548349962888e-06,1.2175622660479066e-06,5.711250150026911e-06,8.411920384151752e-07,1.4735784992716494e-06,7.716671904325336e-05,1.0768985316169276e-06,1.0521131645176961e-06,1.4255602900401387e-06,3.6921228802918805e-06
257,5.154784044363359e-07,7.938859078709027e-07,1.0445706788479938e-06,2.3951438022251465e-06,8.432266456774896e-07,1.147878313351875e-06,1.4734747169923132e-06,1.2236862667772734e-06,5.3960555213149936e-06,7.970036632910578e-07,1.5216450159430855e-06,7.95931303624677e-05,1.070291192954733e-06,1.0700741727621285e-06,1.4528655897407467e-06,3.5885058780803677e-06
258,5.182173607647297e-07,7.760665586104942e-07,1.019978786648006e-06,2.2679707208182777e-06,8.254001023421942e-07,1.1697951673518142e-06,1.4877279375148382e-06,1.2298919926302868e-06,5.0682217960547665e-06,7.573539881896415e-07,1.5718456005347287e-06,8.204069667567877e-05,1.0651258890074598e-06,1.0901772815359275e-06,1.4787268981937023e-06,3.487164818195524e-06
259,5.200960676017946e-07,7.585668107484609e-07,9.936859436289498e-07,2.143450592300712e-06,8.089684776507818e-07,1.190107743259631e-06,1.4956520013151365e-06,1.2357559996437e-06,4.734405187281145e-06,7.222083798367017e-07,1.6233499435117762e-06,8.448438165184099e-05,1.061597589279101e-06,1.1124923947469783e-06,1.5023278298753518e-06,3.389223828336117e-06
260,5.213242121508628e-07,7.41684821869173e-07,9.65813618757565e-07,2.0250259882381403e-06,7.941825907710003e-07,1.208466106089135e-06,1.4968045458350475e-06,1.2407311233078047e-06,4.400516490545437e-06,6.914503409821853e-07,1.6753482650001437e-06,8.68876649820379e-05,1.0597694401191664e-06,1.136942873069362e-06,1.5229755763257866e-06,3.295257695072709e-06
261,5.221823379396263e-07,7.256597432535794e-07,9.364017548292793e-07,1.9168113924657612e-06,7.811498899321517e-07,1.224253614208245e-06,1.491174592394169e-06,1.2443052708009227e-06,4.071809867600889e-06,6.649396094729854e-07,1.727150478803765e-06,8.920460908038024e-05,1.05954124849222e-06,1.1633250688984172e-06,1.5400884363415638e-06,3.205283596046132e-06
262,5.22932993670085e-07,7.106959327029063e-07,9.054856082354261e-07,1.8233521832145889e-06,7.698893111908279e-07,1.2366592398844386e-06,1.4791703991336076e-06,1.246118340080871e-06,3.7529935510450023e-06,6.425229753996393e-07,1.778165113513756e-06,9.138825458551588e-05,1.0606214535421443e-06,1.191277577688093e-06,1.5531322006268234e-06,3.118842954448089e-06
263,5.238051684319718e-07,6.969618550122859e-07,8.73221382026463e-07,1.7492877127808592e-06,7.604063628306485e-07,1.2448656314495018e-06,1.4614096447195805e-06,1.24593648224665e-06,3.44822076337025e-06,6.240048896291484e-07,1.8278586660228344e-06,9.339698796848136e-05,1.0625529535115767e-06,1.2202504064930817e-06,1.561536264994291e-06,3.0351672570561776e-06
264,5.250219243387636e-07,6.845924468536419e-07,8.399752992851068e-07,1.6990599443543208e-06,7.527311768049737e-07,1.2483007351754243e-06,1.4385261466281241e-06,1.2435149362616277e-06,3.1610223955733696e-06,6.091444417809606e-07,1.87584792677229e-06,9.51910953211839e-05,1.0648237391993583e-06,1.2495470063150962e-06,1.5647349972953945e-06,2.953290864773902e-06
265,5.267987676450794e-07,6.736756171090781e-07,8.063217772409115e-07,1.6767973620683187e-06,7.468901465891576e-07,1.2468159208807902e-06,1.4111353876619203e-06,1.2384673888866971e-06,2.894264536443579e-06,5.976772916542879e-07,1.9219438135716204e-06,9.672622100449043e-05,1.0670473232003298e-06,1.2784343451416153e-06,1.5623934134405116e-06,2.872014897006561e-06
266,5.293067580372579e-07,6.642173834453776e-07,7.729519745583937e-07,1.686348921006338e-06,7.428397612082967e-07,1.2407050981393938e-06,1.379920283575382e-06,1.2302407086287112e-06,2.6501933075648177e-06,5.893234167827679e-07,1.965977228349237e-06,9.795523713153303e-05,1.069121275125083e-06,1.3062529780837724e-06,1.5546432245724024e-06,2.789948730170246e-06
267,5.326581205052731e-07,6.561442805078701e-07,7.405838513989898e-07,1.7313463564273163e-06,7.404246510991748e-07,1.2306193378141821e-06,1.3457041627375598e-06,1.2182505614033503e-06,2.4305677509671907e-06,5.837760068855291e-07,2.0075659457797286e-06,9.883731802063838e-05,1.071224082383842e-06,1.3324954425226205e-06,1.5421427648423158e-06,2.7058545859616794e-06
268,5.36947689678956e-07,6.493632271138816e-07,7.099230921219219e-07,1.8152127847104972e-06,7.394067904732482e-07,1.217464527380414e-06,1.3094217165276352e-06,1.202155151703219e-06,2.2367781037401816e-06,5.806988706693407e-07,2.046007419339592e-06,9.934374969794165e-05,1.073651380155727e-06,1.356861428574169e-06,1.525953151987303e-06,2.619076266471237e-06
269,5.423086189705712e-07,6.438173178279128e-07,6.816234247027809e-07,1.941131509553945e-06,7.395427229542619e-07,1.2022889724559165e-06,1.2720326384638313e-06,1.1821152825868217e-06,2.0698844383507343e-06,5.797288602031226e-07,2.0803117987194245e-06,9.945395933060204e-05,1.0766789808243144e-06,1.3792924561808242e-06,1.5073198864063563e-06,2.5296832160241733e-06
270,5.489109564132142e-07,6.39471957015434e-07,6.562412539060259e-07,2.112008839118135e-06,7.406191842933125e-07,1.1861525409950216e-06,1.2344770500726057e-06,1.158842513108721e-06,1.9306194410545835e-06,5.804811095160932e-07,2.1093594842596004e-06,9.914513938359867e-05,1.0805363136901711e-06,1.3999941919788897e-06,1.4874503405821238e-06,2.438240272084506e-06
271,5.569217583380649e-07,6.362528441071806e-07,6.342204549635176e-07,2.3304179565405486e-06,7.424086593705935e-07,1.170024563380445e-06,1.1976588279074863e-06,1.1333895886101366e-06,1.8193744152350346e-06,5.826176321052236e-07,2.132129014563069e-06,9.838803668576576e-05,1.0853745839080355e-06,1.4194065888152833e-06,1.467364990775162e-06,2.3454199169857226e-06
272,5.664846323228702e-07,6.340308606537855e-07,6.158921769853615e-07,2.5985437202744107e-06,7.446115719106815e-07,1.154735819411951e-06,1.1624195509679368e-06,1.1068600237930252e-06,1.736167105455566e-06,5.859585937892395e-07,2.1478537753491753e-06,9.715679213718781e-05,1.091191696934747e-06,1.4380489754776774e-06,1.4478526877089587e-06,2.25180023817857e-06
273,5.776969330358638e-07,6.327109659452507e-07,6.014767683158448e-07,2.918199357993063e-06,7.468397480474701e-07,1.1409471492593803e-06,1.1295385838972282e-06,1.0802340482671132e-06,1.6806347308678401e-06,5.904941997320339e-07,2.1560580339202764e-06,9.544378905053033e-05,1.09780405165486e-06,1.4562967903342108e-06,1.429497811439245e-06,2.1579370833729127e-06
274,5.905698825532791e-07,6.323670319300909e-07,5.911056039244288e-07,3.290918931457704e-06,7.486144292766933e-07,1.1291188881734243e-06,1.0997311449217969e-06,1.0543278690617356e-06,1.6520780774338452e-06,5.962666047016836e-07,2.156550100565355e-06,9.326526690449705e-05,1.1048854808093616e-06,1.474231637382273e-06,1.4127057177623607e-06,2.064436063636529e-06
275,6.05012587506639e-07,6.332900041707314e-07,5.848595153750542e-07,3.718053574367835e-06,7.493656164231721e-07,1.1195029238907065e-06,1.073596965590611e-06,1.0297981318296946e-06,1.6495384432833516e-06,6.032511398060528e-07,2.1493707728015727e-06,9.065417156803809e-05,1.112004654986776e-06,1.4915984897093856e-06,1.3976896323236221e-06,1.971854813666539e-06
276,6.208513642311441e-07,6.359055120453806e-07,5.827973764932115e-07,4.200816337815011e-06,7.484884262590391e-07,1.1121502741695673e-06,1.0515680627881044e-06,1.0071445308769584e-06,1.671892680682614e-06,6.113215726241055e-07,2.1346555753522085e-06,8.7650101788036e-05,1.118645751052417e-06,1.5078302853870092e-06,1.3844925657162086e-06,1.8806177752622205e-06
277,6.378475835609803e-07,6.406917579845303e-07,5.849544957141468e-07,4.740255744044377e-06,7.454861089537742e-07,1.1069130957209632e-06,1.0338888945636516e-06,9.86708603978856e-07,1.7179410325104962e-06,6.202711059353955e-07,2.112581406765439e-06,8.429853471748805e-05,1.1242922024928498e-06,1.5221448360266451e-06,1.3731108304764104e-06,1.791092411608329e-06
278,6.556876291626891e-07,6.481890112578377e-07,5.913072758065129e-07,5.337150057431185e-06,7.401303475528926e-07,1.1034516538442388e-06,1.02060587724616e-06,9.686833475549643e-07,1.7864231437514749e-06,6.298577542890985e-07,2.083568194984824e-06,8.065593844525563e-05,1.1285870718440805e-06,1.5337101367813262e-06,1.3636589863792866e-06,1.7036755864442934e-06
279,6.739744413012312e-07,6.590040674373541e-07,6.017395720172894e-07,5.991835681817003e-06,7.325364254084315e-07,1.1012642443326885e-06,1.0115621035553784e-06,9.531393026710524e-07,1.8759818901618073e-06,6.398632711509843e-07,2.048492169407784e-06,7.678758519582386e-05,1.131436419665896e-06,1.5417912377734238e-06,1.3564492111978548e-06,1.6187721238810592e-06
280,6.922637858099084e-07,6.737492145118433e-07,6.160716531509195e-07,6.704015450516426e-06,7.231127046821632e-07,1.0997317071092158e-06,1.0064056108822143e-06,9.40045202343715e-07,1.9851444153703653e-06,6.501199579541241e-07,2.008561507120226e-06,7.27583922680935e-05,1.1329477864890174e-06,1.5458051333763388e-06,1.3519130725249037e-06,1.5368014384533572e-06
281,7.101408705151125e-07,6.929808383733052e-07,6.341409668480444e-07,7.472602521949399e-06,7.124271725263591e-07,1.0981524133443356e-06,1.0046247563472715e-06,9.292893559556798e-07,2.1122728355562994e-06,6.604845416230462e-07,1.964951385098589e-06,6.862746545602261e-05,1.1332657462058934e-06,1.545330647155515e-06,1.3504440736489282e-06,1.4582841765402572e-06
282,7.272945482554006e-07,7.171613032559877e-07,6.558375544307707e-07,8.29563054745713e-06,7.010897112189063e-07,1.0957692566652525e-06,1.0056160700342608e-06,9.207057570266816e-07,2.255472382396722e-06,6.708075124110374e-07,1.918557732920916e-06,6.444818994487606e-05,1.1324632708860207e-06,1.5401621928089495e-06,1.352302310276399e-06,1.3838474239362594e-06
283,7.435311506542474e-07,7.466275064537184e-07,6.81054231754553e-07,9.170223904444028e-06,6.897098448386752e-07,1.091829176614801e-06,1.0087368451966193e-06,9.140584202427685e-07,2.4125146315439942e-06,6.809333115173033e-07,1.86996815408154e-06,6.026847365660553e-05,1.1305527759355779e-06,1.5303974494716976e-06,1.357596317171493e-06,1.3140920565598236e-06
284,7.587058636963485e-07,7.81575791215732e-07,7.096173955527746e-07,1.009260272927209e-05,6.78883478554734e-07,1.0856923200439683e-06,1.0133058140096191e-06,9.090093229510774e-07,2.580745024971398e-06,6.907252654973273e-07,1.819480702674015e-06,5.612919227411157e-05,1.1275446072745091e-06,1.5164409631436964e-06,1.3662655591892998e-06,1.2494599343410686e-06
285,7.726477030164149e-07,8.22060055566775e-07,7.412501461942882e-07,1.1058099760132907e-05,6.691695321653056e-07,1.0769372264007151e-06,1.0185984003768964e-06,9.051546764607514e-07,2.756987727362818e-06,7.000823965755178e-07,1.7670982228542057e-06,5.206244570557052e-05,1.1235056281509061e-06,1.4988531731276248e-06,1.3780540895211542e-06,1.1902146289877306e-06
286,7.851732092109311e-07,8.679900433293986e-07,7.755569872051018e-07,1.2061176062522368e-05,6.610767250768755e-07,1.0653962442704611e-06,1.0239040380734954e-06,9.021230721156671e-07,2.937590916215196e-06,7.089222362887479e-07,1.71261822164289e-06,4.8092389339757496e-05,1.1186138235750882e-06,1.4781660797091336e-06,1.3925224655295441e-06,1.1365043821049108e-06
287,7.961781246595968e-07,9.19152994530672e-07,8.120126219581105e-07,1.3095432715221116e-05,6.550482571171445e-07,1.0511074576890503e-06,1.028652806732039e-06,8.996649504762417e-07,3.1187033260173353e-06,7.171616920246906e-07,1.6559081335873372e-06,4.424026387983667e-05,1.113148417795859e-06,1.4548246477549126e-06,1.4091060327768216e-06,1.088410346316751e-06
288,8.057262384819529e-07,9.752777579518775e-07,8.499544961239469e-07,1.4153595367174821e-05,6.514316226481746e-07,1.0342103056843132e-06,1.032547889997463e-06,8.976816421865521e-07,3.2966605787683377e-06,7.247170633680391e-07,1.597230089905435e-06,4.053033512756977e-05,1.1073812880242115e-06,1.4292054673578128e-06,1.4271744681555587e-06,1.0459646674006695e-06
289,8.140786333124659e-07,1.0360809014009204e-06,8.88598518117487e-07,1.5227369547765297e-05,6.504577074485537e-07,1.014835245119165e-06,1.0356216468872296e-06,8.961790913032598e-07,3.4682281803945554e-06,7.315125151310108e-07,1.5373402403311265e-06,3.699126148006012e-05,1.1014668848484357e-06,1.4016025341691685e-06,1.4460379352468782e-06,1.009192828338596e-06
290,8.216564762860077e-07,1.1012276177722332e-06,9.271131293781395e-07,1.6306993590695105e-05,6.522298117600537e-07,9.930441405355e-07,1.0381811273634264e-06,8.951812151925786e-07,3.630609477987736e-06,7.375188908652064e-07,1.4772791866614687e-06,3.365228874352254e-05,1.0954492362950769e-06,1.372205578270196e-06,1.4649249946689235e-06,9.781420135115834e-07
291,8.28966378366951e-07,1.170252051927809e-06,9.647554920838067e-07,1.738048251631213e-05,6.567131371477089e-07,9.688280601239307e-07,1.0406686892507295e-06,8.946720824840405e-07,3.7813626196932833e-06,7.428073358828581e-07,1.4180848183001195e-06,3.053907143399108e-05,1.089379380045045e-06,1.3411062793376385e-06,1.4830534460086625e-06,9.528146253720816e-07
292,8.365180086419948e-07,1.2425077695057287e-06,1.0010169065790696e-06,1.8433048262358937e-05,6.637389587937273e-07,9.421148185743104e-07,1.0435061702971444e-06,8.945945521858544e-07,3.91834332814934e-06,7.475532018799891e-07,1.3606580013779287e-06,2.7672958556347553e-05,1.083438375946034e-06,1.3083637374148832e-06,1.4998205748162657e-06,9.330695592207475e-07
293,8.447562388094467e-07,1.3171330150274444e-06,1.0357122831459163e-06,1.9447369568598226e-05,6.730342021659932e-07,9.127936457696515e-07,1.0470146755081743e-06,8.94874470036866e-07,4.039645073008808e-06,7.519937288854364e-07,1.3057515154569032e-06,2.5073010976197634e-05,1.0779736686146089e-06,1.2741747129493215e-06,1.514942374701084e-06,9.186138209753659e-07
294,8.540252759845813e-07,1.3930225543198349e-06,1.068975949985648e-06,2.0404768510321285e-05,6.84261369122258e-07,8.808411030650213e-07,1.051429100159122e-06,8.954632767215983e-07,4.143501086681622e-06,7.563791734772367e-07,1.253983609226164e-06,2.2758283792658296e-05,1.0734290345210566e-06,1.2390305957427895e-06,1.5283838491627699e-06,9.090822031903031e-07
295,8.645554961135134e-07,1.4688845445346064e-06,1.1011515169532295e-06,2.128674550207222e-05,6.970365242352677e-07,8.465279652644292e-07,1.0569205602744326e-06,8.963941841649576e-07,4.228168641585511e-06,7.609207850740225e-07,1.2058738491050997e-06,2.074889555912797e-05,1.0702237649173483e-06,1.2036897742711801e-06,1.5401242270243162e-06,9.041027639031006e-07
296,8.764722969755071e-07,1.5434228040905964e-06,1.1326132643695598e-06,2.207644495985956e-05,7.109132270994332e-07,8.105248312034405e-07,1.0635903176744983e-06,8.978093104623775e-07,4.291766995509945e-06,7.657506120131452e-07,1.1618687466639309e-06,1.906541525227585e-05,1.0686671371619268e-06,1.1689945200211652e-06,1.5499496265128789e-06,9.033047982691543e-07
297,8.89840248352428e-07,1.615524196979784e-06,1.1636164317717194e-06,2.2759938222670196e-05,7.25359328481514e-07,7.737938672832021e-07,1.071497911768374e-06,8.999557602481361e-07,4.332078938970056e-06,7.709072173686377e-07,1.1223092512206491e-06,1.7727159418749955e-05,1.0689380795632443e-06,1.135679765650377e-06,1.5574363614158049e-06,9.063342183752048e-07
298,9.046928253275139e-07,1.684307410655747e-06,1.194228266801604e-06,2.3327290559006365e-05,7.397539335730043e-07,7.373713591333009e-07,1.0807379219623424e-06,9.031748311334664e-07,4.346671943720443e-06,7.763281302976426e-07,1.0873767618088733e-06,1.675084363978351e-05,1.0710903993700818e-06,1.1042663049418425e-06,1.5621052604679417e-06,9.128926517804197e-07
299,9.209916168292871e-07,1.749078825721004e-06,1.224299100839024e-06,2.3773342366804436e-05,7.534325282372992e-07,7.022087658110563e-07,1.0914772255014263e-06,9.078616938151511e-07,4.333652925899396e-06,7.818590854851803e-07,1.0570685642929585e-06,1.6150634045217662e-05,1.0750471887447727e-06,1.0750568943390647e-06,1.5635873234088505e-06,9.227109396519216e-07
300,9.385577214055101e-07,1.809334794477032e-06,1.2534405018102654e-06,2.4097922207676817e-05,7.658009999919355e-07,6.691189929868758e-07,1.1038949380222539e-06,9.143812169524703e-07,4.292627769788248e-06,7.873106740525265e-07,1.0312286511139374e-06,1.5939114083324955e-05,1.0805746020598324e-06,1.0482121172835974e-06,1.5616588319263509e-06,9.354682517001614e-07
301,9.57038164407624e-07,1.8647901019807611e-06,1.2810144145613254e-06,2.4304984446263335e-05,7.76436975996975e-07,6.387788623258433e-07,1.118112616887784e-06,9.229999021567979e-07,4.225129829230228e-06,7.925222455809271e-07,1.0096427715598999e-06,1.61277532561366e-05,1.0872600398437123e-06,1.023844284571862e-06,1.5561281491392359e-06,9.508128356985184e-07
302,9.759051341932218e-07,1.915295309582231e-06,1.3061428508368509e-06,2.440044682064617e-05,7.850685347240678e-07,6.117426480296469e-07,1.1342041741464812e-06,9.338873200809999e-07,4.13429630792755e-06,7.973751291656544e-07,9.921426791691458e-07,1.6726597815153153e-05,1.0945599306537383e-06,1.0020539806028387e-06,1.5467474082076855e-06,9.684943768236007e-07
303,9.944822854450775e-07,1.9606699188471342e-06,1.3277881071517078e-06,2.438935379377104e-05,7.915010580725337e-07,5.884453598459528e-07,1.1522192431719921e-06,9.471382493117444e-07,4.024100402312709e-06,8.018155106088397e-07,9.786470309994844e-07,1.7744227603097605e-05,1.1019461188362883e-06,9.828883702812214e-07,1.5333312510860894e-06,9.8840990639919e-07
304,1.0120342343144168e-06,2.0006666972099667e-06,1.3449614423204984e-06,2.427382985406609e-05,7.956536900944577e-07,5.691977216785712e-07,1.1721682660939805e-06,9.627462492197604e-07,3.898575925043153e-06,8.059252066857464e-07,9.691428050029607e-07,1.9188072160665064e-05,1.109086212278019e-06,9.66282878897645e-07,1.5159988491976635e-06,1.0105003199247195e-06
305,1.0279293950447235e-06,2.0351574262792748e-06,1.3569958176879892e-06,2.4053023059931577e-05,7.976890725992176e-07,5.541916136467591e-07,1.1940327620678916e-06,9.805555852431924e-07,3.7612994631481644e-06,8.099181085032716e-07,9.636466235953134e-07,2.1064107012979445e-05,1.1159623805596536e-06,9.520735093465954e-07,1.4952981473168168e-06,1.034660773652317e-06
306,1.0417965302132056e-06,2.064375322471266e-06,1.3637126028485154e-06,2.372470425429765e-05,7.980688142577714e-07,5.435188743197111e-07,1.2178068647642066e-06,1.0002695174420223e-06,3.615216683309611e-06,8.140365235512712e-07,9.621743294547032e-07,2.3376378267542192e-05,1.122880841748495e-06,9.400950995729224e-07,1.472092678618916e-06,1.0607829744488236e-06
307,1.053570866347041e-06,2.089012502361935e-06,1.3653810237458478e-06,2.3287225103637047e-05,7.974506724678786e-07,5.371847430729971e-07,1.2435214121942998e-06,1.0215219115862733e-06,3.4628134476496348e-06,8.18473214303393e-07,9.647483885986154e-07,2.6127897930193974e-05,1.1303661584212008e-06,9.302783100869703e-07,1.447318312395362e-06,1.0888768332895762e-06
308,1.0634153181686603e-06,2.110113660919727e-06,1.3625093239004868e-06,2.2741043735998402e-05,7.965068698668268e-07,5.351082541916411e-07,1.271262902556667e-06,1.043936924425849e-06,3.306464575704578e-06,8.233555898044364e-07,9.714292673485868e-07,2.9322679281450016e-05,1.1389828214685467e-06,9.226472807971917e-07,1.4217977194717994e-06,1.1191246876456497e-06
309,1.0715994890757216e-06,2.128846690950968e-06,1.3555931240255385e-06,2.2089697237109985e-05,7.957946411178564e-07,5.371299279986375e-07,1.3011778839313462e-06,1.067132338012605e-06,3.1486662822867595e-06,8.287720479984458e-07,9.823052022889544e-07,3.296703067564343e-05,1.149178506021273e-06,9.172319552043067e-07,1.3961619853573328e-06,1.151786727140848e-06
310,1.0784213176552514e-06,2.146272807311748e-06,1.3449706680653886e-06,2.1340256657224434e-05,7.957306342140401e-07,5.430413180506805e-07,1.333401768843588e-06,1.0907012386231533e-06,2.9920043645908458e-06,8.348138659203626e-07,9.974163928328665e-07,3.706894669482309e-05,1.1612022814475427e-06,9.139962386472187e-07,1.3708295595046299e-06,1.1870513145932844e-06
311,1.0841808770590769e-06,2.1631844859187803e-06,1.3308591220839206e-06,2.0503313686847985e-05,7.966209527196153e-07,5.526230758385571e-07,1.367932502139375e-06,1.1142181708183775e-06,2.8389469794545267e-06,8.415691913716904e-07,1.0166734621144969e-06,4.163559008959952e-05,1.1750893772518522e-06,9.128228225094216e-07,1.346026429627219e-06,1.2249457675127489e-06
312,1.0891566637259664e-06,2.180048702103194e-06,1.3134768130653902e-06,1.959256304853508e-05,7.986767121966391e-07,5.656766239546067e-07,1.4045396725518233e-06,1.1372700425397e-06,2.6916168294642445e-06,8.490919123780754e-07,1.0398283899766482e-06,4.666989510221385e-05,1.1906900452924854e-06,9.135155527325819e-07,1.3218474614842482e-06,1.2653015032637843e-06
313,1.0935450758800212e-06,2.1970737655155594e-06,1.2930860176865015e-06,1.8624054841965584e-05,8.019997697807021e-07,5.820372145875834e-07,1.442759312947155e-06,1.1594709418000188e-06,2.551635558999524e-06,8.574020659136141e-07,1.0664911338926317e-06,5.216897325759498e-05,1.2076905366919025e-06,9.157925793277908e-07,1.2982980488698914e-06,1.3077553771960242e-06
314,1.0973789873547537e-06,2.214319813114391e-06,1.2699575601793278e-06,1.7615199517794267e-05,8.065768759875447e-07,6.015490303562971e-07,1.4819663581330959e-06,1.180440654391242e-06,2.4200833519548274e-06,8.664846628254271e-07,1.096195584457834e-06,5.8126032098037294e-05,1.2256033960957664e-06,9.192904891985997e-07,1.2752479728594005e-06,1.3517778993459256e-06
315,1.1004788319208183e-06,2.2317158162966266e-06,1.2444065145443807e-06,1.658361556054574e-05,8.122968539072058e-07,6.240123840616123e-07,1.5214603374815357e-06,1.1997900235156686e-06,2.2975841500778124e-06,8.76280099125342e-07,1.128549692468284e-06,6.453289827618018e-05,1.2437920369073662e-06,9.235978671305473e-07,1.252368196735049e-06,1.3966839458384087e-06
316,1.10247842888796e-06,2.2489693463784793e-06,1.2169101777320464e-06,1.5545944348290275e-05,8.189523598480403e-07,6.491624482565922e-07,1.5604751711135435e-06,1.2171508556357244e-06,2.1844489291450956e-06,8.866909067114695e-07,1.1633989162512306e-06,7.137912768161029e-05,1.2615635670033464e-06,9.282797503099855e-07,1.2291896742123125e-06,1.4416717166435885e-06
317,1.1029397404892615e-06,2.2655564030502374e-06,1.1881556538627089e-06,1.4516806858545063e-05,8.262049843577436e-07,6.767109229136065e-07,1.5981029665756372e-06,1.2322094261373713e-06,2.0807568263016042e-06,8.975630810350306e-07,1.2008373747770067e-06,7.864961443346741e-05,1.2782671712833056e-06,9.328715205654731e-07,1.205295938959659e-06,1.4859611443513771e-06
318,1.1015295704405516e-06,2.280937548579856e-06,1.1589561433168482e-06,1.3508172942952885e-05,8.335509651804868e-07,7.063940636935426e-07,1.6332487466624644e-06,1.2446772938801399e-06,1.986353904321689e-06,9.086298438725993e-07,1.2410385026034436e-06,8.632593371083494e-05,1.293365718021824e-06,9.368955430580962e-07,1.1805068463197173e-06,1.5289309775213826e-06
319,1.098162159273598e-06,2.294843643209111e-06,1.1301242958848304e-06,1.2529366112835798e-05,8.403497831802671e-07,7.379689385059591e-07,1.664705214201202e-06,1.2541982199172405e-06,1.900884354422257e-06,9.194910275720383e-07,1.2840681578049406e-06,9.439035327221718e-05,1.3065144775839843e-06,9.399196960470134e-07,1.154891738814559e-06,1.5701046499078243e-06
320,1.0929968200156579e-06,2.307358533113353e-06,1.1023980086506092e-06,1.1587485519442175e-05,8.459542989215599e-07,7.711824765092101e-07,1.6912827872351992e-06,1.2602705050679927e-06,1.8239238868309663e-06,9.296850335904849e-07,1.3298160936665948e-06,0.00010282607228384099,1.3176287638275473e-06,9.416219865264537e-07,1.12864630118955e-06,1.6090222084283129e-06
321,1.0862913659892026e-06,2.318732256736837e-06,1.0764454626321245e-06,1.0687740981966175e-05,8.499024196632492e-07,8.057616215644997e-07,1.7119355377149377e-06,1.262282943585136e-06,1.7551164366229784e-06,9.38830973566398e-07,1.3780551341402128e-06,0.00011161154116569009,1.3268767090962342e-06,9.418337332289631e-07,1.1020435558480902e-06,1.6452194423317379e-06
322,1.0782468310496972e-06,2.329109463822437e-06,1.0529066664948175e-06,9.833564216871236e-06,8.520406138841855e-07,8.414191677655507e-07,1.7259138325971145e-06,1.2596872432862925e-06,1.6941775873104265e-06,9.467378334909802e-07,1.4285757513365603e-06,0.00012071249588795531,1.334596015884904e-06,9.40521550076935e-07,1.075505235574441e-06,1.6784330317475955e-06
323,1.0689675298592485e-06,2.33842657396924e-06,1.0323953423914797e-06,9.026765660888101e-06,8.524704352816911e-07,8.778363690957428e-07,1.7329105004465114e-06,1.252225328594864e-06,1.6408196964482686e-06,9.533802828181621e-07,1.4812683796983178e-06,0.00013007527274962744,1.3411768699377189e-06,9.377311066327869e-07,1.0496135608191418e-06,1.7088418549648091e-06
324,1.058519503177364e-06,2.346533695739513e-06,1.0154421836549162e-06,8.267924697574471e-06,8.51367469217025e-07,9.146127544124923e-07,1.7330817270970588e-06,1.2400915321292767e-06,1.5947761745970034e-06,9.58796405531606e-07,1.5360380234208815e-06,0.00013962221326840288,1.3469356537990928e-06,9.335834628790339e-07,1.0249892892784461e-06,1.737073873779705e-06
325,1.0469921757422766e-06,2.3533592074934807e-06,1.0024411090237123e-06,7.5569013625810494e-06,8.48842108352494e-07,9.512278898481555e-07,1.7269035999296366e-06,1.2239407988029974e-06,1.5559001651983405e-06,9.630544526823254e-07,1.5926555153053794e-06,0.00014924818095791854,1.3520181017419132e-06,9.282854770206603e-07,1.0021566336712379e-06,1.7639417411932479e-06
326,1.0345119778921632e-06,2.3589413182015707e-06,9.936316773411308e-07,6.893202358581481e-06,8.449335956688455e-07,9.870709307594026e-07,1.7149617783628991e-06,1.2047229898175915e-06,1.5241420905972363e-06,9.662769431916339e-07,1.6507611831692868e-06,0.0001588183735396446,1.3563796734329455e-06,9.220579061961018e-07,9.814709404236809e-07,1.7901222084846643e-06
327,1.021203605201812e-06,2.3633243732327533e-06,9.890919287375805e-07,6.276039942293826e-06,8.396640607357333e-07,1.0215147112090755e-06,1.6977782854142126e-06,1.1834262397509427e-06,1.499385712193336e-06,9.685986546988258e-07,1.7099997756094426e-06,0.00016817220019065568,1.3598696072457781e-06,9.150509524163804e-07,9.630855004482992e-07,1.8160095778318158e-06
328,1.0071265711508119e-06,2.3664364829447216e-06,9.88730837508409e-07,5.704175861777564e-06,8.330427772870475e-07,1.0539369654237095e-06,1.6756916115804978e-06,1.1608828642482783e-06,1.4812946580567065e-06,9.700911833074288e-07,1.7700560204982065e-06,0.00017713684487982408,1.3623891980130594e-06,9.073763791643947e-07,9.469711256083151e-07,1.8417728013203527e-06
329,9.922639993404458e-07,2.368034939176072e-06,9.92279472169513e-07,5.17580594484946e-06,8.250184916360301e-07,1.0836776706394184e-06,1.6487755548012638e-06,1.1377166432966814e-06,1.469258043244406e-06,9.707804911982887e-07,1.8305346422295895e-06,0.00018554346489910016,1.3639727007116365e-06,8.992281490383301e-07,9.330139224029563e-07,1.8674982222883694e-06
330,9.766003935222392e-07,2.3677102424909965e-06,9.992750532209188e-07,4.688652831381233e-06,8.15470832123388e-07,1.1100573675283305e-06,1.6168350473591948e-06,1.1143595866093206e-06,1.4624529955413403e-06,9.707312371467684e-07,1.8908251754686787e-06,0.00019323615809085112,1.3646843797203719e-06,8.909670598679237e-07,9.211177475968559e-07,1.8933042140211e-06
