,EMG1,EMG2,EMG3,EMG4,EMG5,EMG6,EMG7,EMG8,EMG9,EMG10,EMG11,EMG12,EMG13,EMG14,EMG15,EMG16
0,1.2473835601555239e-08,2.4759294833490916e-07,2.1210626300365136e-06,1.3159618001004265e-06,9.374077820980163e-07,1.6680401011883253e-08,7.884787801836917e-08,-1.341518310372498e-07,1.26457475101721e-07,1.2856514812979273e-07,2.9423585600588685e-07,5.519530563940531e-06,-8.203785999791064e-09,1.8286875862558488e-07,2.107661631769416e-07,3.7746794734017935e-08
1,1.1356186746619939e-07,2.962630920409479e-07,2.294279648857266e-06,2.147123226885768e-06,1.756917132160441e-06,1.0712413441089101e-07,2.1546449894358945e-07,7.060641168658282e-08,1.9150750512301748e-07,2.064045711241478e-07,3.587528169972004e-07,6.8452708211690486e-06,6.007907436142718e-08,2.2342995514623e-07,3.0940099220956003e-07,3.0269229381634153e-07
2,2.0958977691181053e-07,3.4708278052536264e-07,2.4726182035855347e-06,2.9893180749471883e-06,2.5512502139385605e-06,1.9463615804980735e-07,3.4578703357802885e-07,2.7007995435150347e-07,2.5744095141324314e-07,2.8247996410715274e-07,4.259264673794036e-07,8.226820154090032e-06,1.2671856439690007e-07,2.6408436906094157e-07,4.069792217744192e-07,5.562405563345428e-07
3,2.9929152208745387e-07,3.995354481583563e-07,2.6529374783210507e-06,3.82766086025788e-06,3.315832755757818e-06,2.770318771494955e-07,4.6897440170735237e-07,4.630870576264527e-07,3.231670285251159e-07,3.553572958233638e-07,4.946834655605383e-07,9.654112059063667e-06,1.9100856272369983e-07,3.037917675727103e-07,5.020999257748887e-07,7.942303406163521e-07
4,3.817716672309996e-07,4.5311553936648086e-07,2.8326076652104487e-06,4.648662753474163e-06,4.045726433350587e-06,3.5274661756951164e-07,5.843365952259693e-07,6.486218848940216e-07,3.8779726299083107e-07,4.238454520386625e-07,5.644816029859028e-07,1.1121009485373808e-05,2.523522608553121e-07,3.4188883509527327e-07,5.936816164654007e-07,1.0131194868680407e-06
5,4.565048309922611e-07,5.0734136570508e-07,3.009420714097085e-06,5.441346287144816e-06,4.735617144229136e-06,4.2096620766303367e-07,6.913991363776164e-07,8.258075299989337e-07,4.506792420282519e-07,4.871146773701006e-07,6.352094312393672e-07,1.26268814109215e-05,3.103339783238005e-07,3.7802150095657245e-07,6.80894788797066e-07,1.2102276954871859e-06
6,5.232230248243615e-07,5.617609541791282e-07,3.1813944549703403e-06,6.198089263321887e-06,5.380064394201409e-06,4.81529882783225e-07,7.898496525818536e-07,9.937940925114418e-07,5.115071302278624e-07,5.44759932804792e-07,7.06959234196905e-07,1.4176120778014191e-05,3.647715322141141e-07,4.11978575061146e-07,7.631263551115938e-07,1.3838476328960298e-06
7,5.818032637303447e-07,6.15929582922052e-07,3.3466351631421686e-06,6.914846491669894e-06,5.9739331077423935e-06,5.346910205146715e-07,8.79414370064689e-07,1.1516890768720658e-06,5.703575462335802e-07,5.967094702511224e-07,7.79843220225877e-07,1.5775302212384475e-05,4.156488079793204e-07,4.435951470865289e-07,8.40042710305203e-07,1.5332442168359543e-06
8,6.322436046098622e-07,6.693848898272097e-07,3.503201942509273e-06,7.590597191467915e-06,6.512888965535658e-06,5.808986336476788e-07,9.598415716686813e-07,1.2985446412286565e-06,6.275441347569816e-07,6.431138944240979e-07,8.539003035021178e-07,1.7431120413044566e-05,4.6297742015212526e-07,4.7276656757855104e-07,9.115878710315367e-07,1.658666132515267e-06
9,6.747232927562564e-07,7.216303071505029e-07,3.648887923114037e-06,8.226123684294386e-06,6.993899118671463e-06,6.207053675990102e-07,1.0310648007369855e-06,1.4334430486526637e-06,6.83451321711564e-07,6.843245140598325e-07,9.290615625508152e-07,1.9149855641364848e-05,5.067314600217136e-07,4.994827469574347e-07,9.778448750380176e-07,1.7613656028315832e-06
10,7.09673767480423e-07,7.72108272041895e-07,3.78102833188578e-06,8.822494272395785e-06,7.415754334816905e-06,6.547507762149946e-07,1.0934038250972917e-06,1.5557019705135666e-06,7.384641551867871e-07,7.20858277007581e-07,1.0051304537556029e-06,2.0937070007741178e-05,5.46898612521287e-07,5.23795633289808e-07,1.0388969008370751e-06,1.843474492420475e-06
11,7.3776524049627e-07,8.20199220838681e-07,3.896562452541694e-06,9.37976150114207e-06,7.779600827276545e-06,6.837134320461195e-07,1.1476037294738263e-06,1.6650581737369233e-06,7.929217123571636e-07,7.532865814497694e-07,1.081768083470977e-06,2.2797007649650995e-05,5.835821033828208e-07,5.457502775197726e-07,1.0947878852562705e-06,1.907660786061669e-06
12,7.597833810823154e-07,8.652948322996014e-07,3.992420563689697e-06,9.896286490193634e-06,8.089286016946059e-06,7.082394576143056e-07,1.1946646036161388e-06,1.7616839189636102e-06,8.470600484676562e-07,7.821161521815335e-07,1.1584979614688528e-06,2.473142637896258e-05,6.170758041311405e-07,5.65375058262945e-07,1.1455485486340647e-06,1.956702180823525e-06
13,7.764994126278095e-07,9.069210516317438e-07,4.066069445385139e-06,1.036893043643014e-05,8.351157790874564e-06,7.289058677519193e-07,1.2355921051692007e-06,1.8460633025882896e-06,9.009830264811398e-07,8.077232770884812e-07,1.2347024899407788e-06,2.673795730693166e-05,6.478699070287351e-07,5.827369588353612e-07,1.1912033482328256e-06,1.9931986455194894e-06
14,7.886301704434626e-07,9.448416377743001e-07,4.115992861290179e-06,1.0794108561612059e-05,8.573116796450806e-06,7.46203830195113e-07,1.2712330533798625e-06,1.9188505044638013e-06,9.546522287370375e-07,8.303505080602476e-07,1.3095919072032408e-06,2.8808665763050845e-05,6.765803384138469e-07,5.979735569619712e-07,1.2316970642595404e-06,2.0194840617572936e-06
15,7.968516272552694e-07,9.79062920722448e-07,4.141970754082608e-06,1.1169190687960987e-05,8.763252505626065e-06,7.605124151772312e-07,1.3022491839530398e-06,1.9808106117251964e-06,1.007893560007575e-06,8.501342272352072e-07,1.3821784962292895e-06,3.092918031977978e-05,7.038435233382365e-07,6.112550121101648e-07,1.2668054349720405e-06,2.037608719995187e-06
16,8.01791801193866e-07,1.0097115466208442e-06,4.1451272669701025e-06,1.1493411498105186e-05,8.928871573236734e-06,7.721019251695956e-07,1.3291710931711523e-06,2.0328409302105867e-06,1.060480700083436e-06,8.671381997631172e-07,1.4512795680050303e-06,3.307834422971078e-05,7.30250279665121e-07,6.227288760352673e-07,1.296169710884752e-06,2.04930969800016e-06
17,8.039973296175754e-07,1.0368855024456443e-06,4.127780502161018e-06,1.1767787468224283e-05,9.07646504467503e-06,7.812037517867503e-07,1.3524409848369765e-06,2.075966200921807e-06,1.1123095105045946e-06,8.814229728652431e-07,1.5155792549254894e-06,3.522853055035521e-05,7.563268982082994e-07,6.325174405097627e-07,1.3194774090671434e-06,2.056015816856194e-06
18,8.039181033392504e-07,1.0605787810468499e-06,4.093093304883279e-06,1.1994154014990972e-05,9.212310030129178e-06,7.880836483726213e-07,1.3723900138219869e-06,2.1112407179011533e-06,1.1635556568138058e-06,8.93129323296625e-07,1.5737668368761866e-06,3.7346824898046576e-05,7.825106391443836e-07,6.407634271704272e-07,1.3366437229961502e-06,2.058885218114977e-06
19,8.019255215171007e-07,1.080651744893462e-06,4.044546772288607e-06,1.2173831668539356e-05,9.343071575249564e-06,7.930532524843661e-07,1.389209409869068e-06,2.1396374830883277e-06,1.214683454699583e-06,9.024776226484887e-07,1.6246909905912519e-06,3.939700218072798e-05,8.091357878040044e-07,6.476615486403751e-07,1.3478379770582154e-06,2.0587918889827076e-06
20,7.983379725902218e-07,1.0968197715321523e-06,3.985487205339337e-06,1.230659475595023e-05,9.476158360269241e-06,7.964860321105812e-07,1.402988811112887e-06,2.1620348009617693e-06,1.2662871708532983e-06,9.097134283257769e-07,1.6674899863317434e-06,4.1342271252408e-05,8.364772617103474e-07,6.534557790227304e-07,1.3534335195827747e-06,2.0562788704976733e-06
21,7.934431007518098e-07,1.1087246994435992e-06,3.9189829766741715e-06,1.2390512581783945e-05,9.619882646982874e-06,7.98877523028108e-07,1.4137526249563589e-06,2.1792629217551207e-06,1.318879605958589e-06,9.150983944572424e-07,1.701718471071068e-06,4.314880725465201e-05,8.647975253433134e-07,6.584276774299672e-07,1.3540557068953292e-06,2.05161359823915e-06
22,7.875025780816329e-07,1.1161057157825412e-06,3.847811867578749e-06,1.2422663975003238e-05,9.783458899320637e-06,8.008404292984094e-07,1.4214409472802676e-06,2.1920711611900492e-06,1.3727620058839197e-06,9.189043825936395e-07,1.7274091572675136e-06,4.4789362297144184e-05,8.943200141366466e-07,6.628642326242959e-07,1.350627826608994e-06,2.044979169398086e-06
23,7.807298331727963e-07,1.1189450117812715e-06,3.774356711014648e-06,1.2400184123666732e-05,9.97682728938154e-06,8.029975271199542e-07,1.4259328305753332e-06,2.2009844855778973e-06,1.4280123981153735e-06,9.213836844838416e-07,1.7449582333155655e-06,4.62454183089182e-05,9.251739650881292e-07,6.670057295040754e-07,1.3442619218311113e-06,2.0366628519468337e-06
24,7.732696003702241e-07,1.1174935327227994e-06,3.7004892172034198e-06,1.2321172348955807e-05,1.0210300366170056e-05,8.058835532087299e-07,1.4271404173914862e-06,2.206189822084412e-06,1.4845304507946862e-06,9.22766754891529e-07,1.7549191570278048e-06,4.7506434798698025e-05,9.574186554477405e-07,6.710171315784531e-07,1.3361007285009538e-06,2.027136456840613e-06
25,7.651904491256536e-07,1.112222939691486e-06,3.6275110221561844e-06,1.2185315748073559e-05,1.0494092015769058e-05,8.09911945365975e-07,1.425045568559618e-06,2.207577447553662e-06,1.542053857363857e-06,9.232489405134858e-07,1.7579376583075667e-06,4.856583606911992e-05,9.911289203727557e-07,6.749996007874543e-07,1.3272097211181083e-06,2.017057122131177e-06
26,7.564955423753079e-07,1.1037487057570718e-06,3.556159984967349e-06,1.1994254876075075e-05,1.0837849264010389e-05,8.153675506062982e-07,1.419635468478154e-06,2.204902319947038e-06,1.6001513119569158e-06,9.229442180286425e-07,1.7548056925690526e-06,4.941625307902627e-05,1.0264003061847176e-06,6.790360791902277e-07,1.3184948836050146e-06,2.0072307826812725e-06
27,7.47169066198797e-07,1.0927132892833678e-06,3.4867028492908284e-06,1.1751783265000885e-05,1.1250267322680563e-05,8.223993947824675e-07,1.4108532749579054e-06,2.1979611850611393e-06,1.658288622444373e-06,9.218770840947842e-07,1.7463900702568268e-06,5.0049035654728656e-05,1.0632505915969931e-06,6.832328590686916e-07,1.3106619736508089e-06,1.9985426690630016e-06
28,7.37219289601082e-07,1.0796565035114348e-06,3.419037925053453e-06,1.1463915057786146e-05,1.173874587461593e-05,8.310167462212365e-07,1.3986283382575812e-06,2.1867156927030834e-06,1.7159375159367161e-06,9.200162265834741e-07,1.7334651146016438e-06,5.045840097116622e-05,1.1015320747587933e-06,6.877094694423367e-07,1.3042190914072732e-06,1.9918646021682212e-06
29,7.266678349248098e-07,1.0649510098160078e-06,3.3527996074152633e-06,1.1138703547901087e-05,1.230898985290267e-05,8.410859585905081e-07,1.3829016140740178e-06,2.1713261717773328e-06,1.7725600887455942e-06,9.172979456239957e-07,1.7166888635084812e-06,5.064361898503792e-05,1.1409006911001456e-06,6.925758274394425e-07,1.2994703013339063e-06,1.9879484117920326e-06
30,7.155371052739968e-07,1.0488495309011381e-06,3.28756281469808e-06,1.0785707984185442e-05,1.2964539719965341e-05,8.523191279900916e-07,1.3635973032293092e-06,2.1521275928565793e-06,1.8274603620733095e-06,9.136687453754966e-07,1.6967093774582366e-06,5.060703698206541e-05,1.1808185589666494e-06,6.979486513644533e-07,1.2964999593315433e-06,1.9873076783605223e-06
31,7.039079479516761e-07,1.031601594738059e-06,3.2230968167908895e-06,1.0415223032557496e-05,1.3706329157651014e-05,8.642641839274132e-07,1.3406474205865292e-06,2.129651862040419e-06,1.879654924163555e-06,9.091914728568089e-07,1.674211766235076e-06,5.0353008691087255e-05,1.2206007190023261e-06,7.03969628050694e-07,1.2951917393757731e-06,1.9901113064695954e-06
32,6.919813098032732e-07,1.0135432392982962e-06,3.1595086341420586e-06,1.0037472417903505e-05,1.453235563703058e-05,8.763360194791386e-07,1.3141126843276934e-06,2.1047427705288872e-06,1.9278428006929846e-06,9.041136521867229e-07,1.6498789948225189e-06,4.9888647968671755e-05,1.2595062568725814e-06,7.107867352343801e-07,1.295258543458677e-06,1.9961235129723265e-06
33,6.800385993862482e-07,9.950943961390322e-07,3.0972260173057493e-06,9.6618386681869e-06,1.543744439886483e-05,8.879281510762219e-07,1.2842625692658277e-06,2.0786581255997782e-06,1.970429433274015e-06,8.98786214012315e-07,1.6243532946241894e-06,4.9224905121958423e-05,1.2968005986156634e-06,7.185190203177818e-07,1.296239083039034e-06,2.0047054861411926e-06
34,6.68337571557792e-07,9.766778238178175e-07,3.036873903439228e-06,9.296179300782962e-06,1.6413057657583643e-05,8.985744889956116e-07,1.2515399665366506e-06,2.0530212728321944e-06,2.0055398672452465e-06,8.935319826683212e-07,1.598191318622883e-06,4.8380756128861354e-05,1.331754761228003e-06,7.272289469202716e-07,1.2975290565671847e-06,2.014868666953146e-06
35,6.57042732039195e-07,9.586363915024163e-07,2.979097470560521e-06,8.946406101782226e-06,1.7447112502010865e-05,9.080457633506234e-07,1.2164821478290624e-06,2.0296209031545832e-06,2.03107221166249e-06,8.885967512644564e-07,1.5717728453382277e-06,4.738867128185189e-05,1.363667397347192e-06,7.369366382731203e-07,1.2985193659883572e-06,2.0253340908851284e-06
36,6.462148674031118e-07,9.412052351953813e-07,2.924377132212456e-06,8.61642188681297e-06,1.8523763661687494e-05,9.162972095576702e-07,1.1796460645162241e-06,2.0101743406347783e-06,2.0448934108737053e-06,8.841346065256878e-07,1.5452421505008873e-06,4.6293811679107856e-05,1.391967102272349e-06,7.4770153548096e-07,1.2987603087107646e-06,2.034579101243391e-06
37,6.358355480572578e-07,9.2451765398219e-07,2.8728863155467077e-06,8.308256969999157e-06,1.962327346376549e-05,9.233339155787225e-07,1.1415614766445275e-06,1.9961422229303474e-06,2.0451472285738728e-06,8.801708661581248e-07,1.5185540277989898e-06,4.5146481060160387e-05,1.4163236999937352e-06,7.596824082895633e-07,1.2979992857668898e-06,2.040985841354312e-06
38,6.258501706495385e-07,9.086351724972024e-07,2.8244120361177186e-06,8.022239698391004e-06,2.072238200897125e-05,9.29161383958236e-07,1.102773799345124e-06,1.988610886266205e-06,2.030511382617378e-06,8.766049862769463e-07,1.4915411173721765e-06,4.399484047734096e-05,1.436649524963945e-06,7.730748581784592e-07,1.2960645803084884e-06,2.043200535488089e-06
39,6.162319799480492e-07,8.936312940279228e-07,2.7783107872666786e-06,7.757222294624047e-06,2.1795669159185528e-05,9.338817417157772e-07,1.0639512895533676e-06,1.988250293772207e-06,2.0002157810768656e-06,8.732640565217182e-07,1.4639543752149878e-06,4.288231971822885e-05,1.4529721292612469e-06,7.879952965371966e-07,1.2927683196728513e-06,2.0405593644587695e-06
40,6.070466375690297e-07,8.796775387684107e-07,2.7335105076629463e-06,7.510904359047548e-06,2.2818111974247268e-05,9.377932875853962e-07,1.0259170556407907e-06,1.995349203605823e-06,1.9538597209583594e-06,8.699330551811271e-07,1.4355681823363596e-06,4.1848023428754694e-05,1.4653453299988748e-06,8.044398112726869e-07,1.287954562060537e-06,2.033281573835305e-06
41,5.984564369500236e-07,8.670411687930792e-07,2.6886604538989537e-06,7.280170232717913e-06,2.3768269179956953e-05,9.413500297053148e-07,9.895509423746164e-07,2.0098784118258187e-06,1.891442718291407e-06,8.663639598182778e-07,1.4063431358540867e-06,4.0926640256803854e-05,1.4739083538495553e-06,8.223446423395871e-07,1.2815674457328731e-06,2.0222836689900936e-06
42,5.906600162623646e-07,8.56001975964162e-07,2.6424369741468094e-06,7.061348520897655e-06,2.4630545036047165e-05,9.450133692624685e-07,9.556558232604888e-07,2.031514808403668e-06,1.813782227072626e-06,8.62296435610209e-07,1.3764699313257328e-06,4.014790265768324e-05,1.4789365619866622e-06,8.416829928244336e-07,1.273620298606001e-06,2.0087398662729063e-06
43,5.838503792254954e-07,8.467598989006576e-07,2.5938050466993095e-06,6.850444194451071e-06,2.5394828846525564e-05,9.491138003721507e-07,9.248833307886621e-07,2.0596214419910454e-06,1.722758821381388e-06,8.574561563037869e-07,1.3462313910115027e-06,3.953773299424576e-05,1.4807650004007238e-06,8.624993873561497e-07,1.26413103287194e-06,1.993671930626473e-06
44,5.782270306064192e-07,8.393867219230017e-07,2.5420802123499525e-06,6.6434598560426406e-06,2.6053430323002275e-05,9.537933053263485e-07,8.977168456334124e-07,2.09323661510957e-06,1.6209770237684679e-06,8.515540117624222e-07,1.3158866354065594e-06,3.912004746742118e-05,1.4797023639348694e-06,8.848400858660316e-07,1.2531119336542924e-06,1.9777817033128022e-06
45,5.740050410781108e-07,8.338362334271424e-07,2.4868727581286456e-06,6.4368137317634205e-06,2.659783080773798e-05,9.590432066601966e-07,8.744653440446125e-07,2.1310857475382376e-06,1.5113038354354167e-06,8.443570242189459e-07,1.2857298880898596e-06,3.891646807598552e-05,1.4760402377423252e-06,9.086501410340899e-07,1.2406390077919235e-06,1.9614909611972167e-06
46,5.713821591741009e-07,8.299874409706838e-07,2.4280683068629945e-06,6.227753966490858e-06,2.701806878721317e-05,9.648166727022246e-07,8.55253521686423e-07,2.1716202929481988e-06,1.3967637546416143e-06,8.357857077648262e-07,1.2561707971924236e-06,3.8944611607503024e-05,1.470108361945298e-06,9.337366924043393e-07,1.2269782554857673e-06,1.945010996544976e-06
47,5.704864859765828e-07,8.276930770119476e-07,2.36586846761324e-06,6.014679656759153e-06,2.7304666313148094e-05,9.71147104293891e-07,8.400275973633138e-07,2.2131430021142414e-06,1.2805840063115663e-06,8.259623528754037e-07,1.2276823194532211e-06,3.921788393572788e-05,1.4622909755020345e-06,9.598171765340695e-07,1.2126764074216055e-06,1.928429839870179e-06
48,5.713348655842785e-07,8.268331770347409e-07,2.3007901896649945e-06,5.79730716316634e-06,2.7450992354702182e-05,9.78187676964476e-07,8.285935690179754e-07,2.2539969080195056e-06,1.166093771140452e-06,8.152165500989539e-07,1.2007040352412002e-06,3.97470202302365e-05,1.4529844612597079e-06,9.865995886109136e-07,1.1985053951765274e-06,1.9119129172519203e-06
49,5.738154802554066e-07,8.273565716156119e-07,2.2335211053770085e-06,5.576615808117756e-06,2.745479496649808e-05,9.861509841958823e-07,8.206858424853276e-07,2.292697230816244e-06,1.0565527947750337e-06,8.04043110313634e-07,1.1756158685338505e-06,4.0540965049535227e-05,1.4425324844548716e-06,1.0138406630798197e-06,1.1852854895653893e-06,1.8958927517725328e-06
50,5.777065870442055e-07,8.292656294758594e-07,2.164668715407324e-06,5.354572053980845e-06,2.7318786009210584e-05,9.952058104926567e-07,8.160498557990693e-07,2.3279891968363847e-06,9.550936299049158e-07,7.929904462792741e-07,1.1527449344464477e-06,4.160568615515144e-05,1.4311724601978089e-06,1.0413387282481002e-06,1.1737244170180175e-06,1.8810298161308317e-06
51,5.827396638069946e-07,8.325622967179487e-07,2.094609415717532e-06,5.1337481680783276e-06,2.7050356997824067e-05,1.0053911562594918e-06,8.144948375987999e-07,2.358934729737339e-06,8.647974220621095e-07,7.825453735297314e-07,1.1323267391509316e-06,4.29418775900278e-05,1.4189873909074142e-06,1.068860079475219e-06,1.164328254372814e-06,1.8679636766492123e-06
52,5.88672378039534e-07,8.372369015686879e-07,2.0235691736306333e-06,4.9169374872198385e-06,2.66604841350975e-05,1.0165662226009451e-06,8.158656246424587e-07,2.3850619677710054e-06,7.88762102840166e-07,7.731123776155588e-07,1.114453453203539e-06,4.4544252117875465e-05,1.4058570906272533e-06,1.0961124934306458e-06,1.1573644089046782e-06,1.8570694376215402e-06
53,5.953038820350969e-07,8.433052599481315e-07,1.9518323717355375e-06,4.706757849941124e-06,2.6162012142428025e-05,1.0284090415347025e-06,8.199500816200883e-07,2.4064561993842482e-06,7.300815000169164e-07,7.650591470022561e-07,1.0991068736353436e-06,4.6403985433171074e-05,1.3914445723192919e-06,1.1228646518443367e-06,1.1528713857069225e-06,1.8483884187745408e-06
54,6.024259311856178e-07,8.508186678631224e-07,1.879938001950618e-06,4.505260674063183e-06,2.5567636016681664e-05,1.0404706082889256e-06,8.263984630541824e-07,2.423649673051521e-06,6.918084320598258e-07,7.587284725382575e-07,1.0862878190865867e-06,4.851202652950799e-05,1.3752633583422685e-06,1.1490783907869179e-06,1.1507049361172355e-06,1.8417524625371974e-06
55,6.097745711154845e-07,8.598287920924536e-07,1.808813847467981e-06,4.313662784343327e-06,2.4887927218570035e-05,1.0522317424507374e-06,8.347041165956421e-07,2.43732365387002e-06,6.769602757111422e-07,7.544353136025992e-07,1.0761208249873553e-06,5.0859973940027756e-05,1.356866230948214e-06,1.1748559316151514e-06,1.150630459953818e-06,1.837014889273037e-06
56,6.170184247506682e-07,8.703477478054458e-07,1.7398072101520462e-06,4.1322977835705634e-06,2.4130047865613146e-05,1.063102984870516e-06,8.442607381861527e-07,2.447978411494301e-06,6.885474761591577e-07,7.525006514709398e-07,1.0688294259860822e-06,5.343773191422844e-05,1.3361123062433875e-06,1.2002552477495883e-06,1.1524567217572045e-06,1.8342468696284047e-06
57,6.237766550351939e-07,8.823198274425868e-07,1.674567294927289e-06,3.960797739377804e-06,2.3298090577061205e-05,1.0724090543676872e-06,8.545024541491347e-07,2.4557062299448704e-06,7.296173059599573e-07,7.532567079000858e-07,1.0646784420942056e-06,5.622991216413069e-05,1.3132953187400183e-06,1.2251849257956786e-06,1.1561037474160062e-06,1.833792369975107e-06
58,6.296600288669353e-07,8.956273593131765e-07,1.6148090749388173e-06,3.7984151268658747e-06,2.2394984020177732e-05,1.0794145846588597e-06,8.650634429521112e-07,2.4600856624771843e-06,8.033030990506684e-07,7.569984610265049e-07,1.063989327278868e-06,5.921445308789789e-05,1.2889901063485534e-06,1.2494393029721083e-06,1.1615256141113096e-06,1.836197206864635e-06
59,6.343130958831719e-07,9.101549249698455e-07,1.5620818742965138e-06,3.6443337586913816e-06,2.142457567064828e-05,1.0833831144108902e-06,8.75834538035066e-07,2.460157064721351e-06,9.128285493392586e-07,7.639487564758466e-07,1.0671236307216544e-06,6.236358278528483e-05,1.2637869150585926e-06,1.2727394805421781e-06,1.1685785490656047e-06,1.8421261960550293e-06
60,6.374430685713534e-07,9.25841895181611e-07,1.5176448753411895e-06,3.497889360348129e-06,2.039294014294818e-05,1.0837026382197599e-06,8.868869864815858e-07,2.454497094606544e-06,1.0614631018546274e-06,7.742572025673574e-07,1.0743905548204053e-06,6.564334416141284e-05,1.2381399705308773e-06,1.2946912763634834e-06,1.1769604980530041e-06,1.852340704034233e-06
61,6.388655713530162e-07,9.426374256833795e-07,1.4824297258331407e-06,3.358686871637274e-06,1.9308980083142087e-05,1.0800737353877217e-06,8.983516116332074e-07,2.441459398487466e-06,1.252476248820431e-06,7.880243800515336e-07,1.0859964430647938e-06,6.901227132761648e-05,1.2123442720383347e-06,1.3147246881745778e-06,1.1862218089669657e-06,1.8676787541329722e-06
62,6.385576453618474e-07,9.604149492422862e-07,1.4570251507818313e-06,3.226594004924866e-06,1.818444101869204e-05,1.0726076576484635e-06,9.103268769614239e-07,2.419581133866213e-06,1.489088864244027e-06,8.053454015172429e-07,1.1020384378436016e-06,7.242337043987716e-05,1.1865576001062689e-06,1.3320888193681996e-06,1.1958123251880036e-06,1.8889682218582272e-06
63,6.366469650488228e-07,9.78938524483102e-07,1.441668400839994e-06,3.1016482437458814e-06,1.7033346522762596e-05,1.0617361417021302e-06,9.228265958912899e-07,2.3880398904473036e-06,1.774436592040248e-06,8.263440436147531e-07,1.122459700805338e-06,7.582952270075395e-05,1.1608576519066177e-06,1.3459433618245656e-06,1.205182442292161e-06,1.9169033369397183e-06
64,6.33358861917096e-07,9.978537685355637e-07,1.4362464260939615e-06,2.9839930421680904e-06,1.5871005673620998e-05,1.0480124114764412e-06,9.35756653188397e-07,2.34697304964011e-06,2.1116237401384225e-06,8.511671100410612e-07,1.146986691646455e-06,7.919069736200585e-05,1.1353414081715068e-06,1.3555447907047683e-06,1.2139073839327587e-06,1.9519513386183578e-06
65,6.2901254497465e-07,1.0166543675144657e-06,1.4402984718413674e-06,2.873918082797687e-06,1.4712834895397052e-05,1.031940834695391e-06,9.489020589223482e-07,2.297507996911418e-06,2.503847104682504e-06,8.799517383768492e-07,1.1751124794556311e-06,8.248060669198514e-05,1.1102050989094758e-06,1.3604139541572482e-06,1.221765816013994e-06,1.994305576899651e-06
66,6.240374544714543e-07,1.0346653480087262e-06,1.4530319699352069e-06,2.7719534515288286e-06,1.3573242911133765e-05,1.013916540792518e-06,9.619050409886223e-07,2.241502765155361e-06,2.9544591998755137e-06,9.128209665021495e-07,1.2061360954070058e-06,8.568657194207166e-05,1.085758863798808e-06,1.3604004487077152e-06,1.2287637064396652e-06,2.0438571917020873e-06
67,6.189296813035856e-07,1.0511165809965853e-06,1.4733740711523831e-06,2.67886951700312e-06,1.2464745474900678e-05,9.942446007939826e-07,9.742521835474607e-07,2.1811322953722122e-06,3.4669171601081748e-06,9.499007183962286e-07,1.2392096257749886e-06,8.880143315431834e-05,1.0623867622224383e-06,1.3556721227571395e-06,1.2351192596458877e-06,2.100168381890163e-06
68,6.141760589302428e-07,1.065272331186567e-06,1.5000342840904666e-06,2.595500906554608e-06,1.1397430831116701e-05,9.731773433332803e-07,9.853263511555873e-07,2.118516109480961e-06,4.044680379708139e-06,9.912932565098944e-07,1.273352212797668e-06,9.181825468284055e-05,1.0404611492171412e-06,1.346629987269572e-06,1.241185293854274e-06,2.1624767509296803e-06
69,6.102061175841613e-07,1.076474212459622e-06,1.5315511306688926e-06,2.522555348883836e-06,1.0378923626689101e-05,9.509868521466127e-07,9.9453383115928e-07,2.0555583780648267e-06,4.6911194501577505e-06,1.037018188027797e-06,1.3075040681228667e-06,9.473350728075302e-05,1.0202453395363366e-06,1.333741264673473e-06,1.2473053577343206e-06,2.22977239982224e-06
70,6.073712461389542e-07,1.0840860212544863e-06,1.566391654661999e-06,2.46057503651776e-06,9.414787709718797e-06,9.280427462878451e-07,1.0014232704280612e-06,1.9939752226882875e-06,5.409380736062825e-06,1.086967204195856e-06,1.3406845625540822e-06,9.754869261422474e-05,1.0018552190542465e-06,1.3173709154300356e-06,1.2537076915492316e-06,2.300905722903628e-06
71,6.059337145141356e-07,1.0875054619155517e-06,1.6031447521475081e-06,2.4099342217621072e-06,8.509028796534572e-06,9.047847211418694e-07,1.0057181928741788e-06,1.9353080117378477e-06,6.20209483411604e-06,1.1408693884834587e-06,1.3721180106615696e-06,0.00010026539596974804,9.853186156552763e-07,1.297705234827526e-06,1.2605151594433367e-06,2.3746545654807993e-06
72,6.060638101770837e-07,1.0863060914532739e-06,1.6406784716467939e-06,2.370789474073214e-06,7.664457883038134e-06,8.816259061319419e-07,1.007300591139139e-06,1.8808520822424658e-06,7.070996537125132e-06,1.198275606349971e-06,1.4012387447350427e-06,0.00010288308152043028,9.706825129349054e-07,1.2748195331053405e-06,1.2677767687681983e-06,2.44979795273707e-06
73,6.078452307157496e-07,1.08038132885719e-06,1.6781287393536174e-06,2.3431180782465995e-06,6.882937525091301e-06,8.589062821449555e-07,1.006233184066101e-06,1.8316214694627142e-06,8.016613162820611e-06,1.2585654313234806e-06,1.4277320815817318e-06,0.00010540192209018519,9.58060843707556e-07,1.2488549187470663e-06,1.2754334628488036e-06,2.5252385672749387e-06
74,6.112973914845078e-07,1.0699503274586826e-06,1.7147361990918152e-06,2.326839757802955e-06,6.165583866018929e-06,8.368769034298493e-07,1.0028171991617848e-06,1.7884080903147191e-06,9.038016879417759e-06,1.3209379539280252e-06,1.4516297837733035e-06,0.00010782138334635067,9.475894826547431e-07,1.2201365132271407e-06,1.2832760699108876e-06,2.6000253940895014e-06
75,6.164056900666323e-07,1.0554146801686682e-06,1.7496510461439325e-06,2.321854076095298e-06,5.512924099152751e-06,8.156739407235552e-07,9.975943603880485e-07,1.7518646815097082e-06,1.0132594928133059e-05,1.384410106358199e-06,1.4732315193963917e-06,0.00011013524045050958,9.393512020415136e-07,1.1891195443988207e-06,1.2909481480038442e-06,2.673157049310405e-06
76,6.231242662491e-07,1.0371943949815272e-06,1.7818837731043461e-06,2.3279878488054533e-06,4.924993208935644e-06,7.953299981305963e-07,9.912389685723508e-07,1.7225436481597614e-06,1.129580293870758e-05,1.4478923278774518e-06,1.4928629739575618e-06,0.00011233444263311802,9.333201796870203e-07,1.1562699911196156e-06,1.2979894241433536e-06,2.743330012333682e-06
77,6.313583690934781e-07,1.0156914920414897e-06,1.8104883459426052e-06,2.344997625562354e-06,4.401400732195377e-06,7.758435165217421e-07,9.843905426073604e-07,1.7008773158608064e-06,1.2520849062551326e-05,1.5103375866491855e-06,1.5107763111491646e-06,0.00011441911181384836,9.293420435854611e-07,1.1220401212294163e-06,1.3039099487006856e-06,2.8088617768365917e-06
78,6.409743030504457e-07,9.91368714023762e-07,1.8348304271592845e-06,2.372661189614631e-06,3.94142037823223e-06,7.572561454528991e-07,9.775232925884081e-07,1.6871113189557906e-06,1.3798426358267062e-05,1.5708965090478826e-06,1.5273034380453603e-06,0.00011640898587046612,9.271462349247686e-07,1.086921325190527e-06,1.3082394542898612e-06,2.867872413052704e-06
79,6.518464889443592e-07,9.647846019776768e-07,1.8547426217726386e-06,2.410820082572686e-06,3.544128408775336e-06,7.396885874010914e-07,9.70907036844647e-07,1.6812332495468327e-06,1.5116654926973172e-05,1.6289913333279667e-06,1.5430145481489337e-06,0.00011834463525663696,9.263663144144566e-07,1.0514449843271581e-06,1.3105384320247012e-06,2.9186413131441524e-06
80,6.638874776240576e-07,9.365332279014469e-07,1.8705305589437423e-06,2.4592583455730774e-06,3.208579402540272e-06,7.233321469958574e-07,9.646603457542666e-07,1.6829865882931626e-06,1.6461139387784088e-05,1.6842618445378956e-06,1.5586482882722695e-06,0.00012028005816478802,9.265767930597711e-07,1.0161453097246143e-06,1.3104442086354376e-06,2.9598386356019174e-06
81,6.770214657441981e-07,9.072095612075377e-07,1.8828856238160418e-06,2.5174844615112614e-06,2.9339708317088628e-06,7.084222090971849e-07,9.588620369829057e-07,1.6920130298263139e-06,1.7814931653936367e-05,1.7364307599502724e-06,1.574914976771863e-06,0.0001222704466998032,9.27348606759952e-07,9.815746005212133e-07,1.3077465041110377e-06,2.9904437509043964e-06
82,6.911365968393681e-07,8.774427344650513e-07,1.892725039649219e-06,2.5845838767382466e-06,2.7197209945080013e-06,6.95208899067538e-07,9.536416687014265e-07,1.7080206583027668e-06,1.9158462296323908e-05,1.7851933489907902e-06,1.5923703241521599e-06,0.00012435897222933497,9.282765132708898e-07,9.483088567852161e-07,1.3024369275029178e-06,3.0095954187664632e-06
83,7.060543077800252e-07,8.478893809518524e-07,1.9009638093966064e-06,2.65920590146003e-06,2.5654106038637856e-06,6.83923498628112e-07,9.491714171720229e-07,1.7308581528348787e-06,2.0469984196238145e-05,1.8302410097298674e-06,1.611345082033455e-06,0.00012656683517411833,9.289997289182927e-07,9.168770628722918e-07,1.2947295434128195e-06,3.016622116562654e-06
84,7.215287626619339e-07,8.191508134005045e-07,1.908283539821072e-06,2.7396261447631788e-06,2.470625213705005e-06,6.747520424134409e-07,9.455834495523218e-07,1.760506932494965e-06,2.172714633083544e-05,1.8714150124603152e-06,1.6318813803026425e-06,0.00012888850262293477,9.292724997494951e-07,8.876917569404448e-07,1.2850246252075174e-06,3.0110707447411776e-06
85,7.372690108775971e-07,7.916963179636915e-07,1.9150023937844766e-06,2.8238644252596954e-06,2.434792445738596e-06,6.678369083485708e-07,9.429019898196058e-07,1.7970551247887518e-06,2.2909486721520262e-05,1.90883473529161e-06,1.6537230915057993e-06,0.00013128969983729059,9.29026681048233e-07,8.610611834654815e-07,1.273793342520492e-06,2.992554397860338e-06
86,7.529388901408191e-07,7.65844124282487e-07,1.921120084831937e-06,2.9098829880120444e-06,2.4570586731333976e-06,6.632918473039884e-07,9.410330701577624e-07,1.8406484431936767e-06,2.4000541095467647e-05,1.942897537745353e-06,1.6763676192443172e-06,0.0001337060315342054,9.283324706354204e-07,8.372697375779787e-07,1.2614686205505996e-06,2.9607106349801536e-06
87,7.681480944172741e-07,7.417973258919463e-07,1.9265431792586078e-06,2.9958015791858315e-06,2.536204627835673e-06,6.611923051885293e-07,9.398148936627972e-07,1.8913987586464508e-06,2.498808765312592e-05,1.9741885349564105e-06,1.699129859597482e-06,0.00013604320849347143,9.273034411611194e-07,8.166374721606477e-07,1.2484278297953688e-06,2.9154688030488216e-06
88,7.824818980994187e-07,7.197171855139104e-07,1.931365456302696e-06,3.080000289443139e-06,2.6706228459124748e-06,6.615379956753509e-07,9.391046285333133e-07,1.9493167485258125e-06,2.5862071081906732e-05,2.003336687433011e-06,1.721192361296235e-06,0.00013818040774437384,9.260861223170902e-07,7.994987308457988e-07,1.2350244449188558e-06,2.8573180382888774e-06
89,7.955259497625753e-07,6.997793269916799e-07,1.935998556180728e-06,3.1610724564590382e-06,2.8583294077068273e-06,6.642196858590509e-07,9.388365965563724e-07,2.0143452479468954e-06,2.6611617200006984e-05,2.0308346210373446e-06,1.7416812071925087e-06,0.00013997885189869427,9.249282287913389e-07,7.86142365913629e-07,1.221590709241401e-06,2.7873787948735346e-06
90,8.068674608592674e-07,6.821546904828238e-07,1.941091587277834e-06,3.23771897806404e-06,3.0969198458531234e-06,6.690142445953785e-07,9.390207586357635e-07,2.0864548010797516e-06,2.722397203351124e-05,2.056958701388988e-06,1.7598127894280498e-06,0.00014129874011669925,9.241707918991935e-07,7.767678480298876e-07,1.2084236432985072e-06,2.7073858657793876e-06
91,8.161380323188382e-07,6.66941021538794e-07,1.9473726274017377e-06,3.308691764462141e-06,3.383483636820518e-06,6.756011006457345e-07,9.397155828346172e-07,2.1656935719463784e-06,2.768673877188706e-05,2.0819351927119855e-06,1.7750290489868858e-06,0.0001420228704329916,9.241394970076018e-07,7.714778493031956e-07,1.1957913673159759e-06,2.6195460622728578e-06
92,8.230654348269698e-07,6.541347524335988e-07,1.9555274380305452e-06,3.3728432083209892e-06,3.7145924048063164e-06,6.835889533739414e-07,9.409869206863636e-07,2.2521298433084796e-06,2.7991647376594253e-05,2.1062227748422647e-06,1.7869641045095592e-06,0.00014207607349319323,9.250543621809458e-07,7.703097888666374e-07,1.1839355505126442e-06,2.526195357538871e-06
93,8.274439750722746e-07,6.436909113338699e-07,1.9661028162548186e-06,3.42929031531657e-06,4.086395436002498e-06,6.925589508589768e-07,9.428329362216643e-07,2.3457028626035485e-06,2.813744175914057e-05,2.1306163595854714e-06,1.7952766505045026e-06,0.00014142768609639464,9.270010342680325e-07,7.732635836954745e-07,1.173090615301803e-06,2.4294759527766998e-06
94,8.290900483164188e-07,6.356244175812247e-07,1.9793991301094223e-06,3.4776207486153193e-06,4.49473759619693e-06,7.020994823454348e-07,9.451137107489369e-07,2.446057566271282e-06,2.813093077423288e-05,2.156081617597192e-06,1.799586106758839e-06,0.0001400746360764575,9.299227249731447e-07,7.80279440661892e-07,1.1635681035200716e-06,2.331236899319215e-06
95,8.278926419770403e-07,6.300538267842926e-07,1.9953873732346233e-06,3.5179913310979628e-06,4.9351979868785204e-06,7.118059085667831e-07,9.475595844863779e-07,2.552459215128737e-06,2.7986123400440456e-05,2.1834872366399463e-06,1.7995846914085616e-06,0.00013801880202398602,9.336186671741361e-07,7.911802902246482e-07,1.1558035598798166e-06,2.233060315420517e-06
96,8.239104563537485e-07,6.271507596049575e-07,2.0137298132826273e-06,3.551008009965222e-06,5.402979075047696e-06,7.212946141712256e-07,9.498569205827179e-07,2.663823700404005e-06,2.7721601408415345e-05,2.2134071361468665e-06,1.79514131083279e-06,0.00013525935992166486,9.37791251199035e-07,8.056231649962463e-07,1.1502859929727238e-06,2.136320067154864e-06
97,8.174179102207237e-07,6.270632765359418e-07,2.0339115230099324e-06,3.5773953713752065e-06,5.892644153258949e-06,7.302527478931817e-07,9.517216962916706e-07,2.778785101402583e-06,2.7356748128554454e-05,2.2460155646815425e-06,1.7862625814758517e-06,0.00013180564240690475,9.421608094353208e-07,8.230779566770134e-07,1.1474949912092482e-06,2.042244971713238e-06
98,8.08886085011076e-07,6.298777747373927e-07,2.055377949648491e-06,3.5976002847149172e-06,6.397866879509677e-06,7.384408653314135e-07,9.529130597721294e-07,2.8956749963338843e-06,2.6908265070251936e-05,2.281039247164991e-06,1.772952747400639e-06,0.00012769507358927878,9.465452232674019e-07,8.428300361467689e-07,1.1479042299023728e-06,1.951919220548206e-06
99,7.989303431734303e-07,6.356304254006888e-07,2.0776088519919152e-06,3.611589831539431e-06,6.911413244168654e-06,7.456155316239484e-07,9.532764250105826e-07,3.012385764457249e-06,2.6388357053096123e-05,2.317745883187667e-06,1.7551393440480983e-06,0.00012300064458513875,9.508032429007877e-07,8.640179479179546e-07,1.1519422777931442e-06,1.8662852790561849e-06
100,7.882373081114645e-07,6.443550945919114e-07,2.100167837675378e-06,3.6189547889216145e-06,7.4253652286167244e-06,7.51467484460094e-07,9.52864447726777e-07,3.1262299771378974e-06,2.5804579033607184e-05,2.3549434016968717e-06,1.7328334157292339e-06,0.00011782550047775752,9.54726630819023e-07,8.857214469429232e-07,1.1598958313140027e-06,1.7862039159962745e-06
101,7.774728328344787e-07,6.561109584271184e-07,2.1227345256046725e-06,3.619119538755229e-06,7.931441923532323e-06,7.556519122138008e-07,9.520016988114728e-07,3.2339242718728007e-06,2.5160843357241318e-05,2.3910184658231166e-06,1.70642459664785e-06,0.00011228968717688824,9.580473382971874e-07,9.070608581600297e-07,1.1718604626381956e-06,1.7124528921763632e-06
102,7.672044135756571e-07,6.709429279816401e-07,2.1450419820401975e-06,3.6114872997327346e-06,8.421354934058924e-06,7.578525211807823e-07,9.511889512629861e-07,3.3317687466227678e-06,2.4459901179717862e-05,2.424102897017319e-06,1.6767812684744553e-06,0.0001065148240594738,9.60587460819979e-07,9.272400542709124e-07,1.1877786697596716e-06,1.645653324261699e-06
103,7.578693894798052e-07,6.88814841292828e-07,2.1667453972704963e-06,3.5955497855569117e-06,8.887223890276911e-06,7.577937362214448e-07,9.509291895362723e-07,3.4160770426246793e-06,2.3706967659826236e-05,2.452379795489696e-06,1.6450540754447214e-06,0.00010061125337986086,9.623975581101532e-07,9.455487020184895e-07,1.2075089724794535e-06,1.5862441341505552e-06
104,7.497809153369869e-07,7.095755047384362e-07,2.1874079293014805e-06,3.5709607124632334e-06,9.322065918529022e-06,7.552556172494912e-07,9.516218639261824e-07,3.4838206402635716e-06,2.291230526088796e-05,2.474404555890557e-06,1.6124014290386273e-06,9.467122447517785e-05,9.637211082339188e-07,9.613702664369067e-07,1.230845112581438e-06,1.5345081721205204e-06
105,7.431449782559956e-07,7.329573600046658e-07,2.206674213130515e-06,3.537521139506771e-06,9.720285319081622e-06,7.501929328247402e-07,9.535695249962763e-07,3.5332270700175315e-06,2.2090864214390633e-05,2.4892989436997463e-06,1.5798155052115583e-06,8.87687276006096e-05,9.64841881447903e-07,9.741718560387938e-07,1.2574549625132223e-06,1.4905741310161614e-06
106,7.380640775459127e-07,7.585822271878905e-07,2.2244851362074455e-06,3.4951289183478954e-06,1.0077957629007193e-05,7.428870300831494e-07,9.570079482296841e-07,3.5639578164433967e-06,2.1259605494851473e-05,2.496771856167739e-06,1.5480876463908872e-06,8.2962215505912e-05,9.660060353063006e-07,9.83524419952867e-07,1.2867901572725319e-06,1.4543853503443655e-06
107,7.345373107115533e-07,7.859886156996845e-07,2.2412071441228468e-06,3.44379815417647e-06,1.0392678920685126e-05,7.339642984544487e-07,9.620864108683802e-07,3.5766860519120846e-06,2.043457219858223e-05,2.4969707245669578e-06,1.5178846544811773e-06,7.729684725499935e-05,9.674458887943222e-07,9.892364114414918e-07,1.3180576198669376e-06,1.4257146145493185e-06
108,7.324750503776604e-07,8.147004434704023e-07,2.2576458320728093e-06,3.383746641340145e-06,1.066294590934888e-05,7.242527135976017e-07,9.688478359176005e-07,3.572335276545535e-06,1.9629003523536292e-05,2.4901989073321e-06,1.4898170052410477e-06,7.180687539004682e-05,9.693739591791643e-07,9.914605812583417e-07,1.3503532602423506e-06,1.4042562483116587e-06
109,7.317106638691356e-07,8.442851366841151e-07,2.2749170631550763e-06,3.3154449337352486e-06,1.0887211287993679e-05,7.145954172773741e-07,9.772541364165232e-07,3.551567194465616e-06,1.885290669809149e-05,2.4766294559908405e-06,1.4644211928257315e-06,6.651958348935115e-05,9.719076002176222e-07,9.905919698764395e-07,1.3829571272373674e-06,1.3896794259041548e-06
110,7.320012350176501e-07,8.74359007813619e-07,2.2941884767699293e-06,3.2395692493260734e-06,1.1062911200092313e-05,7.057324693093281e-07,9.872033816967131e-07,3.5148429888655977e-06,1.8114138743866873e-05,2.456203617999056e-06,1.442106159317258e-06,6.14598103193027e-05,9.750130062179557e-07,9.870456354219491e-07,1.4155576280718382e-06,1.3815641230696105e-06
111,7.330352465759074e-07,9.0458949338591e-07,2.316406613362e-06,3.156923847936236e-06,1.1186100920172566e-05,6.982634476708242e-07,9.98525609553859e-07,3.462792335203421e-06,1.7420086378650922e-05,2.428828575125561e-06,1.4231077894260935e-06,5.6652679873075256e-05,9.785298894714818e-07,9.811146821006761e-07,1.4481656117876236e-06,1.3793026217012937e-06
112,7.344571929853252e-07,9.347004850132019e-07,2.342138816247977e-06,3.0684273216228738e-06,1.1252113638002623e-05,6.926596094016831e-07,1.0109913887995964e-06,3.396489240451632e-06,1.677842091535111e-05,2.394746330713988e-06,1.4074457260192382e-06,5.212286974237733e-05,9.822321123731217e-07,9.72949538476141e-07,1.4808152753978585e-06,1.3820749542327467e-06
113,7.359168466285016e-07,9.644303962039835e-07,2.371554633867488e-06,2.975167521301585e-06,1.1256764581890815e-05,6.89316566613409e-07,1.0242962059249536e-06,3.317528831434057e-06,1.6196393289595497e-05,2.354741052913594e-06,1.3949011347634675e-06,4.7891116188390654e-05,9.858542333364183e-07,9.625829625177746e-07,1.513331044251272e-06,1.3889308502806574e-06
114,7.371387387049765e-07,9.934657046102769e-07,2.4045116021109096e-06,2.8784692798487614e-06,1.1197455781809228e-05,6.886149841283562e-07,1.038019669285459e-06,3.2279840003319605e-06,1.5679416902259507e-05,2.310029649767766e-06,1.3850683911850834e-06,4.397124074883882e-05,9.891199870838848e-07,9.49981904813278e-07,1.5452528839441503e-06,1.3989178768844658e-06
115,7.379711455399239e-07,1.021397792893852e-06,2.440702704446685e-06,2.7799445429087226e-06,1.1074004050730537e-05,6.909245203291554e-07,1.0516143307006618e-06,3.130255703858884e-06,1.5229911547816219e-05,2.2620159935827904e-06,1.3774907205839902e-06,4.036985314120334e-05,9.918484429040122e-07,9.351524828283312e-07,1.575861247938241e-06,1.4111471608818196e-06
116,7.383783629325502e-07,1.047747403056016e-06,2.47975300762156e-06,2.6814803001941965e-06,1.088908229309069e-05,6.965508885817752e-07,1.0644147894370875e-06,3.0267817838805467e-06,1.4846934431665915e-05,2.212117329858132e-06,1.3717757278705856e-06,3.7087769985414295e-05,9.940896716667063e-07,9.18257085726218e-07,1.6042877276506222e-06,1.4248105284075113e-06
117,7.38382892348792e-07,1.0720869223735503e-06,2.521152577339727e-06,2.585077914030021e-06,1.0648117203346287e-05,7.056836922942901e-07,1.0756772997543312e-06,2.919735196087977e-06,1.4526617780917037e-05,2.161674500624352e-06,1.3675905540095298e-06,3.4122616214832785e-05,9.961540252531513e-07,8.996670390746274e-07,1.6296956152733017e-06,1.439264150094238e-06
118,7.380009507312619e-07,1.0941723591118488e-06,2.564078911296723e-06,2.4925745446609835e-06,1.0358689496090795e-05,7.183726421749751e-07,1.0846839124296565e-06,2.8109215563322714e-06,1.4263078951286003e-05,2.1118557516570813e-06,1.3646468462491479e-06,3.147194522499667e-05,9.984895088602984e-07,8.799167829506415e-07,1.6514437370277131e-06,1.4541138695921004e-06
119,7.372403754560891e-07,1.1139656076054123e-06,2.607289608264683e-06,2.4054736793956317e-06,1.0029661694753664e-05,7.345431414207028e-07,1.0908576159081967e-06,2.701849213879652e-06,1.404943517872443e-05,2.063539083184797e-06,1.362823097393997e-06,2.9134021104443455e-05,1.0015420954036948e-06,8.595803175845464e-07,1.6691631828868089e-06,1.469175483533039e-06
120,7.36171108626791e-07,1.131562647112199e-06,2.649224752735856e-06,2.3250581710181993e-06,9.670247718639616e-06,7.540538666590964e-07,1.0938428334490559e-06,2.593769813514174e-06,1.3878698874801993e-05,2.017252350873527e-06,1.3623073715170702e-06,2.7106098753337428e-05,1.0057226820872568e-06,8.391532503975365e-07,1.6827570908166194e-06,1.4844494422840617e-06
121,7.349665212527117e-07,1.1471269935944627e-06,2.688342505749936e-06,2.2526936998996305e-06,9.28912604231776e-06,7.767514462340206e-07,1.0935677628184104e-06,2.4876172268168995e-06,1.3744377243681998e-05,1.9731980593703222e-06,1.3635838479141693e-06,2.5383786564908337e-05,1.0114098469344714e-06,8.190121402838702e-07,1.6923572198220705e-06,1.5002226881290683e-06
122,7.338421245247518e-07,1.1608674639634642e-06,2.723589777735344e-06,2.190115711490807e-06,8.893687844025633e-06,8.024773295995923e-07,1.0902546237622517e-06,2.3839565118957397e-06,1.3640638128817716e-05,1.931322546178172e-06,1.3673086164544962e-06,2.3962067551841178e-05,1.018909120737893e-06,7.994407381956199e-07,1.698222256379725e-06,1.517088424045333e-06
123,7.329480387259332e-07,1.1730109552679331e-06,2.754801339398699e-06,2.139585913331729e-06,8.48964800379921e-06,8.31037757752015e-07,1.084317192721097e-06,2.28307367120412e-06,1.3562033498021297e-05,1.8914317665701076e-06,1.3742047526585954e-06,2.283531393247151e-05,1.0284109960622303e-06,7.806715972202362e-07,1.7005659134109874e-06,1.5357531148316751e-06
124,7.323059399031206e-07,1.1837511433043444e-06,2.782810894720532e-06,2.1039147774918386e-06,8.08118111854236e-06,8.621671377337086e-07,1.076200944198351e-06,2.1851981290143455e-06,1.3502803187845255e-05,1.8533320421020803e-06,1.3850058532305213e-06,2.1996633657071063e-05,1.0399721122539986e-06,7.629104217374591e-07,1.699403267239697e-06,1.5568230780010195e-06
125,7.318265653781936e-07,1.1932422066246754e-06,2.8092083087272335e-06,2.0863821460361025e-06,7.671388331004275e-06,8.95514297141476e-07,1.0662984411067042e-06,2.0906872873389084e-06,1.3456120288645906e-05,1.816881684038367e-06,1.4003979913339287e-06,2.143829147582684e-05,1.0535018140017855e-06,7.463586792884163e-07,1.6945082038505304e-06,1.58075938356854e-06
126,7.313938347085728e-07,1.2016497280282918e-06,2.835882971584892e-06,2.090576760534868e-06,7.262747757739783e-06,9.306823109441497e-07,1.0549559522088956e-06,2.000005891762651e-06,1.3414531285329889e-05,1.7818966455847543e-06,1.420938687063042e-06,2.11524935069321e-05,1.0687528983723087e-06,7.312375293451722e-07,1.6854497592644623e-06,1.6079742294289367e-06
127,7.309538776411259e-07,1.2091733443821858e-06,2.8645728443308564e-06,2.1201914056050933e-06,6.857396556448579e-06,9.672929327093874e-07,1.0424731150245707e-06,1.9135520504785267e-06,1.3372268160881611e-05,1.7480346401998163e-06,1.4470148334999409e-06,2.1132308802125913e-05,1.0853093359641413e-06,7.177799773839839e-07,1.6716916883159e-06,1.6389386583677865e-06
128,7.305264210558031e-07,1.2160261702700779e-06,2.89656910156096e-06,2.1788357126162704e-06,6.457273774928254e-06,1.0049884534133053e-06,1.029069789871445e-06,1.8315597549696474e-06,1.3327672178430322e-05,1.7148368764623407e-06,1.4788855552563894e-06,2.137277699128437e-05,1.1025734467489337e-06,7.061915178498407e-07,1.6528133037682241e-06,1.6741773745974387e-06
129,7.301347406327101e-07,1.2224363568869791e-06,2.932618168194298e-06,2.2699006989113815e-06,6.064172746342904e-06,1.0433446793332918e-06,1.0148870681293865e-06,1.7541765765255905e-06,1.3283402798931797e-05,1.6819258186689369e-06,1.516742704457202e-06,2.1870575468767598e-05,1.1198064475020367e-06,6.966114576128537e-07,1.6287641866388605e-06,1.7141164353976951e-06
130,7.297545565985375e-07,1.228687168289202e-06,2.972956581887135e-06,2.3964769847755707e-06,5.679730980476576e-06,1.0817722212220203e-06,1.000042791114425e-06,1.681597076137703e-06,1.324435270551713e-05,1.6491781099766539e-06,1.5606948709395283e-06,2.2622167250096962e-05,1.1362751948596413e-06,6.890948721581713e-07,1.5999671366766075e-06,1.7589008241650334e-06
131,7.293503666881945e-07,1.235151671931611e-06,3.0173434160298675e-06,2.561321492988509e-06,5.305388154183597e-06,1.1194892622295746e-06,9.846829852257788e-07,1.614150946486948e-06,1.3215084039108912e-05,1.6167356606148804e-06,1.610675541074938e-06,2.3622360729261107e-05,1.1514375793900374e-06,6.83611789040448e-07,1.5672477163377202e-06,1.808310169896474e-06
132,7.289347001126998e-07,1.2422675110523523e-06,3.065023846530513e-06,2.7668322265209267e-06,4.942335629877193e-06,1.1555706260738038e-06,9.689891701251399e-07,1.5523407967966346e-06,1.3198601019446322e-05,1.5848674827227354e-06,1.6663715168012513e-06,2.486400889602528e-05,1.165009084689784e-06,6.800663507173308e-07,1.531699359542608e-06,1.8617795485925777e-06
133,7.285560230867781e-07,1.2504332898579532e-06,3.1147186696344877e-06,3.0150054907853e-06,4.591471175961516e-06,1.1890347330575003e-06,9.531555083607529e-07,1.4968098048589081e-06,1.3196716450560261e-05,1.5538184099644523e-06,1.7272203805666964e-06,2.633806882601121e-05,1.1768850910277148e-06,6.783301684868491e-07,1.4945478940304683e-06,1.9184809598798754e-06
134,7.28231786048856e-07,1.2598791979775692e-06,3.16471909374133e-06,3.3074513789441454e-06,4.253381501810516e-06,1.218964374384829e-06,9.373447153497896e-07,1.4482194907589177e-06,1.3210543046820784e-05,1.523786608622456e-06,1.7924244006305997e-06,2.8033368073426803e-05,1.18706257001873e-06,6.782404987903286e-07,1.4570129020282496e-06,1.977435331751437e-06
135,7.279047013666726e-07,1.2705819845019401e-06,3.2129786697366273e-06,3.6455011206657826e-06,3.928365771989609e-06,1.2446739918243997e-06,9.216357297660901e-07,1.4071050451337783e-06,1.324006700697339e-05,1.4949937687296163e-06,1.8610120672396732e-06,2.993596901310867e-05,1.195634652150582e-06,6.79572220112152e-07,1.4201793039368993e-06,2.037618686882588e-06
136,7.274373374035727e-07,1.2822340198827835e-06,3.2571757193728724e-06,4.030282034457908e-06,3.6164950450306102e-06,1.2658590150425006e-06,9.060310876621633e-07,1.3738048485668532e-06,1.3283742687949216e-05,1.4677232617778832e-06,1.932009715482336e-06,3.2028119963782735e-05,1.2027758548867827e-06,6.820880678755748e-07,1.3849337362529616e-06,2.0979809211175557e-06
137,7.266252219282397e-07,1.2942458990651146e-06,3.294991352079509e-06,4.462685502419596e-06,3.3177161913158387e-06,1.282584843040591e-06,8.905571698656125e-07,1.3484563137693347e-06,1.333916765364807e-05,1.4423237860219333e-06,2.0045569962194824e-06,3.4287220597091706e-05,1.2086691277866851e-06,6.856897813344082e-07,1.3519817813039563e-06,2.1573369886200184e-06
138,7.252514533676399e-07,1.30580974725222e-06,3.3246543158738836e-06,4.943317811353292e-06,3.0320028363184285e-06,1.2950886836072593e-06,8.75352035586815e-07,1.3309926307598584e-06,1.3404146183985141e-05,1.4191991144667745e-06,2.077796048222486e-06,3.668593807366642e-05,1.2134370339339926e-06,6.90517263572387e-07,1.3218853147286909e-06,2.2142819762374813e-06
139,7.231802571569415e-07,1.3160711745830937e-06,3.345352720435764e-06,5.4725081135429886e-06,2.7595101957779636e-06,1.3036011957259016e-06,8.606411791616197e-07,1.3211349748667897e-06,1.3476944510950706e-05,1.398734105400058e-06,2.150713264264957e-06,3.919372728074011e-05,1.2171090127181853e-06,6.968671139906485e-07,1.2950651347528806e-06,2.267293150953486e-06
140,7.204106115420978e-07,1.3243590905595546e-06,3.357235799720887e-06,6.0502983019135445e-06,2.5006843586701774e-06,1.3083604310561417e-06,8.46662050868146e-07,1.3184084740833643e-06,1.3555554863540002e-05,1.3811847852546174e-06,2.222164490698095e-06,4.177808854989451e-05,1.2196173698930723e-06,7.050349215127923e-07,1.271802292608726e-06,2.3149384078057098e-06
141,7.170404975517796e-07,1.3303111986157052e-06,3.3612207441654285e-06,6.676261658504274e-06,2.2562920336711577e-06,1.3097243620182542e-06,8.336130331600308e-07,1.3222146349431303e-06,1.3636782221554864e-05,1.366660802297575e-06,2.2909657574904163e-06,4.4403783032260615e-05,1.2208193406048271e-06,7.152453571674135e-07,1.25228125717262e-06,2.356041442876196e-06
142,7.131779896370405e-07,1.333789851856877e-06,3.358851171916844e-06,7.349099668742907e-06,2.027322963638205e-06,1.308207638126002e-06,8.216087776398868e-07,1.3319609815346823e-06,1.3716455532070598e-05,1.3552146896862087e-06,2.3558603792677744e-06,4.703052118531962e-05,1.2204920773070212e-06,7.276484194971575e-07,1.2366154386436398e-06,2.3897780023581044e-06
143,7.088657607462139e-07,1.3346870305266966e-06,3.352122047545548e-06,8.066164911400625e-06,1.814764667619722e-06,1.3043902092704224e-06,8.106484181435791e-07,1.347162774962216e-06,1.3791256459065846e-05,1.3468780344067051e-06,2.415491892052851e-06,4.96117910418337e-05,1.2183109624011034e-06,7.422985437059061e-07,1.2248040213234116e-06,2.415690612926573e-06
144,7.040765222057875e-07,1.3328349560261536e-06,3.343151817985189e-06,8.823120304988944e-06,1.6193665135487756e-06,1.2987764905136387e-06,8.006539791829347e-07,1.3674460509878645e-06,1.3860875740711338e-05,1.3415761998788083e-06,2.4685740472019745e-06,5.209596872911539e-05,1.213899734115887e-06,7.591343306199088e-07,1.2166918891918443e-06,2.4335562562864975e-06
145,6.987940294411894e-07,1.3281090040669231e-06,3.33382109091879e-06,9.613794716562194e-06,1.4415284933562983e-06,1.2917158962892144e-06,7.915789705413673e-07,1.392470979666226e-06,1.3928495794428227e-05,1.3390670730228442e-06,2.5141116096562124e-06,5.442733472629064e-05,1.2069331751554005e-06,7.7798900506034e-07,1.2119848807302318e-06,2.4431369977979184e-06
146,6.931175997076784e-07,1.3205990277397597e-06,3.325542144350752e-06,1.0430124741866444e-05,1.2813286010657787e-06,1.283392074074139e-06,7.834860385355704e-07,1.4218142899591339e-06,1.399929675289228e-05,1.339009900242329e-06,2.5513865116778785e-06,5.6545061868199144e-05,1.1972243789511514e-06,7.986076169131524e-07,1.2102668007289501e-06,2.4440452313540484e-06
147,6.872897540109673e-07,1.3106736186298927e-06,3.319161487713765e-06,1.12620508130668e-05,1.138594986284113e-06,1.2738431218861985e-06,7.765095572802198e-07,1.4548432987143363e-06,1.4079308181058296e-05,1.3410737805301968e-06,2.5797353558381485e-06,5.838292834953079e-05,1.1847981056890466e-06,8.206654931483637e-07,1.2110161606751072e-06,2.4358923736142493e-06
148,6.816214305222566e-07,1.2988782710462717e-06,3.314932383037126e-06,1.2097324568404252e-05,1.0129430683594444e-06,1.2630389501929665e-06,7.707642685043276e-07,1.4906280981891332e-06,1.417594101552542e-05,1.344968432888634e-06,2.5984436226420552e-06,5.987511604443378e-05,1.1699489253792608e-06,8.437890525590711e-07,1.2137100757600703e-06,2.4185800075521715e-06
149,6.764143456076678e-07,1.2857902219370758e-06,3.3125797696788758e-06,1.2921370988382662e-05,9.037914558543765e-07,1.2509710855938834e-06,7.663136596229201e-07,1.5279383049059081e-06,1.4298108017424237e-05,1.3503914852557906e-06,2.6069131799441237e-06,6.0968799780866523e-05,1.1532176169142314e-06,8.675453297252731e-07,1.2179984164876248e-06,2.3925282335248803e-06
150,6.71960102244462e-07,1.2719839529755142e-06,3.3115236277966847e-06,1.3717591225117204e-05,8.10424749529906e-07,1.2376376404947343e-06,7.631980062438369e-07,1.5653431894350812e-06,1.4454624969078873e-05,1.3569647472189313e-06,2.604901847789165e-06,6.163608615078638e-05,1.1352476646436564e-06,8.914343035654957e-07,1.2237782818478678e-06,2.358778089911093e-06
151,6.685561925570781e-07,1.258064398495393e-06,3.3112115270825473e-06,1.4468422738506435e-05,7.321116131119066e-07,1.2229818432932137e-06,7.614345162616233e-07,1.6013855667678758e-06,1.465247540801453e-05,1.364257895941146e-06,2.5925996806394443e-06,6.187512084747116e-05,1.1166240545622182e-06,9.149632186325503e-07,1.2310744454209774e-06,2.318914773325588e-06
152,6.664697148989347e-07,1.2446311035242827e-06,3.3113408196887487e-06,1.5157032065542755e-05,6.681954868497704e-07,1.206896356823038e-06,7.609658596283183e-07,1.6347731410576593e-06,1.4895995623777818e-05,1.3718920431210977e-06,2.5704842550403454e-06,6.169956536394573e-05,1.097797777746062e-06,9.377362992575753e-07,1.2398479501554969e-06,2.274788057440074e-06
153,6.658772436628348e-07,1.232177592927189e-06,3.3117730201074027e-06,1.5769181674949682e-05,6.180986424215739e-07,1.1892261059691077e-06,7.616385545267807e-07,1.6645499584263943e-06,1.5186507753883814e-05,1.3795692891119839e-06,2.5391076032024944e-06,6.113070957359508e-05,1.0790524843018999e-06,9.594414583417673e-07,1.249880021395408e-06,2.2282210758137064e-06
154,6.668330261900156e-07,1.2210271198028945e-06,3.3122604229351704e-06,1.62947047043012e-05,5.812733562071961e-07,1.1697519514086844e-06,7.632739301216699e-07,1.6902101981277983e-06,1.5522119843708093e-05,1.3869820041392793e-06,2.499100488623843e-06,6.0201541018385164e-05,1.0604690849860562e-06,9.798061697694311e-07,1.260741667677904e-06,2.1809233809608876e-06
155,6.692943067263331e-07,1.2113607741199644e-06,3.3123309509713192e-06,1.6728045188790457e-05,5.571498772310878e-07,1.148266672524727e-06,7.657736511260316e-07,1.7116992317023501e-06,1.5897705302422223e-05,1.393765512944936e-06,2.451418222002209e-06,5.8960854886156383e-05,1.0419344113053174e-06,9.986228107092463e-07,1.2718509380172811e-06,2.134508823525814e-06
156,6.731973636041359e-07,1.2033180535101592e-06,3.311411063552373e-06,1.7067595182712327e-05,5.450968161101618e-07,1.124719486005667e-06,7.691521428374593e-07,1.7292984290218207e-06,1.630486700114717e-05,1.3996032478281246e-06,2.3974921608189532e-06,5.746626702379564e-05,1.0232201783260223e-06,1.0157678924461616e-06,1.2826526459755207e-06,2.0904049993598123e-06
157,6.785105354431412e-07,1.1970705291031888e-06,3.3089328431160943e-06,1.7313942363279094e-05,5.44414854060406e-07,1.0992908131070275e-06,7.734674459435859e-07,1.7434601650625425e-06,1.673192856504375e-05,1.4043627062978944e-06,2.3390558616302027e-06,5.577305704141297e-05,1.0041024206471664e-06,1.0311780109534243e-06,1.2928270645379287e-06,2.049697517333502e-06
158,6.85201948696173e-07,1.1927856928945939e-06,3.3042965742136784e-06,1.746759697425866e-05,5.543929645953478e-07,1.0723524505398624e-06,7.787199442239368e-07,1.7546522799006807e-06,1.7164398600241488e-05,1.408089684443516e-06,2.2777887564941814e-06,5.392792544324145e-05,9.844751646868643e-07,1.0448554327187458e-06,1.302330822996592e-06,2.0131027276313793e-06
159,6.931698116990465e-07,1.190572549883095e-06,3.2968193495135e-06,1.7527409677757386e-05,5.744097192202382e-07,1.044365507510836e-06,7.848051533142029e-07,1.763226762368131e-06,1.7586131458889155e-05,1.410890448380118e-06,2.215063689859627e-06,5.196728483297516e-05,9.6438776404435e-07,1.0568828845514641e-06,1.3112352119137141e-06,1.9811020900559276e-06
160,7.022048422808747e-07,1.1905216673003994e-06,3.285793968610689e-06,1.7490757625653752e-05,6.039998847687623e-07,1.0157748007795729e-06,7.915460062620379e-07,1.7693174504453802e-06,1.7980779503978568e-05,1.412846811212005e-06,2.151885865760314e-06,4.991773454198181e-05,9.439712565501676e-07,1.067399384480952e-06,1.3195769954547325e-06,1.9540701239015973e-06
161,7.119841873243412e-07,1.1927604680385457e-06,3.2706598646290757e-06,1.735517394288253e-05,6.428239295409937e-07,9.869633930970322e-07,7.987602924879568e-07,1.772814095561506e-06,1.83328568755287e-05,1.413993853869639e-06,2.0888946547951817e-06,4.779889653590905e-05,9.233640151584262e-07,1.0765736804277792e-06,1.3273652005683197e-06,1.9322652829825745e-06
162,7.220780892401319e-07,1.1974380425882592e-06,3.2512338752578983e-06,1.7120139847444675e-05,6.905803730230096e-07,9.583177408849933e-07,8.062936160517937e-07,1.7734797329565016e-06,1.8628238304278144e-05,1.414313817213134e-06,2.026330437977358e-06,4.562794011753417e-05,9.02729947014197e-07,1.0845645357710958e-06,1.334610413193623e-06,1.9157424398797124e-06
163,7.319815942395421e-07,1.2046859797890592e-06,3.227889437958612e-06,1.6788224262126806e-05,7.469526061507936e-07,9.303402894717681e-07,8.139926827740904e-07,1.7711772305761652e-06,1.885465115020099e-05,1.4137016122843433e-06,1.9640107884080436e-06,4.34235788340559e-05,8.822695316005071e-07,1.0914339201920417e-06,1.3412575553732991e-06,1.9042976843456915e-06
164,7.412050868245037e-07,1.2145816125085245e-06,3.2014973456574595e-06,1.636551860839673e-05,8.116121601284964e-07,9.036678382185631e-07,8.216793036269817e-07,1.7660573388430557e-06,1.9002165642086905e-05,1.4119181971327843e-06,1.9014270091232799e-06,4.120747802809465e-05,8.62143537021165e-07,1.097075476774087e-06,1.3471057591631955e-06,1.8974554086148395e-06
165,7.49387011459033e-07,1.2270808919132941e-06,3.173073100176182e-06,1.586153222895739e-05,8.842249997601231e-07,8.789613562222378e-07,8.291869207071362e-07,1.7585963875544586e-06,1.906277305362432e-05,1.4086629255078405e-06,1.8379939591294788e-06,3.9002461222659e-05,8.423984769052942e-07,1.1012258430337369e-06,1.351818258271794e-06,1.894462062735583e-06
166,7.563069380818233e-07,1.241934982505814e-06,3.143382633426741e-06,1.5288621003801933e-05,9.644187993224205e-07,8.567842059188956e-07,8.364042373179413e-07,1.7494904429451575e-06,1.9029788082972463e-05,1.4037452164226967e-06,1.7733413927973128e-06,3.6829079101817106e-05,8.229945129679351e-07,1.103569417050025e-06,1.3550365562850903e-06,1.8942863005611603e-06
167,7.617906714810004e-07,1.2586640662054934e-06,3.112809222051845e-06,1.466107018566531e-05,1.0517159292087058e-06,8.375734975935723e-07,8.432317335708501e-07,1.739477097279576e-06,1.8899135948206007e-05,1.3971406555364962e-06,1.7074876126785032e-06,3.470309263902243e-05,8.0391542902892e-07,1.1038913739315243e-06,1.3565551160446015e-06,1.8956396043146007e-06
168,7.656280017753465e-07,1.2766402621053139e-06,3.081506339516745e-06,1.3994111801340697e-05,1.1454685498126174e-06,8.216756950692403e-07,8.494912339223842e-07,1.7291507742814539e-06,1.8671968591206452e-05,1.3889257227189724e-06,1.6408095059054787e-06,3.263549518172661e-05,7.852534312595091e-07,1.102150711755425e-06,1.3564399553901798e-06,1.897075929287474e-06
169,7.675464849953999e-07,1.2952389899159111e-06,3.049649627427798e-06,1.3303071508191358e-05,1.244858981055073e-06,8.093600365560184e-07,8.549141249983215e-07,1.7188238921714355e-06,1.8356165234107713e-05,1.37927065731817e-06,1.5739025328229238e-06,3.063447406054365e-05,7.672008697034546e-07,1.0983942055831153e-06,1.3549702763292041e-06,1.897248400190899e-06
170,7.672336185751244e-07,1.3139271352264273e-06,3.0175935897117237e-06,1.2602578529338375e-05,1.3490370319788987e-06,8.007970277731547e-07,8.592313649901652e-07,1.7084954214851447e-06,1.7965800062699127e-05,1.368495671400432e-06,1.507525425704146e-06,2.870671355772699e-05,7.499734940535116e-07,1.0926320774085027e-06,1.3524792657709554e-06,1.8952486943225638e-06
171,7.644229375383684e-07,1.3321969107362422e-06,2.9858158787639975e-06,1.1905763158054604e-05,1.45740050069003e-06,7.960570423430512e-07,8.622519502679803e-07,1.6979595816150312e-06,1.7518886939810886e-05,1.3570469324482857e-06,1.442612509164684e-06,2.6856497922051055e-05,7.337385158099729e-07,1.0848287532728498e-06,1.349299976506732e-06,1.89078822671619e-06
172,7.589845444657528e-07,1.3494252131863608e-06,2.9546975575310255e-06,1.12236745204546e-05,1.569893787904322e-06,7.951380730320581e-07,8.63850636107606e-07,1.6869773509639422e-06,1.7034225657955243e-05,1.3453587035148026e-06,1.380179389980505e-06,2.5084442490355808e-05,7.185917553685931e-07,1.0749700214041299e-06,1.345807428918576e-06,1.8840521682731057e-06
173,7.509316866875445e-07,1.3648123601341704e-06,2.9243459357030322e-06,1.056522716021677e-05,1.6871333572015872e-06,7.979669190429343e-07,8.639534870829321e-07,1.675370213449622e-06,1.6529217332205486e-05,1.3337199027710319e-06,1.3211450620952037e-06,2.3387962914287776e-05,7.045472501823881e-07,1.0631099247530466e-06,1.3424005159189915e-06,1.8754020279584044e-06
174,7.403815444007335e-07,1.377457271240139e-06,2.894583387505233e-06,9.93752465679325e-06,1.810264357145822e-06,8.043731658337899e-07,8.625996986331373e-07,1.6630023796992075e-06,1.601968646446927e-05,1.3222258126365165e-06,1.2662162861539917e-06,2.176267084651288e-05,6.915074500802776e-07,1.0494158445078887e-06,1.339452437658356e-06,1.8652653288318069e-06
175,7.275663096778321e-07,1.3865344185772855e-06,2.864977822984845e-06,9.346071444929288e-06,1.9406332416542354e-06,8.141152289425268e-07,8.599929884240726e-07,1.6497583908423792e-06,1.5520359590509747e-05,1.3107701918254222e-06,1.2158579450480745e-06,2.020324739476147e-05,6.792639855537686e-07,1.0342320093370566e-06,1.3372932535087677e-06,1.8542243489758118e-06
176,7.128551484388943e-07,1.3914995743554575e-06,2.8347569619017805e-06,8.794666742585946e-06,2.079473794458131e-06,8.269747133787167e-07,8.564819425644536e-07,1.6356100224006328e-06,1.504455986969642e-05,1.29903729140464e-06,1.1703002222362074e-06,1.8703893415904385e-05,6.675773302437361e-07,1.0181026070930267e-06,1.3361508439227303e-06,1.8430777397216098e-06
177,6.966936203235508e-07,1.3922064128484565e-06,2.8026812517961645e-06,8.285179752687906e-06,2.2277583154265698e-06,8.428256633447652e-07,8.525202924290456e-07,1.6207335125423904e-06,1.4603350296702844e-05,1.2865311160919743e-06,1.1295729793663063e-06,1.7258781342308887e-05,6.562976179470241e-07,1.0017176680260785e-06,1.3360732176928604e-06,1.8327946859866523e-06
178,6.795193070215339e-07,1.3888333114152308e-06,2.7670468534466828e-06,7.81744727895814e-06,2.3861974106681445e-06,8.616202391828495e-07,8.486179355224191e-07,1.6055405957476172e-06,1.420505359705017e-05,1.2726828930018654e-06,1.0935680748223708e-06,1.58624166637285e-05,6.454419123490511e-07,9.858110908461213e-07,1.3369341387635018e-06,1.8244155761207928e-06
179,6.617373507775747e-07,1.3816852735475252e-06,2.7258487483334418e-06,7.3893362003464455e-06,2.5552403137600987e-06,8.833339378543975e-07,8.452573146199744e-07,1.5905458798228694e-06,1.3855487968425461e-05,1.2570239657916982e-06,1.0620766601908435e-06,1.4509778503662495e-05,6.351868195015168e-07,9.710529903471142e-07,1.3384792881982786e-06,1.8189388146890906e-06
180,6.437200768476602e-07,1.3710779905811026e-06,2.677055824085451e-06,6.996896776982267e-06,2.734980122947853e-06,9.079076837506373e-07,8.428088923175224e-07,1.5761643909514734e-06,1.3558358751360837e-05,1.2393483377743874e-06,1.0347721945304446e-06,1.3196393620671887e-05,6.258002158049041e-07,9.579728225740506e-07,1.3403280992242838e-06,1.8171935133091944e-06
181,6.258115715865212e-07,1.3573649550825583e-06,2.6189613740605808e-06,6.634641683175437e-06,2.92503588680447e-06,9.351801083366048e-07,8.414845361900734e-07,1.5625782718713664e-06,1.3315263460528883e-05,1.219754332739771e-06,1.0112217847264796e-06,1.1918604809259195e-05,6.175597805430476e-07,9.46941959424332e-07,1.3419712811913898e-06,1.8197206368718152e-06
182,6.083549741486622e-07,1.340959994755103e-06,2.5505354432641272e-06,6.296121993604271e-06,3.124529749459171e-06,9.648287740582065e-07,8.41320534020163e-07,1.5496986637545646e-06,1.312544722027479e-05,1.1985356277503414e-06,9.909754539318401e-07,1.0674135152653957e-05,6.107010565969761e-07,9.382029143855581e-07,1.3428584586111872e-06,1.8267576445827797e-06
183,5.917086718948197e-07,1.3222930344081108e-06,2.4716712445163317e-06,5.974848554285603e-06,3.3321731513337303e-06,9.9634783022187e-07,8.421869064175698e-07,1.5372294039784562e-06,1.2985592899012265e-05,1.176048327594479e-06,9.736301927591341e-07,9.462889518325419e-06,6.054177641362548e-07,9.319013044273238e-07,1.342571730927818e-06,1.838373895768917e-06
184,5.762278746186241e-07,1.301772412296226e-06,2.3832348907631157e-06,5.665295475826846e-06,3.5464061108221628e-06,1.0290482568956553e-06,8.438321814880187e-07,1.5248726669462831e-06,1.2889693639985783e-05,1.1526785647646981e-06,9.588071196128884e-07,8.287808272658377e-06,6.018937159475605e-07,9.281138347646e-07,1.3409425494706674e-06,1.854617720562449e-06
185,5.622385391452046e-07,1.279757835187319e-06,2.2868725551163605e-06,5.363583400695618e-06,3.765531395004288e-06,1.0620802568038655e-06,8.45953746082118e-07,1.5125821481246093e-06,1.2829135185362613e-05,1.128847836091119e-06,9.4611559302442e-07,7.155323471852163e-06,6.003117536163414e-07,9.268941130783514e-07,1.3379995538375666e-06,1.8755399915455076e-06
186,5.500284164595404e-07,1.2564960791420832e-06,2.1846233486604907e-06,5.06764240401082e-06,3.987797721911564e-06,1.0945298132514696e-06,8.482799010288345e-07,1.5006405780279183e-06,1.2793262983153081e-05,1.104965032853976e-06,9.351351597941765e-07,6.074814540252338e-06,6.008260886979924e-07,9.283172171297235e-07,1.3338669550422146e-06,1.9012014115321485e-06
187,5.398512589780677e-07,1.2320586150908294e-06,2.078535549341996e-06,4.7769787008677696e-06,4.211420284298651e-06,1.1256076869139483e-06,8.506494817782242e-07,1.4894850967689164e-06,1.2770516735747444e-05,1.0814035714544343e-06,9.254102963127163e-07,5.057186787233439e-06,6.035358650099193e-07,9.325049240743116e-07,1.3287986561048524e-06,1.9317713769202066e-06
188,5.31921939691463e-07,1.206353985035692e-06,1.9705123425701803e-06,4.492294432912331e-06,4.434540646386674e-06,1.1548359128364505e-06,8.530369901730574e-07,1.4794553383714074e-06,1.275001741590718e-05,1.0585461568445616e-06,9.164716409954997e-07,4.113835356620565e-06,6.08477216196587e-07,9.396396017079852e-07,1.3232729627947694e-06,1.9675868841269976e-06
189,5.263974745995102e-07,1.1791994058850981e-06,1.8623774615680438e-06,4.215084773827326e-06,4.655107851535099e-06,1.1820987977242842e-06,8.554882357549163e-07,1.4706462339567706e-06,1.2723305978605678e-05,1.036802317845236e-06,9.078779371411967e-07,3.256702542521796e-06,6.156185707843912e-07,9.499318323691409e-07,1.3179498353148675e-06,2.009040305114997e-06
190,5.233700636038294e-07,1.1503949276932195e-06,1.7559287087094747e-06,3.947208620977022e-06,4.870711725493662e-06,1.2075383157231983e-06,8.580573242027349e-07,1.4628803141489325e-06,1.2685541944854041e-05,1.016604151208024e-06,8.99318218867802e-07,2.4984986647643122e-06,6.248510715827325e-07,9.63525540368941e-07,1.3134977741810888e-06,2.056351476915031e-06
191,5.228801946102607e-07,1.1197970321181775e-06,1.6528559743207077e-06,3.690470208104259e-06,5.078504754666325e-06,1.2313957977058792e-06,8.608233110449729e-07,1.4557856981258127e-06,1.2635478637139966e-05,9.984241572801537e-07,8.907512241273776e-07,1.8523209544896823e-06,6.359989355068765e-07,9.804116209310088e-07,1.3104512218136158e-06,2.1093803721235724e-06
192,5.249191492675056e-07,1.0874004616652845e-06,1.5546352857203745e-06,3.4463254431916277e-06,5.275280584387778e-06,1.2538795864060416e-06,8.638968524510008e-07,1.4489952101594938e-06,1.2574200870393817e-05,9.827399053327026e-07,8.824341177387744e-07,1.3311340802376603e-06,6.48861060403206e-07,1.0004131553750282e-06,1.3091827466862627e-06,2.1676149289863095e-06
193,5.294045327883905e-07,1.0533756385919677e-06,1.462497661711074e-06,3.215757011169047e-06,5.4575066147553335e-06,1.2750598894118759e-06,8.673575668274671e-07,1.4423767486452077e-06,1.2503306966326498e-05,9.699368504849766e-07,8.748122157809069e-07,9.476117766890932e-07,6.632468816936877e-07,1.0232298127789238e-06,1.309952413639001e-06,2.2302950941725925e-06
194,5.361518640157309e-07,1.0180040736275319e-06,1.3774152701363245e-06,2.999250909057917e-06,5.62115446610183e-06,1.2947981357667596e-06,8.712220547028628e-07,1.4361384216703101e-06,1.242361944305817e-05,9.602615604710365e-07,8.683917249617281e-07,7.142268503221679e-07,6.790008683635036e-07,1.0485109970591991e-06,1.3129955884818932e-06,2.296487848293392e-06
195,5.448718375327149e-07,9.81570107974044e-07,1.3000661556262017e-06,2.796882757566101e-06,5.761735400460022e-06,1.3127466430251768e-06,8.755246587424392e-07,1.4307377735499466e-06,1.233521546334969e-05,9.538791522132154e-07,8.636981801220175e-07,6.433526223741493e-07,6.960179216798964e-07,1.0759569452270162e-06,1.3186138681728437e-06,2.3650578810077004e-06
196,5.552020557963917e-07,9.44344716022873e-07,1.2308256701132452e-06,2.6086060418992996e-06,5.875034404388111e-06,1.3284025675176728e-06,8.804343770648205e-07,1.4266619392649114e-06,1.2238416407729497e-05,9.509603396177403e-07,8.613327263355532e-07,7.47340917914083e-07,7.142121776641038e-07,1.1053968030766389e-06,1.3271665730198879e-06,2.4346251953168454e-06
197,5.667574205131042e-07,9.066842328897946e-07,1.1697915666904885e-06,2.4346280460507367e-06,5.958220964360833e-06,1.341149802829926e-06,8.862579077712036e-07,1.424236923018803e-06,1.2134722504783064e-05,9.516829628793583e-07,8.62013318782575e-07,1.0385906835156665e-06,7.334794443581742e-07,1.1367669877473527e-06,1.3389346709770656e-06,2.503551137155509e-06
198,5.791653440036901e-07,8.691189624877312e-07,1.1168079356260862e-06,2.2755695440503874e-06,6.010509740130429e-06,1.3503106213336184e-06,8.933226932497829e-07,1.423555195781837e-06,1.202717793935793e-05,9.561387665981917e-07,8.664921624393353e-07,1.5295681002781263e-06,7.537132266099164e-07,1.1700450753113415e-06,1.3539794528422636e-06,2.5699534230495973e-06
199,5.920600760469832e-07,8.323296165345879e-07,1.071481902060694e-06,2.1322919944693747e-06,6.032941376324519e-06,1.3552915757218068e-06,9.018755376662977e-07,1.4244892083993457e-06,1.1920137647944903e-05,9.64248962143188e-07,8.754170332745051e-07,2.2327697450558837e-06,7.748177456327465e-07,1.205206680721082e-06,1.3720788497178342e-06,2.63173388401079e-06
200,6.050553338554916e-07,7.970330581854279e-07,1.0332127708148835e-06,2.0055824596192187e-06,6.027463556387708e-06,1.3557667534074944e-06,9.120488337058993e-07,1.4267416380633317e-06,1.181851226634177e-05,9.757735636578996e-07,8.892530341198128e-07,3.1606613879186456e-06,7.966647486517949e-07,1.2421527746469474e-06,1.3927263018899153e-06,2.686661429312133e-06
201,6.177419285308621e-07,7.638678271607412e-07,1.0012789194797926e-06,1.8959459384815633e-06,5.995882314045108e-06,1.351759232819315e-06,9.238437959201394e-07,1.4298711358856251e-06,1.1726873313835596e-05,9.903989110992732e-07,9.08271246717176e-07,4.32577355022824e-06,8.190447854141856e-07,1.2806271027949016e-06,1.415205086801571e-06,2.732666711267085e-06
202,6.297182460827356e-07,7.333404984854429e-07,9.75002977667607e-07,1.803569744341432e-06,5.939309672076786e-06,1.3435968825450437e-06,9.371098421168549e-07,1.4332613677363254e-06,1.1648963298312822e-05,1.0077976895147672e-06,9.325757582766969e-07,5.741185237364019e-06,8.416830239931027e-07,1.3202374071011926e-06,1.4387622788361457e-06,2.768278831949071e-06
203,6.406141415755949e-07,7.058220078424675e-07,9.538978081869935e-07,1.7283442255073309e-06,5.858275499706643e-06,1.3317862172672708e-06,9.515314576107525e-07,1.436108388922571e-06,1.1587597818145547e-05,1.0275980640522584e-06,9.621510946846041e-07,7.421305982033168e-06,8.643149903925646e-07,1.3605669188072586e-06,1.4627947745077743e-06,2.792768379165783e-06
204,6.500774583772129e-07,6.815692997413903e-07,9.376593759515732e-07,1.6698425919313634e-06,5.753150680895531e-06,1.3168474226800771e-06,9.666332549965515e-07,1.4374952890043274e-06,1.1544667156729818e-05,1.0493505167384411e-06,9.9689102110394e-07,9.382702820555978e-06,8.867498043319348e-07,1.4012617577122667e-06,1.4868994922757266e-06,2.805805047306776e-06
205,6.577468452895491e-07,6.607670929976088e-07,9.260245031943014e-07,1.627296823037963e-06,5.624576317919101e-06,1.299218012382392e-06,9.818000034976683e-07,1.4365395415339695e-06,1.1521555314284475e-05,1.0725629382030168e-06,1.0366147953763943e-06,1.1644834985413191e-05,9.088623335674884e-07,1.4420701859402304e-06,1.5107636653674681e-06,2.807077785678697e-06
206,6.632770934638781e-07,6.435620883072113e-07,9.186496312721055e-07,1.5996468694864967e-06,5.473829798493332e-06,1.2793022599933463e-06,9.963016831989043e-07,1.4325935828277914e-06,1.1520019268374373e-05,1.0967202450463828e-06,1.081118050798353e-06,1.4230543638958638e-05,9.305453347754363e-07,1.482876824976611e-06,1.5340122100004518e-06,2.79629791655524e-06
207,6.664262213629778e-07,6.300687745975616e-07,9.150889976190094e-07,1.5856670405531652e-06,5.303035198046685e-06,1.2575715609119839e-06,1.0093727683748721e-06,1.4254656230530095e-06,1.154251627699309e-05,1.1212723898958003e-06,1.1302126116160916e-06,1.716614343419686e-05,9.517005747771992e-07,1.5237126424877131e-06,1.556138753158683e-06,2.7734355637213027e-06
208,6.671098075292484e-07,6.203642468565939e-07,9.147986355984703e-07,1.5840926228910701e-06,5.115120860428018e-06,1.2345966393731894e-06,1.0203870656377394e-06,1.4155480599606237e-06,1.15914316744268e-05,1.1457191124430304e-06,1.1836670294806625e-06,2.0481070937717837e-05,9.72267718808724e-07,1.5647039397380654e-06,1.576575939564606e-06,2.738914549843365e-06
209,6.653588877766315e-07,6.1447740422653e-07,9.171028734012192e-07,1.5936409211297603e-06,4.9135772238385126e-06,1.211013220635548e-06,1.0290410282455925e-06,1.4037379237990704e-06,1.166789102100039e-05,1.1697708098947674e-06,1.2411022904047652e-06,2.4207050408373748e-05,9.922225253472406e-07,1.6059966883588722e-06,1.5948244414413954e-06,2.6936926391677704e-06
210,6.612606940148369e-07,6.123693738095807e-07,9.211694592054055e-07,1.6129135698682503e-06,4.702160663790794e-06,1.1874511605769126e-06,1.035421769240924e-06,1.3911727630614648e-06,1.1771041417212412e-05,1.1933736012387523e-06,1.3019904815186506e-06,2.8376776687160564e-05,1.0115256878925176e-06,1.6476851074549977e-06,1.6104739296954723e-06,2.6392050449392737e-06
211,6.549871316985881e-07,6.139230852497936e-07,9.26074840375261e-07,1.6403096287519084e-06,4.48463381927203e-06,1.164449650718757e-06,1.0399172267922316e-06,1.3789414229399577e-06,1.1898143064132064e-05,1.2165346919459887e-06,1.365765248668546e-06,3.302240110631836e-05,1.030071805093562e-06,1.689715982165298e-06,1.6230955588460385e-06,2.5771635324269295e-06
212,6.468634933361428e-07,6.189653522304624e-07,9.30954539880978e-07,1.6740545074706168e-06,4.26454670372682e-06,1.142425435233065e-06,1.0430299118316358e-06,1.3679085692367022e-06,1.2045175333252615e-05,1.239126114437009e-06,1.4318797585471742e-06,3.817431690430428e-05,1.0476824827111105e-06,1.73179600042762e-06,1.63216544227346e-06,2.5092908233783918e-06
213,6.373471824357249e-07,6.27320939154179e-07,9.351159875844026e-07,1.7123234563856372e-06,4.045049106471065e-06,1.1217164354313727e-06,1.0452333526996226e-06,1.3586655441156828e-06,1.220739206284584e-05,1.2608204734546514e-06,1.4997303652232473e-06,4.3860360927315524e-05,1.0641473313097665e-06,1.7733580251429473e-06,1.6371064848643162e-06,2.4371422506256775e-06
214,6.269144651265175e-07,6.388494718347482e-07,9.380305013921084e-07,1.753407089988264e-06,3.828732402084658e-06,1.1026134664804383e-06,1.0469390432576985e-06,1.351567183236065e-06,1.2379551633878677e-05,1.2811635282709345e-06,1.568597603982703e-06,5.010468962549848e-05,1.0793028730057845e-06,1.8135693821629952e-06,1.6373761478442762e-06,2.3620938691660463e-06
215,6.159659483144065e-07,6.534198037287926e-07,9.392936291507201e-07,1.7958699623362733e-06,3.6174997783032614e-06,1.0853331740153384e-06,1.0485230632803255e-06,1.3468432103551916e-06,1.2556026174014314e-05,1.2997117108185143e-06,1.6377465361140547e-06,5.6925579653042424e-05,1.0930857049986698e-06,1.851380862674292e-06,1.6325488436698615e-06,2.2854094239154497e-06
216,6.048000837513679e-07,6.708571627432587e-07,9.386782728121591e-07,1.838645242275489e-06,3.4125117159244337e-06,1.070012828587167e-06,1.0503849390397155e-06,1.3447239096559705e-06,1.2731198166150992e-05,1.3161115272312495e-06,1.7065556524132565e-06,6.43331793126226e-05,1.105505433138085e-06,1.8856456255019225e-06,1.6224126078931725e-06,2.2082319975653198e-06
217,5.93622029411852e-07,6.909255829766684e-07,9.362395088948254e-07,1.881048376390701e-06,3.2142426995133342e-06,1.056793345259662e-06,1.053026647220098e-06,1.3454706788188543e-06,1.2900214751057062e-05,1.3300766404993057e-06,1.7745007747396073e-06,7.232892582322164e-05,1.1166596127413803e-06,1.9152627919779003e-06,1.6070239398171652e-06,2.1314786281013143e-06
218,5.825647353497761e-07,7.133346557493742e-07,9.323121637263043e-07,1.922731645328433e-06,3.0225714068843e-06,1.0459188581069032e-06,1.0570649990017135e-06,1.3493433588939864e-06,1.3059552355114133e-05,1.341398958770764e-06,1.8411264950005685e-06,8.090575757003823e-05,1.126860693800524e-06,1.939269765254355e-06,1.5866261814766995e-06,2.0558205306374143e-06
219,5.717097407541038e-07,7.377250329938222e-07,9.2735668008437e-07,1.96358923684953e-06,2.836830335368783e-06,1.037729596831276e-06,1.063126608576633e-06,1.3566184832284796e-06,1.3206797555971881e-05,1.3500177826100707e-06,1.9061597707722374e-06,9.004784109068033e-05,1.1366667786013206e-06,1.9568813516001856e-06,1.5615014080682633e-06,1.981874229101022e-06
220,5.610815518611782e-07,7.636513184460003e-07,9.217869328862137e-07,2.003600279420008e-06,2.6558642193955176e-06,1.032546830388154e-06,1.0717146218138903e-06,1.3676005847817371e-06,1.333977529272888e-05,1.3559864746632362e-06,1.9695983109334906e-06,9.97328283488036e-05,1.1467073630588915e-06,1.9675424681597255e-06,1.5319206244109604e-06,1.9104317833304925e-06
221,5.506315026851364e-07,7.905975765097534e-07,9.158866150393986e-07,2.0426594588797064e-06,2.4781722465228266e-06,1.0305625294308645e-06,1.0831447629114841e-06,1.3825255538030384e-06,1.3455597545258909e-05,1.359362452659827e-06,2.031619583795305e-06,0.00010993923772606109,1.157492496927815e-06,1.9710312386673848e-06,1.4982064038970966e-06,1.84248531552192e-06
222,5.402749397712269e-07,8.179981419410677e-07,9.097978638086167e-07,2.0805570285630275e-06,2.302149351385e-06,1.0317919534557276e-06,1.0975545781597403e-06,1.4014293611830838e-06,1.3550329102856567e-05,1.3601519564298873e-06,2.0924231342541848e-06,0.00012065326435670222,1.1693361088578988e-06,1.967562259677056e-06,1.4608085609469974e-06,1.7790561507855725e-06
223,5.299973063876804e-07,8.452584270315783e-07,9.035389666940601e-07,2.117177391654832e-06,2.1264100009975972e-06,1.0360552015355113e-06,1.1149576711466805e-06,1.4240941448432984e-06,1.3620445760493885e-05,1.3583119604178962e-06,2.1521622460315583e-06,0.00013186604799767386,1.182350383887839e-06,1.957805754095702e-06,1.4203399592798806e-06,1.7210139289113677e-06
224,5.19936249178598e-07,8.718155982101614e-07,8.970279299157349e-07,2.1527435664582038e-06,1.9501508812959114e-06,1.0429702297626368e-06,1.1352957920890595e-06,1.4501146609988982e-06,1.3666281058076405e-05,1.3538226025460803e-06,2.2109730913807193e-06,0.0001435612049922655,1.1964880943156025e-06,1.942754348942875e-06,1.3775466299431456e-06,1.6689631117455664e-06
225,5.10349242099758e-07,8.971947550279845e-07,8.901271133101577e-07,2.1879153479689385e-06,1.77345376771135e-06,1.0519973046589764e-06,1.15844308701595e-06,1.4790668402845346e-06,1.3695017393915767e-05,1.3468077360461636e-06,2.2689903677827505e-06,0.00015570253029238243,1.2116227544629568e-06,1.9234715847686296e-06,1.3331891515247502e-06,1.6231680990663076e-06
226,5.015191516519375e-07,9.209818797575603e-07,8.826984984833461e-07,2.223706860087825e-06,1.5974032435665634e-06,1.0625528593728673e-06,1.1841922398799035e-06,1.5106484787186876e-06,1.3720548004185313e-05,1.3375753383339978e-06,2.3262889177838206e-06,0.00016823093540065356,1.2276067146927028e-06,1.9009199002585778e-06,1.2878948006577388e-06,1.583537873890179e-06
227,4.936926844659635e-07,9.427700644369744e-07,8.746027359093449e-07,2.2612718231028106e-06,1.4239522862403297e-06,1.074116426794617e-06,1.212284540604867e-06,1.544670361844117e-06,1.3760428969278436e-05,1.3265442674996362e-06,2.3827885938860057e-06,0.0001810704706229503,1.2442902191596258e-06,1.8759532676270846e-06,1.2421116497707885e-06,1.5496774066312934e-06
228,4.870631557803991e-07,9.62200399462575e-07,8.656813649648442e-07,2.3016357129623413e-06,1.2555974313302632e-06,1.0862310014047864e-06,1.2424782931058049e-06,1.5809726823286558e-06,1.3832316933926151e-05,1.3141314815866351e-06,2.438164354300875e-06,0.00019413677317282744,1.261515440377861e-06,1.8492946516454988e-06,1.196196344097371e-06,1.5209550806965159e-06
229,4.817735161121675e-07,9.790803764132134e-07,8.558038832589846e-07,2.3454793426232206e-06,1.0950294456434338e-06,1.0984180226839237e-06,1.2745845453890272e-06,1.6194289862754062e-06,1.3951862844603046e-05,1.30065000099116e-06,2.4918409904067336e-06,0.0002073410885858953,1.2790668010244108e-06,1.8214369554827147e-06,1.1505089167308605e-06,1.4966325625077517e-06
230,4.779194687644873e-07,9.934273887951858e-07,8.449050414630946e-07,2.393031279109813e-06,9.448978682762217e-07,1.1101431158347431e-06,1.3084152255494342e-06,1.6600538805979125e-06,1.4132218947835227e-05,1.286270383915948e-06,2.54319527712141e-06,0.00022058661807664622,1.2966119544891655e-06,1.7926292476391858e-06,1.1054459401303116e-06,1.4760971906126438e-06
231,4.7554817855532555e-07,1.00536141133583e-06,8.329510264011438e-07,2.44402816490361e-06,8.077182159273068e-07,1.1208914824215267e-06,1.3436693978946019e-06,1.7030882356675332e-06,1.4384178518108566e-05,1.2710863095822716e-06,2.591926420998752e-06,0.00023375937456019218,1.3137006514965652e-06,1.7629707264438326e-06,1.0614925615785436e-06,1.4589947707305335e-06
232,4.746581290056193e-07,1.0149564360402376e-06,8.199233726493409e-07,2.4976816151507195e-06,6.858975090063975e-07,1.1302541307341532e-06,1.379862538530546e-06,1.7489629795301956e-06,1.4716259436158011e-05,1.2552230896624821e-06,2.6383174402484377e-06,0.00024671922255235405,1.329846053007301e-06,1.7324755565238678e-06,1.0192745163039004e-06,1.4450993412933e-06
233,4.7520046708337284e-07,1.0221847287393526e-06,8.058599341789129e-07,2.5526618391750973e-06,5.818410811443388e-07,1.137940110750096e-06,1.4164034499008803e-06,1.7981443938556667e-06,1.513469682443221e-05,1.2389095749747358e-06,2.6831480231468416e-06,0.0002592946708731606,1.3446869761467906e-06,1.7010952802672623e-06,9.794816165317579e-07,1.4340976393499078e-06
234,4.770864717984433e-07,1.0269475645660751e-06,7.908790502868514e-07,2.607156814571452e-06,4.980787488305316e-07,1.143746299233878e-06,1.4528068489087155e-06,1.850936899989415e-06,1.564350755522872e-05,1.222499213163619e-06,2.7273169082676968e-06,0.000271278422235014,1.3581190712403492e-06,1.6688026315266388e-06,9.427161241686869e-07,1.4254848889495879e-06
235,4.801915106192934e-07,1.0291111706906562e-06,7.751525640815611e-07,2.659052335844014e-06,4.3735923645950614e-07,1.1475322871115667e-06,1.4888841639044346e-06,1.9073433294878786e-06,1.6244725266525712e-05,1.206419509748478e-06,2.7714462790195822e-06,0.0002824216338664026,1.3702346561814158e-06,1.6357210837544467e-06,9.094234866829641e-07,1.4185283854903863e-06
236,4.843402456257581e-07,1.0285130344076283e-06,7.588664237999901e-07,2.7062133489001616e-06,4.0270075130794057e-07,1.1492096639164917e-06,1.5247479597592155e-06,1.9670256380010436e-06,1.6938789199840965e-05,1.1910477789122757e-06,2.815665740175496e-06,0.00029243959684710627,1.381112010810116e-06,1.602156551052506e-06,8.799030406721252e-07,1.4122645007893536e-06
237,4.892858374862897e-07,1.0249668149315438e-06,7.422064986471036e-07,2.746757143279481e-06,3.973968414278946e-07,1.1487612505357004e-06,1.5606311347387807e-06,2.0293365187103247e-06,1.772488771120411e-05,1.1766154723861093e-06,2.8595466692810664e-06,0.0003010420123665195,1.3906406527814005e-06,1.5684973788090974e-06,8.543213152283169e-07,1.4056318027325726e-06
238,4.947117606094433e-07,1.0183054924894172e-06,7.253716556044719e-07,2.77921496539317e-06,4.249620001888947e-07,1.1462920831250571e-06,1.5966739137467648e-06,2.0933785433082018e-06,1.8600964484200518e-05,1.1632593515732753e-06,2.902075662606248e-06,0.00030797567108954363,1.3984470376812196e-06,1.5351026019048295e-06,8.327252038587694e-07,1.397749921936803e-06
239,5.002713626632312e-07,1.0084592371473056e-06,7.085820135811795e-07,2.8025970319129368e-06,4.890195941195472e-07,1.1420584129148688e-06,1.632799569441532e-06,2.1580369974215062e-06,1.9563290987352702e-05,1.1511937996221223e-06,2.941635502157042e-06,0.000313056013753332,1.4038868603612805e-06,1.5022450927714199e-06,8.150662348724804e-07,1.3881484266472988e-06
240,5.056428611305173e-07,9.955279971033726e-07,6.92050651782537e-07,2.81641959116811e-06,5.931917836986279e-07,1.136428582438964e-06,1.6686699344280947e-06,2.2219531384380796e-06,2.060576890154082e-05,1.1408324772901995e-06,2.9760280102431486e-06,0.0003161777983566889,1.4061727802236494e-06,1.470072156427818e-06,8.012260940853272e-07,1.376793286492543e-06
241,5.105572807099703e-07,9.798131102629513e-07,6.759414512465264e-07,2.820660686251119e-06,7.410447035239561e-07,1.1297890003154413e-06,1.7036865702013828e-06,2.283490200360539e-06,2.171915417466489e-05,1.132737908543003e-06,3.0026657365843133e-06,0.00031730197838191273,1.4046811642109274e-06,1.4385901708310126e-06,7.910547417090768e-07,1.3640126037017309e-06
242,5.147832511671369e-07,9.617849208970568e-07,6.60374746097371e-07,2.815551355312127e-06,9.360789748726872e-07,1.1224302386457231e-06,1.7370597399058969e-06,2.3407742667176967e-06,2.289037695406151e-05,1.1274861474886106e-06,3.019071423955158e-06,0.0003164208526494006,1.3992408548726884e-06,1.4077308995341418e-06,7.844228124765572e-07,1.350438305893279e-06
243,5.180965592653527e-07,9.419868122512359e-07,6.454904800482722e-07,2.801238940317037e-06,1.1817186335325307e-06,1.1144521833961691e-06,1.7679223566375816e-06,2.3918223359912762e-06,2.4102403975346807e-05,1.1255945862682942e-06,3.0234922149924976e-06,0.0003135301003688267,1.3901811862213968e-06,1.3774489281621072e-06,7.812494601753291e-07,1.3368825804483565e-06
244,5.202916498343388e-07,9.209420431147887e-07,6.31494152537528e-07,2.7775835855381937e-06,1.4812516762859312e-06,1.105727128016851e-06,1.7953830976185591e-06,2.4347068765758364e-06,2.5335207644452814e-05,1.1274935362522041e-06,3.0151045526035526e-06,0.0003086425480986366,1.378168533885456e-06,1.3477367395984978e-06,7.814781779796701e-07,1.3241256725127195e-06
245,5.212466964091457e-07,8.991550902024323e-07,6.186272736720997e-07,2.744303112316402e-06,1.8377399521566834e-06,1.0959368966525478e-06,1.8184859115404723e-06,2.467728767575872e-06,2.6567798747852573e-05,1.1334675087250307e-06,2.993635590219572e-06,0.00030183188891043903,1.3639904258705357e-06,1.3185945423764761e-06,7.850233455149618e-07,1.3127515816564888e-06
246,5.209728991984162e-07,8.771746294323316e-07,6.071071641345118e-07,2.7013407880655676e-06,2.253971836823935e-06,1.0846674406982743e-06,1.8361900749282836e-06,2.489628523695647e-06,2.7780680805895124e-05,1.1436195896813344e-06,2.958981344953654e-06,0.0002932630295438504,1.3483862530832541e-06,1.29005499665403e-06,7.91726357495384e-07,1.3030807515189644e-06
247,5.195989574805257e-07,8.555829842022651e-07,5.971009647331156e-07,2.6491553143634054e-06,2.732479745840977e-06,1.0715100914361372e-06,1.847483876936847e-06,2.4998384310961598e-06,2.8957985385554495e-05,1.1579244306465998e-06,2.9113319029848578e-06,0.00028318929168991467,1.3319828896571379e-06,1.2622065605096767e-06,8.013592406543993e-07,1.2951573202164617e-06
248,5.173095021118258e-07,8.349025016910103e-07,5.887412012500549e-07,2.5887839034222047e-06,3.2755802218109817e-06,1.0561287254848119e-06,1.8515778331374778e-06,2.4986583173046504e-06,3.008843030622885e-05,1.1763264167367984e-06,2.8515180630770954e-06,0.0002719252971566126,1.3153480177738118e-06,1.2351296970502774e-06,8.137126079914884e-07,1.2887906688931919e-06
249,5.14278013199759e-07,8.155311626694194e-07,5.821624677418833e-07,2.5217487714987223e-06,3.885384110920826e-06,1.0383060201905971e-06,1.8480045673743291e-06,2.487181881133823e-06,3.116440188784667e-05,1.1987866975340481e-06,2.7811365488101446e-06,0.00025980965839076916,1.29907624555971e-06,1.2088372344098927e-06,8.287150490404782e-07,1.2836598292562429e-06
250,5.106473533720497e-07,7.977333539510449e-07,5.775143945643496e-07,2.4499243222289026e-06,4.563718977015683e-06,1.0179844000894704e-06,1.836556338037145e-06,2.466943400568074e-06,3.217923629513902e-05,1.2252370727476156e-06,2.7023953896012857e-06,0.0002471685047071334,1.2837975542398828e-06,1.183320585657655e-06,8.464450664702789e-07,1.2794734702540956e-06
251,5.065814058129071e-07,7.81642646911493e-07,5.74922213874032e-07,2.3753635930372747e-06,5.31193715179518e-06,9.952780427290658e-07,1.8171824856484393e-06,2.4394920209496226e-06,3.312376173384629e-05,1.2555134609190786e-06,2.6177631602621244e-06,0.00023428875281436136,1.2700861182924338e-06,1.1586131453083322e-06,8.670119218535894e-07,1.276148002821794e-06
252,5.023235305029127e-07,7.672783040947289e-07,5.744312470761654e-07,2.300055061430031e-06,6.1306760510868845e-06,9.704362953896706e-07,1.7899855453136626e-06,2.4061195544612324e-06,3.398389305164848e-05,1.2893703217017013e-06,2.5295756300873026e-06,0.00022140607392941695,1.2583491000487718e-06,1.1347720492041085e-06,8.90450416695609e-07,1.273898212569057e-06
253,4.9818603896352e-07,7.545867077273643e-07,5.759828140929769e-07,2.2257220296067618e-06,7.019665492770708e-06,9.437692998029344e-07,1.7552939987962751e-06,2.3677720240547257e-06,3.4740427632744485e-05,1.3265709768858579e-06,2.4398234923258773e-06,0.00020870466749576028,1.248788640467186e-06,1.1118370278066914e-06,9.167336219264044e-07,1.2731557118661275e-06
254,4.944965494716734e-07,7.434792740070863e-07,5.794344494650728e-07,2.1538001865119e-06,7.977572786142322e-06,9.155571463794746e-07,1.713665136456098e-06,2.3251479525791896e-06,3.537060051695571e-05,1.3669411608689338e-06,2.3501604519877744e-06,0.0001963217961216121,1.2414413576379665e-06,1.089851224203997e-06,9.458313262499702e-07,1.2743837851145705e-06
255,4.915741605105156e-07,7.338465455148454e-07,5.84603999850377e-07,2.0855437117752846e-06,9.001789336669847e-06,8.859783350986379e-07,1.6657543722710237e-06,2.2790121322128726e-06,3.585072039273079e-05,1.410309307738714e-06,2.2619607771414507e-06,0.00018435400189081285,1.2362201793147203e-06,1.068916333784129e-06,9.77695481892943e-07,1.2779590534631274e-06
256,4.897366794956471e-07,7.255798156866255e-07,5.912973742783068e-07,2.0221037507081466e-06,1.008811122248668e-05,8.551183701179578e-07,1.6122162544607007e-06,2.230528507653135e-06,3.615973036312891e-05,1.4564213150536787e-06,2.1763486946432805e-06,0.0001728655543023643,1.2329076040542808e-06,1.0491956465960695e-06,1.0121776443465822e-06,1.2841654761572723e-06
257,4.892936067150048e-07,7.185984204330329e-07,5.993177009893702e-07,1.9645024304140756e-06,1.1230351357698605e-05,8.230856605075492e-07,1.5538019282017464e-06,2.1813130445938604e-06,3.6282954433251985e-05,1.5049380351579462e-06,2.0942854910629693e-06,0.00016189858381363467,1.2311262600684667e-06,1.0308753076373947e-06,1.0489747647622098e-06,1.2931769722094114e-06
258,4.905152359122307e-07,7.128247877345818e-07,6.085148340876684e-07,1.913533837456358e-06,1.241994919399514e-05,7.901680907954997e-07,1.4915222057060276e-06,2.133184456032286e-06,3.62147107695193e-05,1.5554458981019025e-06,2.016713955351482e-06,0.00015148262788142774,1.2303725362618338e-06,1.0141507316545937e-06,1.0876476869204632e-06,1.304991781088243e-06
259,4.936061914276502e-07,7.081276845805567e-07,6.188852130426924e-07,1.8696827515185223e-06,1.3645658128864317e-05,7.569155570388899e-07,1.4266539811487238e-06,2.087884064354333e-06,3.595905030875659e-05,1.6073932549210784e-06,1.9446064829195203e-06,0.00014164079150401294,1.2301452534536133e-06,9.99208600931661e-07,1.1276518761920613e-06,1.3194303253825883e-06
260,4.987034756387733e-07,7.043261993638304e-07,6.306317948083178e-07,1.833148347849736e-06,1.489335915510449e-05,7.240832441091952e-07,1.3605808025099432e-06,2.046996843980003e-06,3.5528488844471836e-05,1.6600373061341353e-06,1.8788420267357e-06,0.00013239052736970148,1.2300398996683758e-06,9.861766972844913e-07,1.168324710068664e-06,1.336219562320863e-06
261,5.0588084386328e-07,7.01276052478733e-07,6.441197136171636e-07,1.8039813727093166e-06,1.6145912233455775e-05,6.924803625694846e-07,1.2946037564185475e-06,2.012010029349815e-06,3.494057647727182e-05,1.7124872537600983e-06,1.8200341085029548e-06,0.00012373993060640464,1.2297015656783338e-06,9.750959536233203e-07,1.2088984131333482e-06,1.3550370769399963e-06
262,5.151354944372381e-07,6.989587142199444e-07,6.597640254928081e-07,1.7822466082539133e-06,1.738307677029572e-05,6.628376901712176e-07,1.2298285465793319e-06,1.984313256110546e-06,3.421296911915503e-05,1.7637727299301277e-06,1.7684591800666723e-06,0.00011568381190432311,1.2287577726663239e-06,9.659515738130842e-07,1.2486146603099823e-06,1.3754441377342212e-06
263,5.263709906720738e-07,6.974802707472746e-07,6.779289271039674e-07,1.7680888133646996e-06,1.8582180283517637e-05,6.357530266240349e-07,1.167142545482303e-06,1.9651087145935517e-06,3.335946400706153e-05,1.812869957092216e-06,1.7240897587639867e-06,0.000108203853346148,1.2268501527481201e-06,9.587253569553368e-07,1.2868316228588735e-06,1.3968111119754648e-06
264,5.394028089734042e-07,6.969781931050867e-07,6.988892485871093e-07,1.7616510643213164e-06,1.9720341501239225e-05,6.116918839573595e-07,1.1072462497012028e-06,1.955327596415714e-06,3.2389000281082474e-05,1.8586882611168043e-06,1.6866650110319784e-06,0.00010127333318956963,1.2236753048786296e-06,9.533925250004034e-07,1.3229675783494716e-06,1.4183511409110198e-06
265,5.539878142108342e-07,6.975287621992563e-07,7.228526782550601e-07,1.762940509847489e-06,2.077774942443012e-05,5.910092724387437e-07,1.050691259834779e-06,1.9555856914474526e-06,3.1306852070764906e-05,1.900022443305865e-06,1.655809943065963e-06,9.486359284097248e-05,1.2189754079164284e-06,9.498953851497576e-07,1.3563516971993347e-06,1.4392036789119584e-06
266,5.698541505457386e-07,6.991307815968722e-07,7.500042592605091e-07,1.771791667695371e-06,2.174007469536138e-05,5.739633554365489e-07,9.97874549254946e-07,1.966159090151667e-06,3.011652910559244e-05,1.9355869101787103e-06,1.631210140489654e-06,8.894909968377524e-05,1.21253778605198e-06,9.481839640339196e-07,1.3861924576343752e-06,1.4584473458287773e-06
267,5.867056570954688e-07,7.01759768380625e-07,7.805342383068511e-07,1.787939294194131e-06,2.2598213006740355e-05,5.607057474237309e-07,9.49006755131454e-07,1.987021869226529e-06,2.8822484445687348e-05,1.964221999027186e-06,1.6127165990064019e-06,8.3507908798593e-05,1.204188911738218e-06,9.482649593128985e-07,1.411745415533033e-06,1.4750998481293307e-06
268,6.042191887887299e-07,7.054179940732474e-07,8.14657396829398e-07,1.8110944373048568e-06,2.3345431121051457e-05,5.512707869835573e-07,9.041314663483881e-07,2.0179913313403853e-06,2.7433828066293564e-05,1.985105028013159e-06,1.6002598603521006e-06,7.851710714289741e-05,1.1937551367365635e-06,9.501658702424253e-07,1.4325502430956839e-06,1.4882671367120786e-06
269,6.2207817938148e-07,7.101136981769054e-07,8.526498103557851e-07,1.8409858713657327e-06,2.3974371706906324e-05,5.455824215492531e-07,8.632159646526281e-07,2.0589052555160015e-06,2.5967178553871152e-05,1.9978140734475395e-06,1.5936421513455801e-06,7.395133529849765e-05,1.1810434706687352e-06,9.53856280747205e-07,1.4485103346775213e-06,1.4974157292432935e-06
270,6.400242137557141e-07,7.158168335404916e-07,8.948738790164456e-07,1.8774164797019283e-06,2.447648688941623e-05,5.434625628449588e-07,8.262406243813148e-07,2.109689808439586e-06,2.4446085346616658e-05,2.002297466293063e-06,1.5923853791365021e-06,6.979060506673961e-05,1.1658655101689432e-06,9.592095763273681e-07,1.4597978437604927e-06,1.5025561392553955e-06
271,6.578608629251335e-07,7.224569524927319e-07,9.417444190629952e-07,1.9203564792470415e-06,2.4843778976775837e-05,5.446259815480434e-07,7.932053892780907e-07,2.1702749113053426e-06,2.289726536374884e-05,1.998830147246877e-06,1.595718088030867e-06,6.60281254839165e-05,1.1481017709467303e-06,9.660214798626137e-07,1.466832249780198e-06,1.5042071766021902e-06
272,6.753974859039903e-07,7.299243958661708e-07,9.93672814656655e-07,1.970048180209888e-06,2.5070990073223183e-05,5.486716158539848e-07,7.640760011460872e-07,2.2404738909428628e-06,2.13466940747973e-05,1.9879852394138397e-06,1.602671929134245e-06,6.266714412053282e-05,1.127793341158238e-06,9.740353040614364e-07,1.4703816271889727e-06,1.5032065279054593e-06
273,6.92391920820876e-07,7.38063934166708e-07,1.0510812875998916e-06,2.0271137430149015e-06,2.5157119765611152e-05,5.550841762446331e-07,7.387602975531107e-07,2.31997482811381e-06,1.9817706925233558e-05,1.970564864389096e-06,1.6122228770689778e-06,5.9710351273997875e-05,1.105164760051236e-06,9.829121076421979e-07,1.4715302774522007e-06,1.5005095108121907e-06
274,7.085362424419481e-07,7.467008238819164e-07,1.1144691620685053e-06,2.0926685547518865e-06,2.510600500373906e-05,5.632433241684095e-07,7.1712955825705e-07,2.4084542412159547e-06,1.8330664158985142e-05,1.9474210696228494e-06,1.6234186369613081e-06,5.715157854780285e-05,1.0805310986420982e-06,9.921733092243304e-07,1.4714507847528014e-06,1.4970541403359059e-06
275,7.234967786990775e-07,7.556602975027131e-07,1.1844056650986433e-06,2.1683741287968505e-06,2.4925930380639242e-05,5.724416259837321e-07,6.990381147402788e-07,2.5057159770489698e-06,1.690283571552169e-05,1.9192753721672416e-06,1.6354935148721932e-06,5.497339393092818e-05,1.0542070499871e-06,1.0012278087619234e-06,1.471201014052935e-06,1.4937022287285324e-06
276,7.370042745892331e-07,7.647558927961183e-07,1.2614203369236415e-06,2.2563136982840388e-06,2.4628506757637913e-05,5.819455505337566e-07,6.843296351775923e-07,2.611789113697116e-06,1.554803442959181e-05,1.8867146578612072e-06,1.6479738101347945e-06,5.314777661476158e-05,1.0265100614935689e-06,1.0095344379905245e-06,1.4716512102769788e-06,1.4912081411567333e-06
277,7.489261190456879e-07,7.738126066791493e-07,1.345888867181338e-06,2.3586828179272213e-06,2.422707633016841e-05,5.911227864625933e-07,6.728326608791336e-07,2.726973553091266e-06,1.4276359888962525e-05,1.8503453112282966e-06,1.6606863643342514e-06,5.163671584196291e-05,9.977904073926627e-07,1.0168189642423909e-06,1.4734961964602948e-06,1.490146173946594e-06
278,7.592514999011844e-07,7.827319016222644e-07,1.43798176476857e-06,2.477465889378206e-06,2.373468575609787e-05,5.995787232147867e-07,6.643333823667476e-07,2.8518177920695703e-06,1.309439422519262e-05,1.8109336578996918e-06,1.6736035415889155e-06,5.0393716952544096e-05,9.684175107118087e-07,1.023184944127126e-06,1.4773417014669953e-06,1.4908566637604567e-06
279,7.680138213851657e-07,7.915228879798764e-07,1.5376583706143126e-06,2.6142621793317335e-06,2.316195690075926e-05,6.071931467333218e-07,6.585493337813905e-07,2.9870060410439197e-06,1.2005677184344491e-05,1.7694160504993303e-06,1.6866443876682786e-06,4.936911534046728e-05,9.387715140036289e-07,1.0290136722421236e-06,1.483794115547286e-06,1.4935409721506208e-06
280,7.752088472722733e-07,8.002804012600366e-07,1.644666751968462e-06,2.7702498709748985e-06,2.251590795014954e-05,6.140240971164374e-07,6.5515691562299e-07,3.1331584045243424e-06,1.1011097998344084e-05,1.7267814289670858e-06,1.6996290060725666e-06,4.85184029415963e-05,9.092874032638827e-07,1.0347429783494041e-06,1.4934333327222942e-06,1.4984599829111784e-06
281,7.80753761914848e-07,8.091411138154476e-07,1.7585374157872183e-06,2.946212166493113e-06,2.180054416934889e-05,6.201881695130229e-07,6.538564123453508e-07,3.29058324687975e-06,1.010933093494449e-05,1.6838969398247605e-06,1.7123762554397078e-06,4.780814620424147e-05,8.804969052821933e-07,1.040718567247717e-06,1.5067199431080178e-06,1.506039841647658e-06
282,7.845212917749478e-07,8.182202722355359e-07,1.8785730155161458e-06,3.142595721129834e-06,2.101867395700911e-05,6.258105581899798e-07,6.543925911712544e-07,3.4590570716195435e-06,9.297647761637407e-06,1.6413743296497948e-06,1.7247466420312062e-06,4.7214890471246306e-05,8.530048402895007e-07,1.0471688986694463e-06,1.5239736791560077e-06,1.5167885219026506e-06
283,7.864152059564433e-07,8.275450835373731e-07,2.0038222231957523e-06,3.35956153335424e-06,2.0173791883531758e-05,6.309998252729452e-07,6.56529620986427e-07,3.637688634672579e-06,8.572905167474762e-06,1.5995571882050947e-06,1.7365559677604531e-06,4.671969331336615e-05,8.274181162469346e-07,1.054207714342765e-06,1.5453920334215455e-06,1.531125564582013e-06
284,7.863989578982291e-07,8.370409637797986e-07,2.133065551723265e-06,3.5970110880525732e-06,1.9271446985788253e-05,6.358093400225282e-07,6.600540895568788e-07,3.824836776264529e-06,7.932249190883854e-06,1.5586363246306726e-06,1.747505678113369e-06,4.6304593218022416e-05,8.043052252468715e-07,1.0618169803374333e-06,1.5710018622161065e-06,1.5492993971180452e-06
285,7.844834052019739e-07,8.465983806053728e-07,2.2649150656626466e-06,3.854673508151602e-06,1.8319990494631063e-05,6.402095514416095e-07,6.647950408751763e-07,4.018054259930841e-06,7.373356425186586e-06,1.518819262800671e-06,1.7572554216591327e-06,4.595156531834624e-05,7.842196527855373e-07,1.069830191248138e-06,1.6005929981174794e-06,1.5714324018906581e-06
286,7.807653531171119e-07,8.56182309615081e-07,2.398060911596806e-06,4.132328854366803e-06,1.73306442240992e-05,6.440683453135e-07,6.705939303127523e-07,4.214117655816789e-06,6.894257325659339e-06,1.480419845795984e-06,1.7655392423307237e-06,4.56422927286006e-05,7.677186832031203e-07,1.0779298721209966e-06,1.6337581743487788e-06,1.597557629757691e-06
287,7.754856106628378e-07,8.658974197632613e-07,2.5315176183368396e-06,4.43009123662026e-06,1.6316882871272266e-05,6.47136472861205e-07,6.772407515402361e-07,4.409155869953773e-06,6.492899736766014e-06,1.44378844409256e-06,1.772156014117501e-06,4.53600615604376e-05,7.553245259129506e-07,1.0856919722709872e-06,1.6700284173628636e-06,1.6275679477974476e-06
288,7.689886148125496e-07,8.759439489766742e-07,2.6646604398207028e-06,4.748582476873947e-06,1.529329903050339e-05,6.490490184764238e-07,6.844383716642324e-07,4.598768596356043e-06,6.166697418425154e-06,1.409208242636971e-06,1.7768914215266618e-06,4.509198700255262e-05,7.474652983805699e-07,1.0927112249886422e-06,1.708966342581705e-06,1.661169122753115e-06
289,7.616191328203717e-07,8.865154158590299e-07,2.7970100450991583e-06,5.088871126872465e-06,1.4274261190426393e-05,6.493428968921676e-07,6.918014611448743e-07,4.778106439367403e-06,5.912278452347969e-06,1.376924865897364e-06,1.7795503211511018e-06,4.482776970111301e-05,7.444380591900355e-07,1.0987293226455416e-06,1.7501197289240197e-06,1.697886038378152e-06
290,7.536757211745695e-07,8.977359924600688e-07,2.9280248167439554e-06,5.452172633381892e-06,1.3272667961559839e-05,6.475302797444026e-07,6.988771168956198e-07,4.9421085442845516e-06,5.725473693599881e-06,1.34724581044349e-06,1.7800674340679714e-06,4.4555709258483816e-05,7.464035715261535e-07,1.1036157242542376e-06,1.7929166421138548e-06,1.7370841733541203e-06
291,7.454207688891321e-07,9.096355434232728e-07,3.057164303974381e-06,5.839441169093e-06,1.2299083424721682e-05,6.432654586412855e-07,7.052122778718303e-07,5.0861004168790535e-06,5.601391472174954e-06,1.3205394666833922e-06,1.7785285967006425e-06,4.425897196979081e-05,7.534090267441262e-07,1.1072306518340529e-06,1.8366778577556196e-06,1.7780663404422222e-06
292,7.370876540607871e-07,9.22118398176753e-07,3.184079888902058e-06,6.251040966870069e-06,1.136148321920576e-05,6.365027616643872e-07,7.104767375085407e-07,5.206631205996243e-06,5.534396584163026e-06,1.2971070900041883e-06,1.7750697480192832e-06,4.3914477666696073e-05,7.654247759285383e-07,1.1093529629533254e-06,1.8807741419002139e-06,1.82025616728099e-06
293,7.288753055456834e-07,9.349548070734169e-07,3.308651111505944e-06,6.686618736354013e-06,1.0465504980999117e-05,6.274901191041609e-07,7.145923151051153e-07,5.302097799375193e-06,5.518010803009336e-06,1.2770488979185607e-06,1.7697809598033113e-06,4.3495755048966895e-05,7.823697845030023e-07,1.1097097490329617e-06,1.9247765689080213e-06,1.8632534463974356e-06
294,7.209583659827032e-07,9.47841001401702e-07,3.430920665553423e-06,7.145184922386829e-06,9.61482995716538e-06,6.166229931830554e-07,7.177916396067552e-07,5.37272740000103e-06,5.544924214308926e-06,1.260239616811093e-06,1.7627343892109887e-06,4.2978611081172284e-05,8.040930898018194e-07,1.1080379839239222e-06,1.9684473130199244e-06,1.906656937978448e-06
295,7.135355442633668e-07,9.605052227142409e-07,3.5510839492096753e-06,7.62531867408626e-06,8.811537937674614e-06,6.04319791652944e-07,7.205524914449805e-07,5.419871398569012e-06,5.607138706897385e-06,1.2464045490962328e-06,1.75405972020818e-06,4.234693211308586e-05,8.303251211557024e-07,1.1041644578052178e-06,2.0115586738239393e-06,1.9498970482335554e-06
296,7.068839217478222e-07,9.727966322446679e-07,3.6694119741122242e-06,8.125345798043655e-06,8.056512191609357e-06,5.909753116432924e-07,7.234421098260794e-07,5.445003396222589e-06,5.696053960855055e-06,1.235227001806172e-06,1.74389549567231e-06,4.1596572127513727e-05,8.606467648815101e-07,1.0980411418533052e-06,2.0536828706855586e-06,1.9923052868386654e-06
297,7.013505337629719e-07,9.847263902495548e-07,3.7860013639888337e-06,8.64334253075475e-06,7.349861114354524e-06,5.769357266041752e-07,7.269832160287791e-07,5.44899701905278e-06,5.8023867151573846e-06,1.2264458040702283e-06,1.7322329627877458e-06,4.073624259389494e-05,8.944761595046423e-07,1.089652477962819e-06,2.0940914600981736e-06,2.033308913794136e-06
298,6.972707089293096e-07,9.964703766413653e-07,3.900585229884013e-06,9.176914548713246e-06,6.69119228793297e-06,5.624869080340947e-07,7.316073100061628e-07,5.432003684813497e-06,5.916059603047534e-06,1.2198951747952344e-06,1.7188096404585802e-06,3.97854486979457e-05,9.310680661396953e-07,1.0788881971650416e-06,2.131741333992828e-06,2.0724808602180797e-06
299,6.948843665775865e-07,1.008331824157571e-06,4.012559369643821e-06,9.722784489486084e-06,6.079667323730211e-06,5.478891669193339e-07,7.376627574330693e-07,5.39379661082088e-06,6.026543409677965e-06,1.2154439606924181e-06,1.7031541535163808e-06,3.8770738150616575e-05,9.695694638342276e-07,1.0655600138323146e-06,2.1653013959837533e-06,2.1093862197379154e-06
300,6.943168581569334e-07,1.020648366530167e-06,4.1209946533070266e-06,1.0276261533619164e-05,5.513962191659185e-06,5.334239918151107e-07,7.454396408694666e-07,5.334246337461526e-06,6.123969711688201e-06,1.2128630539202786e-06,1.6848197686941474e-06,3.772179502518564e-05,1.0091286949315631e-06,1.0495668862855173e-06,2.193345284932451e-06,2.143490908680091e-06
301,6.95625536582071e-07,1.033675363290315e-06,4.224513321415313e-06,1.0830783400645285e-05,4.9923177462175005e-06,5.19387096582781e-07,7.552040293791832e-07,5.253662109150589e-06,6.200411360099337e-06,1.2117188288573042e-06,1.663695733056023e-06,3.6667892356555226e-05,1.0489671867648526e-06,1.0310493258808605e-06,2.2147571616139073e-06,2.1743163525025172e-06
302,6.988524118697457e-07,1.0475187742507515e-06,4.321272889100043e-06,1.1377806878784558e-05,4.512708699106558e-06,5.060475109439765e-07,7.672045862993708e-07,5.152917099111388e-06,6.250430113422701e-06,1.2113842770048802e-06,1.6401449161339081e-06,3.5634737921588754e-05,1.0883553001840654e-06,1.0104183258480062e-06,2.2290290701343847e-06,2.201598526547211e-06
303,7.040162890539546e-07,1.0621407756304618e-06,4.4092035090022616e-06,1.1907219405352039e-05,4.073008817049681e-06,4.936335863895003e-07,7.816252573561138e-07,5.033496134886784e-06,6.270697462811664e-06,1.2111617548173816e-06,1.6148867213926036e-06,3.464303195121384e-05,1.1265171065258577e-06,9.882602767604264e-07,2.2361220514095757e-06,2.2251924317149653e-06
304,7.11057310362333e-07,1.0773883394974874e-06,4.4863074593090304e-06,1.2408302794272659e-05,3.67108766213668e-06,4.823349321678144e-07,7.98526493951777e-07,4.897613173009286e-06,6.259030590466063e-06,1.210426741650455e-06,1.5887613798533056e-06,3.3709598453274436e-05,1.1625295691353894e-06,9.651740899028363e-07,2.236046803283482e-06,2.2448830650217287e-06
305,7.197968244984989e-07,1.0929917521240784e-06,4.550755314379683e-06,1.287113360728406e-05,3.304894634724204e-06,4.722879209623267e-07,8.178168424615591e-07,4.748315965560631e-06,6.213342393449752e-06,1.208721882586803e-06,1.562521416757479e-06,3.284903348325453e-05,1.1953161315275941e-06,9.416343262134455e-07,2.2286170352573415e-06,2.260387464050063e-06
306,7.299367674992117e-07,1.1085269596859676e-06,4.6007198893978026e-06,1.3288062414396179e-05,2.9725766434209976e-06,4.635655626148324e-07,8.392451674695767e-07,4.589384626618934e-06,6.131227944112732e-06,1.2057846224575188e-06,1.5367732072675378e-06,3.2073709150308763e-05,1.223779841471413e-06,9.179664596971291e-07,2.213579416145752e-06,2.2715328067518124e-06
307,7.410919633141747e-07,1.1233825952208645e-06,4.634315917177239e-06,1.365476283943051e-05,2.67259044066687e-06,4.5618980529080477e-07,8.62391986926618e-07,4.424980994094025e-06,6.010752620155148e-06,1.201514347231335e-06,1.512071824879326e-06,3.1392660684786164e-05,1.2469535649147996e-06,8.944024169048552e-07,2.1909208733940083e-06,2.2784216407303946e-06
308,7.528448588356362e-07,1.1367810657059216e-06,4.6501044827909455e-06,1.3970461885856556e-05,2.4037147177597164e-06,4.501470930634309e-07,8.866706917566121e-07,4.259201510796381e-06,5.851940007521054e-06,1.195897362440534e-06,1.4889775167326064e-06,3.081081623386978e-05,1.2640130097189304e-06,8.71111965024113e-07,2.1610655695720707e-06,2.281484718629539e-06
309,7.648118744901919e-07,1.14786573162096e-06,4.647914161580898e-06,1.4237276016081323e-05,2.1648998532541573e-06,4.454033201991196e-07,9.113793473909473e-07,4.0957260442085374e-06,5.657459211344129e-06,1.1889200451431883e-06,1.4679645304164614e-06,3.0328957286443344e-05,1.2742219794909594e-06,8.482034684895236e-07,2.1248489162524687e-06,2.2813683743212907e-06
310,7.766918642328248e-07,1.1558362154927078e-06,4.62921550371233e-06,1.4458865757601026e-05,1.955027201363236e-06,4.4192064126356354e-07,9.358158121514392e-07,3.9376180298434986e-06,5.431788315164288e-06,1.1805123010292472e-06,1.449306458692374e-06,2.9943902004247845e-05,1.2770402415067887e-06,8.257573847187053e-07,2.0833034125714018e-06,2.278679098166887e-06
311,7.882509098085488e-07,1.1601164376700407e-06,4.5967501989533506e-06,1.463877303585632e-05,1.7727349955505803e-06,4.3965277544055984e-07,9.594029539099303e-07,3.7872195608771197e-06,5.179927214149885e-06,1.1705753540204292e-06,1.4330458489718085e-06,2.9648537957954897e-05,1.2724173780869594e-06,8.038750961287779e-07,2.0373855926843632e-06,2.273808220770478e-06
312,7.992701120559135e-07,1.1605177613057822e-06,4.5537767477836825e-06,1.4779057450800107e-05,1.6163846237035995e-06,4.385222243980759e-07,9.817642367945077e-07,3.6461682975745556e-06,4.906905713473528e-06,1.1590952024836753e-06,1.4190041405533205e-06,2.9431965660712373e-05,1.2609952384591433e-06,7.826775285968312e-07,1.987859051907136e-06,2.2669991263254496e-06
313,8.095622428262191e-07,1.1573006372714e-06,4.503378763067787e-06,1.4880051746698389e-05,1.484126743936663e-06,4.3842053776057557e-07,1.0027351218481567e-06,3.515574960229738e-06,4.618077779138304e-06,1.146225845876773e-06,1.4067942576753017e-06,2.928021521185881e-05,1.2439948649497548e-06,7.622663988228157e-07,1.935414840570733e-06,2.25850026567012e-06
314,8.190719937343031e-07,1.1510553273990818e-06,4.448039740220211e-06,1.4941420779141143e-05,1.3740150558094837e-06,4.392544531325895e-07,1.022303084588446e-06,3.396219955655686e-06,4.31943179954601e-06,1.1322353163257093e-06,1.3958777283410391e-06,2.917753246952913e-05,1.2228760419473587e-06,7.427263685250898e-07,1.8808035510839722e-06,2.2485729407843733e-06
315,8.279253176000515e-07,1.1424596334102387e-06,4.389532601365128e-06,1.496367417746807e-05,1.284120822839118e-06,4.409990411807564e-07,1.0404872699125786e-06,3.2886328756513646e-06,4.017306986366465e-06,1.1173961488609045e-06,1.3856549033079697e-06,2.9107613501896645e-05,1.1990250584876431e-06,7.241856715164459e-07,1.8247660208683818e-06,2.2373634626718278e-06
316,8.363589190799272e-07,1.1320648550963138e-06,4.329004505295289e-06,1.4949188842109575e-05,1.2125671476607685e-06,4.436906574109966e-07,1.0572527049342509e-06,3.1931085426142973e-06,3.7177205381250023e-06,1.1019696397556915e-06,1.375514907003322e-06,2.9053944009936764e-05,1.1736173219013971e-06,7.068488427985467e-07,1.7678855492697542e-06,2.224870459565558e-06
317,8.446361586280477e-07,1.1201987885162163e-06,4.2669965082737064e-06,1.4902463472347344e-05,1.1574599224715854e-06,4.473841548193758e-07,1.0725371058429773e-06,3.1097546412652136e-06,3.425923742622171e-06,1.086265339627786e-06,1.3648644557343155e-06,2.899880930696035e-05,1.1476092062558291e-06,6.90938180978119e-07,1.7105601497033678e-06,2.2111117814342066e-06
318,8.530198697426741e-07,1.1069879429806507e-06,4.2033343982251055e-06,1.482982789199942e-05,1.1168336734841836e-06,4.5215154036794043e-07,1.0863298524265831e-06,3.0385728126503617e-06,3.1463371961951514e-06,1.070668148086897e-06,1.3532109078604987e-06,2.8921605999225203e-05,1.1217639535059432e-06,6.766039533101249e-07,1.6530748626254171e-06,2.1962604160081337e-06
319,8.617567825397789e-07,1.0924806129476864e-06,4.137121149857642e-06,1.4738938405188364e-05,1.0887166753077507e-06,4.581122380447083e-07,1.0987315035387411e-06,2.9795030301620435e-06,2.8826873569873e-06,1.0556083084540543e-06,1.3402542215996449e-06,2.879828376103462e-05,1.0966817876951342e-06,6.638856988407338e-07,1.59568593374164e-06,2.180534668768021e-06
320,8.710641127012761e-07,1.076808962187338e-06,4.067003883706236e-06,1.4638238972725129e-05,1.0712718341089053e-06,4.65447762551678e-07,1.1100035518025144e-06,2.932375677270421e-06,2.63822401596398e-06,1.0414983183645659e-06,1.3258621216446162e-06,2.8603529698077207e-05,1.0728277705510706e-06,6.527281937960488e-07,1.5386852075740552e-06,2.1639799951999776e-06
321,8.811214701426092e-07,1.0602750810542943e-06,3.991598896889435e-06,1.4536410120240919e-05,1.0629116515521683e-06,4.743864930188959e-07,1.1205835566502149e-06,2.89681129494053e-06,2.415941327143059e-06,1.0286618891603174e-06,1.3099504555678514e-06,2.8314810224076897e-05,1.0505460286156376e-06,6.430217387827571e-07,1.4824035660175971e-06,2.1464249493058463e-06
322,8.920312247081988e-07,1.0433039233607613e-06,3.909840626840117e-06,1.4441786462485418e-05,1.0623095327670722e-06,4.851638156656834e-07,1.1310056794810074e-06,2.8721653544081578e-06,2.2187345718570857e-06,1.0172906945884468e-06,1.2924477091266192e-06,2.791478009863325e-05,1.0300615497456358e-06,6.34637994117132e-07,1.4271328847638076e-06,2.127651795829199e-06
323,9.037632372119535e-07,1.0263307103094604e-06,3.821183403653402e-06,1.4361699266875817e-05,1.0682867142066935e-06,4.979932844692889e-07,1.1417771647100395e-06,2.857562694302306e-06,2.049425530006982e-06,1.007432740996644e-06,1.2733954965427727e-06,2.7389968262787787e-05,1.0114816477744234e-06,6.274400102353455e-07,1.373060828967275e-06,2.107583477520645e-06
324,9.161323810101787e-07,1.0097244111936906e-06,3.7257568824976785e-06,1.4301714048625086e-05,1.0796505346067519e-06,5.130643978181755e-07,1.1533165388247e-06,2.8520003505590813e-06,1.9106465576252693e-06,9.989884676737722e-07,1.2530371496849793e-06,2.672912929279108e-05,9.948171923807774e-07,6.212916624846143e-07,1.3203286959023805e-06,2.0863734945509465e-06
325,9.288072744499305e-07,9.937686318879859e-07,3.6244946501219626e-06,1.4264872489077562e-05,1.0951000148363774e-06,5.305284801534845e-07,1.1659377893025696e-06,2.8544831307329397e-06,1.804694808013624e-06,9.917184809910015e-07,1.2317903070573118e-06,2.5926181264164776e-05,9.800150343006235e-07,6.161085029438042e-07,1.2691306248802917e-06,2.0644169894e-06
326,9.41337419525205e-07,9.786465708687462e-07,3.5190525190356814e-06,1.4251185555470467e-05,1.1132559506728208e-06,5.504653163464206e-07,1.1798088268881106e-06,2.864147155718848e-06,1.733464955521448e-06,9.8528115003644e-07,1.210155650002921e-06,2.49860613186104e-05,9.6696032248603e-07,6.119185889279907e-07,1.2197051678780044e-06,2.0422775815087134e-06
327,9.532119205185358e-07,9.643947949153508e-07,3.4113913038448565e-06,1.425754996454728e-05,1.1327869924576566e-06,5.728652917494978e-07,1.1949054480834508e-06,2.880321670922297e-06,1.698458852036621e-06,9.793361148176524e-07,1.1886511978395901e-06,2.3927044685276228e-05,9.5543972136038e-07,6.088687166421129e-07,1.1722496802965596e-06,2.0205534682864805e-06
328,9.639258713104115e-07,9.508659554056939e-07,3.303240040936722e-06,1.4277960065443366e-05,1.1525466905799587e-06,5.976457184529271e-07,1.2110177645637004e-06,2.9025059905504804e-06,1.7008469872318854e-06,9.737061089322811e-07,1.1677693618276052e-06,2.2777178173081943e-05,9.451140032478777e-07,6.071842030247891e-07,1.126869387376039e-06,1.999751621085764e-06
329,9.729936166670924e-07,9.377710440671e-07,3.195789246774123e-06,1.4303674301665435e-05,1.1716450905092062e-06,6.246910001787576e-07,1.2277984040933499e-06,2.9302593504829916e-06,1.7415457743722348e-06,9.684531341989682e-07,1.1479335463494815e-06,2.156810899150022e-05,9.355672168116516e-07,6.071207722023376e-07,1.083605886695356e-06,1.9801786602495717e-06
330,9.79942605081202e-07,9.248045750857944e-07,3.0896942500219093e-06,1.4323316202639886e-05,1.1894534989595438e-06,6.538685233986446e-07,1.2448175462307058e-06,2.9630067717609726e-06,1.82124089464016e-06,9.637824605041994e-07,1.1294817556403117e-06,2.033011258605097e-05,9.264476780450777e-07,6.089071549228577e-07,1.0425179953788835e-06,1.9618472870583425e-06
