,EMG1,EMG2,EMG3,EMG4,EMG5,EMG6,EMG7,EMG8,EMG9,EMG10,EMG11,EMG12,EMG13,EMG14,EMG15,EMG16
0,1.90723981736154e-08,-6.737660935703104e-09,7.891781325850486e-09,7.055616759550726e-07,3.081015184319729e-08,4.8930512221562775e-08,4.259015013260951e-07,3.9047511906984355e-07,1.309922890729086e-06,4.5237976452358804e-07,8.60084546119311e-07,9.878713212016746e-05,-7.043080854912035e-08,-9.898065689297128e-08,1.7540179233201456e-07,4.1715579760103225e-07
1,9.765466262176685e-08,1.862421796980892e-07,6.450406161690784e-08,8.66559805021811e-07,8.68067369081191e-08,9.054662137560388e-08,5.674545751967239e-07,4.336421038133816e-07,1.8598558461292535e-06,5.320317637500646e-07,1.1224599464096817e-06,0.00011946833665004066,5.6959269494884264e-08,3.383302130589504e-08,2.6047937263417596e-07,4.944622234375073e-07
2,1.746064247800242e-07,3.7660087463241726e-07,1.2020828146829082e-07,1.039808047677742e-06,1.4321701814108897e-07,1.3316131313695727e-07,7.049614473450955e-07,4.822992984939984e-07,2.435998438492385e-06,6.096356066602354e-07,1.387237416730052e-06,0.00013931539305952996,1.8002218144994455e-07,1.6249761839217866e-07,3.462875165234602e-07,5.769567032876431e-07
3,2.493847014080479e-07,5.632126957697932e-07,1.7416505170796808e-07,1.2253384054437794e-06,1.9908105463185065e-07,1.7616177496532953e-07,8.369949097831111e-07,5.362749220292654e-07,3.039019540700865e-06,6.846245254437951e-07,1.651320791374936e-06,0.00015814854212836343,2.975671059298903e-07,2.8540936656785506e-07,4.3155433062991607e-07,6.640091805258889e-07
4,3.2147749563357684e-07,7.451265685577405e-07,2.2568362737946996e-07,1.4233939193201792e-06,2.5364408834187414e-07,2.1909276405570163e-07,9.623363835112977e-07,5.954045924444835e-07,3.6697067012212177e-06,7.565326626891913e-07,1.9114769378130745e-06,0.00017576165602328311,4.0851424098851537e-07,4.013243724902276e-07,5.151245425819815e-07,7.550149587069039e-07
5,3.9040090613927795e-07,9.215698499966117e-07,2.7426961293860155e-07,1.6343644969296745e-06,3.0640373519757963e-07,2.616724353694906e-07,1.079951253735837e-06,6.595366041046823e-07,4.329096680050946e-06,8.250601796968732e-07,2.1644903997042306e-06,0.00019191875780661828,5.11944068739891e-07,5.093824029363433e-07,5.95923608008157e-07,8.494846171488293e-07
6,4.556972818165195e-07,1.0918400390000868e-06,3.1966095575861654e-07,1.8585957941772402e-06,3.571471584371917e-07,3.037543019336169e-07,1.1889281480738596e-06,7.28586805663531e-07,5.018569188843744e-06,8.901096766433246e-07,2.407499826161786e-06,0.00020636580517739193,6.071134990847084e-07,6.09075064936808e-07,6.729907857438457e-07,9.471207293594687e-07
7,5.169658447161048e-07,1.2551630166607483e-06,3.6179171239901766e-07,2.0962148163033237e-06,4.05961196420083e-07,3.452601186374509e-07,1.2884479882849697e-06,8.025919071531458e-07,5.739589141875965e-06,9.517191004614835e-07,2.6382525514923753e-06,0.00021886337441241258,6.933924624853866e-07,7.002130976349166e-07,7.456217661839117e-07,1.0477449679827155e-06
8,5.739247607266381e-07,1.4106373398450758e-06,4.006908035700389e-07,2.3470271132546746e-06,4.5317354616248895e-07,3.861414643006256e-07,1.37777651745782e-06,8.816961148780079e-07,6.493250875381599e-06,1.0099266457754767e-06,2.8550335011374875e-06,0.00022922930292900107,7.70225721075093e-07,7.828781308091723e-07,8.134787748098283e-07,1.1511281076630147e-06
9,6.264435908578847e-07,1.5573182267422255e-06,4.3639348728845765e-07,2.610465849578014e-06,4.992439415649686e-07,4.2638697471212546e-07,1.4562696383373327e-06,9.660612998599615e-07,7.280038092863275e-06,1.064695875294031e-06,3.056321513686148e-06,0.00023736638085097535,8.37212362156263e-07,8.573896773725157e-07,8.765229864179421e-07,1.2568766285864535e-06
10,6.745357656424816e-07,1.6943934887621936e-06,4.6891994040964884e-07,2.885598752333675e-06,5.446658692169016e-07,4.6601258841839086e-07,1.5234281220343136e-06,1.055748076348812e-06,8.099954385738904e-06,1.115965932174864e-06,3.240503054020117e-06,0.00024325575963510403,8.942064621136045e-07,9.243152031665903e-07,9.348269283598638e-07,1.364401821573619e-06
11,7.183338734490224e-07,1.8213213342926314e-06,4.983135183448562e-07,3.1711575505248625e-06,5.899108817977683e-07,5.050067932703436e-07,1.578996926779873e-06,1.1506364543735207e-06,8.952810043193226e-06,1.1637242567181364e-06,3.4059319907927424e-06,0.00024692056807509307,9.413126288630681e-07,9.844348552254393e-07,9.884454847112052e-07,1.472939273387723e-06
12,7.580303856654558e-07,1.937795342685865e-06,5.24673206487056e-07,3.4655303726090897e-06,6.354215607863632e-07,5.432764416869539e-07,1.6229973853283336e-06,1.2504233806234355e-06,9.838194908762108e-06,1.2079591931888638e-06,3.5512122664627826e-06,0.00024839703219339864,9.788141808161656e-07,1.0386039100216816e-06,1.0374177925853728e-06,1.5815959038521036e-06
13,7.938078035696945e-07,2.043532497236489e-06,5.481324861722937e-07,3.7667331744460367e-06,6.816240153504461e-07,5.806204615806807e-07,1.6556048319167515e-06,1.3546796769411958e-06,1.0754923638839901e-05,1.2485213605878629e-06,3.675287364779989e-06,0.0002477472080673679,1.0071670228517167e-06,1.0875991317707505e-06,1.0818088683705154e-06,1.6893939280186452e-06
14,8.257991924102829e-07,2.1380474025490577e-06,5.688147294019641e-07,4.072400986602411e-06,7.289108038384431e-07,6.167293059420716e-07,1.6769882781965917e-06,1.462905615087972e-06,1.1700309208840246e-05,1.2850442974705813e-06,3.777177121824276e-06,0.0002450965316580836,1.0270923985765146e-06,1.132045716080698e-06,1.1217112501500952e-06,1.795376649009452e-06
15,8.540609504098711e-07,2.2205494296046937e-06,5.868202968696647e-07,4.379769188691456e-06,7.776057427286859e-07,6.512290989717411e-07,1.6873074028150285e-06,1.57453808849354e-06,1.266996354181414e-05,1.3170294583508298e-06,3.855699696960987e-06,0.000240653026024523,1.039635741541648e-06,1.1724346408137226e-06,1.157235660329264e-06,1.898771458680454e-06
16,8.785547931194959e-07,2.2899801896553906e-06,6.022557225650229e-07,4.6855759493184255e-06,8.279432293784465e-07,6.837783662337048e-07,1.6868578752527193e-06,1.6889492893277583e-06,1.3658590797845115e-05,1.3440814674248044e-06,3.909600315284072e-06,0.00023469205734197491,1.046070616562254e-06,1.2091736391822764e-06,1.1884892358294208e-06,1.9990188703562014e-06
17,8.991600073920784e-07,2.345248388765324e-06,6.152708572147204e-07,4.985897769599905e-06,8.800448483798344e-07,7.141465428979512e-07,1.6762025492326405e-06,1.80550700803876e-06,1.4661352687754448e-05,1.366132201923003e-06,3.938089346070926e-06,0.00022752151007789526,1.0477167062057443e-06,1.2426000365402343e-06,1.215513245974917e-06,2.0957387458996887e-06
18,9.157165430363502e-07,2.385672169562547e-06,6.260762067531506e-07,5.276018561487095e-06,9.33892239315445e-07,7.422188954568415e-07,1.6562042638649592e-06,1.9236660687813926e-06,1.5674776774805796e-05,1.3834936203101728e-06,3.94141621965693e-06,0.00021944797120040103,1.045816696598192e-06,1.2729575437972488e-06,1.2382679826526166e-06,2.1888851675164995e-06
19,9.28096833409667e-07,2.411374448182268e-06,6.34943497259056e-07,5.5503547045207925e-06,9.893287605490236e-07,7.679869568185651e-07,1.627964053785954e-06,2.042992596803336e-06,1.669660577335044e-05,1.396762859453135e-06,3.92104768433101e-06,0.0002107537794971235,1.041507321579149e-06,1.3004040595906595e-06,1.256747207741765e-06,2.278887814258307e-06
20,9.362856643813057e-07,2.423316518068449e-06,6.42191796641133e-07,5.802422002589086e-06,1.046074441296974e-06,7.915554289144912e-07,1.5926790326061264e-06,2.1630785938980305e-06,1.7724866632097318e-05,1.4066985786741765e-06,3.8792660129796286e-06,0.0002016842242352007,1.0358252166802739e-06,1.325072853466512e-06,1.2711181614100073e-06,2.366487638898156e-06
21,9.404025424577681e-07,2.4229370800817535e-06,6.481701878764625e-07,6.025093130562981e-06,1.1037082816933013e-06,8.131418715884023e-07,1.5514923547097546e-06,2.2833766728967547e-06,1.8756816048087314e-05,1.4141183305593254e-06,3.81854760016886e-06,0.00019244335757740206,1.029686595884341e-06,1.3471258861604207e-06,1.281729793980993e-06,2.4525212180931117e-06
22,9.406369415408248e-07,2.411669392805594e-06,6.532825317383017e-07,6.211462666218139e-06,1.1616373241618177e-06,8.331058353879335e-07,1.5054551724331555e-06,2.4030165264521827e-06,1.978798988568289e-05,1.419794669510972e-06,3.7413203627441414e-06,0.00018319949878404802,1.0238454407384047e-06,1.3667278982880382e-06,1.2890299841734505e-06,2.5379309292416193e-06
23,9.372023221844149e-07,2.390644088150316e-06,6.580379185802898e-07,6.356121794655403e-06,1.2191131537209026e-06,8.519763604599885e-07,1.4555735006586146e-06,2.5206887330234234e-06,2.081136453779128e-05,1.4243560825922977e-06,3.6501744712420075e-06,0.00017409824565549757,1.018884787748854e-06,1.3839853923702556e-06,1.2935338316555959e-06,2.623815553875752e-06
24,9.303868408903856e-07,2.360642311461784e-06,6.630276111796607e-07,6.456166434757601e-06,1.275319183389525e-06,8.70369661213707e-07,1.4028009853709096e-06,2.6347209626798803e-06,2.181758783864717e-05,1.4282716900652062e-06,3.5480751142868893e-06,0.00016527518749176,1.0152530863598337e-06,1.3989389576010044e-06,1.2958068372636075e-06,2.7113408887870807e-06
25,9.205975802481197e-07,2.3221884048370306e-06,6.688248122990336e-07,6.5113772010061704e-06,1.3295208991112667e-06,8.888430172138672e-07,1.3480167260090732e-06,2.7434220431571766e-06,2.2797450785187517e-05,1.4319334368558224e-06,3.4382434247707288e-06,0.00015685943053276585,1.013292941750519e-06,1.4115656129839888e-06,1.2963713104174662e-06,2.801572350435439e-06
26,9.083356607359624e-07,2.275728929468145e-06,6.75918166800667e-07,6.523512005447368e-06,1.3812219865964223e-06,9.07823216032093e-07,1.2920870025520825e-06,2.84553396846465e-06,2.3745539972705997e-05,1.4357040927496831e-06,3.3237788443421744e-06,0.00014896660641706226,1.013227503747201e-06,1.421740742260299e-06,1.2956279586897263e-06,2.895289303243954e-06
27,8.94169751258459e-07,2.2218632303931085e-06,6.847185617878649e-07,6.495110481475814e-06,1.4302067097276127e-06,9.276171689047748e-07,1.2359078202043572e-06,2.9404651291853233e-06,2.4661835359774148e-05,1.4398779983275195e-06,3.2073373779737386e-06,0.00014169245716528698,1.0151378432801851e-06,1.4292398299776706e-06,1.293891180067697e-06,2.9928255635875114e-06
28,8.787101337476945e-07,2.1614801635290184e-06,6.95572939331956e-07,6.428464711927923e-06,1.4764178009605482e-06,9.484162666445257e-07,1.1803392666380584e-06,3.028150535737763e-06,2.5549594119046947e-05,1.4446777291774681e-06,3.091045523313434e-06,0.00013511512295334737,1.0189616538040266e-06,1.433831507787449e-06,1.2914439667976247e-06,3.0940007235569137e-06
29,8.625350905113566e-07,2.0956584157898253e-06,7.087495262094216e-07,6.3253766539879084e-06,1.5198157406896824e-06,9.702644046954694e-07,1.126142287364821e-06,3.1086786339556068e-06,2.641209083109416e-05,1.4503401881337749e-06,2.9765512287232557e-06,0.0001292979094392691,1.0245104567465447e-06,1.4353765925340433e-06,1.2885142230581404e-06,3.198103377571884e-06
30,8.461030557106764e-07,2.0254064178336054e-06,7.244373565506375e-07,6.187753932190374e-06,1.560432512621309e-06,9.930390132425178e-07,1.0740154685888622e-06,3.181919299123605e-06,2.7250906493946257e-05,1.457174434774008e-06,2.8651629272540447e-06,0.00012428517389378275,1.0315113677293274e-06,1.4338146369762142e-06,1.2852212129535834e-06,3.3038489733006595e-06
31,8.297034286793414e-07,1.9515250150919485e-06,7.427730657245004e-07,6.018406633456851e-06,1.5986203715083827e-06,1.016482142822112e-06,1.0246500384076377e-06,3.2473554758702162e-06,2.8064864889497837e-05,1.4654847066411285e-06,2.7580760672238306e-06,0.00012009755681217071,1.0396651858837895e-06,1.4290521378861042e-06,1.2815323399331324e-06,3.4093890625417227e-06
32,8.134486556658536e-07,1.8747623428517111e-06,7.638467638449744e-07,5.821447806601439e-06,1.635274334872402e-06,1.0402559184035068e-06,9.786928310993533e-07,3.304290928983869e-06,2.8849304716237683e-05,1.475411369295769e-06,2.6564797690852417e-06,0.0001167326132281258,1.0486921667894758e-06,1.4209176589225816e-06,1.2772295767780368e-06,3.512483516544055e-06
33,7.973184881078192e-07,1.7960861827109462e-06,7.876876973642172e-07,5.602246886267056e-06,1.671850754553391e-06,1.0639660768739183e-06,9.366635613227719e-07,3.3524196880648807e-06,2.9597421043069528e-05,1.4868217169803882e-06,2.5614367333272155e-06,0.00011416883681444175,1.0583556217324535e-06,1.4092665267391888e-06,1.271950620221962e-06,3.6107704763804625e-06
34,7.812605963044097e-07,1.7167709616487451e-06,8.142597907357352e-07,5.367125966755374e-06,1.710190691006729e-06,1.087123468286869e-06,8.98924902135138e-07,3.3923979674735954e-06,3.0302996049849163e-05,1.4992955448647981e-06,2.4736987647587843e-06,0.00011237020914736635,1.0684567573437958e-06,1.394090770296097e-06,1.2653275167011026e-06,3.7019557657888395e-06
35,7.652823966026438e-07,1.6382252458937754e-06,8.434554224292431e-07,5.1229091621574775e-06,1.7522947488457532e-06,1.1090897842294884e-06,8.656929190986736e-07,3.42594609363439e-06,3.0961508201850974e-05,1.512198267153748e-06,2.3935906895946644e-06,0.00011129039346864314,1.078782447056897e-06,1.3754837815732212e-06,1.257086750650059e-06,3.783777102168374e-06
36,7.494651851363353e-07,1.5617441221262496e-06,8.751010176541404e-07,4.876413954922729e-06,1.8002121632760706e-06,1.1291133358251586e-06,8.370333539312978e-07,3.4553738888513686e-06,3.1568428746312054e-05,1.5248536605965046e-06,2.3210166069765428e-06,0.00011087476440555397,1.0890334677368287e-06,1.3535591684338337e-06,1.24699879735881e-06,3.85384710393043e-06
37,7.33911184814379e-07,1.4883597422390173e-06,9.090017243478441e-07,4.6339899708007145e-06,1.8560700919449967e-06,1.1465082097191733e-06,8.128468678901519e-07,3.4829304174444736e-06,3.2116877221747386e-05,1.5367445082010885e-06,2.2556015825101477e-06,0.00011105815477786329,1.0988168294252081e-06,1.3284968628373847e-06,1.234798069099842e-06,3.909780881187773e-06
38,7.187018273353181e-07,1.418793646942885e-06,9.4498959652454e-07,4.401177019287525e-06,1.9221094557839835e-06,1.1608915881306285e-06,7.928657609459757e-07,3.510395506727365e-06,3.259771636279145e-05,1.5475923876586118e-06,2.196836166160109e-06,0.00011176006239061965,1.107720393193896e-06,1.300646967859215e-06,1.2202493798001391e-06,3.949743597748624e-06
39,7.039429691663951e-07,1.3534765706142058e-06,9.82921293927066e-07,4.18254135532631e-06,2.000594778213721e-06,1.1723159548976813e-06,7.766608247075535e-07,3.5389316985034697e-06,3.3002230045198535e-05,1.5572633780746268e-06,2.1440854196173304e-06,0.00011288312099028872,1.115372197365935e-06,1.270521523115239e-06,1.2033204513410779e-06,3.9729550180555256e-06
40,6.89866902427635e-07,1.292648123722037e-06,1.0226295611870523e-06,3.981685012781836e-06,2.0936087846850996e-06,1.18120328780035e-06,7.636479068521519e-07,3.56908103462906e-06,3.332439103720955e-05,1.565617269580302e-06,2.0965830043108274e-06,0.00011431613387861218,1.121443435699915e-06,1.2386759823673292e-06,1.1842832511990262e-06,3.979732847215192e-06
41,6.768626378946842e-07,1.236478004540454e-06,1.0638910011469102e-06,3.801317216090171e-06,2.2028595453836413e-06,1.1881367892425661e-06,7.531050655299572e-07,3.6008910878692575e-06,3.356028841997187e-05,1.572469748788385e-06,2.0535915986760068e-06,0.00011593553336722313,1.1256855311968265e-06,1.2056068427262278e-06,1.1636369759458304e-06,3.9711802914068705e-06
42,6.653824107042204e-07,1.1850914750019437e-06,1.106431098757357e-06,3.6433122897867025e-06,2.3295920275802977e-06,1.1936521765542597e-06,7.442509763353865e-07,3.634106334895608e-06,3.370511817920843e-05,1.5776732430051345e-06,2.014597009807081e-06,0.00011760408512533742,1.1279972846221422e-06,1.1717352615525262e-06,1.1418997774226476e-06,3.9487968743190744e-06
43,6.558152757798429e-07,1.1385037782795439e-06,1.1499106809944393e-06,3.508792832485787e-06,2.4745729291852596e-06,1.1981257715525876e-06,7.363993727614639e-07,3.6682813361333964e-06,3.37503380272663e-05,1.581157396806304e-06,1.9792802984189524e-06,0.00011917490152995729,1.1284022857911368e-06,1.137417234002829e-06,1.1194226599778322e-06,3.914094634216346e-06
44,6.484193986538999e-07,1.0965810825509244e-06,1.1938884944543418e-06,3.3982919116787234e-06,2.6380843197171152e-06,1.201743733229974e-06,7.290872561939408e-07,3.7027357213886073e-06,3.368368629967406e-05,1.5828486896777287e-06,1.9472965084905918e-06,0.00012050483001647837,1.1269764167203943e-06,1.1029341877542895e-06,1.0963465433813772e-06,3.868255419001267e-06
45,6.433125468372253e-07,1.0590795288147318e-06,1.2377938877727676e-06,3.3119667849158014e-06,2.819923845346231e-06,1.2044968574695758e-06,7.220634502286498e-07,3.7365137429589343e-06,3.349261794758992e-05,1.5825833027332587e-06,1.9180818008632036e-06,0.00012147110808384784,1.1238542373735776e-06,1.068511685835785e-06,1.0727302412751311e-06,3.812004519502005e-06
46,6.404965117217741e-07,1.025715015157284e-06,1.2808898019493709e-06,3.2497512290700935e-06,3.0194220739376347e-06,1.2062040939461992e-06,7.151710543164193e-07,3.7686547999297974e-06,3.3169234265406424e-05,1.580170344350631e-06,1.8907732819794436e-06,0.00012198212778627607,1.119255656900506e-06,1.0343600162609071e-06,1.0487718640546838e-06,3.745763329841507e-06
47,6.399210816597115e-07,9.961963992426413e-07,1.3222699629395079e-06,3.2113358548892045e-06,3.235434642428173e-06,1.206583142975644e-06,7.082740279917491e-07,3.7987410772357534e-06,3.271300684146817e-05,1.575569059008138e-06,1.864187031928332e-06,0.00012197520292041315,1.1134042386624127e-06,1.0006730139610587e-06,1.024927053697101e-06,3.669890158748533e-06
48,6.415642818892396e-07,9.701847226650993e-07,1.361004021836358e-06,3.1960170801524305e-06,3.4662694384499478e-06,1.205331954741858e-06,7.012943061908069e-07,3.827282440299495e-06,3.212916213289716e-05,1.568979941192088e-06,1.8368303875892822e-06,0.00012140218099153801,1.1063822059633941e-06,9.676042509611527e-07,1.0018065054181745e-06,3.5848583152445823e-06
49,6.454575245599214e-07,9.472226623621226e-07,1.3964045418561484e-06,3.2026236137296097e-06,3.709576796099002e-06,1.2021839014568979e-06,6.942666267823518e-07,3.855628897826106e-06,3.1426919978980054e-05,1.5607818228364722e-06,1.8070041594773674e-06,0.00012021901198581548,1.0980437698008876e-06,9.352787807495939e-07,9.800058654921087e-07,3.4913775385463276e-06
50,6.516377992285117e-07,9.267394550313243e-07,1.4282200653355212e-06,3.2296353459143273e-06,3.962254134099962e-06,1.1969534529215992e-06,6.87327243714816e-07,3.885497512849114e-06,3.0621484572527595e-05,1.5514314291483193e-06,1.7730768346460151e-06,0.00011839532035824287,1.0880205177294267e-06,9.038150345686673e-07,9.600379705609472e-07,3.390468718424768e-06
51,6.600957008141111e-07,9.081602071977549e-07,1.456587353328376e-06,3.2753751828633807e-06,4.220372797434896e-06,1.1896093462159928e-06,6.806526072020838e-07,3.9183888989183385e-06,2.973497289386939e-05,1.5414136039386263e-06,1.7338964403566492e-06,0.0001159362585879169,1.0758307295341188e-06,8.733117044760807e-07,9.42324051845474e-07,3.2834977663041472e-06
52,6.707553638889856e-07,8.910147451646818e-07,1.481809417015269e-06,3.338160456454847e-06,4.479112241505071e-06,1.180361845008276e-06,6.743881263034492e-07,3.955158862782942e-06,2.879214441997157e-05,1.5312428160952905e-06,1.689145364072841e-06,0.00011289570937558043,1.0611020557476449e-06,8.438554316546187e-07,9.272073981847884e-07,3.1721998152285805e-06
53,6.834547009700784e-07,8.749336770985587e-07,1.504187093005657e-06,3.4164290755963867e-06,4.732749353598826e-06,1.1696854263641234e-06,6.686001335909913e-07,3.995905798673671e-06,2.7815282977040696e-05,1.5214867925115246e-06,1.6394072102948162e-06,0.00010937164997237678,1.043811536871437e-06,8.155995633688594e-07,9.15036197348488e-07,3.058650481887783e-06
54,6.979278751182343e-07,8.595533378979488e-07,1.5239706533801047e-06,3.5088240914728443e-06,4.974843468162339e-06,1.1582291593164074e-06,6.632847941402084e-07,4.040126175288668e-06,2.682263702069662e-05,1.5127556267426344e-06,1.5858788562986612e-06,0.000105488641521217,1.0243925411788684e-06,7.888201046692677e-07,9.062387123221363e-07,2.9451031378785098e-06
55,7.138139680761329e-07,8.444564478818158e-07,1.5413494530467955e-06,3.614142397223642e-06,5.198826482832071e-06,1.1466685156042462e-06,6.58437779268265e-07,4.086968456566279e-06,2.582918330327737e-05,1.5056125708948718e-06,1.5299605859163345e-06,0.00010137675194721935,1.003650698085417e-06,7.63855676870571e-07,9.012693075472567e-07,2.833768451057266e-06
56,7.306661918638988e-07,8.292132990060084e-07,1.5565079260332278e-06,3.731099370708442e-06,5.399161874055362e-06,1.135578882306875e-06,6.541292983599145e-07,4.1355366831578935e-06,2.484704990790448e-05,1.5004472268666943e-06,1.473003267059353e-06,9.715478606905261e-05,9.825586977005823e-07,7.409975106160537e-07,9.004823664084326e-07,2.7266819901639286e-06
57,7.47948480872989e-07,8.134651061826479e-07,1.5697274129267806e-06,3.858025851433756e-06,5.5727763418581755e-06,1.1253546061716878e-06,6.505138938438338e-07,4.18524475819443e-06,2.3885152143671003e-05,1.4974006863003418e-06,1.416212416413065e-06,9.29220571580544e-05,9.620622135937973e-07,7.204276132466012e-07,9.040621165729634e-07,2.6256433777369767e-06
58,7.65064127198421e-07,7.969831697313862e-07,1.5813713989657768e-06,3.992757577289668e-06,5.719861256560167e-06,1.1161674306641175e-06,6.477870235012984e-07,4.236008834113131e-06,2.2948808796704138e-05,1.4963938123506847e-06,1.3605988906567427e-06,8.875780978697239e-05,9.429722455149126e-07,7.02207146815111e-07,9.120181533180053e-07,2.5321814645533126e-06
59,7.814441966262493e-07,7.796998464011633e-07,1.5918030745542315e-06,4.132851530184144e-06,5.843409636084095e-06,1.1079638697548935e-06,6.461611789772869e-07,4.28802931768362e-06,2.203957140659249e-05,1.4972477889915058e-06,1.3069760853831764e-06,8.472379864055173e-05,9.259209210673562e-07,6.862813096027767e-07,9.24194066429155e-07,2.4475595142650243e-06
60,7.966601741980387e-07,7.617230941084253e-07,1.6014049470440771e-06,4.275946623729977e-06,5.94786019911161e-06,1.1004858574978304e-06,6.45874145176108e-07,4.341330326203588e-06,2.1155455852296496e-05,1.499821456909909e-06,1.2559893459575476e-06,8.086657600025979e-05,9.113556279886622e-07,6.724832899417271e-07,9.40273965051314e-07,2.372759059884359e-06
61,8.104896486602494e-07,7.433183113989684e-07,1.610609575210528e-06,4.419996368847297e-06,6.037725217395149e-06,1.0933089260071623e-06,6.471909086098586e-07,4.395557044339716e-06,2.02926225786821e-05,1.504071386345957e-06,1.2081191023599782e-06,7.721864004334981e-05,8.995740516427291e-07,6.605485224404104e-07,9.597926123384828e-07,2.3084159284891225e-06
62,8.228772274882173e-07,7.248361204435324e-07,1.6198080550662696e-06,4.5633064166078855e-06,6.11687574101032e-06,1.0859460845546498e-06,6.50380517763676e-07,4.4502132497199825e-06,1.9448652395877986e-05,1.510021543156461e-06,1.163690209265135e-06,7.379862300365237e-05,8.907766992812756e-07,6.501554968568853e-07,9.821509898077354e-07,2.2547711902086216e-06
63,8.338116726699158e-07,7.066157666255033e-07,1.6292485564950789e-06,4.704513413397837e-06,6.188608601306193e-06,1.0780055013293296e-06,6.556693188306022e-07,4.504977191292633e-06,1.862511984903061e-05,1.5177047402122029e-06,1.1229409046665148e-06,7.061137960431103e-05,8.850981846478723e-07,6.409712990870576e-07,1.0066634370679668e-06,2.2116743860026986e-06
64,8.432211124768848e-07,6.889364898246432e-07,1.6390693693141993e-06,4.842628939924308e-06,6.256070422059729e-06,1.0692561027190356e-06,6.631931693489806e-07,4.559687125651146e-06,1.7827405865071983e-05,1.5271160248379918e-06,1.0860799233975648e-06,6.764976673756014e-05,8.826257294140612e-07,6.326911395455994e-07,1.0326395780848207e-06,2.1786915843576787e-06
65,8.509467243488528e-07,6.720440448665962e-07,1.649410009300768e-06,4.977099644532517e-06,6.322611011311891e-06,1.0595444759490816e-06,6.729760084078342e-07,4.614008928585003e-06,1.706254173514323e-05,1.5381608068355716e-06,1.0532534645428095e-06,6.489992902956773e-05,8.834609056772807e-07,6.250701607633275e-07,1.0594307557575846e-06,2.155343310843397e-06
66,8.567738407735822e-07,6.561896252365266e-07,1.6604383206586233e-06,5.107767668860964e-06,6.391943774589002e-06,1.048701411264088e-06,6.849324772881374e-07,4.667246615420674e-06,1.63372148991673e-05,1.5505863623791323e-06,1.0244835978605404e-06,6.23499645120071e-05,8.878232506860353e-07,6.179332550782432e-07,1.0864504039752984e-06,2.1413323117003253e-06
67,8.604848387813051e-07,6.416230209525208e-07,1.6722623281690466e-06,5.234738671207324e-06,6.468125044173227e-06,1.03652803267772e-06,6.988893034379772e-07,4.718648057935367e-06,1.5656926370916805e-05,1.563941379788603e-06,9.996532763515194e-07,5.9998541692482954e-05,8.960955317694296e-07,6.112006042179143e-07,1.1132795410949437e-06,2.1365564461210886e-06
68,8.61888840130813e-07,6.285782487725679e-07,1.6849066260251893e-06,5.35825031049403e-06,6.555400476745064e-06,1.0228270376434872e-06,7.146266430415152e-07,4.7679128673051545e-06,1.5025716736022281e-05,1.5775943313780406e-06,9.785470959873402e-07,5.7858293319408944e-05,9.087434065163929e-07,6.049339955465691e-07,1.139784498382762e-06,2.1408966109666902e-06
69,8.608484110889585e-07,6.172845983439685e-07,1.698491458126454e-06,5.4785509352176484e-06,6.657942629812557e-06,1.0074729878737027e-06,7.319093464035822e-07,4.815396669909791e-06,1.4445771179942038e-05,1.5907590474848358e-06,9.609504816677517e-07,5.595159602238103e-05,9.261812853531835e-07,5.993388678603623e-07,1.1660520644402641e-06,2.1540003334140868e-06
70,8.573844737382871e-07,6.079666189407835e-07,1.7134390634282608e-06,5.595696814284327e-06,6.779472020650073e-06,9.905130283852455e-07,7.5050002565338e-07,4.861934455077628e-06,1.3917327359252054e-05,1.6024938547219447e-06,9.467462293534341e-07,5.430325150981188e-05,9.486966039348053e-07,5.947296837711008e-07,1.1922186702564383e-06,2.1752090964651015e-06
71,8.517979953602012e-07,6.008448355719928e-07,1.7304414163225958e-06,5.709225600400829e-06,6.9228108648286935e-06,9.722156192775494e-07,7.702002679250193e-07,4.908532657326683e-06,1.3439274359361438e-05,1.6117411810231381e-06,9.359035362830354e-07,5.293805161550237e-05,9.764445526358146e-07,5.914869191507068e-07,1.218386204849156e-06,2.203561123211493e-06
72,8.446512840759582e-07,5.961622975930628e-07,1.7502284234264558e-06,5.817858713060602e-06,7.089478905818604e-06,9.530172490534964e-07,7.908986893401138e-07,4.956121197021641e-06,1.3009778364722538e-05,1.617457352122021e-06,9.283601748641703e-07,5.188395493812431e-05,1.0094575659326086e-06,5.899925367586143e-07,1.2445759719089427e-06,2.2378345192230407e-06
73,8.366059097560548e-07,5.941848553754628e-07,1.7733942654697836e-06,5.919470856035391e-06,7.279430853285369e-06,9.334049990097963e-07,8.125438683667729e-07,5.005335573817173e-06,1.2626696397073202e-05,1.6187825238925382e-06,9.239143062871857e-07,5.1173221434060615e-05,1.047635900796009e-06,5.905713807612254e-07,1.270632392815971e-06,2.276717197571765e-06
74,8.28261691606589e-07,5.951672212395985e-07,1.8003669567097392e-06,6.0113270234068535e-06,7.490969175700988e-06,9.138015246068563e-07,8.350747126544879e-07,5.05625975864839e-06,1.2288460115823246e-05,1.615141637875594e-06,9.222424406756227e-07,5.083756195412413e-05,1.090724240988203e-06,5.93463573961883e-07,1.2961425054695357e-06,2.319075535306164e-06
75,8.200877335238045e-07,5.993330166440976e-07,1.831390554556945e-06,6.090342310458904e-06,7.720786200563225e-06,8.945187815224086e-07,8.584178298018627e-07,5.108314014676506e-06,1.199536771498844e-05,1.6061793481542202e-06,9.23042851728292e-07,5.090183383933545e-05,1.1383065256277774e-06,5.988139444560844e-07,1.320444815255537e-06,2.3640827105878452e-06
76,8.124120135382805e-07,6.068583972920165e-07,1.8664737118375863e-06,6.153225588034989e-06,7.964079080831304e-06,8.757874164115869e-07,8.825439291702526e-07,5.1604869323712185e-06,1.1750165097251445e-05,1.5915970865368208e-06,9.261647064149775e-07,5.1381709070847e-05,1.1898258381359392e-06,6.066740690411529e-07,1.3427483581662467e-06,2.4110411343389942e-06
77,8.054163996426068e-07,6.178491237716644e-07,1.9053717975382055e-06,6.196606012406891e-06,8.214763305162693e-06,8.577820522069853e-07,9.074747220975697e-07,5.2117041045734626e-06,1.1557245860192536e-05,1.5711287061893528e-06,9.315939688561984e-07,5.228590548411344e-05,1.244588606643785e-06,6.170249363730093e-07,1.3623273301292872e-06,2.459084819118798e-06
78,7.991399948049137e-07,6.3233122671074e-07,1.9476385875853054e-06,6.217299330027294e-06,8.465869382456689e-06,8.406125703173449e-07,9.332108105115721e-07,5.260994070357184e-06,1.1421003179034033e-05,1.5447397315182127e-06,9.393466195566419e-07,5.362004440797411e-05,1.3017338862694474e-06,6.298181425540729e-07,1.3786376399711411e-06,2.507011120160308e-06
79,7.935068863766142e-07,6.502395103724512e-07,1.992764199303979e-06,6.21275123213778e-06,8.710146112233669e-06,8.243287395920704e-07,9.596566963811262e-07,5.3073952647330155e-06,1.1344352354762223e-05,1.5128351225367583e-06,9.49413856807914e-07,5.538916190277112e-05,1.360212121196881e-06,6.449998001269656e-07,1.3912289846704588e-06,2.553229593115507e-06
80,7.883577560782517e-07,6.713950989881267e-07,2.040335550516535e-06,6.1815457317226555e-06,8.940767062476209e-06,8.089324069006349e-07,9.865876711614183e-07,5.349740273851908e-06,1.1328061646971272e-05,1.4762551457663647e-06,9.617739843257495e-07,5.759757579865406e-05,1.4188437687491105e-06,6.624850706347006e-07,1.3995948933774886e-06,2.595810288761239e-06
81,7.834723410727679e-07,6.954964629515436e-07,2.090081326358958e-06,6.123809517722311e-06,9.15195925565483e-06,7.94369833809358e-07,1.0136518452384538e-06,5.38648029806343e-06,1.1370892117378629e-05,1.436080760278851e-06,9.763736936664939e-07,6.02465124266924e-05,1.4764684129700462e-06,6.8211817502079e-07,1.4031919827621576e-06,2.6326785600097285e-06
82,7.786037955729342e-07,7.221446486773456e-07,2.1417634795508807e-06,6.041335686951922e-06,9.339370506952662e-06,7.805265779183851e-07,1.0404218766191478e-06,5.415703148787835e-06,1.1470118168482078e-05,1.3934109790469318e-06,9.930688456851582e-07,6.333095113813901e-05,1.5321093625847585e-06,7.036809552931278e-07,1.4015944848385657e-06,2.6618339246952577e-06
83,7.735040364893519e-07,7.509210091133159e-07,2.195026577644995e-06,5.937227152727549e-06,9.500029393593312e-06,7.67225961178598e-07,1.066486177141386e-06,5.435426699176648e-06,1.1621950193992618e-05,1.3492342737661109e-06,1.0116142479964903e-06,6.683702015483003e-05,1.585060276271303e-06,7.269501935825281e-07,1.3946088262403e-06,2.681490822171701e-06
84,7.679124895010108e-07,7.814967715672622e-07,2.249363403524108e-06,5.815059914868515e-06,9.631858919149724e-06,7.542130776495829e-07,1.091504469102946e-06,5.444087965947299e-06,1.182155869941323e-05,1.3044159534890772e-06,1.0317107943555685e-06,7.074031416423546e-05,1.6348579188997366e-06,7.51742212459818e-07,1.3823285554240224e-06,2.690239612147643e-06
85,7.615735087979675e-07,8.136893698683971e-07,2.3042273890452392e-06,5.678040670773428e-06,9.732851311569015e-06,7.411665370312099e-07,1.1151713227448084e-06,5.440981070985023e-06,1.2062670305722109e-05,1.2597351972330426e-06,1.0530085818512666e-06,7.500480787840683e-05,1.6811943603463716e-06,7.779075217725949e-07,1.3651777422978028e-06,2.687287653868015e-06
86,7.543105131142976e-07,8.47420289559507e-07,2.359199448651904e-06,5.528698519774889e-06,9.800186141970315e-06,7.277917187173259e-07,1.1371313780860098e-06,5.426418912294611e-06,1.233700673460636e-05,1.2158866105127976e-06,1.0750328493928748e-06,7.958200334460958e-05,1.7238353455697081e-06,8.052916992653683e-07,1.3438818424968962e-06,2.672615915586172e-06
87,7.460617780460346e-07,8.826431864623898e-07,2.414164784718785e-06,5.369074318919449e-06,9.829843057554845e-06,7.139620852529373e-07,1.156942800644917e-06,5.401595975169417e-06,1.2633963317893136e-05,1.1734351753765081e-06,1.097112239612128e-06,8.4410002245286e-05,1.7625583086882897e-06,8.336957364647957e-07,1.3193150004922286e-06,2.6468079349079054e-06
88,7.368686845850549e-07,9.193147816002394e-07,2.4694270265825228e-06,5.200993345808282e-06,9.817142827429945e-06,6.997955238137728e-07,1.1741047055664117e-06,5.368234041905721e-06,1.2940806726717695e-05,1.1327882081423597e-06,1.1183960596073285e-06,8.941198857376891e-05,1.7970810677044285e-06,8.628554514880709e-07,1.2923372150526955e-06,2.6105991955224967e-06
89,7.269014256588095e-07,9.573806205404275e-07,2.525597335449136e-06,5.0262046781907955e-06,9.75789916837947e-06,6.855906991581068e-07,1.188068491723981e-06,5.328056024405551e-06,1.3243492826943871e-05,1.094225763061712e-06,1.1380314424936625e-06,9.449410664742495e-05,1.8269617581397393e-06,8.924431509384465e-07,1.263740396784587e-06,2.564558087740433e-06
90,7.164763337640038e-07,9.967265154392646e-07,2.58328411518982e-06,4.84643355111812e-06,9.649450754514142e-06,6.716862123460311e-07,1.198214067671049e-06,5.282226003157729e-06,1.352801528934516e-05,1.0579424935996256e-06,1.1554668775115389e-06,9.954524331603778e-05,1.8515540742770357e-06,9.220826540867349e-07,1.2342512469237417e-06,2.5091511698810018e-06
91,7.059983335651636e-07,1.037116707377208e-06,2.642863195579667e-06,4.6633967693685895e-06,9.491221783889256e-06,6.583590028333282e-07,1.2039112128314217e-06,5.2310638572661685e-06,1.3781903040501154e-05,1.0240475447792112e-06,1.1706253612251924e-06,0.00010444382021434995,1.8701227835466326e-06,9.513677874179987e-07,1.2045191158831221e-06,2.445021175748463e-06
92,6.959072940101989e-07,1.078183082823054e-06,2.7044374886420158e-06,4.478744805852236e-06,9.284881635859136e-06,6.457890711080061e-07,1.2047352471978717e-06,5.1741828598014026e-06,1.3995288564300238e-05,9.92547097753493e-07,1.183755630213409e-06,0.00010907425307128449,1.882088669825354e-06,9.798966069782774e-07,1.1751056050797927e-06,2.3732543273910305e-06
93,6.866730706940578e-07,1.119516864082058e-06,2.767783615540841e-06,4.293948995971238e-06,9.034236545403728e-06,6.340600704999113e-07,1.2006972447497855e-06,5.110828377582873e-06,1.4161216323811082e-05,9.633351190812626e-07,1.1951622698334766e-06,0.00011334747396786966,1.8872753566813977e-06,1.0073317485773826e-06,1.1464719817415789e-06,2.2955104679790547e-06
94,6.787711020787815e-07,1.1608227686043046e-06,2.832189089038011e-06,4.11027262663522e-06,8.744903651091702e-06,6.232037948861663e-07,1.1923055679014766e-06,5.0401490247676585e-06,1.4275322740908429e-05,9.36189348592405e-07,1.2050653632565486e-06,0.00011721376975124189,1.8860150892918723e-06,1.0334698798171795e-06,1.1189524404352814e-06,2.2138948779325393e-06
95,6.726223273515311e-07,1.20199029198037e-06,2.896307520242275e-06,3.928917607988093e-06,8.4237887574659e-06,6.132979632302793e-07,1.1804177130445806e-06,4.961365729575922e-06,1.4335023468234525e-05,9.107942268668148e-07,1.2135450015519101e-06,0.00012066047357542679,1.8790516216334734e-06,1.0582827374443495e-06,1.0927659195704459e-06,2.130610588545071e-06
96,6.685588079742168e-07,1.2430013661180547e-06,2.95812111904741e-06,3.751234334087113e-06,8.078435932980657e-06,6.045441924458178e-07,1.165984003988762e-06,4.873936078902734e-06,1.4338297361818195e-05,8.867801913435338e-07,1.2205197468913796e-06,0.00012369815405161903,1.8673484110363223e-06,1.081878335957501e-06,1.0680755165085663e-06,2.0476336199617337e-06
97,6.66832038596231e-07,1.2837683314042603e-06,3.01505888244084e-06,3.578758223562531e-06,7.716354296268729e-06,5.972437019077617e-07,1.1498436815177878e-06,4.777752306316964e-06,1.428309412448688e-05,8.637610169182773e-07,1.225831338612961e-06,0.00012634444340729292,1.8519380174569643e-06,1.1043979682104676e-06,1.0450319150382524e-06,1.966620564545552e-06
98,6.676323449840814e-07,1.3240476934878555e-06,3.0643606100862977e-06,3.4129807245217203e-06,7.344388776890153e-06,5.917121605265422e-07,1.1326458106077037e-06,4.67329755308343e-06,1.4168721493680229e-05,8.414317095891675e-07,1.2293698967989764e-06,0.0001286108415094149,1.8338026527534595e-06,1.1259731711613967e-06,1.0238144028277132e-06,1.889035099959572e-06
99,6.711109128273885e-07,1.3634829175194232e-06,3.1036366766215505e-06,3.255073196656297e-06,6.968208982401389e-06,5.882258054073343e-07,1.1148530506635564e-06,4.561660480772392e-06,1.3998369733994633e-05,8.197114325982518e-07,1.2311053337560634e-06,0.00013049334784380248,1.8137446996769546e-06,1.146778529110903e-06,1.004680953021498e-06,1.8162988949818326e-06
100,6.773958017880885e-07,1.4017257743917972e-06,3.1313171724918466e-06,3.105834604073345e-06,6.59210696790824e-06,5.869992373158373e-07,1.0967774842984564e-06,4.4443746034776525e-06,1.378006202941667e-05,7.987748255660324e-07,1.231074565337517e-06,0.00013196667164660166,1.7922937629882674e-06,1.1670371048124123e-06,9.87938559030682e-07,1.7498056891205262e-06
101,6.865887775756852e-07,1.4385379308056842e-06,3.146689362731334e-06,2.9658322318065128e-06,6.219200128478957e-06,5.881606580852937e-07,1.0785992893212186e-06,4.323142058680801e-06,1.3524892248451038e-05,7.789413002377323e-07,1.2293831822437371e-06,0.00013298200987540713,1.769673276774143e-06,1.1869141397085068e-06,9.73856307912631e-07,1.6908153520295695e-06
102,6.987550172664721e-07,1.4737809882013127e-06,3.149523895367337e-06,2.8355278932177193e-06,5.851838920979081e-06,5.917475921631562e-07,1.0603526584173033e-06,4.199581003723233e-06,1.3244204240266171e-05,7.605572869119293e-07,1.2261492750320154e-06,0.00013347209555353252,1.745802089577341e-06,1.2064073750293651e-06,9.626565610516976e-07,1.6403446341148116e-06
103,7.139104373479609e-07,1.5072875260943036e-06,3.139616159234897e-06,2.715286901567327e-06,5.4919884573367134e-06,5.977386878115014e-07,1.0419490054956158e-06,4.075113223862718e-06,1.2947905548430996e-05,7.439323739901445e-07,1.2214457235629773e-06,0.00013336833303546856,1.7203760284236433e-06,1.22531297783615e-06,9.545666798812786e-07,1.5991158609960947e-06
104,7.320086222427106e-07,1.5387367030755812e-06,3.116707552440827e-06,2.6052811347075167e-06,5.141502576247056e-06,6.060832705746667e-07,1.0232663356644082e-06,3.95096865689621e-06,1.2644469271221047e-05,7.293084077219815e-07,1.2153692246478044e-06,0.000132624698355544,1.6930780359984771e-06,1.243247435611722e-06,9.498103969805311e-07,1.5675409743987797e-06
105,7.529320484593555e-07,1.5676659943874536e-06,3.0809357466747065e-06,2.5053544350699448e-06,4.802229923331609e-06,6.167230854699603e-07,1.0042129127682588e-06,3.828170755848929e-06,1.234165173380154e-05,7.168545710247874e-07,1.2081391587976277e-06,0.00013123485744605335,1.6637742537848198e-06,1.2596937532080752e-06,9.48549506627738e-07,1.5457161966754306e-06
106,7.764806585984047e-07,1.5936244821576235e-06,3.0333867088394623e-06,2.4149272575816453e-06,4.4759219215310244e-06,6.296403366337671e-07,9.84728050726494e-07,3.7074088567676217e-06,1.2046808350515617e-05,7.066583637884853e-07,1.2000664985050955e-06,0.00012923549683979314,1.6324973248908068e-06,1.274099515191416e-06,9.508462215305377e-07,1.533447432222498e-06
107,8.023620988945424e-07,1.6163877598683535e-06,2.9762146136029527e-06,2.3329818315063205e-06,4.164050380533118e-06,6.448922876409795e-07,9.648066511845695e-07,3.588889915215396e-06,1.1766524529270654e-05,6.986906533398809e-07,1.1914466042470996e-06,0.000126699794491585,1.5993096757376113e-06,1.2860325577420725e-06,9.566313444683635e-07,1.5303124053926137e-06
108,8.301835665523139e-07,1.6361177161369652e-06,2.912229593374005e-06,2.2581740999603643e-06,3.86771088396378e-06,6.625681382483869e-07,9.445420407343384e-07,3.472370067447114e-06,1.150610041994565e-05,6.927823800946811e-07,1.1825160311258923e-06,0.00012372767818332364,1.564287553261147e-06,1.2952590801271542e-06,9.65683283860326e-07,1.5357125867626747e-06
109,8.59437780220181e-07,1.653350601342237e-06,2.844279549244839e-06,2.1890687922128634e-06,3.5876747909829375e-06,6.827180942699311e-07,9.24077876022183e-07,3.3573931924986425e-06,1.1269419709785911e-05,6.886460108334922e-07,1.1734927201573537e-06,0.00012043502607807165,1.5276173362110065e-06,1.3016741030699913e-06,9.776534367854342e-07,1.5488872762994822e-06
110,8.894952492134366e-07,1.6688114041226513e-06,2.7748160475776434e-06,2.1243633387530573e-06,3.324499621356903e-06,7.053474265867264e-07,9.035021625829122e-07,3.2435584269787986e-06,1.1059070918799474e-05,6.859256205356218e-07,1.1646646655347117e-06,0.00011694070082066237,1.4896232346043892e-06,1.3051961662137256e-06,9.92109503536026e-07,1.5689230536833144e-06
111,9.196242266092998e-07,1.6831874447221793e-06,2.70576578264965e-06,2.062998511598834e-06,3.07860186695102e-06,7.304605106801092e-07,8.828233632071828e-07,3.1306850867617493e-06,1.0876336448091317e-05,6.842600689686903e-07,1.1564963085947285e-06,0.00011335392146910821,1.4506913681086751e-06,1.3056809269217848e-06,1.0086132933595293e-06,1.594780146545066e-06
112,9.490740877052066e-07,1.6969994010515539e-06,2.6386190346499003e-06,2.0042157146143312e-06,2.850290906108413e-06,7.580759142164207e-07,8.620547336005593e-07,3.018869876659697e-06,1.0721043492971788e-05,6.833723735128544e-07,1.1496475774948084e-06,0.00010976918295014913,1.4112343363564035e-06,1.3028617436757706e-06,1.026855835166415e-06,1.6253027547690722e-06
113,9.772417470836346e-07,1.7105959384055575e-06,2.574611983599498e-06,1.9476316752093933e-06,2.6397873371402515e-06,7.88223582845668e-07,8.413220961840473e-07,2.908477395651154e-06,1.0591469974536995e-05,6.831465569904619e-07,1.1448463100410378e-06,0.00010627071545696297,1.3717701837346093e-06,1.2963931301398005e-06,1.0467120572389038e-06,1.6592580898470258e-06
114,1.0038434233179013e-06,1.724189922359153e-06,2.5148204447105362e-06,1.8932747103847803e-06,2.447192537777238e-06,8.209631978649124e-07,8.20913387241863e-07,2.8001129018268234e-06,1.0484362431045216e-05,6.836306749519174e-07,1.142745652016899e-06,0.00010293886266480065,1.3330287314571887e-06,1.2859926623610888e-06,1.0681309882361235e-06,1.6954971947744305e-06
115,1.0289632026095875e-06,1.7378552026970914e-06,2.4600714654244314e-06,1.841495561278585e-06,2.2723781148299445e-06,8.563623591703623e-07,8.012330902018804e-07,2.6945874065083628e-06,1.0395077037605207e-05,6.849920004755367e-07,1.1438719015189671e-06,9.985103665667364e-05,1.2959793082733565e-06,1.2715287012347698e-06,1.0910141632724204e-06,1.7331104297071129e-06
116,1.0529479165400566e-06,1.7514724395950963e-06,2.4108463790727276e-06,1.7927842329052194e-06,2.1148692339325748e-06,8.944095060291389e-07,7.826844031233184e-07,2.592835919739474e-06,1.031782796736277e-05,6.874543927701908e-07,1.148602336573599e-06,9.707688826283745e-05,1.2617198773789017e-06,1.2529687234050758e-06,1.115226135447047e-06,1.7713723820313378e-06
117,1.0762403915883856e-06,1.7646570914890212e-06,2.3673298921127263e-06,1.7476038095326738e-06,1.9738552901134627e-06,9.349400256729793e-07,7.655681655428675e-07,2.4957807239374033e-06,1.0245834487479752e-05,6.912156538160867e-07,1.157149430724723e-06,9.467184507403904e-05,1.2312898739459884e-06,1.2303509210411095e-06,1.1406935248704176e-06,1.809562072962469e-06
118,1.099252154974296e-06,1.776741356514492e-06,2.3294989981460597e-06,1.7062873884520846e-06,1.8483540908041977e-06,9.776202893973675e-07,7.500903921303792e-07,2.4041958420450437e-06,1.0171315007248945e-05,6.963819336152619e-07,1.1695851476031404e-06,9.267391108079757e-05,1.2055470512562133e-06,1.2039117884131465e-06,1.167487055542055e-06,1.8469040541716903e-06
119,1.122306836227869e-06,1.7868867863620578e-06,2.2971372109286967e-06,1.6690058660615398e-06,1.7374023348350913e-06,1.0219652644913364e-06,7.36470686670753e-07,2.3186213314210416e-06,1.0086177406819939e-05,7.029368679858435e-07,1.185863049253411e-06,9.11044082733276e-05,1.1851189277745507e-06,1.1741848179147399e-06,1.1958362459961064e-06,1.8826456262799695e-06
120,1.1456170727525663e-06,1.7942963646683576e-06,2.269795188116676e-06,1.6358596687917235e-06,1.640131137318681e-06,1.0673479688418953e-06,7.250344380303669e-07,2.2393258415630473e-06,9.984195556499745e-06,7.10725214530008e-07,1.2058144684461737e-06,8.996907133327058e-05,1.170368996233651e-06,1.1419042469592218e-06,1.2260622435686822e-06,1.9160834972423958e-06
121,1.1692476597565082e-06,1.7983876665279196e-06,2.246748055455753e-06,1.6070478485406857e-06,1.5557074647449464e-06,1.1129949814940568e-06,7.161890018956727e-07,2.1663088711005e-06,9.863267301035075e-06,7.194595477469239e-07,1.2291701122169832e-06,8.925979386560751e-05,1.1613851268933712e-06,1.1078709894279927e-06,1.2584626093055262e-06,1.946537068913863e-06
122,1.1930841500205742e-06,1.798839409204485e-06,2.2270660238606756e-06,1.582907987681191e-06,1.4832417961658427e-06,1.1579878756173953e-06,7.103188212481338e-07,2.099344711198628e-06,9.72536167330626e-06,7.287768377813144e-07,1.2556046614606974e-06,8.896190397524698e-05,1.1580030837327515e-06,1.072914130055278e-06,1.293248285187563e-06,1.973442671451284e-06
123,1.216846938553539e-06,1.7955479334608045e-06,2.209873777533934e-06,1.5637469869092208e-06,1.4217659556648778e-06,1.2012745583168901e-06,7.076990719174242e-07,2.0380321130731436e-06,9.574362998604937e-06,7.3835001027032e-07,1.284755309989382e-06,8.906670908447423e-05,1.1598421034290995e-06,1.0378524633453602e-06,1.3305516924901114e-06,1.9965104399693154e-06
124,1.2401366871947676e-06,1.788541117960577e-06,2.194627237409202e-06,1.5496401512697512e-06,1.3702839759960091e-06,1.2417333081694917e-06,7.084592898757623e-07,1.9817884092724693e-06,9.414204933451338e-06,7.479960444605682e-07,1.3162288614313464e-06,8.958129396017292e-05,1.1663378605824362e-06,1.0034410052085484e-06,1.3704039352203734e-06,2.015703202481345e-06
125,1.2625011062772408e-06,1.7778425349335123e-06,2.1811847916892955e-06,1.5403711584693732e-06,1.3278246512532338e-06,1.2783297047436942e-06,7.125769553629406e-07,1.929826775782221e-06,9.248262244970692e-06,7.576877980997595e-07,1.3496230129152646e-06,9.05273150971156e-05,1.1767838478316289e-06,9.703806346567912e-07,1.4126870217699801e-06,2.0310726228454294e-06
126,1.2835250402253316e-06,1.7633387653025094e-06,2.1696479726508744e-06,1.5354773196910308e-06,1.2934398644681275e-06,1.310282785033514e-06,7.198869801645707e-07,1.881258088925273e-06,9.07908297400688e-06,7.674757938368466e-07,1.3845087942044756e-06,9.192955771668862e-05,1.190369069381307e-06,9.393474253361291e-07,1.4571607273950733e-06,2.0427173559379208e-06
127,1.302891445861069e-06,1.7447699112729462e-06,2.1600974914439873e-06,1.5342713079298299e-06,1.266146754389986e-06,1.337122260477241e-06,7.300955450653276e-07,1.8353249237646157e-06,8.907951981431346e-06,7.774204696481344e-07,1.4203511910027095e-06,9.380584367725957e-05,1.206166518437885e-06,9.109812626486501e-07,1.5035209969943491e-06,2.0508950671013527e-06
128,1.3203598100032088e-06,1.7218519265585044e-06,2.15241446674771e-06,1.5358267425115901e-06,1.2448874083995715e-06,1.3586123758616535e-06,7.428056803410998e-07,1.7915487876384585e-06,8.734831079614642e-06,7.876072918177416e-07,1.4564955431476355e-06,9.616583144229519e-05,1.2231023531431826e-06,8.85844748293745e-07,1.5514161481530402e-06,2.0560687502637636e-06
129,1.3356904270248232e-06,1.6944063957854944e-06,2.1463332449321115e-06,1.5390350978769384e-06,1.2285924212898832e-06,1.3745885632488425e-06,7.575760707677242e-07,1.7496338274399251e-06,8.55916075705178e-06,7.982262483992495e-07,1.4923178089527123e-06,9.90122815959244e-05,1.2400383413667244e-06,8.643710748604663e-07,1.6004859517831808e-06,2.0587890847334038e-06
130,1.3485870193996724e-06,1.6623721101935064e-06,2.1416516422482043e-06,1.54277515094503e-06,1.216311312339487e-06,1.3848019802164936e-06,7.73984063405415e-07,1.7092729950358194e-06,8.381084208240327e-06,8.096014294307529e-07,1.5273799899654826e-06,0.00010233853924447588,1.2559955715592595e-06,8.468369140946052e-07,1.6504147361927584e-06,2.0595694971285465e-06
131,1.3587038339999097e-06,1.6256921686403786e-06,2.1383528880832976e-06,1.5460966484829617e-06,1.207299562439307e-06,1.3888980238271928e-06,7.916263141590595e-07,1.6700685638486115e-06,8.202122837765359e-06,8.221027176409948e-07,1.5614129497625243e-06,0.00010612548880820716,1.2703190206474897e-06,8.333967108026933e-07,1.7008595330818365e-06,2.0588971990179143e-06
132,1.365731182021118e-06,1.584269919165512e-06,2.136522779417642e-06,1.5483194901933565e-06,1.201034493666203e-06,1.386574577136155e-06,8.100484272403208e-07,1.6315370801553664e-06,8.024924621447274e-06,8.360218640603359e-07,1.5942950193591616e-06,0.0001103416351224324,1.2826095976906088e-06,8.241397430414308e-07,1.7513095717860342e-06,2.0572571261922027e-06
133,1.3695302734447194e-06,1.5381480443704811e-06,2.1361778854166277e-06,1.5490477366404116e-06,1.1972001206001099e-06,1.377819094162243e-06,8.286783293376837e-07,1.5931263848323236e-06,7.852566432960317e-06,8.515022984123742e-07,1.6262082884563013e-06,0.00011494441750580357,1.292517814273091e-06,8.190995439498648e-07,1.8011089843905654e-06,2.055018867377063e-06
134,1.370225502266079e-06,1.4877400477196486e-06,2.1371586241680398e-06,1.5481376272211854e-06,1.195650365540077e-06,1.3630680618770499e-06,8.468552086901032e-07,1.5543486109087095e-06,7.687977072633192e-06,8.685161968767194e-07,1.657725609298822e-06,0.00011987926679851065,1.2995994391396941e-06,8.182268964753963e-07,1.8496129111491703e-06,2.0522932031554384e-06
135,1.368176528075336e-06,1.4338667120905956e-06,2.1391296524096387e-06,1.5456462500631856e-06,1.196318908897917e-06,1.3431963110181563e-06,8.639641536041521e-07,1.5150426995334864e-06,7.5335774283062634e-06,8.868636461942669e-07,1.6895981876938968e-06,0.0001250761322729074,1.3033329386279173e-06,8.213794744679701e-07,1.896220894825663e-06,2.048939610909706e-06
136,1.3638571544269819e-06,1.3775905151444775e-06,2.141626820370776e-06,1.5417787990086542e-06,1.19908713559004e-06,1.3193590092436934e-06,8.795656809346135e-07,1.4755444506439007e-06,7.390959624663132e-06,9.062099800282364e-07,1.7224526183288045e-06,0.0001304459115406799,1.3032813835577248e-06,8.283330086396067e-07,1.9403048318918847e-06,2.044726751276752e-06
137,1.357717640847394e-06,1.3200200176112424e-06,2.144076408019577e-06,1.5368385290823504e-06,1.203711385962868e-06,1.2927839430230918e-06,8.934023978663203e-07,1.4365892199936938e-06,7.260589066847536e-06,9.261517261041332e-07,1.7566432444140522e-06,0.0001358780140905041,1.2992916532268688e-06,8.388007812029143e-07,1.9812360030130947e-06,2.039455023795336e-06
138,1.350069336519658e-06,1.2622384612178967e-06,2.1458245710012864e-06,1.5311792006896042e-06,1.2098700251160302e-06,1.2646009348886357e-06,9.053190977633559e-07,1.399024893169865e-06,7.141705064426192e-06,9.462449589229045e-07,1.7922280452057324e-06,0.00014123854686498889,1.2915971210670758e-06,8.524341383771495e-07,2.0184506784076535e-06,2.032922003762404e-06
139,1.3410170187716062e-06,1.2053170964447998e-06,2.146293549902394e-06,1.5251633363458785e-06,1.2172434558566484e-06,1.2357644247313825e-06,9.152494871317328e-07,1.3635584694912005e-06,7.032452081482629e-06,9.659785800241794e-07,1.8289787234407705e-06,0.00014637180879522552,1.2807309793153683e-06,8.687893510476104e-07,2.0513930402923866e-06,2.024887296516363e-06
140,1.3304494332965785e-06,1.150263240801244e-06,2.1452246915659736e-06,1.5191129467139212e-06,1.2255272972492631e-06,1.2070689032560712e-06,9.232976129891936e-07,1.3306606314966464e-06,6.9301454941189116e-06,9.847465256806007e-07,1.8664606582943199e-06,0.00015111183195019395,1.2672958875933988e-06,8.873335530237347e-07,2.079422261396192e-06,2.0151517256127787e-06
141,1.318045527783171e-06,1.0979158142029473e-06,2.142784029957403e-06,1.5132547275501775e-06,1.234392133893261e-06,1.179187750338767e-06,9.297644343149097e-07,1.3005775426540553e-06,6.831718448514239e-06,1.0018688615627519e-06,1.9042312837832293e-06,0.00015530511109751124,1.2517791611981516e-06,9.075227352610148e-07,2.1018751431975428e-06,2.00360355576756e-06
142,1.3032776257194125e-06,1.0489179527942788e-06,2.1394118222142685e-06,1.5076969127943257e-06,1.2434335445600499e-06,1.1526982939636387e-06,9.350392228550286e-07,1.2733783777668555e-06,6.734378976215559e-06,1.016646781270536e-06,1.942055331377277e-06,0.00015883548941871968,1.2345151451047231e-06,9.288584222922791e-07,2.1182634929699127e-06,1.9901444270403795e-06
143,1.2854685629984057e-06,1.0037718080473217e-06,2.13553118082927e-06,1.502431958228753e-06,1.252120720001864e-06,1.1281041413904607e-06,9.394496107602366e-07,1.249033414810997e-06,6.636260647706018e-06,1.028396920322417e-06,1.979967806591519e-06,0.0001616399457879902,1.2157408120933336e-06,9.508637880804549e-07,2.128383416464171e-06,1.9746147245626964e-06
144,1.2639459477190374e-06,9.628844355422448e-07,2.1312874693565284e-06,1.4973440977409055e-06,1.259777750098406e-06,1.1058276559980612e-06,9.431901099103705e-07,1.2275063979743652e-06,6.5368190720411535e-06,1.036528962363043e-06,2.0181692213386167e-06,0.00016370710010171337,1.1956915615193536e-06,9.730245127064992e-07,2.1321995943905293e-06,1.9568319351319054e-06
145,1.2382412141964734e-06,9.265805028126236e-07,2.126413289503279e-06,1.4922747387662694e-06,1.2656232531785352e-06,1.086148022219452e-06,9.463466563588533e-07,1.2087841750305017e-06,6.4369033110299265e-06,1.04073867923141e-06,2.0568571298670483e-06,0.0001650567243219387,1.1746861242591629e-06,9.94753853569758e-07,2.1295957874091567e-06,1.936716493502933e-06
146,1.2082128595277114e-06,8.951013472770747e-07,2.120254253347884e-06,1.4871436233833047e-06,1.2688367662749731e-06,1.0691291470385722e-06,9.489363795457886e-07,1.1928198262689882e-06,6.33851482216605e-06,1.0411602289491134e-06,2.096041722047166e-06,0.0001657133836029406,1.1531275976639244e-06,1.0153954623245416e-06,2.120216127889061e-06,1.91437474003445e-06
147,1.174030335978006e-06,8.685846856692133e-07,2.1119488130802246e-06,1.481993715370106e-06,1.2686681051000768e-06,1.0545905421655643e-06,9.509083056013348e-07,1.179473781412065e-06,6.244307285563007e-06,1.0383278872678832e-06,2.135377668821807e-06,0.0001656955952223476,1.1314142791532282e-06,1.0342782820984974e-06,2.1035689779519156e-06,1.8900199990741378e-06
148,1.1360954448671557e-06,8.47042631127069e-07,2.100698100950907e-06,1.476895383663469e-06,1.2646236058261643e-06,1.0421383544568904e-06,9.521555575667266e-07,1.1684871531589754e-06,6.15702315257785e-06,1.0330143692151068e-06,2.1740937689110914e-06,0.00016502491251919817,1.1098406624088768e-06,1.0508066279477826e-06,2.079354629740723e-06,1.8637603911072304e-06
149,1.0950034145920985e-06,8.303627418889562e-07,2.0860171145614016e-06,1.471807874385169e-06,1.2566285875701076e-06,1.0312576678724669e-06,9.525814115624157e-07,1.1594409586355674e-06,6.079149984125386e-06,1.0260580520751188e-06,2.211057280816744e-06,0.00016373861871237254,1.088589857980677e-06,1.06446705434656e-06,2.0477881452589708e-06,1.8354512430623214e-06
150,1.0515262223874634e-06,8.18306426866373e-07,2.06786844914901e-06,1.4665253683719978e-06,1.2450099281775658e-06,1.0214366493183323e-06,9.521731594625557e-07,1.151717582596498e-06,6.012831248439159e-06,1.018256141453942e-06,2.2449399434271173e-06,0.00016189402027399385,1.0678272520314784e-06,1.0747450224374041e-06,2.0096764211204353e-06,1.8047739767982755e-06
151,1.0065429119380754e-06,8.104863964668869e-07,2.04663326828159e-06,1.4607415101570813e-06,1.23029072706751e-06,1.0122684737860793e-06,9.510379702448884e-07,1.1445520230413167e-06,5.959849937070123e-06,1.0103447564211054e-06,2.27444161524678e-06,0.0001595673299583297,1.0477713550530888e-06,1.0810991702024244e-06,1.966190242997923e-06,1.7714770849144392e-06
152,9.609214471032715e-07,8.063519235134795e-07,2.022936073962077e-06,1.4541603066544808e-06,1.2129606156714714e-06,1.0034983246149017e-06,9.494010085628394e-07,1.137202025468052e-06,5.921922529751251e-06,1.0029917826391988e-06,2.2985198268211335e-06,0.0001568526104347627,1.028645508464135e-06,1.083013746063528e-06,1.918510563011389e-06,1.7355983719178138e-06
153,9.154367845935035e-07,8.052202344720864e-07,1.9973910297023086e-06,1.4465551426075936e-06,1.1933849867054269e-06,9.950044284232094e-07,9.475714905758925e-07,1.129109964038814e-06,5.9015604735252236e-06,9.967654120273569e-07,2.31656744216819e-06,0.0001538587285359306,1.0105754458310546e-06,1.0800533109707642e-06,1.8676130695290468e-06,1.69757029832351e-06
154,8.707716874549505e-07,8.063699566737728e-07,1.9703732257504496e-06,1.4377547678065125e-06,1.1718662674884404e-06,9.867158767341482e-07,9.458824213889141e-07,1.11990674841825e-06,5.90270455667628e-06,9.921112477082591e-07,2.3285118138820436e-06,0.00015069907495423546,9.93552948156006e-07,1.071911514571748e-06,1.8143017839410828e-06,1.6581873133023945e-06
155,8.275526947847051e-07,8.091719380887299e-07,1.941933079109345e-06,1.4276282853509998e-06,1.148756076617009e-06,9.7852359764385e-07,9.446282414894305e-07,1.1093272598313146e-06,5.930246555536789e-06,9.893388003913971e-07,2.3348106310693705e-06,0.00014747781257539382,9.774890978167002e-07,1.0584584842700922e-06,1.7593587035694288e-06,1.6184268613387649e-06
156,7.863708898655026e-07,8.132014454505787e-07,1.9119106468549787e-06,1.41613295265899e-06,1.1245195961278718e-06,9.702923894665914e-07,9.440283376390551e-07,1.0971756526428548e-06,5.988919283352061e-06,9.886202744333736e-07,2.336281607206237e-06,0.0001442840393168681,9.62284505817638e-07,1.0397691990223263e-06,1.7035960354477844e-06,1.5792050438787264e-06
157,7.477863189445994e-07,8.18274983895391e-07,1.8801759755957621e-06,1.4033836133207982e-06,1.0997012364546014e-06,9.620018221560977e-07,9.442097311647825e-07,1.0833062369646198e-06,6.082522390868256e-06,9.90018862318587e-07,2.3338268105504173e-06,0.0001411954092948067,9.47843831056911e-07,1.0161081823448624e-06,1.6477639999404303e-06,1.5412490329658742e-06
158,7.12310793973257e-07,8.243813432525652e-07,1.8468458012042225e-06,1.3896499676799456e-06,1.0748209238806621e-06,9.538879815568371e-07,9.451900887068108e-07,1.0676328807363404e-06,6.213677850711423e-06,9.93517989857962e-07,2.3282978984007398e-06,0.00013828070921377,9.340319974330121e-07,9.878803331226682e-07,1.592479486402547e-06,1.505169770008865e-06
159,6.803662681489926e-07,8.315389653130988e-07,1.81234152139051e-06,1.3752717731711944e-06,1.050320182517323e-06,9.464509684313609e-07,9.468844292515192e-07,1.0502497208960131e-06,6.383820698719984e-06,9.990278118293476e-07,2.3205848120321693e-06,0.00013559539221594109,9.206341293493896e-07,9.556486666266502e-07,1.5382966228626296e-06,1.4715813758322185e-06
160,6.522529371524354e-07,8.396709264525425e-07,1.777240665340061e-06,1.3605700555820658e-06,1.0266128582230048e-06,9.403312110861951e-07,9.491398511488933e-07,1.0315267609043784e-06,6.593263594488243e-06,1.0064031434454897e-06,2.311718091077257e-06,0.0001331750869287927,9.07391846070528e-07,9.202286896131294e-07,1.4858172744358506e-06,1.4410910157612217e-06
161,6.281559069928141e-07,8.485698380763329e-07,1.7420245877019518e-06,1.3457859047882514e-06,1.0041268077590686e-06,9.36151279670303e-07,9.517357743985855e-07,1.0120212254568479e-06,6.841334109831002e-06,1.015494469336921e-06,2.3028146790394647e-06,0.00013103510817253405,8.941297972925337e-07,8.826794094741293e-07,1.4356974410525747e-06,1.4142303767362866e-06
162,6.081743496935362e-07,8.579635386705769e-07,1.7069054478990442e-06,1.3310229700511415e-06,9.832495117302613e-07,9.344019905570517e-07,9.543286431069957e-07,9.92306025020879e-07,7.126455341316929e-06,1.0261787818383384e-06,2.2949042527007245e-06,0.00012917801665989794,8.808669198895689e-07,8.441412598854616e-07,1.3885495683250255e-06,1.3914421746637537e-06
163,5.923412607038332e-07,8.676235918108681e-07,1.671815297928296e-06,1.3162415404797327e-06,9.642725862545083e-07,9.353871554806904e-07,9.564054092292729e-07,9.72878269788657e-07,7.445967925241574e-06,1.0383195963308407e-06,2.288786668834796e-06,0.00012760434586716395,8.677879382695918e-07,8.056871912075869e-07,1.3448384275159464e-06,1.3730483843994944e-06
164,5.806348595668469e-07,8.774020691548293e-07,1.6364773818969907e-06,1.3013591721683248e-06,9.474331943361358e-07,9.392096799090304e-07,9.573162943863395e-07,9.541463074040134e-07,7.795776020094139e-06,1.051703430326642e-06,2.2849840267845295e-06,0.00012632006044886848,8.551350943581628e-07,7.682718516947467e-07,1.3048299379030179e-06,1.3591674403882101e-06
165,5.729975258452191e-07,8.871639507272237e-07,1.6004897002525891e-06,1.2863723558567745e-06,9.329862569596123e-07,9.457926845549674e-07,9.564048161734446e-07,9.364226276033227e-07,8.170070833369824e-06,1.066019017280254e-06,2.2836859984720287e-06,0.00012533566456761076,8.431860845142932e-07,7.327366527265931e-07,1.268574867142773e-06,1.3496702651196252e-06
166,5.693406758918528e-07,8.967084439529642e-07,1.5634702556671813e-06,1.271380682189848e-06,9.211980581237024e-07,9.549297348299394e-07,9.531758473365488e-07,9.199152372119773e-07,8.561245245328118e-06,1.0808903004419848e-06,2.2846589572297746e-06,0.00012465644647557055,8.323358116488259e-07,6.998460393295235e-07,1.2359094424835254e-06,1.3442004420085865e-06
167,5.695164616203281e-07,9.057377496967103e-07,1.525242073990047e-06,1.2565208282537892e-06,9.122660814567172e-07,9.663279161822627e-07,9.474135138166502e-07,9.047412778644963e-07,8.960081541111524e-06,1.0959357487328174e-06,2.2872054218275143e-06,0.00012427109607069487,8.231442582682539e-07,6.703262067316431e-07,1.2064946384946285e-06,1.3422379677937635e-06
168,5.732833173344678e-07,9.138496956765681e-07,1.4859117894645056e-06,1.2419104307496028e-06,9.062664282179012e-07,9.7959894222756e-07,9.392049585196217e-07,8.90977766692862e-07,9.356304318239577e-06,1.1108139472939296e-06,2.2901930286586416e-06,0.00012414690805598327,8.162553235321819e-07,6.448555308565327e-07,1.1798900573423412e-06,1.3432063310632087e-06
169,5.802930402242602e-07,9.205286623533843e-07,1.4458078072508378e-06,1.2276584567828647e-06,9.031948410766747e-07,9.942097959286444e-07,9.288588422273243e-07,8.787151050994816e-07,9.739339428953778e-06,1.1252790552864684e-06,2.292145533102329e-06,0.00012423215079381043,8.122575518624981e-07,6.240172992653698e-07,1.1555875213846463e-06,1.3465519773682574e-06
170,5.901119121021434e-07,9.251484566346653e-07,1.4053937466459616e-06,1.2138820494276093e-06,9.03050747180549e-07,1.0094748587314651e-06,9.167453362533207e-07,8.680487715001404e-07,1.0098930326184178e-05,1.1392356115898985e-06,2.291434111400698e-06,0.00012446121223636116,8.116117149631628e-07,6.082714965124654e-07,1.1329838799823584e-06,1.3517230479719114e-06
171,6.022811109488088e-07,9.270378144762011e-07,1.365214746299578e-06,1.2006628413985425e-06,9.058809019364153e-07,1.0246617230082002e-06,9.031556236359083e-07,8.590713167871724e-07,1.042544583818144e-05,1.1527004417726868e-06,2.286562929605144e-06,0.0001247593890325455,8.14654811163277e-07,5.979638166783846e-07,1.1113987023708065e-06,1.358147520597808e-06
172,6.163886638742507e-07,9.256286028792073e-07,1.325822939525022e-06,1.1879919149852062e-06,9.117683097900176e-07,1.0391679337006612e-06,8.882605537942342e-07,8.519502648767365e-07,1.0710000602065233e-05,1.165716258589882e-06,2.2764356540427475e-06,0.0001250464348197196,8.216095618753317e-07,5.933403032324296e-07,1.09019675757535e-06,1.365300321540065e-06
173,6.320991096987903e-07,9.206228266378026e-07,1.2876853301116062e-06,1.1757765777450365e-06,9.207870414531861e-07,1.0526175288868436e-06,8.721490263478238e-07,8.4698199226424e-07,1.0944603940118656e-05,1.1783097193428383e-06,2.260466540721272e-06,0.00012523946897895387,8.325640867592644e-07,5.945462833856816e-07,1.0689138203546165e-06,1.37273973591031e-06
174,6.491249362400921e-07,9.120816693852799e-07,1.2511665754753294e-06,1.163883084350462e-06,9.329297062699719e-07,1.0647795179467195e-06,8.548991784538867e-07,8.445078844875061e-07,1.1122354732182174e-05,1.1904685700928725e-06,2.238509321793009e-06,0.0001252570948917788,8.47451627675741e-07,6.016350240368521e-07,1.0472645774699867e-06,1.38003076893124e-06
175,6.671993809143178e-07,9.003845192280132e-07,1.2165956974060393e-06,1.1521600957307876e-06,9.480342666693625e-07,1.0753897908911408e-06,8.366467634133859e-07,8.447848814623378e-07,1.1237254257277712e-05,1.202144599222886e-06,2.2106982094394183e-06,0.0001250263938058125,8.660776192929074e-07,6.145948810778685e-07,1.0250860358255327e-06,1.386699217980281e-06
176,6.860848250155351e-07,8.860897563186333e-07,1.1843151446702262e-06,1.1404465795321891e-06,9.657675240114212e-07,1.0840537298938888e-06,8.176029318383669e-07,8.479359763398418e-07,1.1283601910813526e-05,1.2133073400738319e-06,2.177270201199356e-06,0.0001244906092103971,8.881761546932248e-07,6.333547353275982e-07,1.0023506170080973e-06,1.3923636952837407e-06
177,7.055590556157601e-07,8.697845566823051e-07,1.154646547896229e-06,1.1285687130393205e-06,9.856981847273918e-07,1.0903174477908764e-06,7.980129901577015e-07,8.539693231126089e-07,1.1256568433807088e-05,1.2240001494064586e-06,2.1383933970359013e-06,0.0001236094696011504,9.134310402357601e-07,6.57760021436889e-07,9.791999302088468e-07,1.3969328531341046e-06
178,7.253750548573253e-07,8.519829975269412e-07,1.1278193452396894e-06,1.1163075103588651e-06,1.0074176838192502e-06,1.0938319361374284e-06,7.781213406864517e-07,8.628142195244611e-07,1.1155125872767725e-05,1.2343675721216872e-06,2.0941588425549114e-06,0.00012234998195387615,9.414534902131197e-07,6.875574511616756e-07,9.5588096826542e-07,1.4006118703410795e-06
179,7.452655417549004e-07,8.330839539240628e-07,1.1039537210944493e-06,1.1033941633833093e-06,1.0306036317652048e-06,1.0944720512645638e-06,7.581922266343971e-07,8.743822649811931e-07,1.0985103042578556e-05,1.244659221719824e-06,2.044843725257143e-06,0.00012068344926835662,9.717510254182588e-07,7.223936883389364e-07,9.326560371995912e-07,1.4036917146664508e-06
180,7.649945529269435e-07,8.133937817796707e-07,1.0831094305145674e-06,1.0896149700788016e-06,1.0549706609640407e-06,1.0923577275577348e-06,7.385452173774742e-07,8.886313656419611e-07,1.075904624402972e-05,1.255187189589874e-06,1.9912075077051273e-06,0.00011859932964180124,1.0037227806747046e-06,7.618090099155968e-07,9.097789952645381e-07,1.4063774789683457e-06
181,7.844073848958531e-07,7.932006806614377e-07,1.0653148387454926e-06,1.074956774879157e-06,1.0801960158034469e-06,1.0878263553256594e-06,7.195423279500281e-07,9.055529202856395e-07,1.0493036304514028e-05,1.2662207885327995e-06,1.934535767081872e-06,0.00011611893582963387,1.036707760754191e-06,8.052424777517419e-07,8.874823290966852e-07,1.408839813709089e-06
182,8.034370300085463e-07,7.728478414869275e-07,1.05051801800493e-06,1.0596568377430158e-06,1.105933523957011e-06,1.0813971570548324e-06,7.015296837915523e-07,9.250886076549686e-07,1.0203605534974912e-05,1.277878346922938e-06,1.8764284962417815e-06,0.00011329032894582159,1.0700324315935248e-06,8.520805443274581e-07,8.659371898144602e-07,1.4113663072207152e-06
183,8.220390455278201e-07,7.527433568719482e-07,1.0385106584518764e-06,1.0441630804037857e-06,1.1318799032767254e-06,1.0737050938614521e-06,6.847875988737237e-07,9.470619998386352e-07,9.906409036538166e-06,1.2900810579735578e-06,1.8184936159954141e-06,0.00011016959910891556,1.1029845799882707e-06,9.017313066697485e-07,8.452416461851014e-07,1.4143682341834482e-06
184,8.400910854987981e-07,7.332939598923098e-07,1.0289169042348032e-06,1.0290947689210449e-06,1.1577725065680736e-06,1.0653875722149975e-06,6.69535398659799e-07,9.711494900396164e-07,9.615678729550475e-06,1.3025798050684072e-06,1.7621181554613197e-06,0.00010680677794177551,1.1347718225877394e-06,9.536518675468425e-07,8.254528044730812e-07,1.4182063774363092e-06
185,8.573470228637674e-07,7.148264278111784e-07,1.0212798583304047e-06,1.0152072358298226e-06,1.1833091800685781e-06,1.0569722261835138e-06,6.559817360388218e-07,9.96880824442605e-07,9.343748921485537e-06,1.31502535153958e-06,1.7084291076561198e-06,0.0001032473571547844,1.1645747427794451e-06,1.0072875209992762e-06,8.065883489469188e-07,1.4230143444695422e-06
186,8.734825348538847e-07,6.975673399143979e-07,1.0152001794833216e-06,1.003309400186408e-06,1.2080899617564174e-06,1.0488227290765438e-06,6.443591108618761e-07,1.0236773348246871e-06,9.100903538295116e-06,1.3269892024142427e-06,1.6583994848007914e-06,9.954290030118433e-05,1.191668348711085e-06,1.0619674726944814e-06,7.885869556999792e-07,1.4286686933879818e-06
187,8.881607499682311e-07,6.81689847815392e-07,1.0104506901941285e-06,9.94165297680862e-07,1.2316334246516312e-06,1.0411337272222734e-06,6.349029613152375e-07,1.0508877828548855e-06,8.895437370843446e-06,1.3379089245513197e-06,1.6129195293930411e-06,9.575546198402477e-05,1.2154719712034231e-06,1.1168345318552795e-06,7.713379131217478e-07,1.434933024908257e-06
188,9.0105534414269e-07,6.673708635880392e-07,1.0070219164364527e-06,9.884600117381153e-07,1.253440757789454e-06,1.0339442288854932e-06,6.278033662647879e-07,1.0777899823715203e-06,8.733644192361719e-06,1.3471172706733554e-06,1.5727279087045129e-06,9.195199760091846e-05,1.2354946910517831e-06,1.1708537241018785e-06,7.547932637111728e-07,1.4416861832348001e-06
189,9.11870369233035e-07,6.547879263871723e-07,1.005106192011934e-06,9.8681415208137e-07,1.273081799006486e-06,1.0271791024125583e-06,6.231748304119985e-07,1.1036544344079417e-06,8.619790985843952e-06,1.3540630908194898e-06,1.5382999114399378e-06,8.820005505493541e-05,1.2513358838363201e-06,1.2229025561228796e-06,7.39035457046941e-07,1.44905938262511e-06
190,9.203683819020367e-07,6.440765431009067e-07,1.0050457295090906e-06,9.897681493635482e-07,1.2902630686317161e-06,1.020709792827601e-06,6.210470504752579e-07,1.1279285230618627e-06,8.556198405216302e-06,1.3585213628748224e-06,1.5098326609093003e-06,8.456963559582647e-05,1.2628307304714042e-06,1.2719206691379998e-06,7.242830964130225e-07,1.4573857388938126e-06
191,9.263503949543022e-07,6.353139478562237e-07,1.0072483073945802e-06,9.97730199404023e-07,1.3048047283194676e-06,1.0143822051977844e-06,6.213635178445968e-07,1.1503714751386775e-06,8.543484164795276e-06,1.3605325652322213e-06,1.4873034865313068e-06,8.113183448097166e-05,1.2701873183292683e-06,1.3170654008709014e-06,7.109147308912773e-07,1.4670633326680416e-06
192,9.296202493898675e-07,6.285279175903275e-07,1.0120780208653358e-06,1.0109371606811073e-06,1.3165565016471021e-06,1.0080129590240505e-06,6.239887303248018e-07,1.170973064419244e-06,8.580993581541355e-06,1.3601945475134522e-06,1.470482260071381e-06,7.795085966131498e-05,1.2739495623454785e-06,1.3577626614166198e-06,6.994637963454156e-07,1.4784804380229233e-06
193,9.300280362882358e-07,6.237086956427094e-07,1.0197681544673598e-06,1.0294607060286634e-06,1.3253569912127431e-06,1.0014130200238642e-06,6.287127031453949e-07,1.1897444116260553e-06,8.667121474223084e-06,1.3575987062660864e-06,1.458899834824779e-06,7.50771313157452e-05,1.2748154488415814e-06,1.393579809323288e-06,6.905200055186672e-07,1.4920060882826908e-06
194,9.27571275000661e-07,6.208077696760651e-07,1.0303933054648566e-06,1.0532577535587223e-06,1.3310178358439324e-06,9.944404203492254e-07,6.352510447693311e-07,1.2065580825150322e-06,8.799136692833413e-06,1.3529208680050393e-06,1.451897056153865e-06,7.254534583786779e-05,1.2734783360774177e-06,1.4240599951546471e-06,6.846189533078487e-07,1.5080451585778153e-06
195,9.224346414679938e-07,6.197160065858674e-07,1.0439097006552942e-06,1.082237756071489e-06,1.3332860465151267e-06,9.870153623189611e-07,6.43274394299916e-07,1.2210929305727563e-06,8.972709638448153e-06,1.3465041310295108e-06,1.4488058876899234e-06,7.037538772574928e-05,1.2705782619210649e-06,1.4487319176005828e-06,6.821908050308563e-07,1.52719649411697e-06
196,9.149248474242306e-07,6.202557365867973e-07,1.0602408992310679e-06,1.11633653183095e-06,1.3318513084246338e-06,9.790685407731908e-07,6.524635694282375e-07,1.2328653593367285e-06,9.18169542955541e-06,1.3388257750459702e-06,1.4491417642125912e-06,6.857569686889013e-05,1.2666768992295057e-06,1.4672645323780054e-06,6.835458869302231e-07,1.5503566104247635e-06
197,9.053709854805223e-07,6.22205228754872e-07,1.0793221995512399e-06,1.1555953546267587e-06,1.3264320744173981e-06,9.704664341503702e-07,6.625297422360012e-07,1.2413167123823656e-06,9.418453564589407e-06,1.330370687451709e-06,1.4526285925495914e-06,6.714945761775545e-05,1.262225484485808e-06,1.4795873772689667e-06,6.888950633325162e-07,1.5786014581898538e-06
198,8.94056336445394e-07,6.253180909403624e-07,1.101090251809031e-06,1.2001933925620459e-06,1.3168559926635053e-06,9.60989570157844e-07,6.731970151875588e-07,1.245905006819157e-06,9.674700746493976e-06,1.3215678004597518e-06,1.4590375851552086e-06,6.609963724210516e-05,1.2576126373901193e-06,1.485930562991782e-06,6.984103652036995e-07,1.612946098498504e-06
199,8.812114312646536e-07,6.293226413245134e-07,1.1255294858775515e-06,1.250379047731189e-06,1.3030670827878267e-06,9.504311385908183e-07,6.84209775938112e-07,1.2461819566501677e-06,9.94242609811429e-06,1.3128703887602655e-06,1.468042278605828e-06,6.542835103086622e-05,1.2532647030388925e-06,1.4868181941515084e-06,7.122656617569131e-07,1.6541514149643041e-06
200,8.670841170278757e-07,6.339512045285353e-07,1.1527897288362913e-06,1.306347163896209e-06,1.2851128698296884e-06,9.387810441813097e-07,6.953604764377682e-07,1.2418898675018119e-06,1.0214014287937721e-05,1.3048741983219422e-06,1.4792682380282307e-06,6.513265894677957e-05,1.249663841901037e-06,1.482989292232625e-06,7.306138301853074e-07,1.7026315683287256e-06
201,8.520319159180215e-07,6.389970050476804e-07,1.183253192697779e-06,1.3681682016710388e-06,1.2631979841041553e-06,9.263301643102886e-07,7.064795244285021e-07,1.2330787283597946e-06,1.0481489794784175e-05,1.2983382769175148e-06,1.4924515872133817e-06,6.520291622237686e-05,1.2472512796114291e-06,1.4752367269691237e-06,7.535397548006544e-07,1.7584357204051703e-06
202,8.36545047229751e-07,6.443161800147246e-07,1.217480800909098e-06,1.435772141604906e-06,1.2377722885589402e-06,9.1358144183253e-07,7.173834758205039e-07,1.2201713118731986e-06,1.0735980165412016e-05,1.2940676936122983e-06,1.5074781036516608e-06,6.56249610045358e-05,1.2463139386123449e-06,1.4642511043920092e-06,7.810223785076467e-07,1.821256563890629e-06
203,8.211866046165733e-07,6.497915609305845e-07,1.2560739602272055e-06,1.5088983618128e-06,1.209542483849851e-06,9.010487296697981e-07,7.278298257179845e-07,1.2039229807004123e-06,1.0968578115983224e-05,1.292743412255192e-06,1.5242469989924568e-06,6.638179599410922e-05,1.2469388780469287e-06,1.4505651837364144e-06,8.129053525383248e-07,1.8904599604012266e-06
204,8.065037677686383e-07,6.553253490657238e-07,1.299526224828595e-06,1.587021184763663e-06,1.1793892175924623e-06,8.891026696646531e-07,7.375258672082056e-07,1.1853101747291215e-06,1.1172373777690825e-05,1.2948484599022635e-06,1.5425438820584108e-06,6.745187887311318e-05,1.249035045773492e-06,1.4345808441697301e-06,8.489025328254739e-07,1.96516279055843e-06
205,7.929577054373228e-07,6.60824670009096e-07,1.348119044589789e-06,1.6693702882366928e-06,1.1482717729345198e-06,8.779353832365501e-07,7.461804247471981e-07,1.1654003851235454e-06,1.1343765868449592e-05,1.300728102833129e-06,1.5620458171553229e-06,6.880643202531142e-05,1.2524003210933323e-06,1.4165969047491648e-06,8.886701650341092e-07,2.044325073224801e-06
206,7.808857906441989e-07,6.661905982030097e-07,1.4018690307712681e-06,1.7551029722743655e-06,1.1171639532272535e-06,8.676249523822513e-07,7.535357672249544e-07,1.1452154736677476e-06,1.1481800555457626e-05,1.3106675405735455e-06,1.5823519324329162e-06,7.041119244006722e-05,1.256819731281377e-06,1.3968321616602507e-06,9.319155591061185e-07,2.1267741342758643e-06
207,7.704844145079325e-07,6.713791633393761e-07,1.4605081511113093e-06,1.843541241898643e-06,1.086997971424852e-06,8.582385377232609e-07,7.593835939477575e-07,1.1256056745909996e-06,1.1586994012992018e-05,1.324892509045454e-06,1.602935237979031e-06,7.223379910876603e-05,1.2621541337380979e-06,1.375477014051294e-06,9.78442656308479e-07,2.2111833725105647e-06
208,7.618046200152988e-07,6.764677424655977e-07,1.5234934013758743e-06,1.934318954994077e-06,1.0586076601436108e-06,8.498895450913578e-07,7.636273548420823e-07,1.1071788565133912e-06,1.1661948760711825e-05,1.3435552912682535e-06,1.6230502256631139e-06,7.425022121106921e-05,1.2683471039755857e-06,1.352742433214568e-06,1.0280748337162289e-06,2.2961326702407383e-06
209,7.547555038076298e-07,6.816246450252303e-07,1.590097647532359e-06,2.027359126505114e-06,1.0326861544530856e-06,8.427139665623157e-07,7.663577591907341e-07,1.0903198358462687e-06,1.1713381860211772e-05,1.3667901434656067e-06,1.6416744348517294e-06,7.644405332838624e-05,1.2753281324310435e-06,1.328874887287637e-06,1.0805408227670348e-06,2.3802724997635525e-06
210,7.491076506589274e-07,6.87012635790011e-07,1.6596295096366329e-06,2.122748749579225e-06,1.0097599603690341e-06,8.368192293824324e-07,7.678341481019146e-07,1.0753066830274205e-06,1.1752828032085803e-05,1.3947523096053904e-06,1.6575721166585881e-06,7.879993769564488e-05,1.2829028056536671e-06,1.3041840423432485e-06,1.135446315468423e-06,2.462472247620161e-06
211,7.445149885635513e-07,6.927183204113478e-07,1.731671309368604e-06,2.2206690095675314e-06,9.901891632643882e-07,8.322519712993115e-07,7.683770699064154e-07,1.0624810626893553e-06,1.1794814106397217e-05,1.4275315261300948e-06,1.6695597224719825e-06,8.1296071955322e-05,1.2907227932223343e-06,1.2791237354164833e-06,1.1923309088147749e-06,2.541881488799154e-06
212,7.405782647528657e-07,6.987688290955026e-07,1.8061331874125831e-06,2.3214846550540835e-06,9.74202212737728e-07,8.289654109178735e-07,7.682904693720667e-07,1.05237530967312e-06,1.185415037322086e-05,1.4650239888213021e-06,1.6768684090872383e-06,8.390042435340999e-05,1.2983709361927791e-06,1.254369414572332e-06,1.250707578118269e-06,2.6179341814878577e-06
213,7.369262396702204e-07,7.052403902069634e-07,1.8830967360665222e-06,2.425908096219668e-06,9.61935539398677e-07,8.267761539568098e-07,7.678573233537923e-07,1.0457231551549624e-06,1.1944271715778556e-05,1.5068978279852408e-06,1.6792684503526425e-06,8.657403306474718e-05,1.3055449535015383e-06,1.2307872968498214e-06,1.310018939688017e-06,2.690301210738369e-06
214,7.332652374656689e-07,7.123632816838122e-07,1.9626161420185335e-06,2.5350065462097822e-06,9.534445901220852e-07,8.253562708609167e-07,7.673428671057272e-07,1.0433705585330727e-06,1.2076800084515712e-05,1.5526298172695903e-06,1.676846307576187e-06,8.92801812859378e-05,1.3121882661925534e-06,1.2092738906475016e-06,1.3695782416751458e-06,2.7587344783524e-06
215,7.293667444125445e-07,7.205035115225319e-07,2.044603604838879e-06,2.649950366746797e-06,9.486790304854106e-07,8.242954787834253e-07,7.66960382729327e-07,1.0461542583699587e-06,1.2261496646174212e-05,1.601518586572713e-06,1.6698052310564017e-06,9.199310297963574e-05,1.318431080380168e-06,1.1905921336697107e-06,1.4286069349706232e-06,2.8228006717140982e-06
216,7.250102484214961e-07,7.30043462183628e-07,2.128774118467989e-06,2.7717188167795144e-06,9.474400326286328e-07,8.231915032964251e-07,7.668311343904114e-07,1.0548030131229497e-06,1.2506199653332914e-05,1.6526559452296247e-06,1.6585497741822872e-06,9.47007266072994e-05,1.3244476903914215e-06,1.175322648572606e-06,1.4863685410363995e-06,2.88163474743812e-06
217,7.199652811081521e-07,7.412766590110092e-07,2.2145744658470795e-06,2.9010257356679055e-06,9.493625983829287e-07,8.216833107038719e-07,7.669733333140363e-07,1.0698872081662513e-06,1.2816741160279499e-05,1.7049032103835621e-06,1.6438415274154618e-06,9.740068463777373e-05,1.3304002837514985e-06,1.1638795615300695e-06,1.5422655776468016e-06,2.933899063985216e-06
218,7.140624831395613e-07,7.543601946375706e-07,2.301105016130179e-06,3.0384646156102765e-06,9.539624978242479e-07,8.194057580003722e-07,7.673109296436168e-07,1.0918307149695513e-06,1.3196738911726907e-05,1.756949365643825e-06,1.6268011454199778e-06,0.00010009192229820728,1.3364390217983053e-06,1.1564966117866204e-06,1.595799546990526e-06,2.978065104252257e-06
219,7.072764887614713e-07,7.693157653655564e-07,2.3871652533905472e-06,3.18473917579002e-06,9.607588484213514e-07,8.159595118929695e-07,7.676999120647359e-07,1.1209956505358788e-06,1.3647278015638062e-05,1.8074552291056997e-06,1.6087628015464917e-06,0.00010276493114619568,1.342643047781197e-06,1.1531991780061721e-06,1.6465035861195959e-06,3.0129382564193337e-06
220,6.997366351999758e-07,7.860807345534319e-07,2.4715082110911676e-06,3.3408743927444864e-06,9.694350415767919e-07,8.10992586609359e-07,7.679632251204853e-07,1.1578062055289044e-06,1.4166848611371055e-05,1.8551368795569046e-06,1.5910548965581271e-06,0.00010539319538021765,1.3489398219957944e-06,1.153822766163506e-06,1.6939755998467266e-06,3.038092515785805e-06
221,6.916692702126388e-07,8.045713196099875e-07,2.553151588860705e-06,3.5083211786232315e-06,9.799381779601148e-07,8.043496983417016e-07,7.679006476905217e-07,1.202807524778611e-06,1.4751767275798954e-05,1.8987574264217405e-06,1.5748137486544471e-06,0.00010792756312463367,1.3551004945181343e-06,1.1580737690975352e-06,1.7379061208972451e-06,3.053872162177869e-06
222,6.833149795670766e-07,8.246860616380672e-07,2.631513715547899e-06,3.6889282548328466e-06,9.924270129002552e-07,7.961561199689786e-07,7.672900046399016e-07,1.256589010175177e-06,1.5396713876325593e-05,1.937245205493611e-06,1.5609039919071114e-06,0.00011029406408897174,1.3607732317705115e-06,1.165577285447569e-06,1.7780085489273305e-06,3.060974080073188e-06
223,6.748845242671009e-07,8.462435418500982e-07,2.7063525825462793e-06,3.884826977261955e-06,1.0070995957639729e-06,7.867752089256953e-07,7.658956727591606e-07,1.3196502815910528e-06,1.6094904773334276e-05,1.969973250819276e-06,1.5499027491593899e-06,0.00011239596538743716,1.365482099322948e-06,1.1758908249364015e-06,1.8139370653194348e-06,3.0599630355096845e-06
224,6.66585641700046e-07,8.689275003300703e-07,2.777670576571269e-06,4.098279071356908e-06,1.02404116714324e-06,7.766898050879923e-07,7.63460348755062e-07,1.392339266114356e-06,1.6837871718500682e-05,1.9968994597575195e-06,1.5420907761260148e-06,0.00011412400673307668,1.368635844824277e-06,1.1885061648343752e-06,1.8452372869430167e-06,3.051081146795604e-06
225,6.586576084870117e-07,8.923182034382312e-07,2.8456883855713197e-06,4.33149916826315e-06,1.0432008698569594e-06,7.663845710156252e-07,7.597345093073197e-07,1.4748602830902176e-06,1.7615007585855175e-05,2.0183885438226774e-06,1.5374583336876358e-06,0.00011537847611333625,1.3696286701763885e-06,1.20285620621289e-06,1.8713788430703376e-06,3.034478049905997e-06
226,6.513652958611671e-07,9.160266000207716e-07,2.910806412136234e-06,4.586427641534427e-06,1.0644602381385736e-06,7.562771505856197e-07,7.546043498386069e-07,1.5672528035870817e-06,1.8412932121645924e-05,2.0348577767553873e-06,1.5357366078456952e-06,0.0001160961961595113,1.3680011426267658e-06,1.218316442665185e-06,1.8919223051214435e-06,3.0106522264641994e-06
227,6.449917414671113e-07,9.398390998167255e-07,2.9734341523782574e-06,4.8644402574940525e-06,1.0876624120573238e-06,7.4670730634644e-07,7.482224612157286e-07,1.6693118768544482e-06,1.9214933328898958e-05,2.046497056425944e-06,1.5364666304475257e-06,0.00011626461862832037,1.3635046183520686e-06,1.2341856734056367e-06,1.9066372542923716e-06,2.9806703372017505e-06
228,6.398393544342274e-07,9.637429059496794e-07,3.033781252658128e-06,5.1660620228208775e-06,1.1125519902187002e-06,7.379525652633874e-07,7.41010152722241e-07,1.780509018856188e-06,2.000112771217898e-05,2.0531981274355653e-06,1.5391363530995031e-06,0.00011591115447713034,1.3559970869834457e-06,1.2496987488843272e-06,1.91539392375598e-06,2.9459433866127886e-06
229,6.36219544078147e-07,9.87812981631579e-07,3.0918228119433597e-06,5.490823651646475e-06,1.1387276340113476e-06,7.302432655267034e-07,7.335374051061288e-07,1.8999664852317202e-06,2.074981452741771e-05,2.0546271391007525e-06,1.5433516394382037e-06,0.00011507752500407718,1.3453393845478999e-06,1.2641617620546661e-06,1.9180020740261113e-06,2.9078353076889662e-06
230,6.344413585053296e-07,1.0120592923658921e-06,3.147422704524383e-06,5.837319847504446e-06,1.165712442025749e-06,7.237796858670177e-07,7.263792142093156e-07,2.026506022305213e-06,2.1439776432980266e-05,2.0503221247972616e-06,1.5489608451346453e-06,0.00011380381564429899,1.331459429837627e-06,1.277176240147217e-06,1.9142556720361786e-06,2.8674431130058037e-06
231,6.347868133983841e-07,1.036326744736421e-06,3.200408579476891e-06,6.203369332130898e-06,1.1930765015255198e-06,7.187346680555216e-07,7.200267561515677e-07,2.158764616952269e-06,2.20526751771538e-05,2.0398094808540057e-06,1.5560918460025308e-06,0.00011213434399780433,1.3144833847848016e-06,1.2887868776452549e-06,1.9041357005201043e-06,2.825500125110591e-06
232,6.374723144813404e-07,1.0602802641770153e-06,3.2505162668037605e-06,6.586173175553669e-06,1.2204647017456374e-06,7.152249855372048e-07,7.148608385785582e-07,2.295328583898641e-06,2.2574570368728272e-05,2.0227927039620704e-06,1.5650766970216569e-06,0.00011013316142866377,1.2947338446119424e-06,1.2994339441648914e-06,1.8879190729654057e-06,2.782292974613605e-06
233,6.426350539795563e-07,1.0834712916712876e-06,3.297298744045808e-06,6.982480800221991e-06,1.2475559566259464e-06,7.132899901824748e-07,7.111472211887853e-07,2.4348287634687927e-06,2.2995954912506062e-05,1.9993596833970563e-06,1.5762803707141902e-06,0.00010789245057636325,1.2725703364500295e-06,1.3097471409957142e-06,1.8660855965920435e-06,2.7376895956452474e-06
234,6.503379325402784e-07,1.1054512475960057e-06,3.3401386514534084e-06,7.388786453189452e-06,1.2740878211836774e-06,7.128985004918183e-07,7.090362344850539e-07,2.575973145965329e-06,2.3310315292082985e-05,1.9700515393333478e-06,1.589951992971951e-06,0.0001055284716206715,1.2482298544959398e-06,1.3203127284532135e-06,1.8391419211468205e-06,2.6913041427123153e-06
235,6.605579929535511e-07,1.1258785359993062e-06,3.378426789615316e-06,7.80150319180165e-06,1.2998921262288286e-06,7.13953458592824e-07,7.085961391321927e-07,2.7175221848121854e-06,2.3511673894022906e-05,1.9357583512265643e-06,1.60617264698284e-06,0.00010316871925365372,1.2218058800564628e-06,1.3315242111065772e-06,1.8075408647109123e-06,2.642673356132108e-06
236,6.731629004953215e-07,1.1445610181225672e-06,3.4117977451684802e-06,8.217062499100819e-06,1.3248047771821482e-06,7.163162389078015e-07,7.098957443269602e-07,2.858226792547924e-06,2.3592197033761008e-05,1.897545013225299e-06,1.6248341845212778e-06,0.0001009377486921574,1.193329460926714e-06,1.343548640549039e-06,1.7717706944093993e-06,2.591390452227468e-06
237,6.879056570802531e-07,1.1613908989680096e-06,3.4401748509917694e-06,8.631985546331533e-06,1.3485156933817562e-06,7.198861026634974e-07,7.130792103248792e-07,2.996761595776301e-06,2.3541969934029083e-05,1.8564843122761543e-06,1.6456547132403093e-06,9.894792389090616e-05,1.1628803037139013e-06,1.3563656291916734e-06,1.7325171999034343e-06,2.5372665618951914e-06
238,7.04446385129882e-07,1.1762286140523423e-06,3.4635305326703492e-06,9.042989227224773e-06,1.37050537007039e-06,7.246640903394043e-07,7.183644328270443e-07,3.131683799757627e-06,2.335237511009743e-05,1.8136103685899945e-06,1.6682998461741524e-06,9.729605958349031e-05,1.1307317348533977e-06,1.3698234135808492e-06,1.6907324290163759e-06,2.4805260790332766e-06
239,7.223941301839347e-07,1.188888354836179e-06,3.481684068393416e-06,9.447055898822812e-06,1.3900936617045938e-06,7.307209650394623e-07,7.259875501090678e-07,3.261421937540527e-06,2.302153291977959e-05,1.7700314599439656e-06,1.6925030315350218e-06,9.606259151901945e-05,1.0974410397262e-06,1.3837109246303585e-06,1.6475554378480792e-06,2.421874009032927e-06
240,7.413696549538885e-07,1.1992773232015366e-06,3.494483835334967e-06,9.84129138966599e-06,1.4065193783452513e-06,7.381131831524878e-07,7.361598823375385e-07,3.384263451509326e-06,2.2558160435435593e-05,1.7269702021147226e-06,1.7180250721485293e-06,9.53101313206469e-05,1.0637617999189142e-06,1.3978485751882174e-06,1.6041475188052787e-06,2.362300990976963e-06
241,7.610513615142789e-07,1.2075535015088795e-06,3.502198596785835e-06,1.0222452559628723e-05,1.4189636125898822e-06,7.468538674149595e-07,7.490471015336839e-07,3.4982769853382853e-06,2.198087524385181e-05,1.6855910379973497e-06,1.7444833777123614e-06,9.508156024888295e-05,1.030455184422034e-06,1.4121323760793118e-06,1.5615213505134626e-06,2.3027430734506417e-06
242,7.811663840675072e-07,1.2141630013603012e-06,3.5057164668615443e-06,1.0586234909977978e-05,1.4265976107344835e-06,7.569635675448879e-07,7.64742205904058e-07,3.6011459295712104e-06,2.1313389144814893e-05,1.6468101740551625e-06,1.7712252856682016e-06,9.539909385793116e-05,9.981566818083705e-07,1.4264664304074821e-06,1.5204315908409027e-06,2.2438539809385597e-06
243,8.014778291957724e-07,1.2197590776380437e-06,3.5064662218764e-06,1.092673911530865e-05,1.4287831972944817e-06,7.685117612501262e-07,7.832262744144274e-07,3.6900611682583046e-06,2.0579797637450017e-05,1.611265337036387e-06,1.7974125161562331e-06,9.626435744078078e-05,9.673397749586042e-07,1.4406255235208208e-06,1.4813733887081246e-06,2.185974699134903e-06
244,8.218005920738156e-07,1.2250669542362825e-06,3.5062124205579624e-06,1.1236708859356567e-05,1.4252884095835478e-06,7.815946037276543e-07,8.043406781576459e-07,3.761918705248576e-06,1.980276113975047e-05,1.5793912448845566e-06,1.8223777502785882e-06,9.765953523541562e-05,9.383553377742764e-07,1.4541658666960991e-06,1.444678505334713e-06,2.1292040772779697e-06
245,8.42025376976057e-07,1.2307368652609352e-06,3.506797563318124e-06,1.15088209499208e-05,1.416273416380167e-06,7.963163567579911e-07,8.277823002753813e-07,3.8139129568501526e-06,1.9003006550195364e-05,1.55146986722214e-06,1.84607254083471e-06,9.954908847807378e-05,9.115005498235876e-07,1.4664290716073302e-06,1.4106155813414766e-06,2.0735363306495743e-06
246,8.621747467575851e-07,1.2372317747574584e-06,3.509824282656095e-06,1.1737594690670302e-05,1.4020594212197904e-06,8.128037402743853e-07,8.531056669195231e-07,3.844331860480049e-06,1.819867928349983e-05,1.5276197970026094e-06,1.8692079101782652e-06,0.00010188076143597596,8.870434091162807e-07,1.4765917499761426e-06,1.379400188852274e-06,2.019054298055782e-06
247,8.824489131307627e-07,1.2447764551307605e-06,3.5163743872441363e-06,1.1920893089022069e-05,1.3829536716095733e-06,8.311841699507974e-07,8.797230933758039e-07,3.853124035842202e-06,1.740520007847991e-05,1.5077933939027023e-06,1.8929388976115475e-06,0.00010458937757269236,8.651915633188071e-07,1.4837705541163948e-06,1.3511362834983811e-06,1.9660645828070557e-06
248,9.03152498493521e-07,1.2533636162964324e-06,3.5268897528754146e-06,1.206023186345911e-05,1.3593079846521715e-06,8.515437314727146e-07,9.0691467401579e-07,3.841861532128436e-06,1.6635973187331657e-05,1.4918426006522103e-06,1.9184636863201566e-06,0.00010760742818815688,8.46059337942566e-07,1.487211376396971e-06,1.3257666554032609e-06,1.9150593897298807e-06
249,9.245529008577488e-07,1.2628381033940343e-06,3.5411781094807892e-06,1.2160014535200004e-05,1.3316756896434362e-06,8.739521061599663e-07,9.338778887652309e-07,3.813109676138742e-06,1.590327807012624e-05,1.479630126686491e-06,1.9468819061684716e-06,0.0001108760301296034,8.29671902764158e-07,1.4864677758816236e-06,1.3030560067861477e-06,1.8665086685137839e-06
250,9.468053850464801e-07,1.2730313746652963e-06,3.558455687873827e-06,1.222619853963305e-05,1.3008648720944113e-06,8.985314207021067e-07,9.598349030983682e-07,3.7696090802897655e-06,1.5218445106438954e-05,1.4710959190437455e-06,1.9791975459646023e-06,0.00011434531563895806,8.16026347185736e-07,1.4814506713789755e-06,1.2825889059487033e-06,1.820640301774204e-06
251,9.699451500037347e-07,1.2838373543542924e-06,3.577443099983354e-06,1.226474434122243e-05,1.2678447828005315e-06,9.254712818540663e-07,9.841590216949242e-07,3.713795578252707e-06,1.4591254408923495e-05,1.466205509152054e-06,2.0162766060865157e-06,0.00011796363183773736,8.051628923348101e-07,1.4723457766575988e-06,1.2637828966121245e-06,1.7773867245242177e-06
252,9.93880639768166e-07,1.2952030678544755e-06,3.596557097941391e-06,1.2280448711405262e-05,1.233576289665266e-06,9.549553206037667e-07,1.0064457998852812e-06,3.647851252374648e-06,1.4029348460969959e-05,1.4648272145149894e-06,2.0588084195967388e-06,0.0001216671959277349,7.971537999872448e-07,1.459494952526457e-06,1.2459478005101514e-06,1.736512401174059e-06
253,1.0183820734711917e-06,1.3071156441004144e-06,3.6141644902294995e-06,1.227687624426875e-05,1.1988697273939462e-06,9.870561760885352e-07,1.026467861838611e-06,3.5739912064701872e-06,1.3538094784656647e-05,1.4666738849873617e-06,2.107312507477709e-06,0.00012538016384346228,7.920401702057856e-07,1.4433234261233052e-06,1.2284002894259043e-06,1.697799866101342e-06
254,1.0430908918597877e-06,1.319620714990809e-06,3.6288140788031947e-06,1.2257213178779125e-05,1.164328339374221e-06,1.0216728556115489e-06,1.0440364501526662e-06,3.494629252037679e-06,1.3120817545668372e-05,1.4713470879224e-06,2.1621018332113442e-06,0.0001290224360610835,7.89819548395866e-07,1.4242731804985799e-06,1.2106008796221836e-06,1.6611484378799856e-06
255,1.0675547377330013e-06,1.3328315375636654e-06,3.6393977368769964e-06,1.2225023078696005e-05,1.1303740386851648e-06,1.0585299229468543e-06,1.0589015542243543e-06,3.412282162127041e-06,1.2779278134807597e-05,1.4783869698922926e-06,2.223195674452186e-06,0.00013251684924048455,7.904765044789677e-07,1.4027073913506146e-06,1.1922674797921667e-06,1.6265141748204244e-06
256,1.0912989508922643e-06,1.3469162651387614e-06,3.64524544218167e-06,1.2184125421382336e-05,1.0973419045980381e-06,1.0972152517957745e-06,1.0707769867103563e-06,3.329305669488584e-06,1.2514142604799902e-05,1.4873136208620047e-06,2.2902585534085623e-06,0.0001357905045454534,7.939861623279353e-07,1.3788878310827041e-06,1.173389182531896e-06,1.5937801096430679e-06
257,1.1139579469304602e-06,1.362096301351657e-06,3.6461389186828407e-06,1.2137721033110894e-05,1.0655937498425328e-06,1.1372166935037245e-06,1.0794347037192076e-06,3.2477558025976796e-06,1.2325003227311252e-05,1.4977793472294388e-06,2.362565506617264e-06,0.00013876857498931012,8.002858874522321e-07,1.3530668533493316e-06,1.154100876610189e-06,1.5626956792449066e-06
258,1.135370454792247e-06,1.3786396281378756e-06,3.6421729705321095e-06,1.208774089991398e-05,1.0355466185603705e-06,1.1779376854468804e-06,1.0847978390326278e-06,3.169500460750413e-06,1.2209988468879457e-05,1.5097766719112163e-06,2.438984925977619e-06,0.00014136566439890404,8.092623045837086e-07,1.325567273579778e-06,1.1345496743134626e-06,1.5328750686993684e-06
259,1.1555126365290162e-06,1.3967968887220914e-06,3.633448816036142e-06,1.203519482068241e-05,1.0075922856378854e-06,1.218711576624868e-06,1.0870094260850203e-06,3.096362054508497e-06,1.2165680713053121e-05,1.523645319007671e-06,2.5179950237384845e-06,0.00014348618730364993,8.207603773593321e-07,1.296788301437639e-06,1.1148715399157564e-06,1.5037669834506367e-06
260,1.1743964598869565e-06,1.4167328111045472e-06,3.6197942311180035e-06,1.198102589251345e-05,9.82029770764975e-07,1.258852858261066e-06,1.0864360738952456e-06,3.030090715874925e-06,1.2187731199252014e-05,1.539865096639545e-06,2.5977479346674193e-06,0.00014503794768352737,8.345778466944195e-07,1.267223792689166e-06,1.095182500104129e-06,1.4746293270692693e-06
261,1.1921044225841357e-06,1.4385526036731197e-06,3.6007930235231277e-06,1.192643770007529e-05,9.590915391327548e-07,1.2977554795942744e-06,1.0835671485558789e-06,2.972186142642576e-06,1.2271685682719803e-05,1.5588652261441371e-06,2.6762539038734615e-06,0.00014594916108772233,8.504495237193934e-07,1.2375253630754817e-06,1.0755311665094432e-06,1.4446255435473626e-06
262,1.2088529400974816e-06,1.4623893588035923e-06,3.5761189710578056e-06,1.1872336283083488e-05,9.389797180827927e-07,1.334933301611642e-06,1.0788542066344337e-06,2.92369998449999e-06,1.2413427781649487e-05,1.580914341267029e-06,2.7516709314944965e-06,0.0001461776815467328,8.680508036998771e-07,1.208521310804359e-06,1.0559122609964234e-06,1.4130632450607704e-06
263,1.2249326728121933e-06,1.488457969916475e-06,3.545880035116381e-06,1.1818335438063732e-05,9.218227544706672e-07,1.3698982601769355e-06,1.0726115797054055e-06,2.8851392275272846e-06,1.2608987273404067e-05,1.6060500271374883e-06,2.8224982918309837e-06,0.000145709649352583,8.870396323285025e-07,1.1811312888282174e-06,1.0363245193236867e-06,1.3796558650033674e-06
264,1.2405679897949458e-06,1.5170551672363416e-06,3.510797251667924e-06,1.176215810272514e-05,9.075989901390029e-07,1.402003067399724e-06,1.0650535188077574e-06,2.856456394132002e-06,1.285373652577912e-05,1.6340659550608246e-06,2.8875480665817485e-06,0.0001445509426034273,9.07117826840716e-07,1.1562273680996801e-06,1.0167769786904198e-06,1.3446422427000705e-06
265,1.2558166522506919e-06,1.5485154486753307e-06,3.472265306225581e-06,1.1699849035148698e-05,8.961207094392326e-07,1.4304677275169739e-06,1.056409751915369e-06,2.837033563044044e-06,1.3141494961485121e-05,1.6645430764762234e-06,2.945783485404521e-06,0.00014271537145997865,9.280235937401413e-07,1.134527509975536e-06,9.972903377610641e-07,1.308671765369373e-06
266,1.2705470674982075e-06,1.5831186032085945e-06,3.4323346074670036e-06,1.1626470888099431e-05,8.870793910356069e-07,1.4545897131574718e-06,1.0469992427272596e-06,2.8256647684896333e-06,1.3464269959728027e-05,1.696951297169562e-06,2.996121726988107e-06,0.0001402125518500124,9.494516796305395e-07,1.116548441673793e-06,9.779303713076465e-07,1.2725377272870915e-06
267,1.284433998684975e-06,1.6209679158583379e-06,3.393572791851767e-06,1.1536955585800455e-05,8.800776441199959e-07,1.4739193622564175e-06,1.0372121819518065e-06,2.8205868124845297e-06,1.3812719619710324e-05,1.7308502217350848e-06,3.037243751074257e-06,0.0001370432626309227,9.710048199672876e-07,1.102589378818816e-06,9.587891317928422e-07,1.2369577065751856e-06
268,1.2969623252022065e-06,1.661901184556759e-06,3.3587760532225848e-06,1.1427072130861165e-05,8.746286373502542e-07,1.488227182723236e-06,1.027432826128445e-06,2.8195278356590684e-06,1.417682889719536e-05,1.7660449578403942e-06,3.067607109923084e-06,0.00013321253833103989,9.92205602037236e-07,1.0927275096614608e-06,9.399315209684261e-07,1.2025095037333202e-06
269,1.307496266230887e-06,1.7054648482693357e-06,3.3305834094386676e-06,1.1294342484337012e-05,8.701903528185952e-07,1.4973364844448073e-06,1.0179573950907388e-06,2.819782045194081e-06,1.4546484660869337e-05,1.8025687187524496e-06,3.085835351648166e-06,0.00012875572430463077,1.0125267164404846e-06,1.0868322923843539e-06,9.214168893675053e-07,1.1696618465141514e-06
270,1.3154095668985166e-06,1.7509105811240367e-06,3.311126021991719e-06,1.1138631457380234e-05,8.662638699460716e-07,1.5010283557962749e-06,1.0089693167680745e-06,2.8184195253421704e-06,1.4911972105297697e-05,1.84055231659395e-06,3.0912218836465805e-06,0.0001237562443036668,1.0314194135502527e-06,1.0846031522747063e-06,9.03384764358226e-07,1.13880031188699e-06
271,1.3202180643178122e-06,1.7971902110573457e-06,3.3018408036321527e-06,1.096226947559951e-05,8.624809980719386e-07,1.4990821687524885e-06,1.0005888395119269e-06,2.812639376054489e-06,1.5264426187573434e-05,1.8800915313648271e-06,3.083897510381436e-06,0.0001183409086514047,1.0483492565154582e-06,1.0855988911670945e-06,8.860947232384779e-07,1.1102318181010862e-06
272,1.32165908323646e-06,1.8429896080249821e-06,3.303482551300242e-06,1.0769660854879981e-05,8.58607097368627e-07,1.4913779676716118e-06,9.929267879533217e-07,2.8001316801662487e-06,1.5596291512019626e-05,1.921152984611943e-06,3.06457942383915e-06,0.00011265948457781916,1.0628225356959694e-06,1.0892373477585925e-06,8.698639745536916e-07,1.0841767733814626e-06
273,1.3196595394368288e-06,1.886900225027289e-06,3.316229263972543e-06,1.0566459905746353e-05,8.544813154604827e-07,1.4780259127105601e-06,9.86097660404722e-07,2.779339243240134e-06,1.5901852417081042e-05,1.963488613999517e-06,3.0342239429312428e-06,0.00010686447878387279,1.074412366642328e-06,1.0948322377936326e-06,8.549867333061484e-07,1.0607485616147404e-06
274,1.3141975811588446e-06,1.9277538994540323e-06,3.339718108530197e-06,1.035865028790643e-05,8.499588417633447e-07,1.4594830907195992e-06,9.802304769704543e-07,2.749582941743835e-06,1.6177483560930736e-05,2.006572653156711e-06,2.9938632904500954e-06,0.00010109941713876617,1.082849402600959e-06,1.1017137147369508e-06,8.417354154454273e-07,1.0399535272854565e-06
275,1.3051975865316448e-06,1.964901765775777e-06,3.3730142855189315e-06,1.0151856074086216e-05,8.448727557586692e-07,1.4365513266255255e-06,9.754876713400072e-07,2.7110629446602016e-06,1.6420873179848734e-05,2.049606191840756e-06,2.944535471271395e-06,9.549339212672012e-05,1.0881281501071237e-06,1.1093526104522016e-06,8.303887466255999e-07,1.02170823605154e-06
276,1.2925872720987025e-06,1.998192528117604e-06,3.4146983598846202e-06,9.950856732709045e-06,8.390193938411079e-07,1.410211586954555e-06,9.720397458713526e-07,2.664767773189892e-06,1.6629327140488875e-05,2.091542243061162e-06,2.887122725163195e-06,9.015793475729639e-05,1.0905062382363696e-06,1.1174043549495356e-06,8.211983259658298e-07,1.0058228795813471e-06
277,1.2764527579553365e-06,2.0276985926066192e-06,3.463177115528409e-06,9.759106252562476e-06,8.321827591681011e-07,1.3814021193986188e-06,9.699943502706957e-07,2.612260093635111e-06,1.6798840723162848e-05,2.131158471927715e-06,2.8222351639513976e-06,8.518688150544552e-05,1.090395459893691e-06,1.1256614630249396e-06,8.143166855449504e-07,9.919849076863226e-07
278,1.257141719615022e-06,2.0534254589604442e-06,3.517087168581508e-06,9.578296628218376e-06,8.241541579208305e-07,1.3508800575356092e-06,9.693548331869306e-07,2.5553130810952444e-06,1.6925130119913066e-05,2.1672851864113427e-06,2.7503714392893573e-06,8.066067215880365e-05,1.0882511883794178e-06,1.1339309358709038e-06,8.097461115929653e-07,9.798400839210826e-07
279,1.2352526707645708e-06,2.0751366402697836e-06,3.575509063296453e-06,9.408238215946796e-06,8.146942443279276e-07,1.319179441308349e-06,9.700304716457772e-07,2.4955531892843517e-06,1.7005578717341034e-05,2.199094191610989e-06,2.672255338002117e-06,7.665173248212809e-05,1.0845326229333637e-06,1.1419003077545365e-06,8.073465139156293e-07,9.691468649365088e-07
280,1.211520790109676e-06,2.092281659234436e-06,3.6378132552318846e-06,9.247149630510942e-06,8.034860567684903e-07,1.2866100133436778e-06,9.718410446301387e-07,2.4342950634210644e-06,1.7040541353087838e-05,2.2262541698360108e-06,2.5890443856643827e-06,7.322598018893965e-05,1.0796904930852275e-06,1.1490698702830353e-06,8.06911196376685e-07,9.598530271271637e-07
281,1.1866554107376283e-06,2.1040668503242333e-06,3.703297738686297e-06,9.092142602719359e-06,7.90168012038068e-07,1.2533111635578484e-06,9.745064255620562e-07,2.372521659855453e-06,1.703356797746346e-05,2.248884144807695e-06,2.5022634655626375e-06,7.043983831077523e-05,1.074156123075637e-06,1.1547670595237933e-06,8.082464402004563e-07,9.520203229336337e-07
282,1.1612453357444914e-06,2.109732167641595e-06,3.7709864374298457e-06,8.939726543883062e-06,7.744649117421283e-07,1.2193814674391425e-06,9.776836431860688e-07,2.310899216466895e-06,1.6990716143817826e-05,2.2673649197980164e-06,2.413555126545037e-06,6.833637953060771e-05,1.0683788369682708e-06,1.1582457177157823e-06,8.111777436115611e-07,9.456958785357675e-07
283,1.1357964150006152e-06,2.1088895026430506e-06,3.83977572350561e-06,8.78631355935679e-06,7.563467956739547e-07,1.1850127943000999e-06,9.810723442688996e-07,2.2498682997712474e-06,1.6919215477776408e-05,2.2821491280737965e-06,2.3244455237427676e-06,6.694361181100915e-05,1.0628609188449002e-06,1.1588531112509093e-06,8.154989002950079e-07,9.408548388314143e-07
284,1.1108150686688018e-06,2.10168974566548e-06,3.908776984995492e-06,8.628681596505114e-06,7.360958378034731e-07,1.150558662494573e-06,9.84522320176756e-07,2.1898329256382902e-06,1.6825852290065596e-05,2.2936401635987986e-06,2.2362602670970065e-06,6.627501798463776e-05,1.0581097743903113e-06,1.1561639164724142e-06,8.20912058507203e-07,9.374134507027204e-07
285,1.0868196533294426e-06,2.0887773034675e-06,3.977568246534847e-06,8.464324282583402e-06,7.142131752631148e-07,1.1165580790254526e-06,9.880703634729875e-07,2.131309760751792e-06,1.6715493310246634e-05,2.3020843702236195e-06,2.1501356001850152e-06,6.63316775325267e-05,1.0545749643283672e-06,1.149995245509259e-06,8.269945037462347e-07,9.352675134053915e-07
286,1.064273345337557e-06,2.071135088999654e-06,4.046181323522293e-06,8.291645369877142e-06,6.912450959678393e-07,1.083746261955958e-06,9.919048713569475e-07,2.07491348833792e-06,1.659007753555452e-05,2.3074857096704864e-06,2.0670009364291428e-06,6.710489213746322e-05,1.0526490103075545e-06,1.1403455848796646e-06,8.332646024616318e-07,9.343513776536542e-07
287,1.0435295582483735e-06,2.0498739373428657e-06,4.1148301121040825e-06,8.109974497955624e-06,6.676656725290394e-07,1.053019261574858e-06,9.963000523024364e-07,2.0212352828735287e-06,1.6448373788579088e-05,2.3096358584800654e-06,1.987597654087548e-06,6.857719880999511e-05,1.0527026712068488e-06,1.1273363363233064e-06,8.393345133204853e-07,9.346746918372206e-07
288,1.0248341319170868e-06,2.025994475278112e-06,4.183509070534873e-06,7.919445724409494e-06,6.438568335307199e-07,1.0253242757065661e-06,1.001539341117019e-06,1.9707425244725725e-06,1.6286830507427454e-05,2.308234520029642e-06,1.9125979152553286e-06,7.072075940777744e-05,1.0551176649390205e-06,1.111159759010472e-06,8.449835257308513e-07,9.363109411912376e-07
289,1.0083401453285562e-06,2.0002507305319057e-06,4.251676333742859e-06,7.720876276442708e-06,6.201506581135476e-07,1.00152061248088e-06,1.0078272459375748e-06,1.9237135598012716e-06,1.6101336132610434e-05,2.302982967884211e-06,1.8426546070154208e-06,7.349472022658127e-05,1.0602951909729236e-06,1.0920436041088519e-06,8.500792468090722e-07,9.393945078299712e-07
290,9.941249120137506e-07,1.973215427731483e-06,4.3182541106280525e-06,7.515756195686805e-06,5.968957029505522e-07,9.822855249211124e-07,1.0152064879798392e-06,1.8801495955021006e-06,1.5888738223497937e-05,2.2936100658850807e-06,1.778339158387663e-06,7.684366191825894e-05,1.0686094395690461e-06,1.0702798451120654e-06,8.545025960136028e-07,9.441430628452762e-07
291,9.822125280430155e-07,1.9454398626461354e-06,4.381998569088115e-06,7.30629623987355e-06,5.745080730755549e-07,9.680901695509576e-07,1.0235110646046787e-06,1.8396953724162533e-06,1.564692790823235e-05,2.279856591778508e-06,1.7201119311782255e-06,8.069848262271495e-05,1.0803260040113872e-06,1.0462706995920612e-06,8.581842210483964e-07,9.508836181707174e-07
292,9.725826857804185e-07,1.917527431060727e-06,4.442015127783959e-06,7.095390055769867e-06,5.534763294028434e-07,9.592186046920994e-07,1.0323645830726022e-06,1.801678480533591e-06,1.5374090733150748e-05,2.261483132573969e-06,1.668320787521605e-06,8.498212764909491e-05,1.0955504491264502e-06,1.0204832662052756e-06,8.611415217121409e-07,9.600597781616758e-07
293,9.652086669183277e-07,1.8900533029025108e-06,4.498087384654428e-06,6.8864344042547194e-06,5.343188694667704e-07,9.557988426743867e-07,1.0412047481687943e-06,1.7653046241451898e-06,1.5069092404778271e-05,2.2384037745353765e-06,1.6231844003538515e-06,8.962077063847381e-05,1.1142249824259272e-06,9.933382434323555e-07,8.634601368338445e-07,9.721809520418376e-07
294,9.601329438539935e-07,1.8634112570291181e-06,4.550580610329532e-06,6.683055016826824e-06,5.175227445476086e-07,9.578191521992848e-07,1.0493245420074502e-06,1.7299149295776583e-06,1.4732795691845768e-05,2.2108969819049965e-06,1.5848017772614628e-06,9.45539246466044e-05,1.1361272384461246e-06,9.651694837581957e-07,8.65300802375389e-07,9.877522317860679e-07
295,9.57476737186882e-07,1.8377344240603387e-06,4.599928032069162e-06,6.488759475626021e-06,5.035008327786701e-07,9.65109749509619e-07,1.0559607313970182e-06,1.6951756154200162e-06,1.4368275492052719e-05,2.179652707086266e-06,1.553161277189803e-06,9.973478639177706e-05,1.1608466514129575e-06,9.363027495097614e-07,8.669029481983922e-07,1.007239349109936e-06
296,9.573620220486303e-07,1.8129409086004839e-06,4.646033692588119e-06,6.3064964718076765e-06,4.925740968034894e-07,9.773086712959291e-07,1.0604614472384943e-06,1.661129483680127e-06,1.398058326740818e-05,2.145624184120299e-06,1.528115704989519e-06,0.00010512013185796824,1.1877997628028228e-06,9.071733430154765e-07,8.685190186036393e-07,1.031026899125549e-06
297,9.598563989021853e-07,1.788823868376437e-06,4.688037063819962e-06,6.138191237922075e-06,4.849672656560166e-07,9.938534265889833e-07,1.062489602297841e-06,1.6280838100884631e-06,1.3577189351848854e-05,2.109902763489232e-06,1.5094093662003739e-06,0.00011065908786146559,1.2163528856588743e-06,8.783640568520695e-07,8.703433174508614e-07,1.0593524783765019e-06
298,9.649705052289574e-07,1.7651024914988612e-06,4.7246276512399366e-06,5.984432162896296e-06,4.808356789904084e-07,1.014001919936524e-06,1.0621397434054546e-06,1.5963835819966202e-06,1.3167400086124842e-05,2.07360983607239e-06,1.4967634907775207e-06,0.00011629122177778982,1.2459662260503969e-06,8.505101714496564e-07,8.724978460860102e-07,1.0922630527417772e-06
299,9.726333053932495e-07,1.7414313268815054e-06,4.754705357576615e-06,5.84441226875253e-06,4.80347287706096e-07,1.0368595582228358e-06,1.0598646742883128e-06,1.5662393831854458e-06,1.2760555228715914e-05,2.0377063815630734e-06,1.4898559349442774e-06,0.00012195481518666769,1.2762132624760658e-06,8.241635949005762e-07,8.750423180184486e-07,1.1296120298839385e-06
300,9.826392385171904e-07,1.7174128247355338e-06,4.777909189338563e-06,5.716041054279069e-06,4.837716241591626e-07,1.0614319867112617e-06,1.0562476252040939e-06,1.5377012876437275e-06,1.236480044938988e-05,2.0028655518102823e-06,1.488190004116537e-06,0.0001275971921730549,1.3067370062650308e-06,7.997369060460828e-07,8.779469348133372e-07,1.1710839454445517e-06
301,9.946177945812416e-07,1.6926133229013506e-06,4.7945502361047264e-06,5.596060661939637e-06,4.914853685004787e-07,1.0867231095224444e-06,1.0517879313764227e-06,1.5106816159824264e-06,1.1986549324051734e-05,1.969472451815898e-06,1.491050888973644e-06,0.0001331791109748152,1.33725955738674e-06,7.775151864852926e-07,8.810482326481021e-07,1.2162327249162358e-06
302,1.008028258879405e-06,1.6665411355454863e-06,4.80497430035593e-06,5.480155507557474e-06,5.039035564924448e-07,1.1118365267024046e-06,1.0468151056815065e-06,1.4849537634473262e-06,1.1630188678876515e-05,1.9376123573616027e-06,1.4976244542362392e-06,0.0001386706379494118,1.3675715848505506e-06,7.576935818672317e-07,8.840798590514616e-07,1.264507351650349e-06
303,1.0221776351941167e-06,1.6386599675419734e-06,4.808977025052713e-06,5.36323770538579e-06,5.214296668857416e-07,1.1360548152296756e-06,1.0414957472370553e-06,1.4601540857772578e-06,1.1298224123306915e-05,1.9070574430019772e-06,1.507181704896625e-06,0.00014404100555412923,1.397480283926536e-06,7.404525182167333e-07,8.86763836045066e-07,1.3152333157840077e-06
304,1.036317849998257e-06,1.6085704992120369e-06,4.80578137550856e-06,5.239994249968635e-06,5.444590170438882e-07,1.1589161403853207e-06,1.0358550865136251e-06,1.4358379513200434e-06,1.0991864154119227e-05,1.8773877348339577e-06,1.5192028940802112e-06,0.00014924672037329255,1.4267922716993941e-06,7.260215833796256e-07,8.88863493215011e-07,1.3675852347582167e-06
305,1.0498456107067484e-06,1.5762691659233581e-06,4.79445970924722e-06,5.1055534540746785e-06,5.734084491158465e-07,1.1802789009722251e-06,1.0297931573777067e-06,1.4116122541293042e-06,1.0711548180677647e-05,1.8482112894218765e-06,1.5333471579875388e-06,0.00015422176589825984,1.455291271196915e-06,7.146590237221767e-07,8.901891530710482e-07,1.4206229218051699e-06
306,1.0624902900088235e-06,1.5422369844246902e-06,4.774420269764274e-06,4.956100952210646e-06,6.087403193912722e-07,1.2003346104331821e-06,1.0231332928155884e-06,1.3872812532598637e-06,1.0456856474876565e-05,1.819300026456257e-06,1.5492809414644076e-06,0.00015887565127921705,1.4827201736745347e-06,7.065881844309446e-07,8.90594618768014e-07,1.473355625777499e-06
307,1.07435049729216e-06,1.507278606308168e-06,4.745705194843375e-06,4.78934059309654e-06,6.50957632217893e-07,1.219544827178362e-06,1.0157142563345989e-06,1.3629188421533865e-06,1.0226146562516572e-05,1.7905542588568563e-06,1.566535033355076e-06,0.00016310479915971704,1.5088499548347264e-06,7.019722113129843e-07,8.899823827451027e-07,1.5247605153061713e-06
308,1.0857644646743264e-06,1.472241680703825e-06,4.709013730186187e-06,4.604723176377086e-06,7.005778978930547e-07,1.23850835486562e-06,1.0074784013531312e-06,1.3388174772137803e-06,1.0016674374297479e-05,1.7618878811209754e-06,1.584553473720893e-06,0.00016681495049857752,1.5335598087472786e-06,7.009207935741679e-07,8.883160359940378e-07,1.573827933956659e-06
309,1.0971142455271988e-06,1.4377882175492765e-06,4.6655305915886135e-06,4.403433122361089e-06,7.581149283502448e-07,1.2578000725105268e-06,9.985169487904297e-07,1.3153288795923854e-06,9.825052215709104e-06,1.733149548341942e-06,1.602886458288514e-06,0.00016994454531147916,1.5568288825809761e-06,7.034851574650485e-07,8.856154987311359e-07,1.6197341260997399e-06
310,1.1086964599015216e-06,1.4043186075966556e-06,4.616728021883995e-06,4.188170751855032e-06,8.240727124001547e-07,1.2778457687479823e-06,9.890439976770627e-07,1.2927324430760534e-06,9.64750755083261e-06,1.7040703022098844e-06,1.6213489637328655e-06,0.00017247693832950935,1.578703420000137e-06,7.096369658884752e-07,8.819461982100439e-07,1.6620395896053114e-06
311,1.1206986332997376e-06,1.3720484337145017e-06,4.564226173614591e-06,3.962721535504206e-06,8.989333318018662e-07,1.2988619802051684e-06,9.793035018524696e-07,1.2712280650703432e-06,9.479939637548146e-06,1.6741993955569003e-06,1.640048129663265e-06,0.00017443157872020775,1.599316235776652e-06,7.192483335853352e-07,8.773973794323774e-07,1.7007011953824352e-06
312,1.1332137837819117e-06,1.3411437822544611e-06,4.5096408969167625e-06,3.731318870249313e-06,9.831777020539422e-07,1.3208405952878717e-06,9.69511568799265e-07,1.250956294288907e-06,9.318009086522604e-06,1.6429023634714547e-06,1.6592936348399087e-06,0.00017583808120909754,1.618910801556506e-06,7.320832829263543e-07,8.720140808126742e-07,1.7358495836692686e-06
313,1.1462573259804693e-06,1.3117817041366309e-06,4.454321136968566e-06,3.4980035828453676e-06,1.077405041692251e-06,1.343587846064095e-06,9.59899092905492e-07,1.2319611030440293e-06,9.157337355556775e-06,1.6094818966891231e-06,1.679441628226993e-06,0.00017671702808160365,1.6377981745701476e-06,7.478015813793944e-07,8.657463278133165e-07,1.7674982547614143e-06
314,1.159786202201063e-06,1.2841135809310212e-06,4.399056570881764e-06,3.266297023743617e-06,1.1824730240223952e-06,1.36682579455986e-06,9.507529223165216e-07,1.2141541880517516e-06,8.993681501752367e-06,1.5733457599843877e-06,1.7007603945731298e-06,0.0001770828996393821,1.6562492089423075e-06,7.659868926360268e-07,8.585177468408746e-07,1.7953659740921758e-06
315,1.173681303348661e-06,1.2582659380663949e-06,4.3440127906978606e-06,3.039265848440202e-06,1.299477502331482e-06,1.3902764201563596e-06,9.423643791041931e-07,1.1973493141048403e-06,8.822896068703185e-06,1.5341482736014844e-06,1.7233754812113144e-06,0.00017695483032544387,1.6743694434431111e-06,7.86199688969131e-07,8.503954766623177e-07,1.81887469428279e-06
316,1.187678580082683e-06,1.234429589600547e-06,4.288997339736521e-06,2.8197465346016804e-06,1.4295573226684045e-06,1.4136854064857506e-06,9.3495970794263e-07,1.1813862500141454e-06,8.64119113922854e-06,1.491906543831263e-06,1.7472342727539813e-06,0.00017636019864188408,1.6920017536356893e-06,8.079988354060166e-07,8.417221665040803e-07,1.8372984060064382e-06
317,1.2013048675800401e-06,1.2128967186750165e-06,4.233841683811255e-06,2.6104869953393982e-06,1.573712204640839e-06,1.4368492431693962e-06,9.28697349241257e-07,1.1662880716900987e-06,8.446741758370892e-06,1.447061762329647e-06,1.7720659620443393e-06,0.00017533547728216582,1.7086972258489979e-06,8.309012993771845e-07,8.330805325050818e-07,1.849927011882914e-06
318,1.2138814501662895e-06,1.1939749369541674e-06,4.178678265511013e-06,2.414145682456899e-06,1.7327556643731774e-06,1.4596385265067709e-06,9.236785109611391e-07,1.1523295695487632e-06,8.242014895752175e-06,1.400428182895503e-06,1.7974399630147665e-06,0.00017392952694740042,1.7238047233438545e-06,8.543473136744696e-07,8.251154602753768e-07,1.8560959032928769e-06
319,1.2246344944264395e-06,1.1778807732292497e-06,4.124085242341506e-06,2.2332149268018397e-06,1.9073320948253937e-06,1.4819278009927158e-06,9.199016277507882e-07,1.139968011555888e-06,8.03429222513357e-06,1.353042842359604e-06,1.8229668147531572e-06,0.0001722039923368102,1.7366649595578405e-06,8.777170930789878e-07,8.1837182131672e-07,1.8552065651071222e-06
320,1.2328988293058096e-06,1.1646976793705218e-06,4.071120685310291e-06,2.0699301371870162e-06,2.0978851698499007e-06,1.5034594986693372e-06,9.172110605130877e-07,1.1296936390322716e-06,7.833729699865093e-06,1.3059963992456112e-06,1.8485112159842524e-06,0.0001702245977722486,1.746795554398552e-06,9.003567117093229e-07,8.132487478792379e-07,1.8468650282883826e-06
321,1.2383073247748727e-06,1.1543892801676206e-06,4.0212248046599085e-06,1.9261881562634515e-06,2.304559711859978e-06,1.5237496629134662e-06,9.153403674206342e-07,1.1218783174113565e-06,7.651142011776016e-06,1.2603263065306381e-06,1.8742401589728141e-06,0.00016804557773559628,1.7539946862905031e-06,9.216167144211443e-07,8.100220291763046e-07,1.8309431697479118e-06
322,1.2408563888068989e-06,1.146839544816856e-06,3.975947403685646e-06,1.8035266795658443e-06,2.5271181120033136e-06,1.5420539294083443e-06,9.140563865912854e-07,1.116689954162602e-06,7.496911653881384e-06,1.2169882492135817e-06,1.9004631433960765e-06,0.00016569490560781712,1.7583426555255992e-06,9.409759048996328e-07,8.088596256355853e-07,1.8075867538756495e-06
323,1.2408566930532803e-06,1.1419107661274485e-06,3.936564181088553e-06,1.7031792516676581e-06,2.764961112342867e-06,1.5573969005815505e-06,9.132779136275592e-07,1.114096147572996e-06,7.380541343581006e-06,1.1768457011985763e-06,1.9273815711890473e-06,0.00016316533190119923,1.760056791822744e-06,9.582202533292505e-07,8.098276732829039e-07,1.7774187203936758e-06
324,1.2388463140244392e-06,1.1395116899460405e-06,3.903866278200733e-06,1.6261092143173895e-06,3.01724454836508e-06,1.5687075641476044e-06,9.130542614894663e-07,1.113903731878668e-06,7.310412467673303e-06,1.1406406103790427e-06,1.954903110329229e-06,0.00016041318552393206,1.7592502565955751e-06,9.735135741036273e-07,8.129045323487389e-07,1.741703074439703e-06
325,1.2355000642675302e-06,1.1396343480776614e-06,3.878288169218909e-06,1.5729799262621093e-06,3.28299904486759e-06,1.5750308809498324e-06,9.13463798947764e-07,1.11578732592728e-06,7.293721339181766e-06,1.1089590129894927e-06,1.9825674286672725e-06,0.0001573683373676746,1.7557667536443238e-06,9.872742387293176e-07,8.179953730551029e-07,1.7021299701123183e-06
326,1.2315198540613421e-06,1.14230697303645e-06,3.860118269425461e-06,1.5441482307991813e-06,3.56115777130263e-06,1.5757323594454518e-06,9.145785431832308e-07,1.119339468417978e-06,7.336640664154028e-06,1.0821996270899303e-06,2.0095212152099845e-06,0.00015395677254433584,1.7492021093881995e-06,9.999873749251047e-07,8.249412686817728e-07,1.66046367340552e-06
327,1.227522185868693e-06,1.147494268961613e-06,3.849538161113819e-06,1.5397354733697272e-06,3.850436860830791e-06,1.570624562426363e-06,9.165001638520383e-07,1.124148615737787e-06,7.444701112007557e-06,1.060561119920703e-06,2.0345405105956085e-06,0.00015012680676870202,1.7390666588672448e-06,1.0120946921924055e-06,8.335292241329382e-07,1.6183747358412172e-06
328,1.22399867885039e-06,1.1550298479163663e-06,3.846572771462571e-06,1.5597261238888299e-06,4.149093042821563e-06,1.5599484187471557e-06,9.193494926160572e-07,1.1298296483896611e-06,7.623020832024223e-06,1.0440492621504198e-06,2.056179771824002e-06,0.00014586405452714172,1.7249426434507416e-06,1.023935288266161e-06,8.434902022190916e-07,1.577365747645285e-06
329,1.2213678738659035e-06,1.16460114326205e-06,3.851089957129406e-06,1.6040310996256934e-06,4.454681562195384e-06,1.5442099487078507e-06,9.231875816390186e-07,1.1359935822764864e-06,7.876064931125762e-06,1.0324753011608968e-06,2.073059385513812e-06,0.00014118879738829427,1.706519454104757e-06,1.0357096174336137e-06,8.544797701542734e-07,1.5386816934414037e-06
330,1.2200112822254397e-06,1.1757760013213795e-06,3.862835062087073e-06,1.6724910270269958e-06,4.763936519567771e-06,1.5239668192996705e-06,9.279793679876036e-07,1.1422505142163668e-06,8.207124344092183e-06,1.025461398861832e-06,2.0841772068350775e-06,0.0001361404859163982,1.6835116288134903e-06,1.047506034704748e-06,8.660793525634098e-07,1.503271712328016e-06
