,EMG1,EMG2,EMG3,EMG4,EMG5,EMG6,EMG7,EMG8,EMG9,EMG10,EMG11,EMG12,EMG13,EMG14,EMG15,EMG16
0,2.9228608522963176e-07,8.154829222667783e-08,4.206689728960213e-07,-1.3451604215785195e-07,3.388982611072264e-07,6.187623977658518e-08,1.6044016612837294e-07,9.9701948193376e-07,3.31344718802938e-06,1.0535180312304728e-06,2.8345109163940696e-07,2.8534099842050024e-05,9.395010836123856e-08,2.4275921528849365e-07,1.1970756933907827e-07,2.460038750793927e-07
1,3.234849531767096e-07,1.5903086326826759e-07,5.340809139970442e-07,5.85516670796407e-07,3.842360477517323e-07,1.9850379694446687e-07,1.925762969194255e-07,1.1706042207720067e-06,4.5971202286051226e-06,1.3774401892532575e-06,3.365278887902446e-07,3.2340207289336126e-05,1.8751617253320275e-07,3.853254525725002e-07,1.731304792402544e-07,3.5212827367588433e-07
2,3.557728250089625e-07,2.3647345221241326e-07,6.492610703922124e-07,1.2812736036920134e-06,4.300966608033851e-07,3.313022963383233e-07,2.2590727917891246e-07,1.3456137708182784e-06,5.88274890692819e-06,1.6898882460855652e-06,3.914946689346413e-07,3.617116198398028e-05,2.8003182232774414e-07,5.249893996770576e-07,2.2731191610806388e-07,4.589143126141327e-07
3,3.886086241875517e-07,3.1302787709159414e-07,7.655003405096493e-07,1.9446657503814336e-06,4.7616315583806753e-07,4.5835119637698834e-07,2.598708159967952e-07,1.5208314840473491e-06,7.138417887531356e-06,1.985982538037525e-06,4.480700301489198e-07,3.9942903280522474e-05,3.7034026354786697e-07,6.590497381041782e-07,2.811741445500832e-07,5.640938221883588e-07
4,4.214441390727594e-07,3.879766841752208e-07,8.822195834945298e-07,2.5680642054737757e-06,5.221848547700216e-07,5.779021207502384e-07,2.9395744973017245e-07,1.694820185575183e-06,8.341943238032511e-06,2.26120407349103e-06,5.060573197491303e-07,4.357925956160358e-05,4.573551448311588e-07,7.856297721835004e-07,3.33980990299909e-07,6.655585160502795e-07
5,4.5374310784168254e-07,4.6078558210377625e-07,9.989896607502123e-07,3.1448330617686726e-06,5.679596822923124e-07,6.885509727195714e-07,3.2777618769160756e-07,1.865989224541153e-06,9.482101521844954e-06,2.511674515271872e-06,5.653345151112113e-07,4.701637706327188e-05,5.400689442849799e-07,9.037661379759313e-07,3.8534823395323694e-07,7.616390218004397e-07
6,4.850401012417647e-07,5.310723799326908e-07,1.115416706685498e-06,3.6699288002673864e-06,6.132890501976126e-07,7.893638150076169e-07,3.6107821115323776e-07,2.0327565685738308e-06,1.0556232924031317e-05,2.734372269458567e-06,6.258367498474732e-07,5.020475372019619e-05,6.176628256020969e-07,1.0130791300311801e-06,4.351699181468223e-07,8.513264904268204e-07
7,5.149892051344158e-07,5.985245956731168e-07,1.2309914911298452e-06,4.140292897843304e-06,6.57975826271298e-07,8.798624009640473e-07,3.937244865093516e-07,2.1936867285827756e-06,1.156631170707697e-05,2.927226158907661e-06,6.875272248656759e-07,5.3107855392012625e-05,6.89697299730061e-07,1.1133330182027908e-06,4.83513372572178e-07,9.342374961405168e-07
8,5.433424405411033e-07,6.62827729345625e-07,1.345001221843044e-06,4.554946531996375e-06,7.018585487236792e-07,9.598874205294526e-07,4.25658370003267e-07,2.347502155467619e-06,1.2515728163911537e-05,3.089146177199079e-06,7.503708320610849e-07,5.569730131220795e-05,7.561981812388658e-07,1.2042117289458133e-06,5.305104942755511e-07,1.0103351394348421e-06
9,5.6987355502642e-07,7.236267303892251e-07,1.45653317950017e-06,4.914888607878853e-06,7.448061060138802e-07,1.029454280682419e-06,4.5689048702583157e-07,2.4930066042765596e-06,1.3407282501350726e-05,3.2200114952329548e-06,8.14328632753796e-07,5.7946020125197126e-05,8.175180755234506e-07,1.285319512656562e-06,5.76282732617402e-07,1.0796288796830985e-06
10,5.943186642225022e-07,7.805383707007376e-07,1.5645474174075761e-06,5.2229296981332946e-06,7.866731497177411e-07,1.0887110766079503e-06,4.874489450244899e-07,2.629015250435747e-06,1.4242000264283875e-05,3.3204890636941685e-06,8.793546091069535e-07,5.982276644913879e-05,8.741322422904017e-07,1.356253718187431e-06,6.209083374576689e-07,1.1420234140300348e-06
11,6.164023907247093e-07,8.3323333274651e-07,1.667945563881239e-06,5.483473352559079e-06,8.272756240937387e-07,1.1379978155660374e-06,5.173133344181356e-07,2.754285596579302e-06,1.501856192109753e-05,3.3916152354954666e-06,9.453879207921704e-07,6.129301170658336e-05,9.265652964883086e-07,1.4166775434863603e-06,6.6439790886998e-07,1.1973199974886063e-06
12,6.359477858699723e-07,8.81525423682002e-07,1.7656094712807834e-06,5.70217883578292e-06,8.664183276389374e-07,1.1779000277925086e-06,5.463878436294482e-07,2.8673969178268257e-06,1.573335826819722e-05,3.43440926929085e-06,1.0123283000720368e-06,6.232799963236874e-05,9.75387874590801e-07,1.466403792459211e-06,7.066763129032463e-07,1.245322379965256e-06
13,6.52966129551996e-07,9.253803275483332e-07,1.8564863810852274e-06,5.885489215954821e-06,9.039490073582491e-07,1.2092028118706803e-06,5.745301262036681e-07,2.9666965421235235e-06,1.6381244426403787e-05,3.449843407937823e-06,1.0800071318362845e-06,6.291650652531599e-05,1.0211707499565955e-06,1.5054811177431914e-06,7.475946147425843e-07,1.2859599932752532e-06
14,6.676390354760392e-07,9.64879813191553e-07,1.9397635016766316e-06,6.040088092237689e-06,9.39751730207903e-07,1.232747827369147e-06,6.016020305675674e-07,3.0505515241947206e-06,1.6956446759395176e-05,3.4390640250238606e-06,1.148189260236272e-06,6.307127668144245e-05,1.0644436860837493e-06,1.5342531060571207e-06,7.86961624061223e-07,1.3192979671551419e-06
15,6.802322632836384e-07,1.0002334645173e-06,2.0150474943354376e-06,6.172403557282186e-06,9.736527035304958e-07,1.2492740862705324e-06,6.274833951349725e-07,3.1178958281769337e-06,1.7452679782486803e-05,3.4035573451223845e-06,1.2165615393040925e-06,6.28268866700739e-05,1.10570381807702e-06,1.5533794170453396e-06,8.245573186533778e-07,1.3454155955102446e-06
16,6.910176942356762e-07,1.031811995167757e-06,2.082443409050403e-06,6.288290269968899e-06,1.0053399834395548e-06,1.259346827475259e-06,6.520564495577248e-07,3.168723156466407e-06,1.7863049976610295e-05,3.3452108292075806e-06,1.2846736915032684e-06,6.223173270698561e-05,1.145408034113214e-06,1.5637807688915111e-06,8.601229784495301e-07,1.36432508385053e-06
17,7.00229644665644e-07,1.0601003522088017e-06,2.1425130223915535e-06,6.392943035562936e-06,1.0343923468175187e-06,1.263416418966981e-06,6.752134568214439e-07,3.2041907349063437e-06,1.8181288973207672e-05,3.266357248997285e-06,1.3519109030792088e-06,6.133872995708324e-05,1.1838980818073835e-06,1.5664783965334257e-06,8.933631553209424e-07,1.3760899013031727e-06
18,7.080812772729162e-07,1.0855795133586403e-06,2.1961332474595036e-06,6.490963793790598e-06,1.0603917298884361e-06,1.261935986739601e-06,6.968696848493489e-07,3.2263077453397885e-06,1.8403945154872268e-05,3.1697632031480323e-06,1.4175934277904966e-06,6.019742743918243e-05,1.2213105535600608e-06,1.5624402880603215e-06,9.239760421815105e-07,1.3810648196181494e-06
19,7.148413598462576e-07,1.1086573565668029e-06,2.2442644130183063e-06,6.586452162483664e-06,1.0830111682406377e-06,1.2554279578850884e-06,7.169506214169562e-07,3.237432618109379e-06,1.8531860596984652e-05,3.0584760645086323e-06,1.4811736002545728e-06,5.88485491817823e-05,1.2575551094530656e-06,1.5525363291547331e-06,9.517369418417596e-07,1.3800336652943496e-06
20,7.208829342709984e-07,1.1296946488044658e-06,2.2876990075928913e-06,6.683060363901084e-06,1.1020206740790053e-06,1.2444520135156794e-06,7.353745926590063e-07,3.23981066890635e-06,1.857055626144241e-05,2.9355414485992857e-06,1.5423587325814581e-06,5.7322338007012575e-05,1.2923692687620482e-06,1.5375167980162898e-06,9.76643260526942e-07,1.3741376617528128e-06
21,7.266383476186367e-07,1.1490492940292186e-06,2.3269262775776253e-06,6.7840078667038074e-06,1.1172567240321648e-06,1.22954115570971e-06,7.520364862059747e-07,3.2352521500105587e-06,1.85299770354262e-05,2.8037309864825232e-06,1.601036695303679e-06,5.564126411031023e-05,1.3253865007361017e-06,1.5179495152106262e-06,9.989875723722453e-07,1.3647069470345297e-06
22,7.325085866796279e-07,1.1670606687615231e-06,2.362123330903656e-06,6.892006375319278e-06,1.1285974090842862e-06,1.2112187795529617e-06,7.667914149701277e-07,3.224954070450028e-06,1.8423375614495917e-05,2.665484496985234e-06,1.6570848628496392e-06,5.382491827958065e-05,1.3561683096737941e-06,1.4941928426856798e-06,1.0192538762920865e-06,1.3531357815389432e-06
23,7.387930919418505e-07,1.1839706955886728e-06,2.3931620412558053e-06,7.009018532065084e-06,1.1359199625766124e-06,1.1900736796709326e-06,7.794695190815005e-07,3.2094563749075957e-06,1.8265093146186286e-05,2.523076058800527e-06,1.7102350762116898e-06,5.189432707581455e-05,1.3841910215825937e-06,1.4664559363812958e-06,1.0379615811783872e-06,1.3407903692249565e-06
24,7.456495330389387e-07,1.1998451310247762e-06,2.4196321723085084e-06,7.135928295231273e-06,1.1390595420197882e-06,1.1667555690606254e-06,7.899265091298286e-07,3.18876695398383e-06,1.8068194189631362e-05,2.3787376588591652e-06,1.760053759022651e-06,4.987446159862274e-05,1.4088339337287852e-06,1.4349079836608198e-06,1.0555895864929355e-06,1.3289145582803215e-06
25,7.530743890671123e-07,1.2145566076934418e-06,2.4409065365400684e-06,7.272435545455747e-06,1.1378537129614037e-06,1.1418838419734454e-06,7.980995468936039e-07,3.1626504628367405e-06,1.7843317292103583e-05,2.234580177488972e-06,1.8059406287898205e-06,4.779441793751357e-05,1.4294749909014452e-06,1.3997931313694274e-06,1.0725521234247165e-06,1.318590995495437e-06
26,7.609212785508307e-07,1.2278055268422121e-06,2.4561583121560504e-06,7.417331726074749e-06,1.1322748443688277e-06,1.1160165386053277e-06,8.040587301755626e-07,3.1309360676477244e-06,1.7598794677126515e-05,2.092445292444464e-06,1.8470840036659409e-06,4.5685213947842306e-05,1.4457096576592165e-06,1.3615254298027897e-06,1.0891770295419136e-06,1.310788530854094e-06
27,7.68992618523955e-07,1.2391248332766707e-06,2.4643784428020064e-06,7.5688526894312764e-06,1.1225426918702211e-06,1.0897236847883821e-06,8.080498288627466e-07,3.0937126337752313e-06,1.7341151317717483e-05,1.9538549416612807e-06,1.8824819216854597e-06,4.357644273698629e-05,1.4575296983697286e-06,1.3207311940538986e-06,1.1057132896473465e-06,1.3064124051922537e-06
28,7.771919111947268e-07,1.2479181384584838e-06,2.464616535999294e-06,7.724748083536167e-06,1.1091124280090813e-06,1.063634340476486e-06,8.105022565907189e-07,3.0514368763853785e-06,1.7075577538625446e-05,1.8200659194318156e-06,1.9111201726269608e-06,4.149368773028757e-05,1.465282524199893e-06,1.2782150655848754e-06,1.1223855308267021e-06,1.3062710537630973e-06
29,7.856297484789182e-07,1.2535997786921466e-06,2.4564352412412826e-06,7.882025691587643e-06,1.0925511007562429e-06,1.038388819780953e-06,8.119774776842993e-07,3.005004989397973e-06,1.6806425578017988e-05,1.692141693357093e-06,1.932201683660874e-06,3.945746454550784e-05,1.469425429052791e-06,1.234850566036785e-06,1.1394194768657727e-06,1.3110006402183683e-06
30,7.945821164208052e-07,1.255752379959197e-06,2.440257360449445e-06,8.036636125337544e-06,1.0734541713239167e-06,1.0145734817710137e-06,8.130655214200432e-07,2.9557432554208604e-06,1.6537661508747608e-05,1.570993431193591e-06,1.945272043136868e-06,3.7482954801115665e-05,1.4702754322662086e-06,1.1914454573099107e-06,1.1569899692380114e-06,1.3210498530210981e-06
31,8.043403649278001e-07,1.2541664773396772e-06,2.41736468424482e-06,8.183553762274687e-06,1.0524577767835616e-06,9.926813815193165e-07,8.142812313966603e-07,2.9052508051487027e-06,1.6273107136410764e-05,1.4574053928081189e-06,1.9502058640087393e-06,3.557973362628373e-05,1.4679340439205868e-06,1.148671437238402e-06,1.1751840691025898e-06,1.3367288047853286e-06
32,8.150781661961469e-07,1.2487556302301177e-06,2.389570487285473e-06,8.317480116163284e-06,1.0302225072758582e-06,9.730647769035993e-07,8.160107378740628e-07,2.8551114943656264e-06,1.601630975502533e-05,1.3520419225152374e-06,1.9471254594693034e-06,3.37516075461122e-05,1.4623970705685742e-06,1.1070872722308317e-06,1.1940630098944603e-06,1.3582448952304672e-06
33,8.267924497451323e-07,1.2394475885522201e-06,2.3587604097458816e-06,8.433855358664176e-06,1.00737478522291e-06,9.558935678141635e-07,8.184984760604495e-07,2.806601339802011e-06,1.576997261563384e-05,1.255432705381894e-06,1.9363364663850543e-06,3.1996954121887824e-05,1.45369087387507e-06,1.0672005866827248e-06,1.2137339504140573e-06,1.3857008581686403e-06
34,8.392901946672903e-07,1.2261515921041683e-06,2.326571567943605e-06,8.529614743000617e-06,9.844817831650848e-07,9.411784935252451e-07,8.218361967377586e-07,2.7605163725148704e-06,1.553521824712671e-05,1.1679957456883852e-06,1.9182698321844187e-06,3.030924138143481e-05,1.4419011818226222e-06,1.029507359043008e-06,1.234306724451347e-06,1.4190775278522754e-06
35,8.521958568018007e-07,1.2088182797842889e-06,2.2943030636934955e-06,8.603303165047364e-06,9.620265071400137e-07,9.288567376700114e-07,8.259549787051797e-07,2.7171254070825956e-06,1.531115142433424e-05,1.090097242101688e-06,1.8933726473067828e-06,2.8677685305661848e-05,1.4271834660664438e-06,9.9448040305654e-07,1.2557925216123866e-06,1.4581983270239823e-06
36,8.649944984418811e-07,1.1874919933137098e-06,2.2629019429988628e-06,8.654523188166856e-06,9.403862014769356e-07,9.188786715655056e-07,8.306508023896293e-07,2.67624385494476e-06,1.5094799925727518e-05,1.0220497394945176e-06,1.8620404128213068e-06,2.7089791456814753e-05,1.4098348839265397e-06,9.625380419097468e-07,1.278051820605241e-06,1.5026806661402485e-06
37,8.771196220029307e-07,1.1622667037141401e-06,2.232977929311964e-06,8.682984945973632e-06,9.19868455411158e-07,9.112539699733311e-07,8.356654245325183e-07,2.6374693921948422e-06,1.4881513460749015e-05,9.64050052459451e-07,1.82475422362879e-06,2.5536567994386853e-05,1.390289239305711e-06,9.340382470277255e-07,1.3007747037067617e-06,1.5519377509470663e-06
38,8.880488581935091e-07,1.1332462244416025e-06,2.204937260745024e-06,8.687617001523342e-06,9.00748453796954e-07,9.060479070848963e-07,8.408190627904132e-07,2.6004882743660385e-06,1.4666674617192063e-05,9.161395773990042e-07,1.7823401612979711e-06,2.401714938531297e-05,1.368969350562437e-06,9.092758442058947e-07,1.3235012806995767e-06,1.6052492042098095e-06
39,8.97368640372041e-07,1.1006354840736909e-06,2.1791534623096284e-06,8.666290937355047e-06,8.832371773007525e-07,9.033295432640404e-07,8.461292496696451e-07,2.565249795544011e-06,1.444868301104112e-05,8.781920126374854e-07,1.7360652128474078e-06,2.25390649018903e-05,1.346159201349515e-06,8.884766410420684e-07,1.3457325446194858e-06,1.661790720029489e-06
40,9.048055748382862e-07,1.0648697722588543e-06,2.156013296598628e-06,8.616315270481191e-06,8.674226647693491e-07,9.03108283071726e-07,8.518143831381095e-07,2.5318860415670974e-06,1.4230757719155421e-05,8.499119208052374e-07,1.6874468032813136e-06,2.111440766236823e-05,1.3220373988082796e-06,8.718230058060457e-07,1.3670376839418102e-06,1.7205749866635878e-06
41,9.102308950806464e-07,1.02664133734396e-06,2.1358390958263632e-06,8.535226524785887e-06,8.532668945735093e-07,9.053061455390376e-07,8.581870030074723e-07,2.50046299495323e-06,1.4019627962029494e-05,8.308505190934402e-07,1.6379415236034822e-06,1.9755104063389314e-05,1.2968040335709154e-06,8.594749627824342e-07,1.3870354787184461e-06,1.7804461267052127e-06
42,9.136434818016849e-07,9.86815917774531e-07,2.118788902578333e-06,8.421420751261405e-06,8.406750767799428e-07,9.097512448024311e-07,8.655605352792284e-07,2.4708816559680053e-06,1.3822656547430652e-05,8.2041896531339e-07,1.5887362143629771e-06,1.8470022739002387e-05,1.2707252269026783e-06,8.51529721896245e-07,1.4053473134599437e-06,1.8401958889555047e-06
43,9.151499733054286e-07,9.462952290023627e-07,2.104777528334871e-06,8.274592998129109e-06,8.2958317769657e-07,9.161641630307107e-07,8.74216295814276e-07,2.4431323233728436e-06,1.3646089155344431e-05,8.178897267869714e-07,1.5406953204720477e-06,1.7264470793966877e-05,1.2440716340094858e-06,8.479608683784583e-07,1.4216791167347193e-06,1.8986387069080226e-06
44,9.149491666816403e-07,9.059149458118315e-07,2.0933945603159224e-06,8.096063041773858e-06,8.20007641883174e-07,9.241482703440396e-07,8.843636023422491e-07,2.4176662240699637e-06,1.3494958836249885e-05,8.224076035834035e-07,1.4943912972641465e-06,1.614098086722146e-05,1.2171119567775937e-06,8.48610742842355e-07,1.4359560956663883e-06,1.9545268654733098e-06
45,9.132913182525923e-07,8.664229712249858e-07,2.083816726429879e-06,7.888925809092085e-06,8.120309082531398e-07,9.331912942779504e-07,8.960780094753471e-07,2.3955389454045115e-06,1.3373721513559233e-05,8.330313008222237e-07,1.4501560922553475e-06,1.5100251305594606e-05,1.1902186491289346e-06,8.532223019897603e-07,1.448327823094646e-06,2.006415112862647e-06
46,9.104105524935189e-07,8.28477196713904e-07,2.0747640250964418e-06,7.6579345944383e-06,8.057492935880876e-07,9.42693973276222e-07,9.09263306066955e-07,2.378280472454813e-06,1.3287155759541932e-05,8.488158932350628e-07,1.4081371420191929e-06,1.4141838268026947e-05,1.163919372011833e-06,8.614830154380348e-07,1.4590237602574105e-06,2.052693591876113e-06
47,9.065162867377426e-07,7.926327181750118e-07,2.0645770032497708e-06,7.409157178132043e-06,8.012687320729701e-07,9.520380229390696e-07,9.236448709192965e-07,2.3676613510870054e-06,1.3241359309043553e-05,8.689003765895701e-07,1.3683443412964062e-06,1.3264643725264925e-05,1.1387802193070665e-06,8.730858820926966e-07,1.468203324686024e-06,2.091907633925755e-06
48,9.018735511202387e-07,7.593405784420834e-07,2.0514975337544535e-06,7.149518176225976e-06,7.98758155655282e-07,9.606543690054108e-07,9.387921422818282e-07,2.365480511523966e-06,1.3244290352498987e-05,8.925281812923848e-07,1.3306632501231233e-06,1.2467286327522087e-05,1.1152373145981278e-06,8.877594867595037e-07,1.4759091721819416e-06,2.123214835695316e-06
49,8.968433375457367e-07,7.289418139455709e-07,2.0341256250504216e-06,6.8862902778425714e-06,7.98452013451422e-07,9.680712833401835e-07,9.541885837430214e-07,2.3733757271887564e-06,1.3305218007272037e-05,9.189818814358693e-07,1.294880614606464e-06,1.1748324024973377e-05,1.0935125330962137e-06,9.052269289045773e-07,1.4820887499381107e-06,2.1466943493587166e-06
50,8.918120027795742e-07,7.01652848854234e-07,2.0118054267334115e-06,6.626575791137105e-06,8.005679721094706e-07,9.73968420053298e-07,9.693281953810482e-07,2.39264232646091e-06,1.3433196100756014e-05,9.47515235258402e-07,1.260784556898552e-06,1.110628811501619e-05,1.0736070219913283e-06,9.251250841426843e-07,1.4866640955738201e-06,2.1633657436757153e-06
51,8.871067645256476e-07,6.775774324810359e-07,1.9846701638230243e-06,6.376820956140419e-06,8.052219141202865e-07,9.782014451055978e-07,9.83773299608119e-07,2.4241140394003226e-06,1.3635662471238083e-05,9.774021834539753e-07,1.2282421035007025e-06,1.0539694938234572e-05,1.0553406817115616e-06,9.469418786073638e-07,1.48968350018376e-06,2.1749317903115477e-06
52,8.829677376497677e-07,6.567447076283054e-07,1.953376794313442e-06,6.142417105629672e-06,8.123863627594084e-07,9.807374069335143e-07,9.971306970947095e-07,2.4681521743841336e-06,1.3918067624487749e-05,1.0080942439310998e-06,1.1971455275725922e-06,1.0047228186434997e-05,1.0384513161246446e-06,9.7003364748668e-07,1.4914424026582885e-06,2.183350120200352e-06
53,8.79561766350815e-07,6.391245441869099e-07,1.9188164139309454e-06,5.927523462718903e-06,8.218904560175238e-07,9.815943196675216e-07,1.0089816882751793e-06,2.5246836516989972e-06,1.4284158514711972e-05,1.0393247043192389e-06,1.1673224967422157e-06,9.627951722618731e-06,1.0227431432075179e-06,9.937159818425373e-07,1.4924175466445902e-06,2.1904441681188467e-06
54,8.770103564703194e-07,6.245992860856682e-07,1.8819827981618316e-06,5.73516807852835e-06,8.334764454405443e-07,9.809023604883358e-07,1.0188767896228283e-06,2.593202731813347e-06,1.4736016608445587e-05,1.071077647757197e-06,1.138523492278801e-06,9.28122821925077e-06,1.0082056581538988e-06,1.017345086786216e-06,1.493105482869052e-06,2.1977024046780088e-06
55,8.753819367546331e-07,6.129289511835057e-07,1.8439177102548181e-06,5.567453670376739e-06,8.469099968369237e-07,9.789849498677848e-07,1.0264481728468132e-06,2.672775937827971e-06,1.5273570604672857e-05,1.1035179353369212e-06,1.1104743611309442e-06,9.006237325471908e-06,9.950085111770122e-07,1.0403457207850533e-06,1.4939400862364255e-06,2.206202195058714e-06
56,8.746393263197343e-07,6.037462974242884e-07,1.8055959399951222e-06,5.4257601324347435e-06,8.620860084568604e-07,9.763177872586628e-07,1.0315469370509616e-06,2.7620989532302427e-06,1.5893994036290524e-05,1.1369504815101533e-06,1.0829776611846828e-06,8.801278500469876e-06,9.833727634117545e-07,1.0621866847603782e-06,1.4952513494459005e-06,2.2165632558993003e-06
57,8.746045947733611e-07,5.96595231523227e-07,1.7677867667838658e-06,5.31108830651602e-06,8.790648786353154e-07,9.7341298562055e-07,1.034295560852257e-06,2.859513615322358e-06,1.6591569818844576e-05,1.1717454619910544e-06,1.0560187264798064e-06,8.663187997285879e-06,9.734231739566146e-07,1.082332273318441e-06,1.497176126993214e-06,2.2289433496639916e-06
58,8.749663825850797e-07,5.910136308476683e-07,1.7310260929511301e-06,5.224631537656241e-06,8.980177513693502e-07,9.707396708384061e-07,1.03503507634497e-06,2.9629237822042037e-06,1.735822230730841e-05,1.2081986242025197e-06,1.0297616861289993e-06,8.587153182129618e-06,9.651156536330502e-07,1.100248538952025e-06,1.4995673775945302e-06,2.243087040954643e-06
59,8.753211910484604e-07,5.86625613715522e-07,1.695713952097749e-06,5.168344857540219e-06,9.191179940501872e-07,9.686965797894429e-07,1.0342039087255114e-06,3.069714096808327e-06,1.8184439444238225e-05,1.2464246664607467e-06,1.0044219233508248e-06,8.566915865315164e-06,9.582665274696912e-07,1.1154745490440913e-06,1.5019965739076902e-06,2.258415716793029e-06
60,8.752714834299143e-07,5.831887885118455e-07,1.6622086223578455e-06,5.145149954286321e-06,9.424544285738001e-07,9.676086142096794e-07,1.0322148672300483e-06,3.1768287515495525e-06,1.90602518498284e-05,1.286380334247606e-06,9.80155470798808e-07,8.595013848750885e-06,9.526552882221116e-07,1.1276650996413032e-06,1.503932194423665e-06,2.274235956677972e-06
61,8.745594911901141e-07,5.805816619854357e-07,1.6308090572675064e-06,5.15864616268184e-06,9.679987343852259e-07,9.677448696997997e-07,1.0293984654641102e-06,3.28104804638032e-06,1.9976045974676733e-05,1.3279951600881177e-06,9.570585098382506e-07,8.662912004805102e-06,9.481032344349401e-07,1.1365819775072503e-06,1.5050646813252643e-06,2.2900718645507136e-06
62,8.731383256074236e-07,5.78760071670505e-07,1.601664623981752e-06,5.212512751461915e-06,9.956100443431052e-07,9.693353447343908e-07,1.0260291515073822e-06,3.3793298090138503e-06,2.0922763409529884e-05,1.3712861214110154e-06,9.352059891236032e-07,8.761591945880992e-06,9.444490159013818e-07,1.1420931980667531e-06,1.505516085669761e-06,2.305858248497654e-06
63,8.711355935664274e-07,5.777057889895645e-07,1.574722168798703e-06,5.309908314263597e-06,1.0250490266307589e-06,9.725657789586945e-07,1.0223857624008297e-06,3.4690784942328317e-06,2.1891112220221428e-05,1.4163322944719923e-06,9.146339705703202e-07,8.88281077683911e-06,9.41493140608163e-07,1.1441655380853266e-06,1.5057139225280396e-06,2.3217889964792447e-06
64,8.687622165378372e-07,5.773741304629614e-07,1.5497715384705449e-06,5.453161433895671e-06,1.0559632972328422e-06,9.775820003672162e-07,1.0187802867323703e-06,3.5483027034597662e-06,2.287073719620254e-05,1.463140751769327e-06,8.952995142427111e-07,9.019888770854037e-06,9.390089613112882e-07,1.1427975097772745e-06,1.506091427093319e-06,2.337971298179871e-06
65,8.662161189283321e-07,5.776705869171625e-07,1.5266122933098874e-06,5.643931243540689e-06,1.0878810390133e-06,9.84509619110764e-07,1.015525460409342e-06,3.6156430024506826e-06,2.385080775920119e-05,1.5116009079322657e-06,8.771378570597673e-07,9.167491701889586e-06,9.367872685084592e-07,1.1379703093032803e-06,1.5068883799774915e-06,2.3541550150481464e-06
66,8.635989757531192e-07,5.78482934207177e-07,1.5052687959875616e-06,5.883736706664365e-06,1.1202924427897814e-06,9.93440296247403e-07,1.0128676839931237e-06,3.6702555529405043e-06,2.482131379340551e-05,1.5616540302022523e-06,8.602544437878813e-07,9.321686145359095e-06,9.346623042903646e-07,1.1297210682861478e-06,1.508071475294231e-06,2.3696732159131213e-06
67,8.608667055560336e-07,5.797313600227754e-07,1.4860763228468973e-06,6.174498313126038e-06,1.1527443857281425e-06,1.0043779198457413e-06,1.0109619027427139e-06,3.711544271856594e-06,2.5773219654035915e-05,1.6135514792331991e-06,8.450903487354385e-07,9.480731756158647e-06,9.325286760305807e-07,1.1182453430634663e-06,1.5092962585173282e-06,2.383646827111661e-06
68,8.578203457368314e-07,5.813771524199986e-07,1.4695849303447088e-06,6.5187282032156875e-06,1.1848197742178135e-06,1.0172000138698418e-06,1.0099365807370618e-06,3.7387962796680094e-06,2.669775790439645e-05,1.6679527246346996e-06,8.323600945114539e-07,9.645278731921367e-06,9.303555335022469e-07,1.1038688006609667e-06,1.5099061983328136e-06,2.395371286397721e-06
69,8.541305873169932e-07,5.833794577111011e-07,1.4564072034872548e-06,6.919201419290459e-06,1.2160843786598655e-06,1.0316545035565693e-06,1.0099685496860637e-06,3.750981880274465e-06,2.7586342929770243e-05,1.7257712768264251e-06,8.22825752684275e-07,9.817421366509484e-06,9.281917844264329e-07,1.0869123734455379e-06,1.5089984343657223e-06,2.4045456946530187e-06
70,8.494138426902106e-07,5.856380259901772e-07,1.4470990477630567e-06,7.378294145757792e-06,1.246134906514942e-06,1.0473786682054373e-06,1.0112544898709533e-06,3.746958876092883e-06,2.843075338782822e-05,1.7879032895805367e-06,8.171364776580148e-07,9.99951594296744e-06,9.261584100632543e-07,1.0676181826971685e-06,1.5056076937030167e-06,2.411109023454549e-06
71,8.433590803721796e-07,5.879787689686929e-07,1.4420764077064649e-06,7.897547940753654e-06,1.274667712206453e-06,1.0639658707964913e-06,1.0139178461965236e-06,3.725913757632395e-06,2.922193294383122e-05,1.8550155271998442e-06,8.158003292484278e-07,1.0193404275754745e-05,9.244073835381485e-07,1.0462064655164109e-06,1.4989862017825991e-06,2.4148884053502224e-06
72,8.358388461159911e-07,5.902360105608823e-07,1.4416005576912146e-06,8.477767846599163e-06,1.3014440950075597e-06,1.0810812957201982e-06,1.0179805170376267e-06,3.687688940848099e-06,2.9947640560527916e-05,1.9274559959060672e-06,8.19210161368596e-07,1.0399896509690869e-05,9.230482548348303e-07,1.0229490978705185e-06,1.4888089764142446e-06,2.41537753968329e-06
73,8.2694767922679e-07,5.924151527495629e-07,1.4458367350587993e-06,9.119152794096254e-06,1.3261791228708595e-06,1.0985444508487235e-06,1.0234115603391762e-06,3.6328765267140227e-06,3.05917188674986e-05,2.005244462941456e-06,8.276621850254536e-07,1.061829465240863e-05,9.220915737549639e-07,9.981856126178963e-07,1.4751363262557378e-06,2.411758091594976e-06
74,8.16969284844653e-07,5.947999671046658e-07,1.4548854502264852e-06,9.821005298929476e-06,1.3484659719925538e-06,1.1162958395652664e-06,1.0301555443349513e-06,3.5627589223123695e-06,3.113671840224715e-05,2.0880780994727065e-06,8.413554535201782e-07,1.084607706664709e-05,9.214226110800094e-07,9.723333781666024e-07,1.4581691744396364e-06,2.403113873268203e-06
75,8.062876791238533e-07,5.978915094833916e-07,1.4687510149024327e-06,1.0581576904142095e-05,1.3678140821490068e-06,1.1342684658424729e-06,1.0381249825171833e-06,3.479185982277939e-06,3.1567785881423906e-05,2.1753419792936647e-06,8.603829228920055e-07,1.1078989089941895e-05,9.207848719814812e-07,9.458686836778857e-07,1.4380078885556488e-06,2.388636556852372e-06
76,7.952731746350815e-07,6.022427579708625e-07,1.4873545725675867e-06,1.1398670889057109e-05,1.38375577545171e-06,1.1522734826117678e-06,1.0472199086427986e-06,3.3844288296609614e-06,3.187409158195036e-05,2.266182486904059e-06,8.847189857765094e-07,1.1311449863111978e-05,9.197978960002562e-07,9.192434553336468e-07,1.4145573579148756e-06,2.367696648813666e-06
77,7.842001961221425e-07,6.083272174117897e-07,1.510608265075058e-06,1.2270591921228372e-05,1.3959192360390488e-06,1.169963615549504e-06,1.0573441917755062e-06,3.2810200533552005e-06,3.204683014609838e-05,2.3596410213125245e-06,9.142010629353681e-07,1.1536775871736026e-05,9.180399657080961e-07,8.928300796972761e-07,1.387597530051255e-06,2.3399756040957665e-06
78,7.732161100825756e-07,6.164870525656563e-07,1.5384134812290812e-06,1.3196751561461921e-05,1.4040584879183287e-06,1.1868535330229308e-06,1.0683614018046634e-06,3.1715809198897723e-06,3.207746424991134e-05,2.454708209039099e-06,9.485020940509244e-07,1.1746913927688907e-05,9.151791865019672e-07,8.669277456941123e-07,1.3570080466545958e-06,2.3057084287977533e-06
79,7.623367918596742e-07,6.269278750105364e-07,1.5705548890734555e-06,1.4177728580336753e-05,1.4080912626979234e-06,1.2023738639645961e-06,1.0800491939163891e-06,3.0586527318591923e-06,3.196088129174617e-05,2.5502447964552857e-06,9.871074026056796e-07,1.1932143002185326e-05,9.110866928157228e-07,8.417543189975544e-07,1.323017772520159e-06,2.2656962522523245e-06
80,7.514697262873111e-07,6.397407621550118e-07,1.6066037015951948e-06,1.5214715065979248e-05,1.4081434765197998e-06,1.2159425352839647e-06,1.0921120305418562e-06,2.9445876753216836e-06,3.170257707674713e-05,2.6448757675985797e-06,1.0293189290479465e-06,1.2081629161853137e-05,9.058541219011092e-07,8.174335789824736e-07,1.286273203561315e-06,2.2210273999794386e-06
81,7.404730432276894e-07,6.549472848624089e-07,1.645877613148013e-06,1.630836410837285e-05,1.404552443538213e-06,1.2270358809026119e-06,1.1042279041734795e-06,2.831547313435723e-06,3.132336347392013e-05,2.736921423922255e-06,1.074305474842461e-06,1.2185169595346499e-05,8.99697732244798e-07,7.940502787050572e-07,1.2476889823462654e-06,2.172855881236834e-06
82,7.292130559472138e-07,6.725325737641723e-07,1.687455986667282e-06,1.7457654545197108e-05,1.397797588108132e-06,1.2352644026702615e-06,1.1160998089520516e-06,2.7215686350429625e-06,3.0856982355776034e-05,2.8244258880337584e-06,1.121199790674916e-06,1.2235471315942797e-05,8.928091224532554e-07,7.717302255018561e-07,1.2082203158613097e-06,2.1223188985428847e-06
83,7.175729636142018e-07,6.924404992733529e-07,1.7302493705954937e-06,1.8659581537489895e-05,1.3883843237265286e-06,1.240445559968642e-06,1.1274813142421582e-06,2.616573413824629e-06,3.0342588836834088e-05,2.905344655261345e-06,1.1691772497160523e-06,1.2229800760065333e-05,8.852554215292238e-07,7.506479847203535e-07,1.1686919639730868e-06,2.0703912576746546e-06
84,7.054258754129195e-07,7.145613125123564e-07,1.773072328910149e-06,1.9909464329062903e-05,1.37675633573442e-06,1.2426336632293691e-06,1.1381363049776714e-06,2.518256953314333e-06,2.9817609393055507e-05,2.977775435869896e-06,1.217446379548215e-06,1.2170043623738016e-05,8.770013195689369e-07,7.309922199254576e-07,1.1297390522486264e-06,2.0177232448634474e-06
85,6.926377171263819e-07,7.38727375488798e-07,1.8147130233839879e-06,2.1200895865528357e-05,1.3632824500154973e-06,1.242087504026693e-06,1.1477592006991455e-06,2.4279706592032784e-06,2.9314094082657396e-05,3.04008055158897e-06,1.2651873688373883e-06,1.206106660704965e-05,8.680196804976562e-07,7.129559333852307e-07,1.0918307097703487e-06,1.9646696422587383e-06
86,6.791207327996761e-07,7.646956807484876e-07,1.8540385993972437e-06,2.2525049164304713e-05,1.3482665796084848e-06,1.2391913934807943e-06,1.1559416721228672e-06,2.3467138499558873e-06,2.88576226367246e-05,3.090891864512352e-06,1.311502019464665e-06,1.1908722250446238e-05,8.583709510747047e-07,6.967258655272207e-07,1.0553036975667411e-06,1.911479198082005e-06
87,6.64869166363914e-07,7.921356761666778e-07,1.8900588475569117e-06,2.3869903227359782e-05,1.3319082004678508e-06,1.2343437847815302e-06,1.1622261617450131e-06,2.275151381585643e-06,2.846708396768636e-05,3.1290407208203577e-06,1.3553731056611384e-06,1.1719521759852909e-05,8.481798586284482e-07,6.824563059029766e-07,1.020386121108323e-06,1.8584314935313288e-06
88,6.499192671333146e-07,8.206565027178292e-07,1.9218437138974353e-06,2.5219820651359944e-05,1.3142534315224823e-06,1.2278306968596157e-06,1.1662081052973156e-06,2.2135576938990078e-06,2.815480777265648e-05,3.1534818332256034e-06,1.3956706564068711e-06,1.1502255512589913e-05,8.375839022840488e-07,6.702463116644307e-07,9.872312626549788e-07,1.8058270052529155e-06
89,6.342822810081577e-07,8.498652548307535e-07,1.948402798719378e-06,2.655542398564227e-05,1.2952234458175042e-06,1.219724222459611e-06,1.1676289840856856e-06,2.1617507571165833e-06,2.792674079069644e-05,3.1633338365903635e-06,1.4312936913898715e-06,1.1269537923736252e-05,8.267204291435166e-07,6.601197038680484e-07,9.559538727181084e-07,1.7539324570325273e-06
90,6.179444726454592e-07,8.794304030263845e-07,1.9687315597291985e-06,2.7853801067206647e-05,1.2747021169835743e-06,1.2098525574643788e-06,1.1664181328124826e-06,2.1191212838183897e-06,2.778244219296304e-05,3.158034103731216e-06,1.4614051695758775e-06,1.1037541517861944e-05,8.156913631091317e-07,6.520157454002583e-07,9.266635444481199e-07,1.702968558872724e-06
91,6.009471999330023e-07,9.091111425719977e-07,1.9819897410203667e-06,2.908967990100935e-05,1.2526148907525436e-06,1.197871197028488e-06,1.162648068600474e-06,2.0847853132205897e-06,2.7715031018002536e-05,3.1373747489637123e-06,1.4856046755386496e-06,1.0824167480930939e-05,8.045043012070254e-07,6.457929474842042e-07,8.995005638354204e-07,1.653078036000319e-06
92,5.834646853733794e-07,9.387150271282043e-07,1.9875970748302524e-06,3.0238278834887418e-05,1.228984548717128e-06,1.1834245862559374e-06,1.156428580847677e-06,2.057810229274061e-06,2.7711292165348175e-05,3.101365006838063e-06,1.5039542612312395e-06,1.0646971041768029e-05,7.930876510385927e-07,6.41249016205914e-07,8.746518818124103e-07,1.604227467037727e-06
93,5.657997603074628e-07,9.680249777310845e-07,1.9851899477772655e-06,3.1279284920370334e-05,1.2039616945310359e-06,1.1663301063951173e-06,1.1478739043384492e-06,2.0374263197886877e-06,2.775238037854802e-05,3.0502746683676833e-06,1.5168676813523418e-06,1.0521839476839884e-05,7.813768035363293e-07,6.381825267105375e-07,8.523324856326518e-07,1.5561266236140929e-06
94,5.483005711134766e-07,9.967759668156188e-07,1.9745660016828105e-06,3.219980990296936e-05,1.1777946889552293e-06,1.146697446472147e-06,1.137184340182001e-06,2.02314036727741e-06,2.7815481955425293e-05,2.9849809505179674e-06,1.5249251388773029e-06,1.0462555978391114e-05,7.693758866027951e-07,6.3647188264476e-07,8.327503606830941e-07,1.5082727432364227e-06
95,5.312700485302225e-07,1.024675150152196e-06,1.955707224295564e-06,3.299406892735209e-05,1.150722086340997e-06,1.1249407910372204e-06,1.1246686461402684e-06,2.0147262697066396e-06,2.7875433874139446e-05,2.9072466582742595e-06,1.5287120842310696e-06,1.0480812551811005e-05,7.571591060972282e-07,6.360881249729063e-07,8.160583690374782e-07,1.460139572119964e-06
96,5.149263517005853e-07,1.0514138485027169e-06,1.928862695475127e-06,3.3659663048602125e-05,1.1228460208665955e-06,1.1017034185130033e-06,1.110633783877043e-06,2.0121829521102887e-06,2.7904912593719552e-05,2.8197266917115897e-06,1.528728393036649e-06,1.0586243402322869e-05,7.448351863875043e-07,6.370360003847459e-07,8.023039600362239e-07,1.4114158933103303e-06
97,4.994075118737507e-07,1.076674287437841e-06,1.894620839029096e-06,3.419353821132563e-05,1.0940837720297421e-06,1.0777582553658263e-06,1.0953170070392416e-06,2.01577777514418e-06,2.787403495442326e-05,2.7258129816697746e-06,1.5253226364459425e-06,1.0786368061389602e-05,7.325031468073648e-07,6.393114492170657e-07,7.914349352788378e-07,1.3621621056822693e-06
98,4.847915552889027e-07,1.1001585000674432e-06,1.8538965903122037e-06,3.459150112695357e-05,1.0642517354734343e-06,1.0539422279355036e-06,1.0789766960913808e-06,2.0261586599322727e-06,2.7751924058178458e-05,2.6293406984598745e-06,1.5186206670236827e-06,1.1086564714063563e-05,7.202500822813383e-07,6.429052172971046e-07,7.833784009430456e-07,1.3127921439598424e-06
99,4.7113594552612353e-07,1.1216501243175945e-06,1.8078026973095787e-06,3.485151582126272e-05,1.033237363716168e-06,1.031111797957491e-06,1.0620345798949815e-06,2.0444187769770514e-06,2.7511617902662818e-05,2.534174800560486e-06,1.5085001401151128e-06,1.149012256250636e-05,7.081934574945352e-07,6.478063023672505e-07,7.781113393338159e-07,1.2638992446243932e-06
100,4.58536531728859e-07,1.1410790406508088e-06,1.7574483873277268e-06,3.49770931966268e-05,1.0011133119865428e-06,1.010068728643089e-06,1.045110185102667e-06,2.072034177457532e-06,2.713556224777955e-05,2.443871080645427e-06,1.4946954268184236e-06,1.199826181785056e-05,6.964855302949882e-07,6.539926473265586e-07,7.756475994794231e-07,1.2161271078532384e-06
101,4.471549585483975e-07,1.1585128799169706e-06,1.703765865307832e-06,3.4977366361096944e-05,9.680948139645313e-07,9.914672834273366e-07,1.0289203768122519e-06,2.1106659674827146e-06,2.6616184945890797e-05,2.361539580728661e-06,1.4770488619827985e-06,1.2610047638518809e-05,6.852711288265197e-07,6.614276984704372e-07,7.75963004257777e-07,1.170193417888468e-06
102,4.371794224027884e-07,1.1740827343977086e-06,1.6474726176567184e-06,3.4863672537155925e-05,9.344446589121002e-07,9.757575365414107e-07,1.0141572762072908e-06,2.1619219456286288e-06,2.595149083702981e-05,2.2898243134685025e-06,1.4557630400334367e-06,1.332221823150994e-05,6.746776251062402e-07,6.70053230396122e-07,7.789238042364195e-07,1.1268927017695214e-06
103,4.2876392672101153e-07,1.1879662039643491e-06,1.589172541249462e-06,3.4645909397686534e-05,9.004613364435385e-07,9.631704427923302e-07,1.0014339209129119e-06,2.227213311155638e-06,2.5142632216419022e-05,2.230901426060729e-06,1.431443996683213e-06,1.4128942062236172e-05,6.648761187065659e-07,6.797716961640527e-07,7.842595680965527e-07,1.086996642532643e-06
104,4.219965007862098e-07,1.200452184481767e-06,1.5294676559299929e-06,3.4332040418023254e-05,8.665003501301868e-07,9.537175384713825e-07,9.912609897565698e-07,2.3076904399041527e-06,2.4196618125751335e-05,2.186480995795746e-06,1.4049224777601454e-06,1.5021537652104797e-05,6.561636178565424e-07,6.904481322474544e-07,7.915819106951353e-07,1.051174158520624e-06
105,4.168918346891259e-07,1.2119656755272334e-06,1.4689860588846777e-06,3.3929977311130705e-05,8.329381750917792e-07,9.472132554630175e-07,9.840146136363682e-07,2.404164566158846e-06,2.312876915520996e-05,2.1578184941344126e-06,1.377040823100082e-06,1.5988222570312397e-05,6.489586030982552e-07,7.019568935086577e-07,8.00419850112225e-07,1.0199687081561854e-06
106,4.1339387421311476e-07,1.2229840512495215e-06,1.4083481659760541e-06,3.344853459214714e-05,8.001062126627499e-07,9.433424805381752e-07,9.799204835623825e-07,2.517060779635048e-06,2.1960371421793563e-05,2.1457521626724965e-06,1.3485230872060015e-06,1.7013961572660727e-05,6.437112630439056e-07,7.142362541221439e-07,8.102735743822899e-07,9.937756038930688e-07
107,4.1138735331296286e-07,1.2338991522022406e-06,1.3481296471025542e-06,3.289593906245058e-05,7.68273788599587e-07,9.41751976944136e-07,9.79086519244166e-07,2.646482688798474e-06,2.0714430679893887e-05,2.1507355038833505e-06,1.3199306455000804e-06,1.8080701907748707e-05,6.408300858567248e-07,7.272732743397255e-07,8.206992562725993e-07,9.7281062884631e-07
108,4.107132136442605e-07,1.244911228424879e-06,1.288866435267268e-06,3.227713201292894e-05,7.376900896964902e-07,9.421222615233944e-07,9.81580897248295e-07,2.7923273547693624e-06,1.9413698250191033e-05,2.1728293555159515e-06,1.2917106862279671e-06,1.9168423065749815e-05,6.406384221942425e-07,7.410155161775587e-07,8.313536160850788e-07,9.570923311986262e-07
109,4.1118281663293823e-07,1.25599565780624e-06,1.231104539269418e-06,3.159261219421829e-05,7.08606601614163e-07,9.442106772789886e-07,9.874780564793748e-07,2.9543326486834413e-06,1.8080327167583914e-05,2.2117315918429404e-06,1.2642807785430536e-06,2.025679543170053e-05,6.433343879966772e-07,7.553032826646604e-07,8.419519780296573e-07,9.464359501860426e-07
110,4.12603033017721e-07,1.2669333920497343e-06,1.175428742981285e-06,3.0840295191896564e-05,6.812590324051683e-07,9.478668704565743e-07,9.968076331780908e-07,3.1320399090272737e-06,1.6735166711960827e-05,2.266897510607096e-06,1.238022930006625e-06,2.1326471534752978e-05,6.489690769878043e-07,7.698896192089365e-07,8.522407926708205e-07,9.404533237947423e-07
111,4.1482988640512053e-07,1.2773797833630102e-06,1.1224129945473067e-06,3.0018853405139263e-05,6.558602926546009e-07,9.529992120404337e-07,1.0094590701089018e-06,3.3247446756231334e-06,1.5396998579706933e-05,2.3376268572458185e-06,1.2131949386617665e-06,2.2359103843531705e-05,6.57446615005249e-07,7.84504960562572e-07,8.620459593426925e-07,9.385815315216861e-07
112,4.178289070100601e-07,1.2869354149117677e-06,1.0725329926532688e-06,2.9130337825005878e-05,6.326055400059239e-07,9.594906627247998e-07,1.0251230095316301e-06,3.531464361944922e-06,1.4082373862465287e-05,2.4230062654236745e-06,1.189909654168631e-06,2.333605949429955e-05,6.685351746051976e-07,7.988709439589359e-07,8.713137535717224e-07,9.401408100003745e-07
113,4.216817439655255e-07,1.2951798920726195e-06,1.0261100048554445e-06,2.818137991514102e-05,6.116803120998062e-07,9.671075749802265e-07,1.0432915786007757e-06,3.7508690590684564e-06,1.280563981554722e-05,2.5218312222786583e-06,1.1682417419578437e-06,2.4237338915006274e-05,6.818903226865681e-07,8.126527256537263e-07,8.801022836456725e-07,9.44387127438582e-07
114,4.265238305534242e-07,1.3016794533697244e-06,9.83289380301264e-07,2.7183174091328512e-05,5.932694142012377e-07,9.75447382121496e-07,1.063308579903838e-06,3.981145349152778e-06,1.1578741981968779e-05,2.6326674218096996e-06,1.1483569278613415e-06,2.5042765178713802e-05,6.970827473809983e-07,8.254445361099986e-07,8.885451653282366e-07,9.506079444688196e-07
115,4.3247510159393504e-07,1.3060259877234521e-06,9.440357392246834e-07,2.6150604637170703e-05,5.775332540437388e-07,9.8393071187022e-07,1.084442036611464e-06,4.219848657902227e-06,1.0411005868851784e-05,2.753987802950095e-06,1.130547059411598e-06,2.573516831692959e-05,7.136036493549319e-07,8.368439840123945e-07,8.967830241608856e-07,9.582935760366816e-07
116,4.396088310779843e-07,1.3079065767214973e-06,9.081590357921957e-07,2.5100857780917443e-05,5.645608129385768e-07,9.91827179146414e-07,1.1059351318632936e-06,4.463813461819634e-06,9.309193070589767e-06,2.8842730844802146e-06,1.115155278841986e-06,2.630267708285461e-05,7.308598753683394e-07,8.465619295948584e-07,9.049105074388168e-07,9.672239985781288e-07
117,4.4794396100664243e-07,1.3071137396473978e-06,8.7539638702058e-07,2.4051739533544938e-05,5.54343428253009e-07,9.983393208625292e-07,1.1270051734690697e-06,4.7091157105956615e-06,8.277776180435113e-06,3.022064166214446e-06,1.102477943208102e-06,2.673776253109397e-05,7.481908002639387e-07,8.544855139720416e-07,9.129873174173552e-07,9.773886292860033e-07
118,4.5744354258067876e-07,1.303446181955515e-06,8.455235931336594e-07,2.301986984667278e-05,5.467767029927341e-07,1.0027531114297953e-06,1.1468235635171263e-06,4.951011342117969e-06,7.319295517377848e-06,3.1659146139820737e-06,1.0927502973543263e-06,2.703388557928398e-05,7.648888183092701e-07,8.606462563385272e-07,9.210504576561537e-07,9.888763438337587e-07
119,4.680091278659047e-07,1.2965852466887213e-06,8.18399294032486e-07,2.201897655207786e-05,5.416816876244907e-07,1.004569590353999e-06,1.164590482834373e-06,5.183816339644361e-06,6.434820268269939e-06,3.3141740127612037e-06,1.0862112582227625e-06,2.7183920900101605e-05,7.802354665530836e-07,8.65116364161559e-07,9.291063141690278e-07,1.0018064273923177e-06
120,4.794684862968642e-07,1.28609286862811e-06,7.939091370616472e-07,2.1058655466750342e-05,5.388320638676609e-07,1.0035112002219887e-06,1.17972983159362e-06,5.400863835064276e-06,5.62450897265344e-06,3.464693007165152e-06,1.0831384319311376e-06,2.718327131978475e-05,7.936014647545213e-07,8.679407042551398e-07,9.371509642775501e-07,1.016270650981468e-06
121,4.915794263523925e-07,1.2715490189840219e-06,7.71925795432867e-07,2.014399277015847e-05,5.379644059743418e-07,9.994067197857476e-07,1.19201440830857e-06,5.594814011861699e-06,4.888093889674863e-06,3.614616546370255e-06,1.0837905006903703e-06,2.7034921169135137e-05,8.045370818159578e-07,8.691686361541634e-07,9.451811247848355e-07,1.0322833500861498e-06
122,5.040547720413441e-07,1.252668427032489e-06,7.523635299450024e-07,1.9276048095553815e-05,5.387749734601107e-07,9.920559276574315e-07,1.201460378885153e-06,5.7585054925425865e-06,4.225055980757172e-06,3.7603415660603524e-06,1.0883061805041083e-06,2.6751266994077467e-05,8.127532184219804e-07,8.68910834432069e-07,9.531842057725976e-07,1.0497621060433544e-06
123,5.165879226275506e-07,1.229293365508996e-06,7.352359961177967e-07,1.8452776236905034e-05,5.409265154789647e-07,9.811529496645782e-07,1.2080929328814393e-06,5.886170702783441e-06,3.6344572195282547e-06,3.8977330327687675e-06,1.0966370313911174e-06,2.6351101404994498e-05,8.181042324498456e-07,8.673325068660875e-07,9.612032455843437e-07,1.0685766203459206e-06
124,5.288851102176665e-07,1.2013621074054195e-06,7.206209577755427e-07,1.7670066242731364e-05,5.440651542700613e-07,9.663065360061219e-07,1.2118019006033779e-06,5.974382256415096e-06,3.114711872304368e-06,4.022674167968357e-06,1.1085345838333854e-06,2.5855059364583652e-05,8.206924755749158e-07,8.645860317958464e-07,9.694427789863893e-07,1.0886317111698358e-06
125,5.406951210739508e-07,1.1689712503980613e-06,7.085766106505185e-07,1.6922832798411048e-05,5.47832986749203e-07,9.471863122609426e-07,1.2123799718685305e-06,6.022018565391708e-06,2.663538395430351e-06,4.131723846825733e-06,1.1235698981309947e-06,2.52832565528363e-05,8.20936161318329e-07,8.607489591994848e-07,9.782680741083277e-07,1.1098852841536276e-06
126,5.517950771923739e-07,1.1324972360120006e-06,6.990973528000688e-07,1.620613419637375e-05,5.5187569573077e-07,9.237397744915957e-07,1.2096714915252594e-06,6.029224460773633e-06,2.278053369228344e-06,4.222509292475285e-06,1.1411701313257915e-06,2.4654589344886672e-05,8.194495625511147e-07,8.558572330776728e-07,9.88138130122453e-07,1.1323028737764017e-06
127,5.619489043044291e-07,1.0926445055344624e-06,6.921245280338189e-07,1.5516279008416978e-05,5.558410136833531e-07,8.96329758410653e-07,1.20370399978431e-06,5.996326696862805e-06,1.9549265889015497e-06,4.293772446602882e-06,1.1606661661116259e-06,2.3985879448644746e-05,8.168726538098594e-07,8.500363160812759e-07,9.995759237110362e-07,1.1558355576454138e-06
128,5.708846439628877e-07,1.0503354965086504e-06,6.875825543692372e-07,1.4851852183221036e-05,5.593619299841034e-07,8.656940192605333e-07,1.1947002068246216e-06,5.9236753068516075e-06,1.6905382902787329e-06,4.345221487314913e-06,1.1813412281103835e-06,2.329141753246904e-05,8.138043979237928e-07,8.435751763155801e-07,1.01312429429028e-06,1.180450662677234e-06
129,5.783082513043882e-07,1.0065081571406207e-06,6.854117060146073e-07,1.421437011903819e-05,5.620696736030295e-07,8.327741731374557e-07,1.1829620986614104e-06,5.8122637713583926e-06,1.481065588569533e-06,4.377225554683715e-06,1.2024907486268012e-06,2.258304978170819e-05,8.107917245397987e-07,8.368570367462941e-07,1.0292656478449321e-06,1.2062074059863248e-06
130,5.839614836852721e-07,9.619762631714207e-07,6.856023080804483e-07,1.3608079736374043e-05,5.636804356107359e-07,7.985429939249826e-07,1.1687692479187005e-06,5.66425332421486e-06,1.3225135554052157e-06,4.390302607943314e-06,1.223474615467369e-06,2.186968610281073e-05,8.083043378862204e-07,8.302853697694102e-07,1.0483770326817231e-06,1.2333550155226512e-06
131,5.876914971457155e-07,9.17402671917222e-07,6.882525621014589e-07,1.3038791913830223e-05,5.640794309141074e-07,7.639062713683128e-07,1.152423334820277e-06,5.482957443596446e-06,1.2107288343450104e-06,4.384566977703384e-06,1.2436817843702341e-06,2.115674038831318e-05,8.067214295810433e-07,8.242919150920706e-07,1.0707355909534697e-06,1.2623538361167089e-06
132,5.894754677633702e-07,8.73303439146784e-07,6.935914231228294e-07,1.2512264350198437e-05,5.633044282717344e-07,7.296620909076875e-07,1.1343658070048936e-06,5.272532052852429e-06,1.141386690933976e-06,4.359509398512599e-06,1.2624097259239291e-06,2.0446655385503202e-05,8.06346212028196e-07,8.193283049806057e-07,1.0965290829697933e-06,1.2937783239140765e-06
133,5.893842754882021e-07,8.300383961485058e-07,7.018995815490324e-07,1.2032837479408346e-05,5.614905024660191e-07,6.964952681445187e-07,1.1152262654860747e-06,5.037702597992021e-06,1.1099615180219304e-06,4.314303260238044e-06,1.2787793677385955e-06,1.9740182133644877e-05,8.074271338369494e-07,8.158170115144889e-07,1.1258618763809284e-06,1.3282207897957578e-06
134,5.875312998435649e-07,7.878164676963079e-07,7.134016957895198e-07,1.1602972551902308e-05,5.588746406622327e-07,6.65005260283735e-07,1.0957856483410908e-06,4.783551547426191e-06,1.1117120175994405e-06,4.248436385833249e-06,1.2918114252315467e-06,1.9038082812732027e-05,8.101672066813776e-07,8.141279589873484e-07,1.1587573093312187e-06,1.3662638544096733e-06
135,5.840913377581901e-07,7.467267660224457e-07,7.282184605582168e-07,1.1223871485910193e-05,5.558039415146329e-07,6.357349980404607e-07,1.0769105729916545e-06,4.515260349146618e-06,1.1416987186522378e-06,4.162271372392556e-06,1.3007052153868216e-06,1.834336038590976e-05,8.146995389157324e-07,8.145591980687091e-07,1.1951321028328146e-06,1.4084516503910593e-06
136,5.79399012968498e-07,7.068028968216755e-07,7.463622185953238e-07,1.0896478439685834e-05,5.526712443167758e-07,6.091675310457403e-07,1.0594776563543355e-06,4.237781078895403e-06,1.1948566673752623e-06,4.057267494747759e-06,1.3051672687055019e-06,1.766295705968123e-05,8.21041684148792e-07,8.1729548839579e-07,1.2347967982699376e-06,1.4552232289379522e-06
137,5.740087065740879e-07,6.681118017733419e-07,7.67758978344351e-07,1.0622043913903288e-05,5.498309814335362e-07,5.857065370154588e-07,1.0442807475455812e-06,3.9555365222007085e-06,1.2661506699082393e-06,3.9358506658656464e-06,1.3055117621308913e-06,1.7007401253587585e-05,8.290743749358608e-07,8.223864189999592e-07,1.2775386950148514e-06,1.5068788124576235e-06
138,5.686307641171218e-07,6.307870586252695e-07,7.922920126897962e-07,1.0402061490705897e-05,5.47558974047113e-07,5.656714969340057e-07,1.0319435250177824e-06,3.6723343879166505e-06,1.3507821536645626e-06,3.801060978068291e-06,1.302434930797384e-06,1.6388454108088934e-05,8.385580930590793e-07,8.297681682085891e-07,1.3231797209030547e-06,1.5636178457194956e-06
139,5.640146730741347e-07,5.949791401006167e-07,8.198160003740254e-07,1.0237756848329284e-05,5.460407861406242e-07,5.493158648088628e-07,1.02287168921719e-06,3.3915178192930154e-06,1.4443612576084378e-06,3.6561348220294076e-06,1.2966624069620969e-06,1.5816397039654e-05,8.491864631299e-07,8.392964761337183e-07,1.3715050608008841e-06,1.6255476021458782e-06
140,5.608848112987763e-07,5.608317623193291e-07,8.501324685136307e-07,1.0129388179286277e-05,5.453664562134298e-07,5.368568740800027e-07,1.0172516726708152e-06,3.1161101275363227e-06,1.5429985660288362e-06,3.5041396103665945e-06,1.2887178914643945e-06,1.5298485366526997e-05,8.606554647724665e-07,8.507421030179122e-07,1.4221357805277133e-06,1.6925974523829554e-06
141,5.5992675672319e-07,5.28565904156636e-07,8.829955461034851e-07,1.00757605486184e-05,5.455428606699288e-07,5.284874122982391e-07,1.0150981786205367e-06,2.8487882796525907e-06,1.6433244154354933e-06,3.3477274590654574e-06,1.2788610517601358e-06,1.483878579670223e-05,8.726886181565495e-07,8.637737403933028e-07,1.474471102178003e-06,1.7644622028719276e-06
142,5.617888636653831e-07,4.985966241899575e-07,9.18177758880273e-07,1.007433191696766e-05,5.465344508753014e-07,5.243558604769207e-07,1.0163387860629674e-06,2.5917921816405198e-06,1.7424532149026683e-06,3.1891132266043174e-06,1.267106421197354e-06,1.4438730015684179e-05,8.850372047316681e-07,8.779919421285363e-07,1.5277727303044776e-06,1.8406705789999607e-06
143,5.6713483529504e-07,4.71550588644027e-07,9.55544135167662e-07,1.0121756020366714e-05,5.483239821027321e-07,5.245406882094779e-07,1.0208664005779993e-06,2.3469226147860343e-06,1.8379109192988838e-06,3.03029456694989e-06,1.253304746555524e-06,1.4097842896446287e-05,8.975150323127501e-07,8.929869796485106e-07,1.581368668038094e-06,1.9206539764457185e-06
144,5.767597389633118e-07,4.481722848183957e-07,9.95060426248035e-07,1.0214219038849357e-05,5.509565665351743e-07,5.290393444530732e-07,1.0285023767719978e-06,2.1156092780778695e-06,1.92750160876032e-06,2.873234862843715e-06,1.2373244188494265e-06,1.381441094429025e-05,9.100083400229824e-07,9.083527758738143e-07,1.634807365126733e-06,2.0036791406425445e-06
145,5.916595879998074e-07,4.2922652826304004e-07,1.0367165219644187e-06,1.034717093656055e-05,5.545232163701933e-07,5.377631222308465e-07,1.038916337093854e-06,1.898940072820734e-06,2.009121902554654e-06,2.7197693228443446e-06,1.2192569348674233e-06,1.3585877334557796e-05,9.224216114366815e-07,9.236819390747129e-07,1.6878044487003571e-06,2.088713339751579e-06
146,6.129718167157947e-07,4.154589152397025e-07,1.0804599290517972e-06,1.0514728262368004e-05,5.590951223616453e-07,5.505293570831727e-07,1.051579511752576e-06,1.697647535531219e-06,2.0807129348520893e-06,2.57139651720077e-06,1.1994838325343553e-06,1.340879092122502e-05,9.346515248873262e-07,9.386123202853062e-07,1.7400477823571182e-06,2.1743337367681687e-06
147,6.418879759440149e-07,4.0760050508822224e-07,1.1262042163081209e-06,1.0709292923228754e-05,5.646655181970797e-07,5.670528233210587e-07,1.0657638992579752e-06,1.5121235408367325e-06,2.1404807629469006e-06,2.4292183885961377e-06,1.1785536041676965e-06,1.3278299815870497e-05,9.466254446190731e-07,9.528763108822095e-07,1.7910370403510973e-06,2.2586929113715166e-06
148,6.796386678255604e-07,4.0640904554198263e-07,1.1738242089227692e-06,1.0921493218196717e-05,5.711276836065008e-07,5.869506411312424e-07,1.0805875289713526e-06,1.3424858997492663e-06,2.1871908943220227e-06,2.294112521348089e-06,1.1569815085760243e-06,1.3187494444822744e-05,9.583163474079661e-07,9.66259776301902e-07,1.8399999838180407e-06,2.339568880425326e-06
149,7.274852381298854e-07,4.127157405054424e-07,1.223101431530721e-06,1.1140357389355943e-05,5.782754769115637e-07,6.097699841588744e-07,1.0951074471694802e-06,1.1886884538273603e-06,2.220315065318533e-06,2.1670493933814466e-06,1.1351116020510213e-06,1.3127287007123318e-05,9.69672227423985e-07,9.785562929208562e-07,1.8858548863927847e-06,2.4145995925016404e-06
150,7.866852413485099e-07,4.274220098020077e-07,1.273714465313517e-06,1.135404619896602e-05,5.858148026788212e-07,6.350125245823561e-07,1.1084056731438524e-06,1.050617453325882e-06,2.2400634220059775e-06,2.04926895769215e-06,1.1130801977191704e-06,1.308726939573413e-05,9.805140583403863e-07,9.896210568914663e-07,1.9272995258657405e-06,2.481722689360708e-06
151,8.585034850446728e-07,4.5145737462707707e-07,1.3253071179604095e-06,1.1551339873527193e-05,5.933874248856202e-07,6.62126254847661e-07,1.1196454149662971e-06,9.280951588277343e-07,2.2474153062183915e-06,1.942174073233032e-06,1.0908539415659475e-06,1.3057092788509963e-05,9.904987522250124e-07,9.994107205333862e-07,1.963109219762272e-06,2.539595273427129e-06
152,9.442561346826274e-07,4.857497663783412e-07,1.377564843186314e-06,1.1723406792985386e-05,6.006056090782594e-07,6.905052756790362e-07,1.1281649112267591e-06,8.208326597254515e-07,2.24411714951612e-06,1.8471602614185683e-06,1.0683333290593902e-06,1.3027529473945047e-05,9.991591773466801e-07,1.007919561170794e-06,1.992520762679984e-06,2.5876382174148535e-06
153,1.0452952597234841e-06,5.31207958460189e-07,1.4302156421887453e-06,1.1865215763231472e-05,6.071074705255791e-07,7.195591853784027e-07,1.1336182930954915e-06,7.284177709413517e-07,2.2325008184702456e-06,1.765514060883703e-06,1.045475937763287e-06,1.2990764809969687e-05,1.0059508672501637e-06,1.015149141571496e-06,2.015406740962847e-06,2.6256674860577013e-06
154,1.162922240985834e-06,5.887014389665443e-07,1.4829577862788392e-06,1.197613143703323e-05,6.126157714668757e-07,7.48820949843985e-07,1.136035087565982e-06,6.503249744124904e-07,2.2150918059710653e-06,1.6983355949789387e-06,1.0223290999812463e-06,1.2939797214515127e-05,1.0102936221510004e-06,1.0212058044499229e-06,2.0320695103944397e-06,2.65358493430751e-06
155,1.2983060787291246e-06,6.590504093400102e-07,1.5354463939944226e-06,1.2059299790599574e-05,6.169412028107832e-07,7.780050277457546e-07,1.135707008327466e-06,5.859311607767729e-07,2.1942103741286705e-06,1.6465341487510815e-06,9.989702070210828e-07,1.2867267441963797e-05,1.0116851035268804e-06,1.0263850057766898e-06,2.0428635669202053e-06,2.6714810489411544e-06
156,1.4524402735149994e-06,7.430245797554036e-07,1.587389787444722e-06,1.211982800442639e-05,6.199554891503502e-07,8.069764783853721e-07,1.133019091539314e-06,5.345510490143777e-07,2.171764764999442e-06,1.6109076628377454e-06,9.754993635807592e-07,1.2764957707472614e-05,1.0098847657196696e-06,1.0311008740323174e-06,2.0479727908658154e-06,2.6799053595674024e-06
157,1.62609485083754e-06,8.413491662777731e-07,1.6385895872001368e-06,1.216275801860039e-05,6.21596073607442e-07,8.35656051945166e-07,1.128365656140837e-06,4.954560533705048e-07,2.1492131101767627e-06,1.5921883782183083e-06,9.521223484146916e-07,1.2624977757735541e-05,1.0050323778442622e-06,1.0357363905496039e-06,2.047393309966943e-06,2.679968413165885e-06
158,1.8197564291482322e-06,9.547277605659748e-07,1.6888112678073407e-06,1.2192174543888472e-05,6.218586116184664e-07,8.639189982768284e-07,1.1221022768032278e-06,4.678553800470752e-07,2.1276065680998346e-06,1.590991496723422e-06,9.292022208276662e-07,1.2441814009619396e-05,9.97600724079732e-07,1.0405873013721588e-06,2.041001184589447e-06,2.6732130766983533e-06
159,2.0336261031015133e-06,1.0838544410841848e-06,1.737609134970076e-06,1.2211550889689943e-05,6.207562534513838e-07,8.915476130301643e-07,1.1144870565190429e-06,4.5088268358756226e-07,2.1076844264125688e-06,1.6077308562674271e-06,9.072262634077718e-07,1.2213686171132937e-05,9.882210906834126e-07,1.045940559794975e-06,2.0286136771891216e-06,2.6613224924479852e-06
160,2.2677300240297465e-06,1.2293698358809284e-06,1.7842474523206244e-06,1.2224272007362277e-05,6.183076810421869e-07,9.182344873977719e-07,1.105661973456524e-06,4.43610020066985e-07,2.089968238603147e-06,1.6425676279438324e-06,8.867459958962711e-07,1.194278558485609e-05,9.774926293729274e-07,1.0521459572429003e-06,2.010010295760751e-06,2.6458632266493805e-06
161,2.522114538631531e-06,1.3917653745305985e-06,1.8276939482901278e-06,1.2233617144514879e-05,6.145553799317329e-07,9.435778922489852e-07,1.0956496120046982e-06,4.450779803498031e-07,2.074815948748586e-06,1.695378923574455e-06,8.683365601972493e-07,1.1634744396066636e-05,9.658655829118484e-07,1.0595560958723807e-06,1.9849819305097935e-06,2.6282641836798165e-06
162,2.7970349618798705e-06,1.5712826982258137e-06,1.8666379331804834e-06,1.2242247813700674e-05,6.095653925739503e-07,9.670595492397122e-07,1.0843213274155246e-06,4.5434330381562274e-07,2.06246473763457e-06,1.7657470365352425e-06,8.525638939670152e-07,1.1297422319021861e-05,9.536164676713222e-07,1.068406324959121e-06,1.95350554964637e-06,2.6099347921525284e-06
163,3.0930733993925666e-06,1.7678422608626298e-06,1.8996006328533086e-06,1.225144597697569e-05,6.034235554583824e-07,9.880412485474541e-07,1.0713860317727813e-06,4.705343691449545e-07,2.0530743793697767e-06,1.852999374373674e-06,8.399354648870186e-07,1.0939154922428403e-05,9.408690257100064e-07,1.0787713347901595e-06,1.9159846195553772e-06,2.5922792229385434e-06
164,3.411191906571259e-06,1.9810048297292837e-06,1.9251919841852376e-06,1.2260372745633075e-05,5.962616114663248e-07,1.0058316778247464e-06,1.0564543091037881e-06,4.929042862582495e-07,2.046709199159174e-06,1.956286190030887e-06,8.308671059764001e-07,1.056738569920267e-05,9.276295051013477e-07,1.0905874964960449e-06,1.8733411681534074e-06,2.5765707307283776e-06
165,3.752730572895393e-06,2.2099466864043167e-06,1.9424143150366128e-06,1.2265639709439785e-05,5.882654916948209e-07,1.019870096662897e-06,1.0391855322228128e-06,5.208834899626562e-07,2.0432366315722226e-06,2.0746692227522387e-06,8.256921808297874e-07,1.0188540888215278e-05,9.138665097028125e-07,1.1036460690410534e-06,1.8268322814830181e-06,2.563796367791148e-06
166,4.119323334503489e-06,2.453424572466376e-06,1.950811063432467e-06,1.226138461045332e-05,5.796278168930978e-07,1.029951314184009e-06,1.0194834323048937e-06,5.540890974092139e-07,2.0422603718718026e-06,2.207207312683476e-06,8.246673944543141e-07,9.808709948042691e-06,8.996455737335949e-07,1.1175610255049037e-06,1.7777240672228418e-06,2.55456097437884e-06
167,4.512722971116733e-06,2.7097543278886167e-06,1.9503439534823208e-06,1.2239937101597888e-05,5.70495554169179e-07,1.0363196576565875e-06,9.976428598464952e-07,5.922494924371743e-07,2.0431471508436394e-06,2.353046963097547e-06,8.279522591779865e-07,9.4339983389399e-06,8.852346011374774e-07,1.131806428370676e-06,1.727084400695213e-06,2.549131218172218e-06
168,4.93457750435799e-06,2.9768622010197073e-06,1.941170233817686e-06,1.2192970170754982e-05,5.609430670223868e-07,1.0395519804037495e-06,9.743427801565633e-07,6.351174747813164e-07,2.0450424588846048e-06,2.511529692489707e-06,8.355875164165818e-07,9.07009315775644e-06,8.71080443391465e-07,1.1458622779902973e-06,1.6757820387350814e-06,2.5475556062356573e-06
169,5.3862006226883355e-06,3.2523955698372407e-06,1.923599646302571e-06,1.21128384836571e-05,5.509509285545558e-07,1.040325394434846e-06,9.504820507340617e-07,6.824716321676183e-07,2.04690161725721e-06,2.6822395341028454e-06,8.474826140943505e-07,8.721589370115691e-06,8.576709585153637e-07,1.1593918350766321e-06,1.6245500887191463e-06,2.5496761278313855e-06
170,5.868335392685843e-06,3.533791086235821e-06,1.8981887425079584e-06,1.1993861956393189e-05,5.404041071377584e-07,1.0392579482408674e-06,9.269709649196637e-07,7.341674292175651e-07,2.0477037438917733e-06,2.86488145501174e-06,8.634070435455364e-07,8.391793669617005e-06,8.45404729184849e-07,1.1723262074094507e-06,1.5740084605112162e-06,2.5551006352542625e-06
171,6.380896638106496e-06,3.818205815832201e-06,1.8657381021800668e-06,1.183338570800345e-05,5.291513551572364e-07,1.0368960649588797e-06,9.04600094720134e-07,7.901660855193323e-07,2.046765785205177e-06,3.059097188142708e-06,8.829956066515922e-07,8.08297033715082e-06,8.345535476784582e-07,1.1847886728935404e-06,1.5247035682759254e-06,2.563311178031088e-06
172,6.922707319439246e-06,4.102328259916847e-06,1.827198621632231e-06,1.1632327203294781e-05,5.171296847524019e-07,1.0337378777657138e-06,8.840003275252676e-07,8.505886262241412e-07,2.0438298163887923e-06,3.2644914067904374e-06,9.057905630948808e-07,7.796499976064994e-06,8.252948016267958e-07,1.1969255439627376e-06,1.4772077600396964e-06,2.5737671606026285e-06
173,7.491263395896181e-06,4.382257635619608e-06,1.7836490138526725e-06,1.1394875638188675e-05,5.044809842598276e-07,1.0302052573318495e-06,8.656296421362631e-07,9.158270929599306e-07,2.038803448245854e-06,3.480867606391994e-06,9.312925694062862e-07,7.532729982844203e-06,8.17762542729012e-07,1.2087821521000602e-06,1.4321755193722037e-06,2.585845473796895e-06
174,8.0825370702054e-06,4.653642805223296e-06,1.7363528846043942e-06,1.1127209928719116e-05,4.915607063353624e-07,1.026617926914861e-06,8.497618496167933e-07,9.86653879193151e-07,2.031431066609609e-06,3.7083591022622867e-06,9.5895201312063e-07,7.290687856395198e-06,8.120795005871184e-07,1.2202564941365872e-06,1.3902756316282296e-06,2.598827800641675e-06
175,8.690791010842427e-06,4.912026014408893e-06,1.6867635631286588e-06,1.0835750661605972e-05,4.788418901556712e-07,1.0232216446439036e-06,8.364999986224959e-07,1.0643131925759196e-06,2.0212293454152963e-06,3.947289776672888e-06,9.881119021555274e-07,7.067902756651007e-06,8.083395686235584e-07,1.2310616162709032e-06,1.3520830111205066e-06,2.6121077638016665e-06
176,9.308379429062342e-06,5.153198420518472e-06,1.6363996128715734e-06,1.0526285373519441e-05,4.668164934460994e-07,1.0202185453994216e-06,8.25820976608554e-07,1.1505907580350066e-06,2.0076813053877366e-06,4.1979088634899e-06,1.017987190785258e-06,6.860469187194597e-06,8.065745185132822e-07,1.2406841690821502e-06,1.3180248967684211e-06,2.625352263559674e-06
177,9.925553026527256e-06,5.373485847612648e-06,1.5866646926015004e-06,1.0204639624319016e-05,4.559427309441636e-07,1.017756955265389e-06,8.17630546233187e-07,1.2477724967756403e-06,1.990398874312815e-06,4.460214591573905e-06,1.047700671460916e-06,6.66325560681201e-06,8.067527710638604e-07,1.2483742571039408e-06,1.2884048531240826e-06,2.6383572672745193e-06
178,1.0530291440940594e-05,5.569980217179774e-06,1.538765422188898e-06,9.877769233957008e-06,4.466181722665195e-07,1.0159494625005077e-06,8.117935701248411e-07,1.3584375079810776e-06,1.969055930212371e-06,4.733956978861883e-06,1.0763381695805621e-06,6.470161517516361e-06,8.087693814268639e-07,1.2531851664796569e-06,1.2634854771957142e-06,2.650739422471303e-06
179,1.1108162008614807e-05,5.74070487839329e-06,1.493779946691321e-06,9.554036499531112e-06,4.3917002776449364e-07,1.01494942525862e-06,8.081275116549498e-07,1.485196568626127e-06,1.943228534835595e-06,5.018733486485998e-06,1.1030820366738318e-06,6.274746089604449e-06,8.124062487138236e-07,1.2541221123912974e-06,1.2435281910605363e-06,2.6616962252505105e-06
180,1.164232621872055e-05,5.8846596053374635e-06,1.4527708315034614e-06,9.242711508324735e-06,4.338588405790267e-07,1.0149764638665508e-06,8.0641205963979e-07,1.630525986469194e-06,1.9124302113868426e-06,5.313966936803387e-06,1.1274516368324355e-06,6.071476586538519e-06,8.173438964876894e-07,1.2504453471581122e-06,1.2287209576478907e-06,2.6699305970016818e-06
181,1.2114223405634801e-05,6.001673986142639e-06,1.4168361096630503e-06,8.95327585560427e-06,4.308793223193992e-07,1.0162485690610575e-06,8.064575908170619e-07,1.7966883711042744e-06,1.8763640289476229e-06,5.6186531154379655e-06,1.1494208398136794e-06,5.857054985434936e-06,8.232566885313362e-07,1.2419708268502684e-06,1.2190686529049902e-06,2.6738087504127116e-06
182,1.2505706844047332e-05,6.091972558122337e-06,1.3870957011820646e-06,8.694934437373984e-06,4.303552930316983e-07,1.0189296694465486e-06,8.081837290262777e-07,1.985652899294131e-06,1.8351427665689475e-06,5.931062860351604e-06,1.1692338898421167e-06,5.631047286941079e-06,8.298762674703885e-07,1.2290912245682976e-06,1.2143369854778413e-06,2.6717897109603123e-06
183,1.2802451015164862e-05,6.155513458202153e-06,1.364652953677921e-06,8.476491311938045e-06,4.3234649044877246e-07,1.0231361133213093e-06,8.116302588715502e-07,2.1990205133768697e-06,1.7893723096469155e-06,6.248658029152049e-06,1.1871243670354827e-06,5.39557320814057e-06,8.369308142922168e-07,1.212509964018504e-06,1.2140489292224536e-06,2.6629607763060637e-06
184,1.2996646098137418e-05,6.1915467186774385e-06,1.3505511116413287e-06,8.306492832500529e-06,4.3686782372819556e-07,1.0289225611309208e-06,8.168758043148676e-07,2.437980357415649e-06,1.74018062564605e-06,6.568179910207512e-06,1.2032089908486402e-06,5.154286330427299e-06,8.440616583896407e-07,1.1930036428101446e-06,1.2174966511725874e-06,2.6472565567809995e-06
185,1.308686687123494e-05,6.198781691275968e-06,1.345722839220149e-06,8.193366603102822e-06,4.438927563444373e-07,1.0362214259778708e-06,8.239253489793367e-07,2.70325860360064e-06,1.6891787178367642e-06,6.885647029588019e-06,1.2175461534180758e-06,4.911138490491811e-06,8.508681754681444e-07,1.1713574480699134e-06,1.223771000609229e-06,2.6251456531802693e-06
186,1.3075336054336572e-05,6.1759520042239595e-06,1.350932866551794e-06,8.145256221638162e-06,4.5333689548905683e-07,1.0447922829373613e-06,8.326720635731005e-07,2.9950488170705113e-06,1.6382855018928224e-06,7.196160548639409e-06,1.2302096254286116e-06,4.669494556632824e-06,8.570514476593305e-07,1.1483183819260587e-06,1.231820363456081e-06,2.597230905877791e-06
187,1.2964977636232578e-05,6.122333547667227e-06,1.366729810605813e-06,8.16958687122597e-06,4.650548090271298e-07,1.0542017857830356e-06,8.429443149799717e-07,3.31295626285058e-06,1.5894840317297064e-06,7.493786873156258e-06,1.241320672691103e-06,4.431842875849382e-06,8.624881452078062e-07,1.124516210971688e-06,1.2405112584682296e-06,2.564205985892561e-06
188,1.2758434554211707e-05,6.0380665265317145e-06,1.3934434739348138e-06,8.273001243041616e-06,4.788702713917602e-07,1.063825498442614e-06,8.545444688723011e-07,3.6559865643978596e-06,1.5446393657368752e-06,7.771910302034576e-06,1.2510429536311355e-06,4.199914558031452e-06,8.671683007210968e-07,1.1004362560505413e-06,1.2487080939006658e-06,2.5268963971763623e-06
189,1.2459093363496329e-05,5.924355114706485e-06,1.431256903891402e-06,8.462118078192282e-06,4.946161795940526e-07,1.0729063435260972e-06,8.672631124060763e-07,4.0226245987159105e-06,1.505417553636298e-06,8.024023256294624e-06,1.2595320071635338e-06,3.9749386518866076e-06,8.711267685649761e-07,1.076464990215265e-06,1.2554401331164337e-06,2.4860757468914155e-06
190,1.2072546008906366e-05,5.783571698236484e-06,1.4803024282614187e-06,8.744569044008242e-06,5.121367631572865e-07,1.0807003896225528e-06,8.809311648705214e-07,4.410978667504431e-06,1.473281157100662e-06,8.24449280915654e-06,1.2668930613939226e-06,3.757883658228909e-06,8.744646963821437e-07,1.0529773647737802e-06,1.2600471719877773e-06,2.4423090902496274e-06
191,1.1607281335111678e-05,5.619179915002169e-06,1.5406741421553502e-06,9.129543947334446e-06,5.312478147004312e-07,1.0866573306725182e-06,8.954661504779008e-07,4.818842504665478e-06,1.4495450221023352e-06,8.429009454912868e-06,1.2732334179153196e-06,3.5496188535312535e-06,8.773669065573567e-07,1.0303821451523127e-06,1.262122145419398e-06,2.396069682111554e-06
192,1.1074455041680493e-05,5.435442447555672e-06,1.6123368740582678e-06,9.627733536033045e-06,5.517128414003056e-07,1.090528554651465e-06,9.108205976067976e-07,5.243577974060594e-06,1.4354342136258927e-06,8.574787694109555e-06,1.2787716740769691e-06,3.3509958969620385e-06,8.800471917363918e-07,1.0090765320345719e-06,1.2613947085193625e-06,2.347917632614675e-06
193,1.0487080701021962e-05,5.237032673754726e-06,1.6950296188898877e-06,1.0250943023673729e-05,5.732673735047222e-07,1.0923359388174736e-06,9.268725452450736e-07,5.681887712398216e-06,1.4320760541528178e-06,8.680639330176188e-06,1.2838802198994876e-06,3.162901110391342e-06,8.827063521920699e-07,9.893885861740228e-07,1.2577829717743037e-06,2.298458938490863e-06
194,9.859066508406963e-06,5.028678385179175e-06,1.7882598058050556e-06,1.1011575274121998e-05,5.956441018990423e-07,1.0922329798120634e-06,9.43367798351052e-07,6.129583440786204e-06,1.4404776891446894e-06,8.746923123291828e-06,1.2890061844049458e-06,2.986331232615153e-06,8.855577760184057e-07,9.715601109670326e-07,1.251475248315401e-06,2.2481301264807403e-06
195,9.20438304616881e-06,4.81485709505948e-06,1.89141632470956e-06,1.1922065076741381e-05,6.185554402275701e-07,1.0903502952707515e-06,9.599671089107872e-07,6.581428333901853e-06,1.4615396293326366e-06,8.775279546908989e-06,1.294520155375076e-06,2.8224713078085644e-06,8.888618794403887e-07,9.557302381855654e-07,1.242841815196231e-06,2.197026270087743e-06
196,8.536457110713135e-06,4.599541964575367e-06,2.0039793678462672e-06,1.2994334751594775e-05,6.416594817028238e-07,1.0867081060803117e-06,9.763689616974027e-07,7.031208692901501e-06,1.4960296387976648e-06,8.768000699408577e-06,1.3006046709938874e-06,2.6726724905194482e-06,8.929042016446512e-07,9.419263849718609e-07,1.232282058573317e-06,2.144924439441599e-06
197,7.867788486696912e-06,4.386027956900208e-06,2.1257448293844036e-06,1.4239314055889618e-05,6.64551640911163e-07,1.0812535593717254e-06,9.924093136659414e-07,7.472060981902361e-06,1.5444970300010861e-06,8.727250283280035e-06,1.3072713582585767e-06,2.5383066761499862e-06,8.979286051269378e-07,9.301073806633187e-07,1.2201880724329292e-06,2.091522953704605e-06
198,7.209691098928013e-06,4.176838196150549e-06,2.256915162741604e-06,1.5666446077924516e-05,6.868099389389771e-07,1.074006064782944e-06,1.0080733855362865e-06,7.896715872281305e-06,1.607204596633436e-06,8.65499496175975e-06,1.314460626833379e-06,2.4206115896075155e-06,9.040971879134443e-07,9.202173695770685e-07,1.206983654498688e-06,2.036754049416308e-06
199,6.572075490951503e-06,3.973742746415327e-06,2.397952694628838e-06,1.7283050210250563e-05,7.080934406453798e-07,1.0651774118560825e-06,1.023454215020897e-06,8.297412464534257e-06,1.6841012411076567e-06,8.554040622721104e-06,1.322076555013235e-06,2.320592727174278e-06,9.114972268623581e-07,9.121828448367325e-07,1.1930994076707215e-06,1.980949146147095e-06
200,5.96337805193746e-06,3.777965771355638e-06,2.549261515921176e-06,1.90935565477519e-05,7.282324687156974e-07,1.055149968478553e-06,1.0386925914849414e-06,8.665798914562666e-06,1.7748281281648552e-06,8.429206823824848e-06,1.3299245383871282e-06,2.238954242596633e-06,9.201351321028087e-07,9.058956080352999e-07,1.178926212300543e-06,1.9247364698951207e-06
201,5.390724349161829e-06,3.5904990674931535e-06,2.7108876466570918e-06,2.1098794706092793e-05,7.472527649308377e-07,1.0443468516079995e-06,1.0538913463412504e-06,8.993363937487772e-06,1.8787493017335571e-06,8.28744374402574e-06,1.3377046329180562e-06,2.1761113352045597e-06,9.299005616657341e-07,9.012305608104177e-07,1.1648679990725864e-06,1.8687553699054789e-06
202,4.860165643212473e-06,3.4123001353813847e-06,2.8823721728967563e-06,2.3295490925294133e-05,7.653321485393034e-07,1.0331132839169285e-06,1.0690372088319504e-06,9.272544384906979e-06,1.9949569332264724e-06,8.136762904875812e-06,1.345158848172475e-06,2.132338591676447e-06,9.405484991837868e-07,8.980433010073026e-07,1.1514170538029826e-06,1.8134013303944942e-06
203,4.37683120303557e-06,3.2442882769503695e-06,3.0627358894836367e-06,2.5675963041229507e-05,7.827103320203614e-07,1.0216878583122868e-06,1.0839740250167224e-06,9.498044907956547e-06,2.122275752307807e-06,7.984855973535104e-06,1.3522337173661208e-06,2.1079045976217605e-06,9.517410587683644e-07,8.961476506948835e-07,1.1390981491942767e-06,1.7587516412667728e-06
204,3.945053667445841e-06,3.08724353529892e-06,3.2504754080351326e-06,2.8227932826317583e-05,7.99594955544727e-07,1.0102673932287299e-06,1.0984250890921644e-06,9.667590880425795e-06,2.25941474793421e-06,7.838255221763518e-06,1.3590820684230508e-06,2.103032367730729e-06,9.631483683090434e-07,8.953384226442974e-07,1.1283399074811267e-06,1.7046767138704855e-06
205,3.568571685044714e-06,2.941750039222358e-06,3.4434980385330285e-06,3.093443009485273e-05,8.1610864497305e-07,9.991131044031906e-07,1.1120724289903279e-06,9.781540061540549e-06,2.4053071076706838e-06,7.702099845994535e-06,1.365973136533025e-06,2.1177613256173215e-06,9.745192190120106e-07,8.954361774467686e-07,1.1194634860572757e-06,1.651046400580349e-06
206,3.2508069740000817e-06,2.808253638088917e-06,3.6390582244127487e-06,3.377379888158034e-05,8.322724160368306e-07,9.886074751022715e-07,1.124666773356265e-06,9.841474626514002e-06,2.559414347478299e-06,7.58017764934893e-06,1.373248817034463e-06,2.151879629700733e-06,9.856453191846914e-07,8.962899049571084e-07,1.1127900864336743e-06,1.59789648188195e-06
207,2.9951396751229337e-06,2.687187819163519e-06,3.833761776358576e-06,3.671976779601404e-05,8.480169223379413e-07,9.79200999648668e-07,1.1360569942344798e-06,9.848748575284827e-06,2.721711760356877e-06,7.47497368629495e-06,1.3812561740810368e-06,2.2049390887168336e-06,9.962970599899244e-07,8.977285006925181e-07,1.1086826590358536e-06,1.545480840403134e-06
208,2.805099182116636e-06,2.5790396867184787e-06,4.023569738389731e-06,3.9741335214869295e-05,8.632362386668706e-07,9.713030006279242e-07,1.1460881308728256e-06,9.804078879683665e-06,2.8923390765957133e-06,7.387568035500754e-06,1.3902245157687586e-06,2.276243487109348e-06,1.0062104337589214e-06,8.995339440958684e-07,1.1074790980110654e-06,1.494246786166303e-06
209,2.684403158750523e-06,2.4842721282839976e-06,4.203783640824447e-06,4.280213829719606e-05,8.778503516437023e-07,9.65213776358332e-07,1.1544627397213646e-06,9.708292548091052e-06,3.0711774948305347e-06,7.317501976061746e-06,1.4002213811504363e-06,2.3648085313295334e-06,1.0151067556792527e-06,9.015043705874605e-07,1.1094332326111342e-06,1.4447569405598333e-06
210,2.6368372998071684e-06,2.4031556993315364e-06,4.369214454157481e-06,4.586018041966822e-05,8.918169708922976e-07,9.611000333323563e-07,1.1606976324093317e-06,9.563432856221134e-06,3.2575962561121013e-06,7.2627771946895545e-06,1.411186978732038e-06,2.469354784081945e-06,1.0227431557767264e-06,9.035287166758075e-07,1.1146850354417481e-06,1.39754679997599e-06
211,2.6660522137159478e-06,2.335644765450966e-06,4.5147100460408655e-06,4.8870370594367935e-05,9.050936201494454e-07,9.589742749511245e-07,1.1642252082611165e-06,9.373433610762352e-06,3.450394863827667e-06,7.219957248471694e-06,1.4229520930222443e-06,2.588283735799335e-06,1.0289577571037683e-06,9.055602201482885e-07,1.1232190584525138e-06,1.3530062272565661e-06
212,2.775367684173685e-06,2.281364689772127e-06,4.6359371815945765e-06,5.179068889593681e-05,9.175874402156928e-07,9.587090400726132e-07,1.164573065774106e-06,9.144065019505553e-06,3.64786167922947e-06,7.184518273259971e-06,1.435269766779514e-06,2.7196034282156177e-06,1.0336663264215702e-06,9.07542147225439e-07,1.1348362371820771e-06,1.3114078432758513e-06
213,2.9676483846119546e-06,2.2396573308600873e-06,4.730167127434257e-06,5.458898466374626e-05,9.291369364889437e-07,9.601077986388524e-07,1.1615054983143782e-06,8.882321574465343e-06,3.84800012899437e-06,7.151657136022372e-06,1.447898603575955e-06,2.860867944570232e-06,1.0368702388832241e-06,9.094178430423407e-07,1.1491841805524124e-06,1.2730133681158389e-06
214,3.24528771426993e-06,2.2096211343068265e-06,4.796796902629102e-06,5.724660501857458e-05,9.395787659048911e-07,9.629548809434392e-07,1.1550700112233094e-06,8.595542087241813e-06,4.048891676506143e-06,7.117255872999823e-06,1.4606729031049771e-06,3.009161938473548e-06,1.0386728540590309e-06,9.11209123335069e-07,1.165870150425363e-06,1.2380755677932216e-06
215,3.6102592706749902e-06,2.1901603482186086e-06,4.837293411332635e-06,5.975728176188889e-05,9.488741679945891e-07,9.66990333003418e-07,1.1455754926471022e-06,8.290481822897076e-06,4.2488023217717564e-06,7.078456641456823e-06,1.4734740168109175e-06,3.1612042829929665e-06,1.0392251669493388e-06,9.130207737357996e-07,1.184603924051876e-06,1.2067668855440553e-06
216,4.0641420898940495e-06,2.1800973757685185e-06,4.854443637250702e-06,6.212154327486567e-05,9.571596718882572e-07,9.718773308863157e-07,1.1335470128610756e-06,7.972702643780307e-06,4.445865581234523e-06,7.033565511063046e-06,1.4860920698566866e-06,3.3137562102757716e-06,1.0386479657157722e-06,9.149439323408973e-07,1.2052357198045947e-06,1.1791963165293853e-06
217,4.6080688563659204e-06,2.1783692449236128e-06,4.851362759739194e-06,6.433885021634654e-05,9.646572282445438e-07,9.772120973851142e-07,1.1196706361129616e-06,7.646502551574719e-06,4.637800520694004e-06,6.981366138738991e-06,1.4980704929198774e-06,3.4643206012419606e-06,1.0370277589352754e-06,9.169881526874643e-07,1.2276586063026767e-06,1.1554810691329467e-06
218,5.242595637335081e-06,2.1842593232314127e-06,4.830935399008188e-06,6.640261080829512e-05,9.715647224085764e-07,9.825318716065506e-07,1.1047109119675503e-06,7.315041516912724e-06,4.82200061038817e-06,6.920416125581723e-06,1.5086336058904625e-06,3.6117313956317415e-06,1.0344551461995022e-06,9.191063806373651e-07,1.251693142438713e-06,1.1357430134948975e-06
219,5.967494602796772e-06,2.1975642108240075e-06,4.795758746898358e-06,6.830214212599786e-05,9.780343968452102e-07,9.87308063871922e-07,1.0894180202972798e-06,6.980396060150602e-06,4.995733462901892e-06,6.848971135516065e-06,1.5167361971308665e-06,3.756139070038535e-06,1.031011746316742e-06,9.212360904806723e-07,1.2770421575765003e-06,1.1200600164174524e-06
220,6.7814886909816e-06,2.218617245511197e-06,4.748128673409811e-06,7.002925611314487e-05,9.841715465928766e-07,9.909716412527225e-07,1.0744996930850636e-06,6.643807468674923e-06,5.1561767838375005e-06,6.765466530686415e-06,1.5212540312841683e-06,3.898414775752588e-06,1.0267156667612854e-06,9.23322502415202e-07,1.3033094955265126e-06,1.1084867856572968e-06
221,7.682018567702328e-06,2.248153432850389e-06,4.689849844190872e-06,7.158382114759202e-05,9.899846475816992e-07,9.92988634251567e-07,1.0606492102725952e-06,6.30623395465932e-06,5.300442967280935e-06,6.669076202043052e-06,1.5212683419626398e-06,4.039754928668115e-06,1.021533548754088e-06,9.253643019613168e-07,1.330045034917708e-06,1.1011258154717807e-06
222,8.665161261925885e-06,2.287047059877625e-06,4.622016160928651e-06,7.297521856182455e-05,9.953327922177317e-07,9.92963205063985e-07,1.0485230919872967e-06,5.9688678919122005e-06,5.425819660090499e-06,6.560160888587971e-06,1.5162944562171416e-06,4.181980484484955e-06,1.0154847662017576e-06,9.274324490543343e-07,1.3567976951967245e-06,1.098120270249323e-06
223,9.7257188812404e-06,2.336022882868324e-06,4.544947041569113e-06,7.421982215921736e-05,9.999072613939522e-07,9.907303843781604e-07,1.0386658025466549e-06,5.633377231502481e-06,5.530013508596367e-06,6.440480322735217e-06,1.5063318255069691e-06,4.327909601142574e-06,1.0087089174917247e-06,9.295897493940273e-07,1.3831447051293523e-06,1.0995458736502489e-06
224,1.0857386150864754e-05,2.3955167106520998e-06,4.458373536545632e-06,7.53360192023188e-05,1.0032510180037312e-06,9.863863121737668e-07,1.0314623845372473e-06,5.3019315588286976e-06,5.611026578708127e-06,6.3128499673849126e-06,1.4917317588708495e-06,4.481112355865459e-06,1.0013938964918828e-06,9.317760699705767e-07,1.4086406784981845e-06,1.1053071421604097e-06
225,1.2052892915304449e-05,2.465770874631585e-06,4.3618368523881805e-06,7.633847045667278e-05,1.0048350972275599e-06,9.802146575158414e-07,1.0271356779471423e-06,4.977114207463429e-06,5.667018262387411e-06,6.18026004676117e-06,1.472972252201331e-06,4.645215474352206e-06,9.936398616547175e-07,9.337641297541679e-07,1.4327163509824715e-06,1.1151050930570935e-06
226,1.3304018663783093e-05,2.5470471783079775e-06,4.255133167947684e-06,7.723277261142339e-05,1.004155103285344e-06,9.72547934049538e-07,1.0257595765593243e-06,4.661722675171698e-06,5.696790846463979e-06,6.045117520656938e-06,1.4504543263620221e-06,4.823302194995234e-06,9.854036615430321e-07,9.352198047431703e-07,1.4546228155252257e-06,1.1284538154834215e-06
227,1.4601339225783168e-05,2.6397705811536e-06,4.138613028645062e-06,7.801128503921595e-05,1.0007683806962144e-06,9.636787318185248e-07,1.0272707383293269e-06,4.358433360870872e-06,5.700596656003553e-06,5.909202726495158e-06,1.4243819051902334e-06,5.017667107340251e-06,9.765731194161597e-07,9.358422701859751e-07,1.473474772364311e-06,1.1447038895363563e-06
228,1.5933640119854524e-05,2.744481431263e-06,4.013238986140239e-06,7.865161624180253e-05,9.942875167968642e-07,9.538519045126967e-07,1.0314890741076257e-06,4.069447058287073e-06,5.680489761474297e-06,5.774217420048648e-06,1.3947511705405147e-06,5.229789835160089e-06,9.671096931986414e-07,9.354922182701073e-07,1.4883980168451602e-06,1.163052435308608e-06
229,1.728736388867461e-05,2.8615988163305552e-06,3.88046347016193e-06,7.911971154963909e-05,9.844048940210255e-07,9.432627761508914e-07,1.038135651303451e-06,3.7963400077478144e-06,5.639946946279051e-06,5.642375404285112e-06,1.3614553410546e-06,5.46032023693378e-06,9.57159249149219e-07,9.34206410698394e-07,1.4986736027075759e-06,1.1825445264887245e-06
230,1.8646947423767325e-05,2.9911523355870542e-06,3.7420912788021064e-06,7.937755540330181e-05,9.709445777586712e-07,9.320635666171261e-07,1.0468066199057339e-06,3.540148837398557e-06,5.583015116997032e-06,5.51652235958858e-06,1.3244382868161139e-06,5.709011167910978e-06,9.470648460309132e-07,9.321113896458419e-07,1.5037328818060186e-06,1.2021246352294132e-06
231,1.999657549083725e-05,3.132649861215789e-06,3.600241927562869e-06,7.939284274142705e-05,9.53895576699888e-07,9.204084315644494e-07,1.0569254229342732e-06,3.301494194407067e-06,5.513672471323637e-06,5.3996398827275975e-06,1.283825984537295e-06,5.974609967048347e-06,9.372746213682924e-07,9.293501544916726e-07,1.5030823723681316e-06,1.2208279652732208e-06
232,2.1322816029161727e-05,3.2850891573728563e-06,3.4573929315013364e-06,7.914701181977487e-05,9.334037869776406e-07,9.084670487698198e-07,1.0677325516526033e-06,3.080626247555427e-06,5.435832232439342e-06,5.294172797042242e-06,1.2400215239768459e-06,6.254817161724548e-06,9.281942582539368e-07,9.260744907737414e-07,1.496332095208609e-06,1.2380574197333055e-06
233,2.2616892002979677e-05,3.4470304570157167e-06,3.316410712655782e-06,7.8638747718927e-05,9.09716039613027e-07,8.963928640084579e-07,1.078331308406125e-06,2.8774220201823815e-06,5.353471057918798e-06,5.201729766666132e-06,1.1937035955971524e-06,6.546471642976659e-06,9.200743776358244e-07,9.224310413560162e-07,1.4832735332777113e-06,1.2536928500836552e-06
234,2.3875416108843363e-05,3.616689284797082e-06,3.1804973071004314e-06,7.788178695415483e-05,8.831457612105091e-07,8.843468713775428e-07,1.0877931563084931e-06,2.6914023590799145e-06,5.270327719210108e-06,5.123175781109708e-06,1.1456698842464158e-06,6.845901693743661e-06,9.129884673836274e-07,9.184946542582462e-07,1.463881462789727e-06,1.2679153634261885e-06
235,2.509892508987342e-05,3.7920121958596675e-06,3.0530269997363427e-06,7.689748440161839e-05,8.541363687845955e-07,8.725868164752894e-07,1.0953145045633218e-06,2.521853075195233e-06,5.189464485102054e-06,5.058823948265339e-06,1.0966478535823172e-06,7.1491029953199115e-06,9.068641389060759e-07,9.142075363777865e-07,1.4382818070717859e-06,1.280989960859782e-06
236,2.628883205512031e-05,3.970653007577804e-06,2.9372948920513784e-06,7.57051978666264e-05,8.233164769060385e-07,8.615004524524785e-07,1.100380774181562e-06,2.368094848552377e-06,5.113152066245584e-06,5.008621609599825e-06,1.047233040181978e-06,7.451511010370317e-06,9.015032027918782e-07,9.093708424501269e-07,1.4067772785833954e-06,1.2932082966909684e-06
237,2.7445336338522804e-05,4.14990265153057e-06,2.8362906204804127e-06,7.431737713633342e-05,7.914107954203724e-07,8.515198736548451e-07,1.1028748404621571e-06,2.2297920106422126e-06,5.043019956907344e-06,4.972324474007764e-06,9.97923157885717e-07,7.747693476912593e-06,8.965939544791204e-07,9.037069818346678e-07,1.369934107800846e-06,1.3048655525212986e-06
238,2.856817076691928e-05,4.326850443929677e-06,2.7526173830449675e-06,7.274301614921802e-05,7.5909598642454e-07,8.429938299290085e-07,1.1030754022124494e-06,2.107068310145435e-06,4.980192280122254e-06,4.949640120872979e-06,9.491596694472141e-07,8.031626532098907e-06,8.91759259075994e-07,8.970130618255878e-07,1.3286343779692477e-06,1.3161832536071142e-06
239,2.9658610420123255e-05,4.498872261810186e-06,2.6884969105347833e-06,7.099396190093479e-05,7.269533866501936e-07,8.361226785959309e-07,1.1015315094165257e-06,2.00033795832436e-06,4.925282824481493e-06,4.940460277047107e-06,9.013795144546227e-07,8.297704861487274e-06,8.866432373562067e-07,8.893282081039344e-07,1.2839859022160942e-06,1.3272635936153867e-06
240,3.072019422570172e-05,4.664083178113517e-06,2.6457185793281627e-06,6.908791919899812e-05,6.954908537388544e-07,8.309890736489734e-07,1.0988715889226571e-06,1.9100452499439404e-06,4.8782643258510305e-06,4.945237222238365e-06,8.550678390279332e-07,8.541762235648804e-06,8.80998358191759e-07,8.8098371053492e-07,1.2371364465028532e-06,1.3380934918988861e-06
241,3.1757587274334876e-05,4.821330864335934e-06,2.625539645765704e-06,6.704780335578178e-05,6.651363639320604e-07,8.276483467420718e-07,1.0956556290852842e-06,1.8365526967150964e-06,4.838328906734162e-06,4.9651862113202e-06,8.107584551432385e-07,8.761160354336061e-06,8.747381573118215e-07,8.725102569451946e-07,1.1891517356760061e-06,1.3486109057103449e-06
242,3.2774266279069197e-05,4.96970911565009e-06,2.6286377745670607e-06,6.489917628132308e-05,6.362207630493408e-07,8.26196314183561e-07,1.0923195068343342e-06,1.7802322555262577e-06,4.803895596019928e-06,5.002006844940772e-06,7.689973619595591e-07,8.953796724348271e-06,8.679479856957975e-07,8.644775240635982e-07,1.1409955951356108e-06,1.3588459530857155e-06
243,3.376996668220484e-05,5.108022162078883e-06,2.6551607116551185e-06,6.266749391848913e-05,6.090196769354841e-07,8.267523559859708e-07,1.0891568667192427e-06,1.7416808204523796e-06,4.772781961759212e-06,5.057452903370535e-06,7.303248210587755e-07,9.116819403756527e-06,8.608532347883251e-07,8.573641423190366e-07,1.093538457958987e-06,1.3689866571790932e-06
244,3.473884813355552e-05,5.2346627054371645e-06,2.7048206186445776e-06,6.0376589430102836e-05,5.838308140653138e-07,8.294025482396176e-07,1.086304822218728e-06,1.72192880843876e-06,4.742383106230904e-06,5.133291848447904e-06,6.952568216114963e-07,9.245942537488776e-06,8.537430540652735e-07,8.515192958057491e-07,1.0475551777427643e-06,1.3792677400134322e-06
245,3.566920495324672e-05,5.347896848619426e-06,2.7769170762824505e-06,5.804851811288107e-05,5.609938055997201e-07,8.341717596978057e-07,1.0837840348220154e-06,1.7224996754861332e-06,4.7097117783184295e-06,5.2315250588586854e-06,6.64245722746431e-07,9.335892857542362e-06,8.468886020354814e-07,8.471980780007188e-07,1.0036988512915635e-06,1.3898074452019829e-06
246,3.6545474258025196e-05,5.446230214591424e-06,2.8702520223884316e-06,5.570415666690742e-05,5.408315236335779e-07,8.41008833011258e-07,1.0816225655100497e-06,1.745273553117169e-06,4.671448286978028e-06,5.354449613241592e-06,6.376852868987275e-07,9.381939673297952e-06,8.405007498243066e-07,8.445914533174711e-07,9.624597184679362e-07,1.4005522780667338e-06
247,3.735250099673398e-05,5.528666709661222e-06,2.983035873241925e-06,5.336398343775562e-05,5.235883801437071e-07,8.497684193709632e-07,1.0799712859030446e-06,1.7922376786486573e-06,4.624424604548858e-06,5.504665513851242e-06,6.159748601267438e-07,9.381465227168586e-06,8.347166555635532e-07,8.438043068383236e-07,9.24139887189697e-07,1.411374967041232e-06
248,3.808005593910419e-05,5.594793189672061e-06,3.11285533552118e-06,5.1048348458087746e-05,5.094212930388311e-07,8.602078418036641e-07,1.0790791222845445e-06,1.8652560436562414e-06,4.566604232472811e-06,5.685315832440413e-06,5.995551279375379e-07,9.334162542129688e-06,8.296103163690877e-07,8.448467433556704e-07,8.888493509859984e-07,1.4222436534806287e-06
249,3.872444326696846e-05,5.6445666374393815e-06,3.256660597427651e-06,4.8776536147190536e-05,4.984153157752696e-07,8.719964441807311e-07,1.0791430878187966e-06,1.965949810496123e-06,4.497936484988812e-06,5.900388039864521e-06,5.889120246959147e-07,9.240745695245898e-06,8.252231339432307e-07,8.477115994734931e-07,8.56511719532135e-07,1.4333163990009525e-06
250,3.928569091928211e-05,5.6778100391796775e-06,3.4107592206741212e-06,4.6564404516484765e-05,4.905792690305014e-07,8.847452026484974e-07,1.0801770146425845e-06,2.0956733425642533e-06,4.420426829703141e-06,6.154667306846667e-06,5.846059210525023e-07,9.101799586750075e-06,8.21569608457373e-07,8.524654909070755e-07,8.268703691644521e-07,1.4448779645242541e-06
251,3.976255807350035e-05,5.6938015714268516e-06,3.570909631099277e-06,4.442176901637966e-05,4.858295898931068e-07,8.98062845477412e-07,1.0819945363530557e-06,2.255548210134064e-06,4.337370879649972e-06,6.453260707373875e-06,5.87268339875411e-07,8.918091063174467e-06,8.186291781603718e-07,8.592311318517197e-07,7.995094101897536e-07,1.4571843574064592e-06
252,4.015006761756915e-05,5.691386001011873e-06,3.7325780528039605e-06,4.2352357893088026e-05,4.839901145030857e-07,9.115874488050792e-07,1.0842871925752873e-06,2.446565924527066e-06,4.252281063536048e-06,6.800959342819298e-06,5.975189506169157e-07,8.691722652751255e-06,8.16367178242754e-07,8.68086153267548e-07,7.739176722537514e-07,1.4703691314132537e-06
253,4.0441773283462946e-05,5.669560425855293e-06,3.891285517787463e-06,4.0357789490521684e-05,4.848040852905398e-07,9.249504405040007e-07,1.0866966654831192e-06,2.6696750283415365e-06,4.16815276733792e-06,7.201664360105068e-06,6.158853954888629e-07,8.426841417543962e-06,8.147486804813473e-07,8.789927313687454e-07,7.495928139890917e-07,1.4844407346028838e-06
254,4.063409822019725e-05,5.628171006798625e-06,4.042896894057111e-06,3.844312548604771e-05,4.879507648547163e-07,9.377349540480972e-07,1.0888057076945961e-06,2.92570962687223e-06,4.087326609902256e-06,7.657931941913636e-06,6.427963521623169e-07,8.12932877846066e-06,8.136992037181361e-07,8.917940339540732e-07,7.261517076018815e-07,1.4992479396176258e-06
255,4.072922200536876e-05,5.568435180472874e-06,4.183770780610792e-06,3.6620449762427556e-05,4.930737402138639e-07,9.495354511121835e-07,1.0901003810354028e-06,3.215211538171493e-06,4.011769175874721e-06,8.17066091899955e-06,6.7861380013247e-07,7.805717193255334e-06,8.130489846265476e-07,9.062370400291858e-07,7.033961065843583e-07,1.5143792854362838e-06
256,4.0735381574159445e-05,5.493093293567408e-06,4.310861027294541e-06,3.4909010149795495e-05,4.998069352810161e-07,9.60116323823191e-07,1.0899758407428025e-06,3.538352134468993e-06,3.94348692159535e-06,8.738920585576545e-06,7.236308761576382e-07,7.462386998009432e-06,8.125415080974197e-07,9.21979666106006e-07,6.813007562165034e-07,1.5290963569645518e-06
257,4.066510115157509e-05,5.406094513550796e-06,4.421953922984427e-06,3.333244062730244e-05,5.077867400281071e-07,9.695470832333546e-07,1.0877771497275638e-06,3.895028353488736e-06,3.8848206380131715e-06,9.3598354605802e-06,7.78022166379196e-07,7.105652811342678e-06,8.11912429777192e-07,9.385791432689587e-07,6.599605966208187e-07,1.5423747525993348e-06
258,4.0532554164282995e-05,5.311961096893664e-06,4.5160501402835475e-06,3.19145390780042e-05,5.166651082951735e-07,9.782042873050564e-07,1.0828880903896445e-06,4.285035307109179e-06,3.8384525137082455e-06,1.0028466921032775e-05,8.417963590972615e-07,6.741898795626985e-06,8.109378487329138e-07,9.554949623019195e-07,6.395489681365703e-07,1.55305174857417e-06
259,4.035121582861332e-05,5.2151246967391574e-06,4.5936061163909685e-06,3.067541250868779e-05,5.261120799988022e-07,9.866322362693046e-07,1.0748921313262957e-06,4.7082336355567245e-06,3.8071537869301883e-06,1.07377604959252e-05,9.147839725371167e-07,6.377107863026449e-06,8.093983488518559e-07,9.721609679479342e-07,6.20271504135522e-07,1.5600475142849426e-06
260,4.0131933805540264e-05,5.1194182914807505e-06,4.6563268395312636e-06,2.9629677147713492e-05,5.358032819059559e-07,9.953490667477562e-07,1.063728302889227e-06,5.16468313957769e-06,3.79342560364892e-06,1.147863602272113e-05,9.96670514248283e-07,6.016287101315308e-06,8.070480285731564e-07,9.881105073820784e-07,6.022976999683398e-07,1.562622096723233e-06
261,3.988109462619595e-05,5.027766131048947e-06,4.706538004059759e-06,2.8787063465573363e-05,5.454427779076592e-07,1.0047091277487954e-06,1.0497360096633606e-06,5.654695195718236e-06,3.7991841472274535e-06,1.2240097493871705e-05,1.0870678250380138e-06,5.663210998156844e-06,8.036838411033708e-07,1.003012778874186e-06,5.85712942044582e-07,1.560576884458452e-06
262,3.9600389842894843e-05,4.942139293727606e-06,4.7464793735589425e-06,2.815391151962973e-05,5.548250966674588e-07,1.0148656571501222e-06,1.0335689411538058e-06,6.178745078900867e-06,3.8256316739048415e-06,1.3009169384347748e-05,1.1855596635316422e-06,5.320408828497312e-06,7.992683373819357e-07,1.0165737917776218e-06,5.705279568518483e-07,1.5542648332404457e-06
263,3.9290671835127175e-05,4.86382948770696e-06,4.7778037316609215e-06,2.7734007845075357e-05,5.638547427929537e-07,1.0257873685671596e-06,1.016022432095756e-06,6.73721365409507e-06,3.873417325496014e-06,1.3770877478380904e-05,1.2916722113851266e-06,4.9893606781524455e-06,7.939796566556873e-07,1.0284281190932573e-06,5.567366805848832e-07,1.5443793171973678e-06
264,3.895819978563474e-05,4.793896246869799e-06,4.8013174143586904e-06,2.7528504006567602e-05,5.724800195912078e-07,1.0372647318767645e-06,9.978544213257008e-07,7.33000026693478e-06,3.943014772129855e-06,1.4508903343956194e-05,1.40480787545262e-06,4.67092354253511e-06,7.881443992911934e-07,1.0381224803019896e-06,5.443785354916005e-07,1.5316617306643654e-06
265,3.861685173907994e-05,4.733506133714768e-06,4.8169614551059836e-06,2.753532539137001e-05,5.805979083899275e-07,1.0488946339605334e-06,9.79700843573539e-07,7.956115106080417e-06,4.03500736570144e-06,1.5207088848259128e-05,1.5242058495792948e-06,4.3658608487883245e-06,7.821104724964338e-07,1.0452015549701669e-06,5.335518865006469e-07,1.5167313695349665e-06
266,3.828370838719579e-05,4.684005729808294e-06,4.824098238927397e-06,2.7748456781499438e-05,5.879957380435638e-07,1.0600851712400715e-06,9.62100198663984e-07,8.613310010741516e-06,4.150026034759967e-06,1.585109865834096e-05,1.648942135224733e-06,4.075171827090596e-06,7.761473127958494e-07,1.0493181730858978e-06,5.243822620573657e-07,1.5000939506364986e-06
267,3.797415750309933e-05,4.646784373608835e-06,4.8219993815279225e-06,2.815729876813906e-05,5.943393789791498e-07,1.0701304810748327e-06,9.455257476475586e-07,9.297765886742179e-06,4.288432553439135e-06,1.64294633831236e-05,1.777947357680661e-06,3.8000105364512104e-06,7.704278030100188e-07,1.0502484770149439e-06,5.169843476518995e-07,1.4822007788609788e-06
268,3.770244330591803e-05,4.623020088517755e-06,4.810242415652218e-06,2.8746122200645984e-05,5.992068156069187e-07,1.0783611750906073e-06,9.303595473828328e-07,1.0003970723502434e-05,4.450007030496302e-06,1.6933836683448397e-05,1.910052341465955e-06,3.5413631863656037e-06,7.650680090077687e-07,1.0478192132930654e-06,5.114300908985287e-07,1.4635021162248065e-06
269,3.74853194630133e-05,4.6133534221353e-06,4.788874307126271e-06,2.949363039368566e-05,6.021709168746611e-07,1.084322450994994e-06,9.168433148203662e-07,1.0724898991865621e-05,4.633799207521616e-06,1.7358753016147062e-05,2.044030840997217e-06,3.29981933377535e-06,7.601630462656931e-07,1.0419141077972305e-06,5.077459475302054e-07,1.444535846609156e-06
270,3.734369942635219e-05,4.6176114997692905e-06,4.758478243477802e-06,3.037307815803523e-05,6.029048957898544e-07,1.0879200360989797e-06,9.05048098805344e-07,1.145233520596447e-05,4.838198104460607e-06,1.7701119994475784e-05,2.178529536810428e-06,3.075546469393561e-06,7.557865480711164e-07,1.03261580886842e-06,5.059469544059533e-07,1.4259731126863496e-06
271,3.730093806630276e-05,4.634744014658439e-06,4.720280949090395e-06,3.135394338621961e-05,6.012582179849616e-07,1.0894796964268832e-06,8.948704465065716e-07,1.2177088812098084e-05,5.061112378333747e-06,1.7959233451489895e-05,2.3118983591524675e-06,2.868345868738154e-06,7.519838841419755e-07,1.0203029312988598e-06,5.060508967256081e-07,1.4085339815491474e-06
272,3.737922243234003e-05,4.662995790859688e-06,4.676202730419613e-06,3.2405498578556484e-05,5.972524025068465e-07,1.0896642590399172e-06,8.860467360166287e-07,1.2889005774061945e-05,5.300018268470892e-06,1.8131170884318926e-05,2.442088529102314e-06,2.677678716312798e-06,7.487833397288774e-07,1.0055817164886428e-06,5.080560556271621e-07,1.3928910059435472e-06
273,3.759590727677139e-05,4.700223438825295e-06,4.628654806904199e-06,3.350114391412624e-05,5.910055835964463e-07,1.0892624417948027e-06,8.781820316575505e-07,1.3576826180507528e-05,5.551895273091552e-06,1.8213604206434783e-05,2.5666822142843104e-06,2.5026532569645232e-06,7.461743237948244e-07,9.891343014690174e-07,5.11941771833706e-07,1.3796917336890622e-06
274,3.7961015701549386e-05,4.744234437939441e-06,4.580075526559118e-06,3.462187581217993e-05,5.826824529459703e-07,1.0889840309586329e-06,8.70818899062053e-07,1.4228056198269987e-05,5.813353093776584e-06,1.8202465615689484e-05,2.6829394872521985e-06,2.3420565084283803e-06,7.440575799022947e-07,9.716112994704825e-07,5.176972875399003e-07,1.3696166426236767e-06
275,3.847615957282074e-05,4.7929956229909406e-06,4.53242977028841e-06,3.575785300188295e-05,5.725091690619894e-07,1.0893650371103589e-06,8.635521474856057e-07,1.4829218038846689e-05,6.080916153430563e-06,1.8095295873294105e-05,2.7878326731110893e-06,2.1945626354677322e-06,7.422421646382737e-07,9.536322865108478e-07,5.253201009683427e-07,1.36334297185356e-06
276,3.91342508228012e-05,4.844583722897942e-06,4.4869090114365124e-06,3.69075883313659e-05,5.60780811292504e-07,1.0907548807703002e-06,8.561309732903863e-07,1.5366902700375466e-05,6.351025951932309e-06,1.7893773658091265e-05,2.87826472591641e-06,2.0590830348132956e-06,7.404780595681488e-07,9.358361539905594e-07,5.347824175440296e-07,1.361445639322678e-06
277,3.9919607621659e-05,4.896882260035284e-06,4.443891223416003e-06,3.80745902243033e-05,5.478480333548377e-07,1.0933227768486061e-06,8.484881226572868e-07,1.582959299374801e-05,6.6196733043459935e-06,1.7605093708478902e-05,2.951548169965723e-06,1.9349986745067025e-06,7.384945056813516e-07,9.188694385620735e-07,5.460171394660096e-07,1.364345502980361e-06
278,4.080930300644572e-05,4.94722668821623e-06,4.403067860339007e-06,3.9262421883382034e-05,5.341122200724948e-07,1.0970493208715842e-06,8.406814881797969e-07,1.6209406485674534e-05,6.8822775774836715e-06,1.7241564328738023e-05,3.005834031177299e-06,1.8220970322552482e-06,7.360665336845988e-07,9.033070794968527e-07,5.589322669129918e-07,1.3723105913164091e-06
279,4.1776886512393294e-05,4.992346449442777e-06,4.3636343985801105e-06,4.047125112013313e-05,5.199988372143e-07,1.1017183487602053e-06,8.327802326263717e-07,1.6502541619518158e-05,7.134362393513041e-06,1.6818794801794394e-05,3.0401457614208354e-06,1.7203051497070034e-06,7.330745644579682e-07,8.895855378763656e-07,5.734143854957145e-07,1.3854363125801442e-06
280,4.2797773235159174e-05,5.0287396494372485e-06,4.324514841840366e-06,4.169818886962354e-05,5.059167006543836e-07,1.1069482857672245e-06,8.247720670125603e-07,1.6707812951605716e-05,7.3726748538826235e-06,1.6353712949201955e-05,3.054026136007136e-06,1.6294417406675344e-06,7.294968009016078e-07,8.779908698917515e-07,5.892991374948944e-07,1.4036364250256461e-06
281,4.3853521110272435e-05,5.053183174845273e-06,4.284643813384566e-06,4.293969933623102e-05,4.922555171969255e-07,1.1122417550187748e-06,8.165560899756732e-07,1.682414951701308e-05,7.5959210340372375e-06,1.5863318637420482e-05,3.0471481809075614e-06,1.5491315824737308e-06,7.253614965976316e-07,8.686935278381063e-07,6.063406320925643e-07,1.4267231841032307e-06
282,4.493262906616058e-05,5.063078975528062e-06,4.243279617964658e-06,4.419323633863981e-05,4.794091715299494e-07,1.1170198563577606e-06,8.080027377662504e-07,1.684920108466048e-05,7.804724889123148e-06,1.536392316449013e-05,3.0193085678647176e-06,1.4788438201532542e-06,7.20728284754467e-07,8.617930731009612e-07,6.242368560829636e-07,1.4545104593748825e-06
283,4.6027733888542105e-05,5.056700945593632e-06,4.200180832580452e-06,4.5457700946313235e-05,4.677726823494179e-07,1.1206752390588512e-06,7.989884928811961e-07,1.678018604017172e-05,8.000986692633019e-06,1.4870264722270275e-05,2.9708550638652877e-06,1.417935564699988e-06,7.157130738553947e-07,8.57335440410984e-07,6.427264760821632e-07,1.4868217397870275e-06
284,4.7130825735252606e-05,5.033512540422067e-06,4.155431968098126e-06,4.673361965248647e-05,4.577107507486304e-07,1.122650259838791e-06,7.893489814031841e-07,1.6615767203941496e-05,8.186957923487653e-06,1.4394627102010053e-05,2.903170291691684e-06,1.365649102164407e-06,7.105029723282135e-07,8.552969591387295e-07,6.616801598424676e-07,1.5234059992718696e-06
285,4.822930779608525e-05,4.994475603820518e-06,4.10897951856809e-06,4.80234253868754e-05,4.4954271961692046e-07,1.1224854760344339e-06,7.788255443755375e-07,1.6357388771895776e-05,8.364328524561174e-06,1.394652766615596e-05,2.8188224536970535e-06,1.3210761410155806e-06,7.053250993011633e-07,8.555537328153165e-07,6.810808139174454e-07,1.563847181556549e-06
286,4.930578564910689e-05,4.942048747919466e-06,4.0603310643226255e-06,4.9331718707111016e-05,4.435577630266251e-07,1.1198358957712063e-06,7.671247457158658e-07,1.6009737064373553e-05,8.533820481237137e-06,1.35329989405985e-05,2.7212465956173333e-06,1.283147966184505e-06,7.004087277287516e-07,8.578863832219027e-07,7.009160046857693e-07,1.607510209370486e-06
287,5.0341535497082906e-05,4.879672407606225e-06,4.008725455003721e-06,5.066542929549371e-05,4.4002277445271105e-07,1.114499602753035e-06,7.540846905671643e-07,1.5580598463876488e-05,8.695578238518666e-06,1.3158971498146368e-05,2.614130647996367e-06,1.2507274846149786e-06,6.959746282179457e-07,8.62042915528903e-07,7.211241433357453e-07,1.6534992857937308e-06
288,5.132050073303767e-05,4.810938774823466e-06,3.953518694669712e-06,5.2033944428490526e-05,4.391620965839756e-07,1.1064765796773421e-06,7.398144036212855e-07,1.508040805381454e-05,8.849841984828464e-06,1.2827497009668992e-05,2.5008963025606723e-06,1.2227599780418515e-06,6.922177580347334e-07,8.677837294284424e-07,7.416316010398402e-07,1.7006376349959593e-06
289,5.2231288442493986e-05,4.738992253240681e-06,3.894399856273572e-06,5.344905439406014e-05,4.411322491367226e-07,1.0960295419277076e-06,7.246991154717013e-07,1.4521688582825167e-05,8.997217269503426e-06,1.2539889447659376e-05,2.3844959573678446e-06,1.1983358383384066e-06,6.892659793689685e-07,8.748562613234192e-07,7.62378454587308e-07,1.747554183417342e-06
290,5.306684495048673e-05,4.666452334193398e-06,3.831366210595968e-06,5.492412215518435e-05,4.4600736930705743e-07,1.0836779080709193e-06,7.092819872704491e-07,1.391840751828491e-05,9.138503505849332e-06,1.2295818072903171e-05,2.267398131728721e-06,1.1766221697703038e-06,6.871618921264054e-07,8.829775844386734e-07,7.833212038119979e-07,1.7929226856987804e-06
291,5.382230961097004e-05,4.595528395742014e-06,3.7646087883122333e-06,5.647182838881554e-05,4.5377198796492657e-07,1.0701047370175264e-06,6.941090166742193e-07,1.3285202143682568e-05,9.2744593040855e-06,1.2093340863525696e-05,2.1515859481691344e-06,1.1567841616023354e-06,6.858913602454423e-07,8.918718764120365e-07,8.044673119305416e-07,1.8357452506595122e-06
292,5.4491543815180615e-05,4.527994853092449e-06,3.6944819422699908e-06,5.8100412649555554e-05,4.643315442720301e-07,1.0560606045863877e-06,6.796251872447689e-07,1.2636500260779637e-05,9.40578460380961e-06,1.1928981477966157e-05,2.0385732385193963e-06,1.13806423438266e-06,6.85431683425055e-07,9.012766937824027e-07,8.258686862190709e-07,1.8755049723463813e-06
293,5.506311920013063e-05,4.465161554746679e-06,3.6216144016453817e-06,5.9809431030769355e-05,4.775405837930026e-07,1.0423131233940338e-06,6.661571302064538e-07,1.198562665654085e-05,9.533334469994449e-06,1.1797919440770045e-05,1.929483791925574e-06,1.120016892385778e-06,6.858013251343588e-07,9.10876092155323e-07,8.475311207396701e-07,1.9121427685311964e-06
294,5.551766298263048e-05,4.4079136508927735e-06,3.5470598431969394e-06,6.15870117921544e-05,4.932141855217256e-07,1.0295871203499726e-06,6.539533668456429e-07,1.1344010259036344e-05,9.658388180342826e-06,1.1694253441178245e-05,1.825150286415019e-06,1.1026587932716631e-06,6.870977849296846e-07,9.202372661310431e-07,8.693515364756641e-07,1.9459240585286562e-06
295,5.5829377075421286e-05,4.3566244179743554e-06,3.4723524632004385e-06,6.340964043854687e-05,5.111053124013421e-07,1.0184852481948967e-06,6.432223536178743e-07,1.0720697926162939e-05,9.782751531836077e-06,1.1611369225210638e-05,1.7261916557633543e-06,1.0863966604705732e-06,6.89504134533145e-07,9.288352755769771e-07,8.91142738067344e-07,1.9772448274976217e-06
296,5.597262510636892e-05,4.311005264633935e-06,3.3994312182310735e-06,6.524354148448832e-05,5.308756134367214e-07,1.009454355944648e-06,6.341293685763383e-07,1.0122316983263125e-05,9.908510941415918e-06,1.154246640387296e-05,1.6330775622510385e-06,1.0718868636478743e-06,6.932543449281489e-07,9.361792166392143e-07,9.127086142800079e-07,2.0064502018188105e-06
297,5.593042192574975e-05,4.270205496516327e-06,3.330467927811974e-06,6.704688127096513e-05,5.520904323354021e-07,1.0028172083599533e-06,6.267807578659741e-07,9.553361675092422e-06,1.003738845304323e-05,1.148109327097005e-05,1.5461672735947485e-06,1.0599598859366855e-06,6.985634093732759e-07,9.419471680218699e-07,9.339603106800859e-07,2.0337237303476757e-06
298,5.569964325655724e-05,4.2331905786221e-06,3.2676302882097703e-06,6.877321675349047e-05,5.742424406744258e-07,9.988318470763927e-07,6.21249044880598e-07,9.01660474257647e-06,1.0169996873339587e-05,1.1421473162388923e-05,1.4656916393649959e-06,1.0515422549306435e-06,7.055632352698492e-07,9.460082778274641e-07,9.550318088348701e-07,2.0590392122532222e-06
299,5.528949575127548e-05,4.199097826217834e-06,3.2128165359416143e-06,7.037638302280356e-05,5.967804704540988e-07,9.97721126755658e-07,6.176148186822199e-07,8.513576166350966e-06,1.0305613358483897e-05,1.1358686562573944e-05,1.3917055653383155e-06,1.047520415699923e-06,7.142818970427105e-07,9.483422673492612e-07,9.76272852518491e-07,2.0822199463409764e-06
300,5.4714190647304155e-05,4.167312978854603e-06,3.167430603432802e-06,7.181626448182411e-05,6.191219760434095e-07,9.996396018343477e-07,6.159630791917639e-07,8.045102979427333e-06,1.0442661381497057e-05,1.1288950980904881e-05,1.3241095443392065e-06,1.0486217734186898e-06,7.246586443852213e-07,9.489720022471104e-07,9.980866394117816e-07,2.103094885395978e-06
301,5.398545022662277e-05,4.1373133503698e-06,3.1322483743866284e-06,7.3064630043596e-05,6.406652572041619e-07,1.0046403745190872e-06,6.163555590121943e-07,7.611825160720957e-06,1.0579247150543859e-05,1.1209957737579768e-05,1.2627539426662016e-06,1.0553810344243253e-06,7.365741728999644e-07,9.479418486332752e-07,1.0207503421672673e-06,2.121567814113047e-06
302,5.311057225837544e-05,4.1085674600487815e-06,3.1073810782349693e-06,7.410985719156471e-05,6.608273619859851e-07,1.0126995899271353e-06,6.188252171104993e-07,7.214539312045215e-06,1.07131079698155e-05,1.1120874528991948e-05,1.207489101938485e-06,1.0681676087120538e-06,7.498725695056333e-07,9.452876876344231e-07,1.04434208352826e-06,2.1375260568957813e-06
303,5.209600921588006e-05,4.080710048407888e-06,3.092366104038081e-06,7.495884833731174e-05,6.79120550057144e-07,1.0237297895301874e-06,6.233666110585115e-07,6.854307616613156e-06,1.0841045678120108e-05,1.102169999200244e-05,1.1581193646365755e-06,1.0872127639972822e-06,7.643769389681759e-07,9.409920415707957e-07,1.0687434823630227e-06,2.1507421286783556e-06
304,5.095179409385428e-05,4.0538756262244635e-06,3.08639875708353e-06,7.563460293774037e-05,6.952600637596071e-07,1.0375271003002474e-06,6.299071589718271e-07,6.532448190629974e-06,1.0958282666967392e-05,1.0912135518742836e-05,1.1143659953104455e-06,1.1126192756204066e-06,7.799275891782831e-07,9.349701372207422e-07,1.093640559061528e-06,2.160888842270109e-06
305,4.969341712315431e-05,4.028827673243945e-06,3.0885838398082624e-06,7.616913601865429e-05,7.092332727276805e-07,1.0537227241082695e-06,6.382947182272539e-07,6.250557531966103e-06,1.1058124727287189e-05,1.0790701863011905e-05,1.0758504610167273e-06,1.1443707492682436e-06,7.964028928202047e-07,9.27095970636965e-07,1.118541628736734e-06,2.1676363075647536e-06
306,4.834119273619294e-05,4.006672229412371e-06,3.0980598612762924e-06,7.659375287535588e-05,7.212505981395738e-07,1.07180432742837e-06,6.483066834965017e-07,6.010566186926104e-06,1.1132197449039091e-05,1.065488142049895e-05,1.0420457530362384e-06,1.1823232597939084e-06,8.13684314517947e-07,9.172357486617705e-07,1.1428741823693913e-06,2.1707565625576024e-06
307,4.6918713591007214e-05,3.988396997678686e-06,3.1140062176230153e-06,7.693144128552918e-05,7.316211522080407e-07,1.0911633688278287e-06,6.596586629458753e-07,5.814738872098902e-06,1.117130265002881e-05,1.0502253178451315e-05,1.0122463146809362e-06,1.226176346945938e-06,8.316510691497087e-07,9.052919168452272e-07,1.1661322052503357e-06,2.170201776878066e-06
308,4.545136765211604e-05,3.974661744963421e-06,3.13566550223707e-06,7.719559373903604e-05,7.40664856947543e-07,1.111099942771706e-06,6.720144897490588e-07,5.665604492417075e-06,1.1166594743299591e-05,1.0331744784854156e-05,9.856501515776964e-07,1.275452034131737e-06,8.502547478539549e-07,8.912506861872907e-07,1.1879777956230915e-06,2.166154536629292e-06
309,4.396430284005266e-05,3.965851387824915e-06,3.1624661759059903e-06,7.739390714272289e-05,7.486749146136031e-07,1.1308156059138166e-06,6.850017188271748e-07,5.5658726806039425e-06,1.1110629661561767e-05,1.0144236843050309e-05,9.615555972388438e-07,1.3294739137627352e-06,8.695650905320751e-07,8.751943213531101e-07,1.208253344621938e-06,2.1590398474970536e-06
310,4.247946607533187e-05,3.962062409068036e-06,3.1941748510666354e-06,7.753245674092186e-05,7.558920498918211e-07,1.1494910922582604e-06,6.982356485100528e-07,5.518355769436316e-06,1.0998077446985191e-05,9.942465883942607e-06,9.395476616191012e-07,1.387362199949717e-06,8.897010114212791e-07,8.572966976083765e-07,1.226935563398634e-06,2.149445622858271e-06
311,4.101417920033771e-05,3.9630256231936236e-06,3.2309101146189125e-06,7.76168862717479e-05,7.624976067233407e-07,1.1664700355997847e-06,7.11368312840891e-07,5.5258341921637535e-06,1.0826046212215952e-05,9.730617979675745e-06,9.19534703562823e-07,1.4480757863758592e-06,9.107121062632407e-07,8.37825787962364e-07,1.244068822877418e-06,2.137951659595903e-06
312,3.958325343573287e-05,3.968270034966084e-06,3.272932818357222e-06,7.765123073626428e-05,7.686205477982748e-07,1.1814414466603113e-06,7.241327116936475e-07,5.590778707233588e-06,1.0593760626634677e-05,9.513920289050805e-06,9.016392569818938e-07,1.5104613741593382e-06,9.3250081397828e-07,8.171527760607947e-07,1.2596781484619638e-06,2.1250083635230208e-06
313,3.8201804194684e-05,3.977509948269562e-06,3.320303458325474e-06,7.763603248674837e-05,7.743379796666824e-07,1.194473246124613e-06,7.363305557336614e-07,5.714954927125007e-06,1.030189210525159e-05,9.298258210066453e-06,8.860605045402888e-07,1.573337674355415e-06,9.548232612101518e-07,7.957497974973271e-07,1.2736859119482523e-06,2.1109083476326746e-06
314,3.688516650476889e-05,3.9909232247211865e-06,3.3725698107751093e-06,7.756674010100789e-05,7.796748960767837e-07,1.2058541719313407e-06,7.477924038555687e-07,5.89911915912997e-06,9.952908075954323e-06,9.08978712684849e-06,8.729981543425981e-07,1.6357215183722051e-06,9.773953228231336e-07,7.741442398361298e-07,1.285907715003665e-06,2.0957231674960796e-06
315,3.564652740310688e-05,4.009130861743257e-06,3.4285851691507833e-06,7.743282936577885e-05,7.845968168155322e-07,1.2158718277817458e-06,7.583806447127485e-07,6.143010091139029e-06,9.55246886066604e-06,8.894612992771063e-06,8.626331228618706e-07,1.6970869339942826e-06,1.0000483398251633e-06,7.528676676595829e-07,1.2961283575688851e-06,2.079272112800447e-06
316,3.44953725439658e-05,4.0329173575958785e-06,3.4865180891443643e-06,7.72182405568177e-05,7.889821285073874e-07,1.2246719895476109e-06,7.680299858376827e-07,6.445591839626474e-06,9.109672607714732e-06,8.718629231974055e-06,8.551040164788089e-07,1.7573742156957525e-06,1.022791116939587e-06,7.324355186629834e-07,1.304154991059536e-06,2.0613145662005445e-06
317,3.343882962621378e-05,4.062906810238312e-06,3.5441356457900705e-06,7.690379645512008e-05,7.925994837404238e-07,1.2322025349776883e-06,7.76743453482366e-07,6.8053075403410075e-06,8.6353367415775e-06,8.567464952000316e-06,8.504779533991234e-07,1.8167278179458952e-06,1.0457286747805697e-06,7.133301780094638e-07,1.3097913324975711e-06,2.0418359437261564e-06
318,3.24848311356709e-05,4.099567652207001e-06,3.599336663434792e-06,7.647131976953043e-05,7.951156567665181e-07,1.2382013966994326e-06,7.84515598267816e-07,7.220126938358309e-06,8.140079743083806e-06,8.446312080338578e-06,8.487603207535894e-07,1.8752655580037622e-06,1.0689277622805216e-06,6.959734329507411e-07,1.312823598790194e-06,2.021127237048467e-06
319,3.164342039716707e-05,4.1436265691071375e-06,3.650681101084962e-06,7.590758517383895e-05,7.961254902822424e-07,1.242235782403552e-06,7.912740453519242e-07,7.687324388069116e-06,7.63355029078582e-06,8.359459064820033e-06,8.499294889324508e-07,1.933057038036004e-06,1.092341765805581e-06,6.806996782791152e-07,1.3131471186117397e-06,1.999636128162676e-06
320,3.0924796587015884e-05,4.196406172822074e-06,3.6976295658881708e-06,7.520600029760395e-05,7.951844872719197e-07,1.2437926157049824e-06,7.969260952620896e-07,8.203208824990168e-06,7.12446341131633e-06,8.309728584478754e-06,8.539545114555548e-07,1.9901988880925504e-06,1.1158279945706324e-06,6.67737460433885e-07,1.3109246925622452e-06,1.977770962920828e-06
321,3.0337396043155215e-05,4.2596655406843425e-06,3.740442288050715e-06,7.436552597953725e-05,7.918344497364657e-07,1.2424032667321494e-06,8.014431496906672e-07,8.763270313569348e-06,6.620679406644226e-06,8.298190777446582e-06,8.607812847049338e-07,2.046859537787165e-06,1.1391769897645663e-06,6.571918803557076e-07,1.3065365813613046e-06,1.955776070284649e-06
322,2.988843805937758e-05,4.335081908095765e-06,3.77985753284156e-06,7.338752151838395e-05,7.856841351078895e-07,1.2377574557752363e-06,8.048619261264377e-07,9.362844299264069e-06,6.129069625320778e-06,8.324235686112391e-06,8.703360652221045e-07,2.1032328452986537e-06,1.162095712338958e-06,6.490478974459129e-07,1.3003991567449307e-06,1.933708188627335e-06
323,2.9584872324338252e-05,4.423795504271048e-06,3.81665882583644e-06,7.227084904077783e-05,7.765891257939376e-07,1.2297118495520107e-06,8.072521616208983e-07,9.997641779278871e-06,5.655327536359141e-06,8.385788987427353e-06,8.82586407006403e-07,2.159407364474774e-06,1.1842184101159663e-06,6.432298132262538e-07,1.2928777077685308e-06,1.9114525212569723e-06
324,2.9432469753326948e-05,4.5262927905390396e-06,3.851242808989333e-06,7.10063550526317e-05,7.647788848351437e-07,1.2181743971510074e-06,8.087638534383569e-07,1.0663454954535402e-05,5.203896921619609e-06,8.479523174591465e-06,8.975663758499355e-07,2.2153118521397795e-06,1.2051895980906807e-06,6.396725889951403e-07,1.2842809311787884e-06,1.8887331559371364e-06
325,2.9433622739551167e-05,4.642514327137393e-06,3.883347805268453e-06,6.957474344845664e-05,7.50771222036735e-07,1.2030264595707252e-06,8.09710973379676e-07,1.1355276054095218e-05,4.778011603734864e-06,8.601087505851919e-06,9.153020676782999e-07,2.270808634111322e-06,1.224712498664104e-06,6.383349797643517e-07,1.274861818783657e-06,1.8652242098277104e-06
326,2.9585732186924526e-05,4.771874600816824e-06,3.912056630831268e-06,6.795121400205008e-05,7.351625375155424e-07,1.1842128611353251e-06,8.105934274906317e-07,1.2066872004053908e-05,4.379799493238266e-06,8.745427506248794e-06,9.357322848697281e-07,2.325731409785731e-06,1.2424837554067732e-06,6.391711262470708e-07,1.264824456767527e-06,1.840777874023063e-06
327,2.988144341999409e-05,4.9131717685250705e-06,3.9360413721821915e-06,6.61146256934117e-05,7.184866847258814e-07,1.1618976669167212e-06,8.120322488922175e-07,1.279141523205258e-05,4.010485780803179e-06,8.907269338840035e-06,9.586873433488733e-07,2.3797405926722186e-06,1.2581016746878793e-06,6.420994658079375e-07,1.2543411664866897e-06,1.8155273103194146e-06
328,3.0310484800059566e-05,5.064572446105633e-06,3.953923674478623e-06,6.405605084113692e-05,7.01205429850924e-07,1.136543979905856e-06,8.146486033161494e-07,1.3522648497370568e-05,3.670637018509364e-06,9.081732681582443e-06,9.838815771749972e-07,2.4321749213464002e-06,1.2710494441025683e-06,6.469788872016264e-07,1.243599136376926e-06,1.7897222961964847e-06
329,3.086201369841534e-05,5.223626039938678e-06,3.964649836282731e-06,6.17834801725497e-05,6.837471200617929e-07,1.108892226842058e-06,8.189531879568459e-07,1.425575543476031e-05,3.3602963665484517e-06,9.264868463793655e-06,1.0109069768553045e-06,2.482070527477922e-06,1.280762979897295e-06,6.536224839079924e-07,1.2328778660631415e-06,1.7635057162738304e-06
330,3.152658282563073e-05,5.3872782612085225e-06,3.9678218851683334e-06,5.93216836590373e-05,6.665039505820342e-07,1.0798435622001675e-06,8.252958077711278e-07,1.498762949440815e-05,3.0791058781395273e-06,9.453974719811843e-06,1.0392577969692382e-06,2.5282924818914367e-06,1.2867789435985809e-06,6.61867484392275e-07,1.222611590434438e-06,1.736884646654547e-06
331,3.2297089216046754e-05,5.552097980930665e-06,3.963900042660808e-06,5.670764628270451e-05,6.498100100653782e-07,1.0502883099051095e-06,8.338741330607701e-07,1.571668901549653e-05,2.826604644233328e-06,9.64773061398396e-06,1.0683589663261577e-06,2.5697020286945224e-06,1.2889099179106832e-06,6.716423864544882e-07,1.2133681936531478e-06,1.7098652656470932e-06
