,EMG1,EMG2,EMG3,EMG4,EMG5,EMG6,EMG7,EMG8,EMG9,EMG10,EMG11,EMG12,EMG13,EMG14,EMG15,EMG16
0,1.4297862018020284e-07,8.982324992463071e-08,9.943211175355402e-07,5.594954622549028e-07,2.653778825728695e-08,2.9280018600290417e-07,4.6715574397674553e-08,6.143305715913017e-08,2.63768894544286e-06,2.133826050939078e-07,3.7832133055133096e-07,1.3234086890322737e-07,2.5532166399640147e-07,1.3947747152488407e-07,1.304962700021229e-07,5.663357279135588e-07
1,1.9199768592935057e-07,1.4236033748340537e-07,1.2574416596541689e-06,1.0986685591626553e-06,1.1530241032803324e-07,3.337632236169889e-07,1.190498413565756e-07,1.105034546248133e-07,3.5514643007852837e-06,3.167120227074798e-07,4.3877976466260535e-07,2.597511920326119e-07,3.595976056420789e-07,1.894125111941758e-07,2.2012044005961441e-07,6.461035945270949e-07
2,2.4017167974782725e-07,1.9592411863774694e-07,1.5138935182284467e-06,1.6555589861055528e-06,2.0117458509654863e-07,3.7666703373270714e-07,1.8941048573054428e-07,1.5860793347367618e-07,4.437238163323212e-06,4.17113865248867e-07,5.004606814311992e-07,3.845084221180864e-07,4.64987171700176e-07,2.3964445265785994e-07,3.0656201731186136e-07,7.270234646408683e-07
3,2.871002684515938e-07,2.5005645124883705e-07,1.7600175103677267e-06,2.2269565442526114e-06,2.833994152696576e-07,4.210677880855092e-07,2.5697507140513816e-07,2.0521135384549183e-07,5.272455575600826e-06,5.130050746490677e-07,5.620891531014483e-07,5.052927543497534e-07,5.694919359450405e-07,2.8969713794632204e-07,3.8894893583763914e-07,8.070661766877317e-07
4,3.3248032341444335e-07,3.04305500944301e-07,1.9926570816453756e-06,2.8095609701475165e-06,3.612603234654063e-07,4.6650637742333113e-07,3.2093871402315185e-07,2.49893983525783e-07,6.037305615342281e-06,6.031196403656297e-07,6.224756515463795e-07,6.211077157702148e-07,6.712242752181898e-07,3.3925009966932e-07,4.6670877610550566e-07,8.844038646754124e-07
5,3.7610539566512904e-07,3.582360914385216e-07,2.209351810033743e-06,3.4001834127015195e-06,4.3405882075774653e-07,5.125552846395206e-07,3.805194835848166e-07,2.9239299744441167e-07,6.7165600446103166e-06,6.865458572304028e-07,6.806757954224508e-07,7.312297570615183e-07,7.684826148853022e-07,3.8811203150119824e-07,5.395096310727363e-07,9.575388876903186e-07
6,4.1784119120543923e-07,4.1148060403098277e-07,2.4083774628238067e-06,3.996086724566357e-06,5.011229876436575e-07,5.5887038200427e-07,4.349901423688854e-07,3.3257976092253223e-07,7.300840916110763e-06,7.626675156414125e-07,7.360827116748251e-07,8.351182019401029e-07,8.598772632944694e-07,4.361959421533976e-07,6.071507089816283e-07,1.0252879175803381e-06
7,4.5759656781885233e-07,4.637907402986962e-07,2.588652643105866e-06,4.595304180185282e-06,5.618745688689081e-07,6.052104634118548e-07,4.837578475511223e-07,3.704007364756496e-07,7.786702824821602e-06,8.311231375004778e-07,7.883494906966296e-07,9.324083646142433e-07,9.4444820988826e-07,4.8350109490529e-07,6.694766673786545e-07,1.0867671013664e-06
8,4.952965783803411e-07,5.150228412043861e-07,2.7495846025914557e-06,5.196709253220107e-06,6.159233461176731e-07,6.514129653614542e-07,5.264677082202407e-07,4.058671078576842e-07,8.175467918826257e-06,8.918193091835866e-07,8.372655279246468e-07,1.0228973774473165e-06,1.0216758120456632e-06,5.300672762145207e-07,7.263466590684573e-07,1.141485612498149e-06
9,5.308771935187775e-07,5.650886001802437e-07,2.890932716184328e-06,5.799763061222968e-06,6.631390905156281e-07,6.973334083275613e-07,5.630638960321873e-07,4.3908407173986643e-07,8.471360020748205e-06,9.449245565073778e-07,8.827169772125091e-07,1.1064845481520909e-06,1.091353161038129e-06,5.759417974608533e-07,7.776923344462436e-07,1.1893562327238784e-06
10,5.643053687832493e-07,6.139273409985374e-07,3.012755637511741e-06,6.404067116713706e-06,7.036577505634226e-07,7.427828529483172e-07,5.937484560597667e-07,4.7025772122079266e-07,8.679774455984614e-06,9.908149316325798e-07,9.246374309367518e-07,1.1831682101261662e-06,1.1533860550742498e-06,6.211851752218902e-07,8.236202158842354e-07,1.2305198724424453e-06
11,5.955661734503355e-07,6.614890817594774e-07,3.1154262530451533e-06,7.008849486608511e-06,7.377993952395803e-07,7.875172743840206e-07,6.188650155363271e-07,4.996526926993098e-07,8.806258047453372e-06,1.0299978025372755e-06,9.629074747397405e-07,1.2530911478530756e-06,1.207676655651856e-06,6.658722742702567e-07,8.644709052178927e-07,1.265237333879764e-06
12,6.246043015136918e-07,7.077213487921888e-07,3.199565641901814e-06,7.612438546690875e-06,7.659417228731867e-07,8.312637827715188e-07,6.38820592895596e-07,5.275255703463325e-07,8.856252176483674e-06,1.0630182249982026e-06,9.973247821267376e-07,1.31653758748189e-06,1.2541694304086126e-06,7.100782096141629e-07,9.007949608372381e-07,1.2940184928503317e-06
13,6.513091987134747e-07,7.525511873967983e-07,3.2658021082028895e-06,8.211832873853376e-06,7.884223812552253e-07,8.737296132624858e-07,6.540766693270198e-07,5.540873873192064e-07,8.835399396592861e-06,1.0904000892936472e-06,1.027686856399629e-06,1.373856920353321e-06,1.2929155950656775e-06,7.538515789216961e-07,9.332477182137742e-07,1.3177846185652924e-06
14,6.755862962599639e-07,7.958467780898246e-07,3.31457860149215e-06,8.802480590780188e-06,8.055072379909204e-07,9.146204835815761e-07,6.651255294109378e-07,5.79511779948537e-07,8.750156731343674e-06,1.112657407961865e-06,1.0539059032596123e-06,1.4253472223209013e-06,1.3240339940991622e-06,7.971690631841497e-07,9.624541345851839e-07,1.337876930550277e-06
15,6.974256127361653e-07,8.373847571313739e-07,3.3462667895767987e-06,9.378181865971627e-06,8.174429233903101e-07,9.5368859178958e-07,6.724518906461142e-07,6.039550894237657e-07,8.608288380924835e-06,1.130277093311247e-06,1.0760780094029288e-06,1.4711705954160316e-06,1.3476642988540408e-06,8.399110298154588e-07,9.88916056279359e-07,1.3559568799026068e-06
16,7.168938257596912e-07,8.768477793622728e-07,3.361455019160404e-06,9.931029422826717e-06,8.245549433478872e-07,9.907387405681436e-07,6.765527890389458e-07,6.275555633691289e-07,8.41881414431306e-06,1.1436359524406165e-06,1.0944952476849016e-06,1.5113742610941233e-06,1.363985407405847e-06,8.818787197840288e-07,1.0129903472490956e-06,1.3738544432430247e-06
17,7.341206007739006e-07,9.138597727513446e-07,3.3611635783212672e-06,1.0451686121151372e-05,8.272768870556738e-07,1.025577802585728e-06,6.779736461768498e-07,6.504256218028066e-07,8.191418699149848e-06,1.1529424724884936e-06,1.1096206641748625e-06,1.5459784174180737e-06,1.3732119561927733e-06,9.228185881873085e-07,1.03491245483535e-06,1.3933947583279452e-06
18,7.49326477697959e-07,9.480658387602858e-07,3.3469686117720473e-06,1.093035581830887e-05,8.260977402457195e-07,1.057992666660042e-06,6.772765130894521e-07,6.726772038926152e-07,7.935720763180715e-06,1.1582648176226098e-06,1.1220165361430578e-06,1.5750073853803374e-06,1.3755571615258897e-06,9.62455481195503e-07,1.054822865756887e-06,1.4162752261719564e-06
19,7.627948761962092e-07,9.792150793179752e-07,3.3210533674933986e-06,1.1358267234737606e-05,8.215500261136137e-07,1.0878005994523124e-06,6.749789708258692e-07,6.944599240486838e-07,7.660716367541655e-06,1.1596527750183416e-06,1.1322201141495846e-06,1.5984315565132223e-06,1.3712903320032242e-06,1.0005565075100918e-06,1.0727790603693296e-06,1.4440063483332776e-06
20,7.747673940796065e-07,1.0071625435903924e-06,3.2860935170757657e-06,1.1729083521873429e-05,8.142684898563007e-07,1.1149334551910902e-06,6.71546937601783e-07,7.159461223004935e-07,7.374391657382051e-06,1.1572887542696133e-06,1.1406385482315928e-06,1.616155144611942e-06,1.3608842855715406e-06,1.0369679380194376e-06,1.0887565655557522e-06,1.4778650934399084e-06
21,7.853898361888156e-07,1.0317874529620052e-06,3.24493386083837e-06,1.2039651080903156e-05,8.050078809085979e-07,1.1394810839765474e-06,6.674424488333898e-07,7.372718886029367e-07,7.083442542414665e-06,1.1515584088301266e-06,1.1475415942755984e-06,1.6281500237435518e-06,1.3450609001065784e-06,1.0715577497794297e-06,1.1026390009318246e-06,1.5188567121147644e-06
22,7.947654906165813e-07,1.052959901855928e-06,3.2001961162722086e-06,1.2289726943572072e-05,7.945692044310742e-07,1.1616306644940928e-06,6.631602024075487e-07,7.584985524138774e-07,6.79320811289912e-06,1.1430126752370587e-06,1.1531172489538073e-06,1.6345938090795869e-06,1.3246507371521406e-06,1.1041121312183365e-06,1.114194780220545e-06,1.567710486351809e-06
23,8.030348658809522e-07,1.0706386229096548e-06,3.1540235725211067e-06,1.2480804312712848e-05,7.837254935396726e-07,1.1815298205880969e-06,6.592084828937223e-07,7.796034792419213e-07,6.507878527328698e-06,1.132276122978635e-06,1.1575320705645273e-06,1.6358242530235963e-06,1.300416340332367e-06,1.1342986508215096e-06,1.123069865149837e-06,1.6249036900967339e-06
24,8.104034654699722e-07,1.084985302889577e-06,3.108058106529241e-06,1.2614559652279042e-05,7.73207389012342e-07,1.199183206589178e-06,6.560620504454145e-07,8.004916788438549e-07,6.230809866253962e-06,1.1199525075486544e-06,1.160977911599687e-06,1.6321701458414762e-06,1.2730294494487044e-06,1.1617375886502443e-06,1.1288476616754602e-06,1.6906765979317853e-06
25,8.171251446643083e-07,1.0963558798692304e-06,3.0636015254053532e-06,1.2691589089583697e-05,7.63694850712143e-07,1.2144339087520993e-06,6.541181806379397e-07,8.210491447690256e-07,5.964743500806971e-06,1.1065705991305984e-06,1.1636404526435445e-06,1.623915781843822e-06,1.2432046628347543e-06,1.1860769713051967e-06,1.131178948898599e-06,1.7650243419383737e-06
26,8.234669653958328e-07,1.1051875513331756e-06,3.021794278911635e-06,1.2711226718669389e-05,7.55788810544241e-07,1.2269916670486398e-06,6.536551760014463e-07,8.411989170018265e-07,5.711871940911759e-06,1.0926079853004464e-06,1.1655803268352184e-06,1.611522929051721e-06,1.21178356675141e-06,1.2069673177949728e-06,1.1299374446963213e-06,1.8476865709982852e-06
27,8.296497794353486e-07,1.111883030637537e-06,2.983620041365994e-06,1.2672707551163704e-05,7.49983135336045e-07,1.2364838408088061e-06,6.548071818293167e-07,8.608971379781173e-07,5.473830115451765e-06,1.0785356671558196e-06,1.1666417673092386e-06,1.595889175975978e-06,1.1796296681222465e-06,1.2240529228638743e-06,1.1253439413159646e-06,1.9381379959706396e-06
28,8.357846104517211e-07,1.1167399798554668e-06,2.9497489337165702e-06,1.257681288988958e-05,7.466325379836982e-07,1.2425374838399343e-06,6.575687314979797e-07,8.801028288442723e-07,5.251699610691751e-06,1.0647815081630303e-06,1.1664587684640837e-06,1.5783335294835236e-06,1.147456736373417e-06,1.2371206128441043e-06,1.118003851230334e-06,2.0356101407710363e-06
29,8.418533221598939e-07,1.1199227882776057e-06,2.9204626188927706e-06,1.2426979532503208e-05,7.45922787449458e-07,1.24487376212017e-06,6.618274644192692e-07,8.98759010106648e-07,5.0459882262945785e-06,1.0516458775469272e-06,1.1645381109974728e-06,1.560307314998807e-06,1.1157692094964214e-06,1.2462968121446325e-06,1.1088308629668604e-06,2.139142898644878e-06
30,8.477566512490412e-07,1.1214735871886774e-06,2.895758388843773e-06,1.2229612732735836e-05,7.478618943655553e-07,1.2433528461118847e-06,6.674218645569953e-07,9.16764164295651e-07,4.856613115709157e-06,1.039265845690677e-06,1.1603825889053705e-06,1.5431125891615918e-06,1.0849338045040843e-06,1.2521126871658152e-06,1.0988805243183942e-06,2.2475451673245793e-06
31,8.533971784002854e-07,1.1213323065717896e-06,2.875430136622679e-06,1.1993774999442832e-05,7.522930139412274e-07,1.2379273408576851e-06,6.741884435712522e-07,9.339412180844756e-07,4.683156146659106e-06,1.0276141677956269e-06,1.1536053206469617e-06,1.527849339748883e-06,1.0552732873958753e-06,1.2553914783783462e-06,1.089175891320118e-06,2.3592503135345177e-06
32,8.58707346246474e-07,1.1193388279302761e-06,2.8590413076378964e-06,1.1730467588017872e-05,7.589266082830493e-07,1.2285885807836641e-06,6.819588563863147e-07,9.500292685978189e-07,4.525411066629488e-06,1.0164998542969884e-06,1.1439920107433068e-06,1.5155200686837704e-06,1.0270655803019295e-06,1.257027710475965e-06,1.0806033490327794e-06,2.4722538647175745e-06
33,8.635864162703235e-07,1.1152868231784632e-06,2.8459703453416014e-06,1.1451750080427353e-05,7.673924035162312e-07,1.215451783478977e-06,6.905326565923901e-07,9.646996001774046e-07,4.38368429325532e-06,1.0056302637122985e-06,1.131529872777284e-06,1.5070797867936526e-06,1.0004703217441127e-06,1.257789017999262e-06,1.0738737204724125e-06,2.5843000247098154e-06
34,8.678358064268011e-07,1.1090817379162106e-06,2.835545067801203e-06,1.116996347589436e-05,7.773081973312845e-07,1.1989300779480444e-06,6.996555538183145e-07,9.775769849635795e-07,4.2584900842051e-06,9.947732593195037e-07,1.1164541515379915e-06,1.503411821362424e-06,9.755287871704245e-07,1.2582304574300091e-06,1.0695057309684464e-06,2.693258646311178e-06
35,8.711611216663918e-07,1.1008772131178061e-06,2.827041291897415e-06,1.0897228069949974e-05,7.883413914478466e-07,1.1797668653408548e-06,7.08997520694442e-07,9.88282052718178e-07,4.150027482743824e-06,9.839042480251367e-07,1.0992871336780573e-06,1.5053580990784668e-06,9.522798831390954e-07,1.258709482458852e-06,1.0678189675462283e-06,2.797351598842804e-06
36,8.731996035825788e-07,1.091038666254045e-06,2.8195243212497793e-06,1.064518236699706e-05,8.002116870371615e-07,1.1588554713409947e-06,7.181592178824895e-07,9.965597164691532e-07,4.057973172756687e-06,9.731943101865236e-07,1.0807759752178167e-06,1.5137800160609793e-06,9.308557941129286e-07,1.2594405877997642e-06,1.0689349436010606e-06,2.8950239416521524e-06
37,8.735446828813563e-07,1.0799815554672822e-06,2.8117933378528396e-06,1.0424775342025347e-05,8.126326608287008e-07,1.1370128409141818e-06,7.267469107222709e-07,1.0024414078036772e-06,3.981581731472149e-06,9.629055677118847e-07,1.061731713181148e-06,1.5295247542317528e-06,9.114431409995683e-07,1.2605193975609325e-06,1.0728027149381212e-06,2.9848142974340526e-06
38,8.718026573343323e-07,1.0680644349819597e-06,2.8025589730221264e-06,1.0245947785427506e-05,8.252905360559696e-07,1.1148568621339181e-06,7.344986610208817e-07,1.0062615924873171e-06,3.919743298948898e-06,9.533332180033768e-07,1.0429050282463193e-06,1.5532987982998002e-06,8.941766444294679e-07,1.2618856389690484e-06,1.079267657913906e-06,3.0655878752521605e-06
39,8.676809394382376e-07,1.0556119625686129e-06,2.7906951645440154e-06,1.011719598508878e-05,8.379260869941798e-07,1.0928027506449787e-06,7.413913698797171e-07,1.0084901480901141e-06,3.8708481445228315e-06,9.447734928837131e-07,1.0249609899579585e-06,1.5855439729354087e-06,8.790929174876483e-07,1.263286609455229e-06,1.0881405708986295e-06,3.136915237811172e-06
40,8.610499791782165e-07,1.0429599189482912e-06,2.7753590472880635e-06,1.0045160716773853e-05,8.504366475863761e-07,1.0711444989019502e-06,7.476462502843576e-07,1.009561348303655e-06,3.832615355327919e-06,9.374820522832224e-07,1.0084704709734272e-06,1.6263687053572157e-06,8.661441678094338e-07,1.2643237259217202e-06,1.099205842367144e-06,3.1991627095015396e-06
41,8.51954651883113e-07,1.030426385844573e-06,2.755927275894233e-06,1.0034406179528663e-05,8.628873254185788e-07,1.0501523085655058e-06,7.536147865729699e-07,1.0098516417872816e-06,3.8020745347653876e-06,9.316508136629471e-07,9.938891486009597e-07,1.6755234079628202e-06,8.552205599405389e-07,1.2645783051008241e-06,1.1121641317240515e-06,3.2531600999217783e-06
42,8.40608858525676e-07,1.0182781830472399e-06,2.7318757509517715e-06,1.0087441080598032e-05,8.754390673412046e-07,1.0300879315647256e-06,7.596301719414939e-07,1.0097341833116146e-06,3.7758499608468562e-06,9.274136949758206e-07,9.815723363145492e-07,1.7324010012026692e-06,8.462251731183332e-07,1.2637392303348815e-06,1.1265666747016643e-06,3.299744517204967e-06
43,8.273707309708498e-07,1.0067624900687843e-06,2.702763468809436e-06,1.020490497682463e-05,8.882668935809477e-07,1.011131574463438e-06,7.6591850679564e-07,1.0095727239085274e-06,3.750835678340623e-06,9.248661141620342e-07,9.717860147370021e-07,1.7960547761164631e-06,8.391939820813821e-07,1.2616714288407812e-06,1.1418266067642776e-06,3.339555268920756e-06
44,8.126595391608691e-07,9.961291037716683e-07,2.6683184365301866e-06,1.0385805967206494e-05,9.014957258659197e-07,9.93316263115248e-07,7.725908416994165e-07,1.0097021415418335e-06,3.7249960648025807e-06,9.240604760880657e-07,9.64665392828047e-07,1.8652083703780846e-06,8.343087740323524e-07,1.2584060775938931e-06,1.157342726328026e-06,3.3730581367746465e-06
45,7.968645033625618e-07,9.86580102190815e-07,2.6285165139859705e-06,1.0627738748875839e-05,9.151530822166507e-07,9.76548660843058e-07,7.797070565750937e-07,1.010501144957271e-06,3.697868977352537e-06,9.249963156848972e-07,9.601906912731441e-07,1.9382879465074217e-06,8.317742339240493e-07,1.2540847298238496e-06,1.1726632452964503e-06,3.4005765260196934e-06
46,7.803258634300966e-07,9.782195636858605e-07,2.5836298583406942e-06,1.092704595160563e-05,9.291464209743514e-07,9.607065584835667e-07,7.873770604550934e-07,1.012496428939295e-06,3.670719177761856e-06,9.276401146685352e-07,9.582318752298173e-07,2.013552615842911e-06,8.317159342740359e-07,1.2489430009023899e-06,1.187555663324645e-06,3.4222356010232785e-06
47,7.633608158375882e-07,9.710867680138149e-07,2.534265741020068e-06,1.1278866732850224e-05,9.432597691312954e-07,9.457038723950652e-07,7.958029458186032e-07,1.0163833813810796e-06,3.646492216151746e-06,9.319307161015496e-07,9.586294194923393e-07,2.089237459158596e-06,8.341572684926708e-07,1.243327772502358e-06,1.2019443741386135e-06,3.437813024847159e-06
48,7.462766865662001e-07,9.652348091858217e-07,2.481301661950162e-06,1.167701831193907e-05,9.571905511258105e-07,9.314482501661708e-07,8.052117553461579e-07,1.0229445585132239e-06,3.629513526136044e-06,9.377602514330713e-07,9.61283428343979e-07,2.1635895336431178e-06,8.390112870377735e-07,1.237638424460931e-06,1.2158445923424673e-06,3.4466244353787423e-06
49,7.293604628397812e-07,9.607520426283245e-07,2.42565297243121e-06,1.2113737027613184e-05,9.70645885194819e-07,9.177878971116133e-07,8.157582462433939e-07,1.0329173577404597e-06,3.62486933864109e-06,9.449647492179548e-07,9.661991860281575e-07,2.2349226163540427e-06,8.460605825747891e-07,1.232222214970863e-06,1.2293846054490719e-06,3.4476745470983623e-06
50,7.128485743859182e-07,9.5769434279651e-07,2.3680612136346577e-06,1.2579333896464134e-05,9.834263192842232e-07,9.045451577662174e-07,8.274833553377977e-07,1.0468838615138207e-06,3.637697097793412e-06,9.533082417210717e-07,9.734216289466842e-07,2.3017845853567563e-06,8.549349062188499e-07,1.2273562462186692e-06,1.242865915266048e-06,3.4400789129698333e-06
51,6.969077758913822e-07,9.559973303776834e-07,2.309077967945026e-06,1.3061833732071838e-05,9.954430884081378e-07,8.915587717305633e-07,8.403376544723387e-07,1.0652195095019472e-06,3.6726899540816076e-06,9.62462721450643e-07,9.829225337626495e-07,2.363046093490173e-06,8.651231382358502e-07,1.2232847921749198e-06,1.2568029762259147e-06,3.4234157795240507e-06
52,6.816707423410908e-07,9.554453252898108e-07,2.249160577061474e-06,1.3546919457307033e-05,1.0067211964380446e-06,8.78663610735001e-07,8.542503592472483e-07,1.0880787015256137e-06,3.7338907047599195e-06,9.72047617255763e-07,9.94562576495852e-07,2.4177557387697972e-06,8.760691582228236e-07,1.2202041917305816e-06,1.271877780305371e-06,3.397664871407093e-06
53,6.672959178279929e-07,9.557009046615623e-07,2.1887841175763297e-06,1.40186095035069e-05,1.0174140173789874e-06,8.656741183844064e-07,8.69209652071054e-07,1.1153974994515625e-06,3.824642436118078e-06,9.817325921792524e-07,1.0081039636381652e-06,2.464906948519557e-06,8.872979629663794e-07,1.2182129739234023e-06,1.2887722270082901e-06,3.3628414095185006e-06
54,6.539651305528028e-07,9.56365185418255e-07,2.1285522610140563e-06,1.4460638916796877e-05,1.027775220558083e-06,8.524030906540404e-07,8.853068220216662e-07,1.1469189038792368e-06,3.947548253864409e-06,9.912879881873622e-07,1.0232007864074323e-06,2.503409830477711e-06,8.984409817580786e-07,1.2172788766201577e-06,1.3079848187675495e-06,3.3188187890322327e-06
55,6.418101553803755e-07,9.570609603613438e-07,2.0692373599170505e-06,1.4858107055489012e-05,1.0380720729345158e-06,8.386843926311357e-07,9.027095689511045e-07,1.1822324780414294e-06,4.104419913499446e-06,1.0005215729013298e-06,1.039412286457453e-06,2.532353526362816e-06,9.091841063250191e-07,1.2172278999385272e-06,1.3297577018278254e-06,3.265537965441096e-06
56,6.308460908592168e-07,9.57522241797643e-07,2.0117089866008953e-06,1.519904919784121e-05,1.048500150623941e-06,8.244262659949465e-07,9.215893966377335e-07,1.2207934085023965e-06,4.2963251966002814e-06,1.0092108535593502e-06,1.0563012023128358e-06,2.551293688932162e-06,9.192674861610853e-07,1.21776885540515e-06,1.3541297301155733e-06,3.2032680240091343e-06
57,6.209654584569048e-07,9.576429457099165e-07,1.9568380047906848e-06,1.54757732839659e-05,1.059140944593077e-06,8.096766749363512e-07,9.420804316375922e-07,1.2619028984158418e-06,4.5238293102649125e-06,1.0171034300473586e-06,1.0735427324166947e-06,2.560271323683998e-06,9.28516622392441e-07,1.218556551331973e-06,1.3810391965689784e-06,3.1326365731218146e-06
58,6.119874811258384e-07,9.574530063968666e-07,1.905489585923804e-06,1.5685755540162904e-05,1.0699661819061115e-06,7.946058447516732e-07,9.64277021558646e-07,1.304696984118519e-06,4.787368424926913e-06,1.023921916892747e-06,1.0909084552364076e-06,2.5595674080350413e-06,9.368167916375341e-07,1.2192488774157332e-06,1.4103550788593956e-06,3.054525159289424e-06
59,6.037297465575397e-07,9.57033372438677e-07,1.858569901003883e-06,1.5831775202146762e-05,1.0809029958713158e-06,7.794448057102399e-07,9.88215518018048e-07,1.3482089210991407e-06,5.087586560492869e-06,1.0293684435572105e-06,1.1081410936947963e-06,2.549425748658727e-06,9.440393735907667e-07,1.2195084196076304e-06,1.4418210135125458e-06,2.9700164998089387e-06
60,5.960671488802302e-07,9.564213865509034e-07,1.8169723632553482e-06,1.5921066942973184e-05,1.0919337909017028e-06,7.644922310368013e-07,1.0138475465740285e-06,1.391493028153529e-06,5.42550516807575e-06,1.033185028684863e-06,1.1248468753666606e-06,2.5299073728841645e-06,9.499982665807955e-07,1.2189746437142115e-06,1.4750464412022942e-06,2.8804231050666757e-06
61,5.889452435829307e-07,9.555877332227573e-07,1.7814157386623911e-06,1.596355063506863e-05,1.1031528228929075e-06,7.501392510429269e-07,1.0410220289599087e-06,1.4337167410193485e-06,5.80250992583262e-06,1.0352450503397633e-06,1.1404500908847394e-06,2.5008558536417565e-06,9.54516414428804e-07,1.2172978757696112e-06,1.5095910156999425e-06,2.787298277930157e-06
62,5.823388538720451e-07,9.5450844815037e-07,1.752375782571698e-06,1.5969578218226814e-05,1.114751704090454e-06,7.368192196953713e-07,1.0694524606189499e-06,1.4741458591728968e-06,6.220234603464987e-06,1.0355826907184427e-06,1.1542108967487939e-06,2.462025763169471e-06,9.575695400656779e-07,1.2142476922024343e-06,1.5449935745676228e-06,2.6923372600289635e-06
63,5.762012505827522e-07,9.532431297415399e-07,1.7302020836330604e-06,1.594816153847087e-05,1.1269616357491604e-06,7.249304846153308e-07,1.098680321851951e-06,1.5120960901091386e-06,6.680410993152487e-06,1.0343230671207402e-06,1.1653315349100792e-06,2.41350115697529e-06,9.593539896222805e-07,1.209779073997554e-06,1.5806703681679762e-06,2.597167792138448e-06
64,5.704528097802223e-07,9.519313366433113e-07,1.7152365867571217e-06,1.590661027774826e-05,1.1399741492123408e-06,7.147955572738573e-07,1.1280785924494877e-06,1.5470058326120499e-06,7.184671192968113e-06,1.0316530968077877e-06,1.1731079922621002e-06,2.3561424322575136e-06,9.60197747877252e-07,1.203974750412769e-06,1.6158430248616293e-06,2.5031502235193934e-06
65,5.650201655111073e-07,9.507185915639375e-07,1.7077893725374955e-06,1.5851344782506467e-05,1.1538673642447636e-06,7.066377937234251e-07,1.1569162854688376e-06,1.5786051968209429e-06,7.734252914745281e-06,1.027947135469075e-06,1.1770321451279119e-06,2.2915721199614544e-06,9.60412249468852e-07,1.196931154823664e-06,1.6496085643749364e-06,2.4113461909547892e-06
66,5.599080663655083e-07,9.496851514044179e-07,1.7080664676340158e-06,1.5788698931311324e-05,1.1685789479480983e-06,7.005554370823149e-07,1.1844580047287596e-06,1.6069849095289903e-06,8.32960312276654e-06,1.0238697662687228e-06,1.176835620883027e-06,2.221751342747943e-06,9.602425398956511e-07,1.1887051703557789e-06,1.6810222260655492e-06,2.3226527903904333e-06
67,5.552331908137737e-07,9.488301321186271e-07,1.716132875598725e-06,1.5724948819733184e-05,1.1839439957556614e-06,6.965033153705832e-07,1.2100505331351054e-06,1.6324635519716873e-06,8.969936824633805e-06,1.0202730788870544e-06,1.1724900050144843e-06,2.148655081814883e-06,9.599250404913355e-07,1.1793444738281356e-06,1.7091315986432052e-06,2.2379182468340912e-06
68,5.511800890939488e-07,9.480862369724658e-07,1.7318858338727892e-06,1.566568557423363e-05,1.1997713750913624e-06,6.942860013523501e-07,1.2331801567707154e-06,1.6553304914252887e-06,9.652890128697994e-06,1.0180005521380424e-06,1.164124118849072e-06,2.0742263633229453e-06,9.59709351633367e-07,1.168916687539011e-06,1.7331086540358206e-06,2.157912989000699e-06
69,5.479510100949902e-07,9.473145405166532e-07,1.7550688796996607e-06,1.561504753663216e-05,1.2159108059124144e-06,6.935646991276832e-07,1.2535053460453055e-06,1.675640101011314e-06,1.03744548755399e-05,1.0177657338387497e-06,1.1519363589016874e-06,2.0003757546210986e-06,9.59787379937398e-07,1.1574938652410971e-06,1.7524631746940327e-06,2.0832456625565435e-06
70,5.457580963740065e-07,9.462963948712118e-07,1.7853600962017634e-06,1.5575261497284925e-05,1.23228385877732e-06,6.939102288256542e-07,1.270839224151419e-06,1.6932101778544402e-06,1.1129132564077872e-05,1.0201077887361219e-06,1.1362394070532448e-06,1.92886920874334e-06,9.60222235485514e-07,1.1451594960512274e-06,1.7671205792869625e-06,2.014389161268958e-06
71,5.448196336952906e-07,9.447461826068332e-07,1.8224680242802353e-06,1.554664776852356e-05,1.2488788083217633e-06,6.949127177057332e-07,1.2850517106931905e-06,1.7077949186920358e-06,1.1909899622147224e-05,1.0253710985551674e-06,1.1175640928570346e-06,1.8611878136774036e-06,9.6096482422987e-07,1.1320378083647701e-06,1.7773262855287585e-06,1.951797878273056e-06
72,5.453420679617368e-07,9.423216754706019e-07,1.8661684578101909e-06,1.5527976652577793e-05,1.265706497931749e-06,6.962654466530625e-07,1.295943639488505e-06,1.7192214003602231e-06,1.2707748358657551e-05,1.033700287836844e-06,1.0966618478544515e-06,1.7985127574857645e-06,9.619514342726663e-07,1.1182501006011511e-06,1.7834971965777958e-06,1.8959631046967248e-06
73,5.475056025534336e-07,9.386544467753628e-07,1.9162863015418003e-06,1.5516983236391236e-05,1.2827187200564335e-06,6.977442928288766e-07,1.3031987087847911e-06,1.7273509222476828e-06,1.3511066181476696e-05,1.045053165963656e-06,1.0743922288391763e-06,1.7418496757806816e-06,9.63174145107803e-07,1.1038142593371908e-06,1.786101497123753e-06,1.8473802352426915e-06
74,5.514543806880311e-07,9.334462681037371e-07,1.972641193276571e-06,1.5510918336219432e-05,1.2997352545297065e-06,6.991505113819955e-07,1.3064290573007953e-06,1.7319893490344822e-06,1.4305252112788555e-05,1.059229632825874e-06,1.0515832290250934e-06,1.6921368244729369e-06,9.64640296528542e-07,1.088592102263263e-06,1.7856359783517643e-06,1.8064946101513787e-06
75,5.57281161987267e-07,9.265902458723777e-07,2.0349541760218333e-06,1.550711063098257e-05,1.3164506090592145e-06,7.003318363076408e-07,1.3052393497323554e-06,1.7329439167238788e-06,1.5072716698797112e-05,1.0759048325314764e-06,1.0289607645325245e-06,1.6502349279274486e-06,9.662972638074738e-07,1.0723363905554236e-06,1.7826789799897546e-06,1.7736615578504495e-06
76,5.650082607825918e-07,9.182177635461742e-07,2.1027243696371365e-06,1.55035030758669e-05,1.3325296290503713e-06,7.012431785127657e-07,1.2992768695568778e-06,1.730183200340703e-06,1.5793051611876325e-05,1.0946517338984324e-06,1.0071731341113372e-06,1.616864396094e-06,9.680321280486874e-07,1.0548204558870352e-06,1.7778679117274585e-06,1.7491449107035108e-06
77,5.745842742662202e-07,9.086239540077552e-07,2.1751378028097417e-06,1.5499041463103203e-05,1.3476852824600327e-06,7.019212270274195e-07,1.288296405007062e-06,1.7239067559242018e-06,1.6443113421457246e-05,1.11498828055929e-06,9.868381778073674e-07,1.5925954650254383e-06,9.697320409106648e-07,1.0359719841767e-06,1.7717492326328153e-06,1.733119818807657e-06
78,5.859100021687706e-07,8.981475259498739e-07,2.251107671895119e-06,1.5493797409313367e-05,1.3616478522600753e-06,7.023777304093577e-07,1.2722408850048264e-06,1.7144960100193992e-06,1.6997651792121466e-05,1.1364482712399707e-06,9.685451135400136e-07,1.5778945970086384e-06,9.71331229187032e-07,1.0159358694828125e-06,1.7646371428637683e-06,1.7256370930609068e-06
79,5.988721065779146e-07,8.871266108021628e-07,2.3294694985014333e-06,1.5488805568916574e-05,1.3741431403565267e-06,7.025203442631897e-07,1.2512856317618763e-06,1.702462896234476e-06,1.7431829615264198e-05,1.1586078490294761e-06,9.528059730416144e-07,1.5731366050028536e-06,9.727962110914128e-07,9.950415935768225e-07,1.7565979843621025e-06,1.7265715652204077e-06
80,6.133649737684778e-07,8.759174552024841e-07,2.4092220882946813e-06,1.5485678541671325e-05,1.3850044266246727e-06,7.021468069660491e-07,1.2258141390770695e-06,1.6884418024628019e-06,1.7725429739793593e-05,1.1811135996409838e-06,9.40011288591102e-07,1.5785959899209643e-06,9.74074149403997e-07,9.73685392928872e-07,1.7475306886610081e-06,1.735561984549681e-06
81,6.29314580555408e-07,8.648623981657364e-07,2.4896986213493325e-06,1.548607714100088e-05,1.3942701623942196e-06,7.010152573418912e-07,1.1963656022578725e-06,1.6731758138951876e-06,1.7865828566141403e-05,1.2037662993227075e-06,9.304443378674454e-07,1.5944938869682461e-06,9.750924457179752e-07,9.521862314776833e-07,1.7372856299866536e-06,1.7519676265492037e-06
82,6.466993771157056e-07,8.542009982424872e-07,2.5706293690803306e-06,1.549102151847961e-05,1.4021112547352026e-06,6.989874966652157e-07,1.1636129682808598e-06,1.6574426388944078e-06,1.7847322670939735e-05,1.2265431501616097e-06,9.24308582714468e-07,1.6210033850800481e-06,9.758289081395765e-07,9.307054244375622e-07,1.7257961929190227e-06,1.7748867135912844e-06
83,6.655274845642341e-07,8.440156063955235e-07,2.652058746492367e-06,1.5500037543934728e-05,1.408694556432679e-06,6.961472592952735e-07,1.1283761641337685e-06,1.64191626485578e-06,1.7669126016424597e-05,1.2494773430877314e-06,9.217167191817871e-07,1.6581274114320737e-06,9.76386441932657e-07,9.092918959628528e-07,1.7131684109807218e-06,1.8032007734260052e-06
84,6.857669813170739e-07,8.342358720331107e-07,2.7340910752857505e-06,1.5510596350337217e-05,1.414144591537084e-06,6.927794247703538e-07,1.09162457706494e-06,1.627028198901174e-06,1.7336091783464182e-05,1.2724871634872434e-06,9.227091005197101e-07,1.7055849639930451e-06,9.770280343305338e-07,8.880266496031217e-07,1.699686075276621e-06,1.835620098911245e-06
85,7.072886210899376e-07,8.246580404409645e-07,2.8165857625685066e-06,1.5518625003143233e-05,1.4186030773462108e-06,6.892632723326239e-07,1.0544231551196125e-06,1.6128980701802281e-06,1.6860959025794604e-05,1.295264679956026e-06,9.273374588012986e-07,1.7628543279661265e-06,9.781647937204935e-07,8.67137037159664e-07,1.6857673600151191e-06,1.8707923252443474e-06
86,7.29871114229188e-07,8.149797081460868e-07,2.899004546211021e-06,1.5520070346568184e-05,1.422286342047125e-06,6.860127152627162e-07,1.017822222847574e-06,1.599355580608447e-06,1.6263765406914925e-05,1.3172346815547458e-06,9.357002818656406e-07,1.829325047605281e-06,9.803008182482289e-07,8.469679982326204e-07,1.6719105474610837e-06,1.9074620006258504e-06
87,7.532669367463599e-07,8.048869276194707e-07,2.980446903813952e-06,1.5512441950838383e-05,1.425482600360986e-06,6.834648242763394e-07,9.827458955550754e-07,1.5860371856936762e-06,1.5568164752109484e-05,1.3375536265673717e-06,9.478634435114154e-07,1.904368530410394e-06,9.83945022553971e-07,8.27855190198323e-07,1.6586007843149853e-06,1.9445646172410803e-06
88,7.772905060518031e-07,7.941692496525694e-07,3.059739050739703e-06,1.5495389698421858e-05,1.4284942433367866e-06,6.820420414766158e-07,9.49937590209015e-07,1.5724722317979115e-06,1.4797780710511625e-05,1.3551630085793282e-06,9.63762942886085e-07,1.9872393762721914e-06,9.895084705257394e-07,8.100477973749526e-07,1.6461801845535461e-06,1.981221404869195e-06
89,8.01856124176461e-07,7.827928980626659e-07,3.1355086409908357e-06,1.547025747621387e-05,1.4315397492856539e-06,6.821085820397748e-07,9.19959857488162e-07,1.5580884416707985e-06,1.3974253241602912e-05,1.3689346115991837e-06,9.831649387138892e-07,2.0769425679005043e-06,9.972306519391961e-07,7.937285561225457e-07,1.6347464326024758e-06,2.016686216747801e-06
90,8.269218715368046e-07,7.708868788744213e-07,3.206304170522883e-06,1.543912777409385e-05,1.4346477251833289e-06,6.839820193744514e-07,8.932019035238093e-07,1.5422452272872057e-06,1.311671759511224e-05,1.3778927501095528e-06,1.0056515428642965e-06,2.172193791524248e-06,1.0071771898803912e-06,7.790439059899188e-07,1.6241222254363684e-06,2.0502399205244187e-06
91,8.524173449535866e-07,7.586559856764868e-07,3.270772706620839e-06,1.5403942082034512e-05,1.4376259129413011e-06,6.879650639060066e-07,8.698756402500077e-07,1.524388204241105e-06,1.2242123680123327e-05,1.3814239870423907e-06,1.0306168308373878e-06,2.2714177318192524e-06,1.0192800310795171e-06,7.661040575390068e-07,1.6139151399240154e-06,2.0810462296160415e-06
92,8.782389770676688e-07,7.463196791497658e-07,3.3277906138419625e-06,1.5366056941588856e-05,1.4401571652821832e-06,6.943227140327213e-07,8.500165607368849e-07,1.504175990351453e-06,1.1365669120227815e-05,1.3793517599822136e-06,1.0572798865027864e-06,2.372740124539507e-06,1.0333470946269745e-06,7.549800460792049e-07,1.6036508444501622e-06,2.1081444891369476e-06
93,9.042602402743802e-07,7.341475359621921e-07,3.376467640884643e-06,1.532630795317884e-05,1.4419561536117687e-06,7.032187631591194e-07,8.335001614912386e-07,1.4814535572506795e-06,1.0500785494413697e-05,1.371815566378257e-06,1.0847042943644218e-06,2.47405326362211e-06,1.0490437614789777e-06,7.456828946230327e-07,1.5928930471865966e-06,2.1306918023744507e-06
94,9.302906941745807e-07,7.224995470023919e-07,3.416062221163322e-06,1.5285464753597908e-05,1.4428801023256187e-06,7.146768405982451e-07,8.200758880369562e-07,1.4561791254201666e-06,9.65884880226565e-06,1.3590629643472074e-06,1.1118684497071648e-06,2.5731684077123014e-06,1.0658973074483037e-06,7.381223708180546e-07,1.5813050435589274e-06,2.1482373484449595e-06
95,9.56017790309428e-07,7.117649284269249e-07,3.445843042073403e-06,1.5244809077051514e-05,1.4429280668843991e-06,7.285883148632496e-07,8.094287039273619e-07,1.4284177453352176e-06,8.849041633064019e-06,1.3413322551058819e-06,1.1378128400396976e-06,2.6679287098582898e-06,1.0833232495480452e-06,7.320854678436184e-07,1.5687032277413875e-06,2.1607512823446317e-06
96,9.809878223681716e-07,7.022538722286839e-07,3.4648998972019293e-06,1.5206396202383259e-05,1.4421326376773026e-06,7.447500369970086e-07,8.012650546541122e-07,1.3983558518309451e-06,8.078413460753283e-06,1.318862627948865e-06,1.1617538477175924e-06,2.7562160144959516e-06,1.1006922373986235e-06,7.272700105852889e-07,1.555099285620397e-06,2.1684125421687915e-06
97,1.0046415456595627e-06,6.941399868081828e-07,3.472082278996083e-06,1.5172554577855338e-05,1.4404768676443152e-06,7.628920546449472e-07,7.953758529009006e-07,1.3662737285008804e-06,7.352035679219745e-06,1.2919704614909002e-06,1.183100949187416e-06,2.835968338334882e-06,1.1174658298163427e-06,7.23394012877216e-07,1.5406262997747367e-06,2.171378545236096e-06
98,1.026388827048822e-06,6.874587706267317e-07,3.4663290446518453e-06,1.51446820328057e-05,1.4379560804571913e-06,7.826701674798824e-07,7.916175086787366e-07,1.332520142145211e-06,6.6732820971911295e-06,1.2611476312042742e-06,1.2014789374265666e-06,2.9053632329514045e-06,1.1332926283492355e-06,7.203040490420955e-07,1.5253556587441478e-06,2.1697552842219713e-06
99,1.0456896721510959e-06,6.821420084848073e-07,3.4472908864355064e-06,1.5122230393095554e-05,1.4346964546145487e-06,8.036603968188715e-07,7.898177971949067e-07,1.2975293644410503e-06,6.044219785000866e-06,1.2271158097196321e-06,1.216761429843588e-06,2.963135901730988e-06,1.1479498679679814e-06,7.179583005674915e-07,1.5092042105306205e-06,2.1637501853522653e-06
100,1.0620974747872196e-06,6.780737083713901e-07,3.4157777359977563e-06,1.5102822479111197e-05,1.4310015391317705e-06,8.253848292093726e-07,7.897054843219647e-07,1.2618168809809994e-06,5.465966773800024e-06,1.190757484599752e-06,1.2289836462588672e-06,3.0087394884209904e-06,1.1612025081592274e-06,7.163286428663299e-07,1.4920297664178727e-06,2.153769821159659e-06
101,1.0752304377764534e-06,6.751102126380951e-07,3.3736562136002925e-06,1.5083466517834711e-05,1.4273361020262775e-06,8.473273636550223e-07,7.909724351064805e-07,1.2258923017076659e-06,4.938863413810374e-06,1.1529413930468133e-06,1.2381666832708047e-06,3.042189632809406e-06,1.172700978198132e-06,7.153459582157073e-07,1.47373697974656e-06,2.140332488072655e-06
102,1.084714936960978e-06,6.730470044578079e-07,3.323256995066779e-06,1.5062081766906596e-05,1.4242831081694688e-06,8.689211872644319e-07,7.934297216658098e-07,1.19013011611193e-06,4.462433963907767e-06,1.1143656886497964e-06,1.2441952986758192e-06,3.063948047774014e-06,1.1819523003055848e-06,7.148908970699811e-07,1.454255174621799e-06,2.123875927714564e-06
103,1.0902206895323781e-06,6.716204192706534e-07,3.2667617229999762e-06,1.5038519508792676e-05,1.4224525977431342e-06,8.895709739773226e-07,7.970766815402069e-07,1.1546904041963035e-06,4.035293916484874e-06,1.0755128586630186e-06,1.2467874152259393e-06,3.0750399862245893e-06,1.1883929096591713e-06,7.147967677196019e-07,1.4334993633911162e-06,2.104616033694652e-06
104,1.0916113591715827e-06,6.705907383924335e-07,3.205968308547748e-06,1.5014657056383166e-05,1.422338869391106e-06,9.087273472057646e-07,8.020232114250314e-07,1.1195421713621784e-06,3.6551673592610276e-06,1.0367294601535062e-06,1.2455680736522193e-06,3.0769834301163817e-06,1.191551211711565e-06,7.148666168034769e-07,1.4114039109589395e-06,2.0825871905357556e-06
105,1.0890750623898567e-06,6.698080185409312e-07,3.142348894539132e-06,1.4993792892938145e-05,1.4241956840039799e-06,9.259372324580708e-07,8.083958173221952e-07,1.0845640556138068e-06,3.3190471759675298e-06,9.983866731851458e-07,1.2402138611701888e-06,3.0713545453339755e-06,1.1911746085027671e-06,7.149018662282256e-07,1.3879619112760638e-06,2.057845358094894e-06
106,1.083127997567183e-06,6.691753862493588e-07,3.0770770909218084e-06,1.4979883782090554e-05,1.427997975454624e-06,9.408479898750495e-07,8.162960264493446e-07,1.049641772756683e-06,3.0234427907811547e-06,9.610274854612339e-07,1.2305548905616103e-06,3.0593657035087145e-06,1.1872350000472328e-06,7.147501609032892e-07,1.3632002272535566e-06,2.03067331305184e-06
107,1.0745103764966976e-06,6.685660838032902e-07,3.0109039275986988e-06,1.4976921111574042e-05,1.4334599895488976e-06,9.532086238050442e-07,8.257657294314289e-07,1.0146982782904367e-06,2.7646419579166813e-06,9.254223525124917e-07,1.2166209649891222e-06,3.041717298157064e-06,1.1798513613113642e-06,7.143704645948058e-07,1.3370927049852e-06,2.001644307547073e-06
108,1.0640348323395067e-06,6.677647435450278e-07,2.9440313216089863e-06,1.4988508250223855e-05,1.4400428018617083e-06,9.628578148903811e-07,8.367626253073903e-07,9.79676238478505e-07,2.538936799037402e-06,8.925042828169257e-07,1.1986905881250644e-06,3.018741867996623e-06,1.1692070805775088e-06,7.138798061911344e-07,1.3095090902545225e-06,1.971517351366725e-06
109,1.0524375633955456e-06,6.664376084592141e-07,2.8761760518002294e-06,1.5017628093650698e-05,1.4469668705429703e-06,9.697106336548589e-07,8.491821803023279e-07,9.44545594618858e-07,2.3427848204727768e-06,8.632157876070358e-07,1.1773126685797476e-06,2.990761895777238e-06,1.1555207292927908e-06,7.135509975343954e-07,1.2802853579830997e-06,1.9410549677082586e-06
110,1.0402747367331782e-06,6.641495705766518e-07,2.8068486187708287e-06,1.5066460798657336e-05,1.4532892145234553e-06,9.738213310444117e-07,8.628833816120178e-07,9.09360832516443e-07,2.1728874793994014e-06,8.383731862303287e-07,1.153232027383068e-06,2.958380167550841e-06,1.13903967755969e-06,7.137611980984259e-07,1.2493413242194347e-06,1.9108730520328965e-06
111,1.0278822532224828e-06,6.604422342079349e-07,2.7356942442963622e-06,1.5136019207746674e-05,1.4580453018905604e-06,9.754698182237834e-07,8.776613530075378e-07,8.74316523051522e-07,2.0262199987109873e-06,8.186207885511117e-07,1.127240484480187e-06,2.9224676366806086e-06,1.119988624493457e-06,7.149267928791498e-07,1.2167601400141753e-06,1.8813870058722727e-06
112,1.0153758051372721e-06,6.549306941687144e-07,2.6626872361625793e-06,1.5225471779622775e-05,1.4603914722519726e-06,9.751174487999156e-07,8.93221049994866e-07,8.39748266471467e-07,1.9000668703956837e-06,8.044493740878345e-07,1.1000816422139291e-06,2.8839838032464536e-06,1.0985440679332082e-06,7.174557574086799e-07,1.1828579867968022e-06,1.8528635287446067e-06
113,1.0026625653714654e-06,6.473802903417857e-07,2.5880409141805044e-06,1.5331328620519173e-05,1.4596808027243769e-06,9.7325488507985e-07,9.092331521280324e-07,8.060863811579306e-07,1.792020013847228e-06,7.962217044288051e-07,1.072466808812472e-06,2.8438558350088244e-06,1.074919449040636e-06,7.217082967080194e-07,1.1482121351304695e-06,1.8254726361957838e-06
114,9.894844479010248e-07,6.37764382136817e-07,2.5119194827750413e-06,1.544695847983334e-05,1.4554679072324254e-06,9.702944522291697e-07,9.254202586433002e-07,7.738007186120136e-07,1.6998584007344827e-06,7.941711589927728e-07,1.0450838385289416e-06,2.80288496962828e-06,1.0494546608496163e-06,7.279664052962662e-07,1.1135459033492514e-06,1.7992505650736804e-06
115,9.755183776793078e-07,6.262823302152804e-07,2.4342873635072797e-06,1.556275590733788e-05,1.4475024712278788e-06,9.665414011422115e-07,9.415680327654182e-07,7.43346533162668e-07,1.6214240994373065e-06,7.983801496190265e-07,1.0185378425738774e-06,2.7615669398263264e-06,1.0226000582504475e-06,7.36427981921195e-07,1.0795356491965254e-06,1.7740581299059796e-06
116,9.60477719471448e-07,6.133023852318469e-07,2.3551003060929557e-06,1.5666932331008568e-05,1.4357557413516056e-06,9.621961276034446e-07,9.574939765525885e-07,7.151087171628606e-07,1.554669914167483e-06,8.087743973509108e-07,9.933296557694697e-07,2.7198977508491523e-06,9.948343949986737e-07,7.47203409052192e-07,1.046723418913834e-06,1.7495837762492311e-06
117,9.441311603459143e-07,5.992795546929538e-07,2.2746047239077013e-06,1.5746945087536857e-05,1.420452466420328e-06,9.573744806420799e-07,9.73047414070752e-07,6.893722524208082e-07,1.4977688028914253e-06,8.251540738652304e-07,9.69900707156763e-07,2.6773297313338074e-06,9.66591136874119e-07,7.602862995047452e-07,1.0155443168097348e-06,1.7253087861292254e-06
118,9.262693107248683e-07,5.847181196661041e-07,2.1934145153683643e-06,1.5791597570720546e-05,1.4020401047505314e-06,9.521285135323232e-07,9.880940359055688e-07,6.663295876783881e-07,1.4490868942347144e-06,8.472548200777513e-07,9.486386896675138e-07,2.6329899668900256e-06,9.382594321581048e-07,7.755150668644267e-07,9.86332575264969e-07,1.7004528500379186e-06
119,9.067372812913186e-07,5.701499094363466e-07,2.112355279821647e-06,1.5793374339100542e-05,1.3810597357705403e-06,9.464609854723671e-07,1.002484289661912e-06,6.460892453527169e-07,1.4070617273351322e-06,8.748267110077316e-07,9.298198254079114e-07,2.5861439010678097e-06,9.102544932552297e-07,7.925567170558788e-07,9.592863198405967e-07,1.6740323564931329e-06
120,8.855458360719876e-07,5.560947426720709e-07,2.0323060052799716e-06,1.575010682582752e-05,1.3579645776923117e-06,9.403746234170851e-07,1.0160676981955922e-06,6.286803912684678e-07,1.3701332581176086e-06,9.077112621114021e-07,9.135664756909047e-07,2.5366414030220135e-06,8.830378772619691e-07,8.10914524638643e-07,9.344806978340824e-07,1.64507726968039e-06
121,8.629514257284359e-07,5.430218138279627e-07,1.9541729377152154e-06,1.566516419633285e-05,1.3329891291042338e-06,9.339354334248331e-07,1.0286947917504289e-06,6.140687173939748e-07,1.336784155429785e-06,9.458832185833471e-07,8.998572270114117e-07,2.4850206492839697e-06,8.570405878541582e-07,8.299529507202007e-07,9.119639216136885e-07,1.6129176730084507e-06
122,8.394456907417505e-07,5.313218173010225e-07,1.8788850724383726e-06,1.554600282912718e-05,1.306147010415207e-06,9.272709594181084e-07,1.0401783343043114e-06,6.021601741219919e-07,1.3056607565561485e-06,9.894330167585986e-07,8.885556677102887e-07,2.4322874140736667e-06,8.325799080675809e-07,8.489683596040058e-07,8.918535854671087e-07,1.5773918470451516e-06
123,8.156708793596542e-07,5.212920754649234e-07,1.8072857170797208e-06,1.5401667575033878e-05,1.2773644004544817e-06,9.205314178059453e-07,1.050299088659974e-06,5.927995545052958e-07,1.2757243496675442e-06,1.0385214070202953e-06,8.794258988263947e-07,2.379648111210006e-06,8.098349248827827e-07,8.673080570611193e-07,8.743182626075491e-07,1.5388611750675942e-06
124,7.922932409277475e-07,5.131348374753513e-07,1.7400207058722814e-06,1.524045784989758e-05,1.246687541343432e-06,9.139096028778316e-07,1.0588528628488279e-06,5.858085760595455e-07,1.2463827697290183e-06,1.0933780291187021e-06,8.721416716659021e-07,2.328314603100411e-06,7.888690477334107e-07,8.844644787266512e-07,8.594743899410339e-07,1.4980289659752587e-06
125,7.698901047104347e-07,5.069631380253616e-07,1.6775780707496512e-06,1.5069042973989995e-05,1.2144435126348396e-06,9.077082217385356e-07,1.0656747486993279e-06,5.810487189280952e-07,1.2175283246014982e-06,1.1543107477636557e-06,8.663113423951352e-07,2.279363232759948e-06,7.696926083426421e-07,9.001201022818697e-07,8.473135751930666e-07,1.4556967615037998e-06
126,7.4889620865636e-07,5.028162882675412e-07,1.6204279159899807e-06,1.4893186986191907e-05,1.1812492135719555e-06,9.023620649501155e-07,1.0706638861757494e-06,5.784531753390667e-07,1.1894359115164664e-06,1.2216164694264345e-06,8.615742854843611e-07,2.2336659829456898e-06,7.523375037589435e-07,9.141764808502284e-07,8.376877464292004e-07,1.4126382730604202e-06
127,7.296054499571787e-07,5.006757914632786e-07,1.5690946380624625e-06,1.4718928373528793e-05,1.1478789483368965e-06,8.983760509077944e-07,1.073841504905176e-06,5.78010982491871e-07,1.1625910678571889e-06,1.2954336001188352e-06,8.577518334760928e-07,2.191842537833767e-06,7.36863165116704e-07,9.267265939912696e-07,8.30346059094886e-07,1.3696192557946133e-06
128,7.121934833940884e-07,5.004607670946529e-07,1.5240946058379612e-06,1.4553226117641707e-05,1.1150926651260416e-06,8.962235559069331e-07,1.075369973439281e-06,5.797279232743255e-07,1.1375399473255225e-06,1.375678101502479e-06,8.548761882486784e-07,2.154219344281831e-06,7.232985135032149e-07,9.379468423449083e-07,8.249895853522648e-07,1.3274306743277487e-06
129,6.967311915298914e-07,5.020203356915625e-07,1.4858196159815506e-06,1.4404016054866063e-05,1.083520594002342e-06,8.962707537439006e-07,1.0754668902029424e-06,5.835940682165857e-07,1.1147775340364082e-06,1.46209615168545e-06,8.530615545065358e-07,2.1209238101711867e-06,7.116007460695692e-07,9.479895764433857e-07,8.212833041620903e-07,1.286857692401609e-06
130,6.832054273685758e-07,5.051709095069644e-07,1.4544704471333374e-06,1.4279962171473956e-05,1.0536285917848838e-06,8.987394791803318e-07,1.07431628785652e-06,5.895890333873773e-07,1.0947039921213459e-06,1.55433416747867e-06,8.52418807013744e-07,2.092091745823407e-06,7.016449238435801e-07,9.569237820014097e-07,8.188824635990443e-07,1.2486387259220987e-06
131,6.71565747920588e-07,5.097712002811434e-07,1.4300316043073386e-06,1.4190091073871131e-05,1.0257183969291727e-06,9.036849113874853e-07,1.072104640921561e-06,5.977183116264961e-07,1.0776501049865718e-06,1.6519283337990767e-06,8.530916568561098e-07,2.06797003718215e-06,6.932388113336659e-07,9.64714301022287e-07,8.175191111552331e-07,1.2134827355793454e-06
132,6.61754223739582e-07,5.157621872093899e-07,1.4122277534224333e-06,1.4143398763783266e-05,9.99929166591559e-07,9.109872754352955e-07,1.0691291719325842e-06,6.08022746084999e-07,1.0638658018277998e-06,1.7542598397530851e-06,8.552996217327757e-07,2.0488448161643978e-06,6.86174066285731e-07,9.71252114411704e-07,8.170294347759762e-07,1.182096425182289e-06
133,6.537011068355537e-07,5.231365703784015e-07,1.400478574429305e-06,1.4148465189298123e-05,9.762503719970371e-07,9.203581886761408e-07,1.0658557511780685e-06,6.205774565739436e-07,1.053447550856944e-06,1.860558939485509e-06,8.593132163498779e-07,2.034908383883458e-06,6.802923795785976e-07,9.764313549491143e-07,8.172781011508207e-07,1.1551282853599242e-06
134,6.473390142493964e-07,5.318899748551739e-07,1.3939140094539876e-06,1.421309694361315e-05,9.54558430730902e-07,9.313575853417281e-07,1.0628769841352987e-06,6.355279611446122e-07,1.0463093512065238e-06,1.96991716204364e-06,8.65380820278841e-07,2.0261317239463043e-06,6.755349702305959e-07,9.802138508305467e-07,8.181019493083492e-07,1.1330707378007448e-06
135,6.426329254788466e-07,5.420125913508673e-07,1.3914915623353177e-06,1.4344040448336062e-05,9.346689546507491e-07,9.434214602962088e-07,1.0607879593198347e-06,6.531002241269968e-07,1.0422488891957467e-06,2.0812750281462393e-06,8.736730326294589e-07,2.0221676937757436e-06,6.71943836281181e-07,9.826116645354952e-07,8.193531487111173e-07,1.116207196391102e-06
136,6.395621474014361e-07,5.535102914351551e-07,1.3922009652609793e-06,1.4546831586104903e-05,9.163657563711235e-07,9.558812907701547e-07,1.0600553355800769e-06,6.735524288938513e-07,1.0410693720250052e-06,2.1933939789355623e-06,8.842851502907125e-07,2.022340240223049e-06,6.69603451815475e-07,9.835965538597182e-07,8.209949459135871e-07,1.1046095911102144e-06
137,6.380674732364817e-07,5.664085661331881e-07,1.3952723743052175e-06,1.4825815565199769e-05,8.994144599724572e-07,9.679835813593884e-07,1.0609587441511553e-06,6.971452106242039e-07,1.0426687934704164e-06,2.3047790721521054e-06,8.972452764526952e-07,2.0257599543818174e-06,6.685750585679626e-07,9.830531337483486e-07,8.23145460676281e-07,1.0981884177794464e-06
138,6.380234961242431e-07,5.807200111197699e-07,1.400295548652058e-06,1.5184285798594859e-05,8.836179804158977e-07,9.789486311759677e-07,1.063607675309336e-06,7.241532401604336e-07,1.0470136800956298e-06,2.4136295980778776e-06,9.124783502077901e-07,2.0315308717814326e-06,6.688749235381603e-07,9.808508044613238e-07,8.260436946678883e-07,1.0967818173360913e-06
139,6.39226440611468e-07,5.963944895757835e-07,1.407208282489562e-06,1.5624626580060933e-05,8.688675678386237e-07,9.880427757104658e-07,1.067979857608022e-06,7.548618674424177e-07,1.054017311270001e-06,2.5179719319563694e-06,9.297623763536004e-07,2.038891466905719e-06,6.704825124382876e-07,9.76955724879272e-07,8.300149299319825e-07,1.1002018236984755e-06
140,6.41373291906333e-07,6.132895089471464e-07,1.4161782136210384e-06,1.6148358208397686e-05,8.550959952143826e-07,9.946270552617793e-07,1.0739639984403134e-06,7.895207293813179e-07,1.0634262479438898e-06,2.6159350806177572e-06,9.487127662372323e-07,2.0471543874991153e-06,6.733462730760615e-07,9.71478671649587e-07,8.354717384768306e-07,1.108200147265717e-06
141,6.440690546773647e-07,6.311885387980903e-07,1.4274602411652468e-06,1.6756042393133275e-05,8.421700955759523e-07,9.982319148320559e-07,1.0814333422208824e-06,8.282869632409629e-07,1.0747772107302707e-06,2.7059778928375045e-06,9.687881686983865e-07,2.0555556835505732e-06,6.773880765090904e-07,9.646424875803106e-07,8.428950918421336e-07,1.1204514950793198e-06
142,6.468946239956232e-07,6.498677957161047e-07,1.4413062461413633e-06,1.7446999772304843e-05,8.298442451453704e-07,9.986757381463336e-07,1.0902983865590913e-06,8.712038868496527e-07,1.0874255131728596e-06,2.786931816462598e-06,9.893507528045901e-07,2.063227514645429e-06,6.825295814901828e-07,9.567013569184443e-07,8.527593432085609e-07,1.1366500458270491e-06
143,6.494900804021621e-07,6.691798877233828e-07,1.457915130397554e-06,1.8218685872441836e-05,8.178297388461815e-07,9.961203053473372e-07,1.1004632211542968e-06,9.182178844080558e-07,1.1006301055537805e-06,2.8578465154504833e-06,1.0098212201559802e-06,2.0693043792599177e-06,6.88721860415631e-07,9.478808083669082e-07,8.6545033964944e-07,1.1566454928836008e-06
144,6.515758867501219e-07,6.890958902829516e-07,1.477363146713124e-06,1.9065762835446718e-05,8.059076623147321e-07,9.909711930531294e-07,1.111764092487041e-06,9.69193551935956e-07,1.1136257623887126e-06,2.91775541475568e-06,1.0298401254001742e-06,2.073032902191548e-06,6.959193355170607e-07,9.383942232393769e-07,8.812265386832676e-07,1.1804719850286688e-06
145,6.529222071228427e-07,7.096754056613375e-07,1.4995389860576209e-06,1.997946810703685e-05,7.939685445865106e-07,9.83681591747579e-07,1.1239978822750603e-06,1.023894835585335e-06,1.1256277348563474e-06,2.9655253450903807e-06,1.0493065585905922e-06,2.073829730352721e-06,7.04007048123219e-07,9.284749781051526e-07,9.002143079792662e-07,1.2082297519832341e-06
146,6.533658313037617e-07,7.309961928089401e-07,1.524165374267916e-06,2.0947691603281186e-05,7.819856623097789e-07,9.746077866253704e-07,1.1369939277364684e-06,1.081948403743459e-06,1.135860573075258e-06,2.9998245764271145e-06,1.0683107974975367e-06,2.0712906005544828e-06,7.127480079386425e-07,9.183540537060343e-07,9.224141827588467e-07,1.239924554472975e-06
147,6.528942038899847e-07,7.530923940787984e-07,1.5509043700629028e-06,2.1955210442119564e-05,7.700268212111283e-07,9.639828282794306e-07,1.1506289700120602e-06,1.1428378312812651e-06,1.143680481448437e-06,3.0191192073603362e-06,1.0870585125005312e-06,2.0651587741500742e-06,7.217698226340799e-07,9.082183817172408e-07,9.477161663033387e-07,1.275417779604679e-06
148,6.516877459472966e-07,7.759499162648875e-07,1.5794652467196428e-06,2.2983439753896593e-05,7.582853851800977e-07,9.519437317022597e-07,1.164765245201813e-06,1.2059383002801282e-06,1.1486825205043582e-06,3.021787962483517e-06,1.1058013488167713e-06,2.0552881964813235e-06,7.305794597274252e-07,8.981728118017649e-07,9.759434666285664e-07,1.3144991175101607e-06
149,6.500513546866317e-07,7.995768942628926e-07,1.6096476749030514e-06,2.4009848891523065e-05,7.470262298012716e-07,9.385466622064749e-07,1.1791909004687733e-06,1.2705337159375526e-06,1.150714206629649e-06,3.006599373253338e-06,1.1247319991425386e-06,2.041638513651219e-06,7.386209977772022e-07,8.881909496104333e-07,1.006900708657863e-06,1.356950498660866e-06
150,6.48288732528555e-07,8.240664760614939e-07,1.6413114744420944e-06,2.5007727760338127e-05,7.364874489157867e-07,9.237830517270715e-07,1.1936327432639217e-06,1.3357703566752106e-06,1.149868833410718e-06,2.973405504963089e-06,1.1438736108847748e-06,2.024288132591476e-06,7.454111247487726e-07,8.780981493763533e-07,1.0403553182700419e-06,1.402553755091693e-06
151,6.466021996948468e-07,8.495538660893407e-07,1.6743220150970741e-06,2.594711381232768e-05,7.268402008102672e-07,9.076359325721819e-07,1.2077836015028123e-06,1.4005915616851677e-06,1.1465053037331593e-06,2.9234977008641927e-06,1.1630540573462906e-06,2.0033920069040795e-06,7.507263004345101e-07,8.676460123729179e-07,1.0759578018689168e-06,1.4511067397287092e-06
152,6.450466799695903e-07,8.761014977853557e-07,1.7085059054160185e-06,2.6797389003214167e-05,7.18185206359192e-07,8.901692583083368e-07,1.2212780510837275e-06,1.4637327151835606e-06,1.1412077664622644e-06,2.8593409812190946e-06,1.1819949428232882e-06,1.979076148352352e-06,7.546878924321652e-07,8.566464472063253e-07,1.1131753307772921e-06,1.5024449979064835e-06
153,6.435212366709857e-07,9.03616134222758e-07,1.743583967827706e-06,2.7531172274008858e-05,7.105306203963136e-07,8.715662046433736e-07,1.2336693829405696e-06,1.5238140460959407e-06,1.1346260487209258e-06,2.783938469803331e-06,1.2004286590678286e-06,1.9514351389679086e-06,7.576495637862704e-07,8.450434613998376e-07,1.1512900376718789e-06,1.5563936802373295e-06
154,6.417770294817957e-07,9.318274593028922e-07,1.779058709502065e-06,2.8128156906291456e-05,7.037747911086463e-07,8.520654792703224e-07,1.2444743240607208e-06,1.579531680189357e-06,1.1273071097724702e-06,2.700219947692594e-06,1.2181306167589412e-06,1.9207254958485728e-06,7.600259756215859e-07,8.328508349605207e-07,1.1894945863783811e-06,1.6126489634996392e-06
155,6.394319197331332e-07,9.603074915604837e-07,1.8141208800658819e-06,2.85772717375703e-05,6.977331037548969e-07,8.319068262452323e-07,1.2532630296706087e-06,1.6298870133168416e-06,1.119642589004972e-06,2.6106662938598874e-06,1.2348765703515305e-06,1.887552348499084e-06,7.622151285885742e-07,8.200283791049073e-07,1.2270611522385003e-06,1.6707016533811304e-06
156,6.359923381616876e-07,9.885670803182184e-07,1.84768019139317e-06,2.8876166042078537e-05,6.921826814841756e-07,8.113865222798885e-07,1.259721870085365e-06,1.6743414462323822e-06,1.111895241500238e-06,2.517174570727915e-06,1.2504264164181959e-06,1.8528534870729245e-06,7.645863803494741e-07,8.06426354301532e-07,1.2634751425714513e-06,1.7299157044730888e-06
157,6.308945014497217e-07,1.0162398653271995e-06,1.878563892798288e-06,2.9028077087110608e-05,6.868779493882154e-07,7.909186959856814e-07,1.263640273616568e-06,1.7128359944359364e-06,1.1041975532068413e-06,2.421053525478238e-06,1.264573546205207e-06,1.8177324475937742e-06,7.674635549869643e-07,7.918500114672399e-07,1.2984500723031307e-06,1.7897439572393822e-06
158,6.235650814940823e-07,1.0431967297904477e-06,1.9057955874238038e-06,2.9037354848401554e-05,6.815508886401657e-07,7.709905661765498e-07,1.2648252883477271e-06,1.7457023296207387e-06,1.0965134030614612e-06,2.3230896911546773e-06,1.277204191782097e-06,1.7832616306441708e-06,7.710966907840382e-07,7.7616994377484e-07,1.3318549496139977e-06,1.849925819143565e-06
159,6.134645287547875e-07,1.0694735084944236e-06,1.928778865088495e-06,2.8906042649569427e-05,6.759331805277244e-07,7.520687199813461e-07,1.2629938451905954e-06,1.773501828066991e-06,1.088613803079982e-06,2.2237409986572216e-06,1.2882847781797976e-06,1.7503376940935185e-06,7.756358587828376e-07,7.593602899928442e-07,1.3636368956536778e-06,1.910494345729306e-06
160,6.001036772568594e-07,1.0951576478914987e-06,1.9472542819706757e-06,2.8633565212420156e-05,6.698122539337931e-07,7.345416977457057e-07,1.2577344177114648e-06,1.7968199970943981e-06,1.0800678810664975e-06,2.123467374221127e-06,1.2977632005087962e-06,1.7196253691361752e-06,7.811125493946573e-07,7.41454701954305e-07,1.3937604103116373e-06,1.971598920756989e-06
161,5.830942104431702e-07,1.12037404660923e-06,1.9610713889686403e-06,2.8219134393731673e-05,6.63111929569727e-07,7.187149064545619e-07,1.2486133084952485e-06,1.8161062033536926e-06,1.0702564331312194e-06,2.0230377584399907e-06,1.305465898041564e-06,1.6915687889237164e-06,7.874369704053869e-07,7.225199908847236e-07,1.4221686125620688e-06,2.033367298200385e-06
162,5.62240048093038e-07,1.145279980301529e-06,1.97002826300341e-06,2.7664622620698594e-05,6.559512413467862e-07,7.048494282562763e-07,1.2353818209835513e-06,1.8316432343997908e-06,1.0584769442390197e-06,1.923619843413017e-06,1.3110779279222979e-06,1.666458164689929e-06,7.944188851599649e-07,7.026881695466384e-07,1.4488405233060204e-06,2.0958908807287495e-06
163,5.375813537314499e-07,1.1699791503402955e-06,1.9739847881322358e-06,2.6976345728324042e-05,6.48636702372601e-07,6.932046767926785e-07,1.2181422626562583e-06,1.8435726886323057e-06,1.0441572252127252e-06,1.8266192288819005e-06,1.3142214277214798e-06,1.6444990942703068e-06,8.018311018955083e-07,6.821856808145792e-07,1.4739438227973055e-06,2.1591578453173996e-06
164,5.09356361972324e-07,1.1944107274194973e-06,1.973134115655361e-06,2.6165586534963686e-05,6.415937672295564e-07,6.840267213812868e-07,1.1973648846685176e-06,1.8518584108957207e-06,1.0270636542641544e-06,1.7334123049044602e-06,1.3145599352829381e-06,1.625797101623855e-06,8.095127462448035e-07,6.613192850559743e-07,1.4979187201431448e-06,2.2229110980258207e-06
165,4.779341990342781e-07,1.2182887182633887e-06,1.968173425455533e-06,2.5248164148501482e-05,6.352697354382543e-07,6.7749352355458e-07,1.173760637050312e-06,1.856240450379716e-06,1.0073712439816393e-06,1.6451575478118084e-06,1.311813306448971e-06,1.6102868943219208e-06,8.174202894501131e-07,6.404254966442689e-07,1.5213703683984579e-06,2.2865910217656862e-06
166,4.4375274765607043e-07,1.241121835908569e-06,1.9602489319283494e-06,2.4243429087609937e-05,6.300544820018036e-07,6.736793496907483e-07,1.1481044850589746e-06,1.85632932867073e-06,9.855729258727987e-07,1.5627359075539858e-06,1.3056784005982135e-06,1.5976868172570149e-06,8.25570056767316e-07,6.198016920900815e-07,1.5448433048541872e-06,2.349366567868201e-06
167,4.0725822524377685e-07,1.2623022849936368e-06,1.9507013085347085e-06,2.3173082687168283e-05,6.262539604657142e-07,6.725496173935834e-07,1.1210957744362915e-06,1.8518569263217061e-06,9.6230257399696e-07,1.4867312525072346e-06,1.295812892316844e-06,1.5875153561391244e-06,8.339635248849535e-07,5.996508437384516e-07,1.568640521411594e-06,2.4101607476292077e-06
168,3.688588309056727e-07,1.281201267564963e-06,1.94074314579548e-06,2.2060019404274678e-05,6.240974169023315e-07,6.739597229206721e-07,1.0932725470022614e-06,1.8429163243800996e-06,9.381668646392343e-07,1.4174005825047302e-06,1.2819634565015915e-06,1.5791650343817388e-06,8.425751040473948e-07,5.800644820599734e-07,1.5927550398759884e-06,2.4677433745957463e-06
169,3.2890752086486516e-07,1.2972222134946523e-06,1.9312332085708536e-06,2.0927194865986548e-05,6.237375802515563e-07,6.776760095134196e-07,1.0649853295801687e-06,1.8300248994788077e-06,9.136478593314448e-07,1.3546747382978407e-06,1.2641107312797173e-06,1.5719633916935627e-06,8.513677522489837e-07,5.610500761812985e-07,1.6168723679044581e-06,2.5209705230092432e-06
170,2.8770171152090226e-07,1.3098213887771845e-06,1.9226202759386014e-06,1.9796563725906563e-05,6.252350244239061e-07,6.834492874884872e-07,1.0364596408134539e-06,1.814017443663778e-06,8.890911967228241e-07,1.2982027818511514e-06,1.2425195372668876e-06,1.5652504091642575e-06,8.602826435656973e-07,5.42592929067117e-07,1.6404237623079674e-06,2.568975781000635e-06
171,2.4548548796336254e-07,1.3185077826714329e-06,1.915014950976865e-06,1.8688222900478997e-05,6.285482803578105e-07,6.911061123404079e-07,1.0079366359016453e-06,1.795904180731026e-06,8.647433487714616e-07,1.2474068738570203e-06,1.2177141388004892e-06,1.5585834952500803e-06,8.692009918097548e-07,5.247132257353339e-07,1.6626986018019518e-06,2.6111174455206215e-06
172,2.0245415934830219e-07,1.3228147906115569e-06,1.908318061013624e-06,1.761981586635335e-05,6.335433196709153e-07,7.00602759650222e-07,9.798056492039342e-07,1.7767916486085155e-06,8.407789228347859e-07,1.2015791078809231e-06,1.1903885225753329e-06,1.5519257670560387e-06,8.779135363560452e-07,5.074784288246622e-07,1.6829622520338073e-06,2.64678237146331e-06
173,1.5878017724464956e-07,1.322242806762183e-06,1.9023516581353457e-06,1.6606078284396913e-05,6.400240220821439e-07,7.120292078465137e-07,9.526205837657132e-07,1.7578302281464644e-06,8.173082024697086e-07,1.1600468178929784e-06,1.1612479173641652e-06,1.5455675860880544e-06,8.861350789279866e-07,4.909851575280672e-07,1.7005092003919795e-06,2.6752450644673392e-06
174,1.1469169904159796e-07,1.3162091822277308e-06,1.8969388370247566e-06,1.5658504906450618e-05,6.477804106944877e-07,7.255611674120354e-07,9.269794610287745e-07,1.7401027297425458e-06,7.943808883837293e-07,1.122272964495423e-06,1.1308650149056053e-06,1.5398734402186938e-06,8.935852450622931e-07,4.7535693327268313e-07,1.7146762942770442e-06,2.69566069558432e-06
175,7.057101490539327e-08,1.3041029176432417e-06,1.8918784088084577e-06,1.4785495531659818e-05,6.566119469632723e-07,7.413658793252757e-07,9.033770216127837e-07,1.7244879520811768e-06,7.71994667396774e-07,1.0878058469075024e-06,1.0996285271299267e-06,1.5351477623520093e-06,9.001133947872558e-07,4.6075216373876457e-07,1.7249088051063067e-06,2.7071767780105917e-06
176,2.699262466526886e-08,1.285488556069022e-06,1.886846254780383e-06,1.3993182716174345e-05,6.662863091065147e-07,7.595158850196097e-07,8.821380998579381e-07,1.711625155048997e-06,7.501566087805554e-07,1.0562460866647382e-06,1.0677613089933947e-06,1.5316697129006236e-06,9.057898848987594e-07,4.4734468574126885e-07,1.7308789374383471e-06,2.7090987254528907e-06
177,-1.528016648705634e-08,1.2603460281779224e-06,1.8813505293898892e-06,1.328647287824347e-05,6.764806803227377e-07,7.799684667205544e-07,8.634271982264885e-07,1.7020256218914707e-06,7.290106456684466e-07,1.0273692204917251e-06,1.0353935537392375e-06,1.5297135129867318e-06,9.108937656616493e-07,4.3529444691269845e-07,1.73252762316196e-06,2.7009336545031326e-06
178,-5.528604444136214e-08,1.2291920807842742e-06,1.874778506227735e-06,1.2669749888734182e-05,6.867917761005272e-07,8.026001277573332e-07,8.473130771751079e-07,1.6962418748241692e-06,7.089269034049551e-07,1.001258445000213e-06,1.0026748963681812e-06,1.5294591073770552e-06,9.158015644585534e-07,4.2473393998799857e-07,1.7299697484892618e-06,2.68221254863109e-06
179,-9.188250226702979e-08,1.193002360941325e-06,1.8664512599702432e-06,1.2147129328968554e-05,6.968355720821866e-07,8.272326024692616e-07,8.338828874820233e-07,1.6949310788830282e-06,6.904716847794592e-07,9.782495698695248e-07,9.69827772288494e-07,1.5308756630779295e-06,9.208419293941425e-07,4.1576652264306594e-07,1.7233484353773277e-06,2.652405226120397e-06
180,-1.237978213612977e-07,1.152973816776489e-06,1.855665675710638e-06,1.172231035392911e-05,7.063728536082661e-07,8.536158135894153e-07,8.233248283837942e-07,1.6987371455698733e-06,6.743115110097789e-07,9.587279860228185e-07,9.371388367630702e-07,1.5336918664563502e-06,9.261913494935604e-07,4.084888868902476e-07,1.7127233388454379e-06,2.6112688756914967e-06
181,-1.4965951922994722e-07,1.1103141930151624e-06,1.8417771649653188e-06,1.1398047512464884e-05,7.153650399371106e-07,8.814117818256771e-07,8.159016042085283e-07,1.708129121512829e-06,6.611212112515119e-07,9.429613166412995e-07,9.04977021611927e-07,1.5374860596438567e-06,9.318686240847591e-07,4.0301873658384725e-07,1.6980652342182393e-06,2.5593593427284213e-06
182,-1.6797330577511168e-07,1.0661837893291373e-06,1.824332338623549e-06,1.1175404801474036e-05,7.239177731318705e-07,9.102238963576535e-07,8.11854025782119e-07,1.7233761293905116e-06,6.515090007651008e-07,9.310471977938898e-07,8.737778473322549e-07,1.5417966100949039e-06,9.378321572249271e-07,3.994822625758003e-07,1.6794125200337266e-06,2.498190417226335e-06
183,-1.7702817876918268e-07,1.0216877359145544e-06,1.8032057783665213e-06,1.1053158923055516e-05,7.321902550722164e-07,9.396443271344955e-07,8.113233828396192e-07,1.7446222763314066e-06,6.459816257374927e-07,9.229191071897006e-07,8.43939366104181e-07,1.546110593864212e-06,9.440823991632853e-07,3.9797916611669844e-07,1.65705920477621e-06,2.429984420897942e-06
184,-1.747231345407242e-07,9.778171082434449e-07,1.7786693830716213e-06,1.1027739903259427e-05,7.403662089031367e-07,9.692898956909625e-07,8.143257323064895e-07,1.7718942848132642e-06,6.449655387468513e-07,9.183430335465511e-07,8.157519010350694e-07,1.5497870832321288e-06,9.506593017398817e-07,3.9857310026732087e-07,1.631563250391457e-06,2.3572791425598996e-06
185,-1.584236263880836e-07,9.353958559790739e-07,1.7513332020529968e-06,1.1093844235402944e-05,7.486617375432528e-07,9.988434922857583e-07,8.20744876791131e-07,1.8050379665751446e-06,6.488403350582966e-07,9.169073941177829e-07,7.894104713769732e-07,1.5520778094744837e-06,9.57585644151061e-07,4.013055006638995e-07,1.6036047811330533e-06,2.282541942806693e-06
186,-1.2497540253162289e-07,8.950959273860959e-07,1.7219727225116025e-06,1.124547412092646e-05,7.573137662379887e-07,1.0280987948198174e-06,8.303193294209204e-07,1.8437067302137973e-06,6.57939903761307e-07,9.18072274373059e-07,7.650334444287542e-07,1.552195150189771e-06,9.64869024550787e-07,4.061952237399235e-07,1.5739093532793672e-06,2.2078763986882136e-06
187,-7.086682011546428e-08,8.574931392122911e-07,1.691323374293053e-06,1.147692078514575e-05,7.665594723139517e-07,1.0569441446444775e-06,8.426501865374677e-07,1.8874061485497623e-06,6.7253205646336e-07,9.213249427117584e-07,7.426770736837519e-07,1.5493188534533918e-06,9.72537639389996e-07,4.1321890822124416e-07,1.5433053341838896e-06,2.1349205529081245e-06
188,7.591041332728294e-09,8.231175675848049e-07,1.6599225903302045e-06,1.1783235216915412e-05,7.766347731874712e-07,1.0852524095489193e-06,8.572407297147741e-07,1.9354996825547687e-06,6.928070895821984e-07,9.263479398844853e-07,7.223566479537834e-07,1.5426505981056367e-06,9.80636011178254e-07,4.2229956218026927e-07,1.5127685176872355e-06,2.0648996696150487e-06
189,1.1418288582513467e-07,7.924885454535414e-07,1.6280830825824825e-06,1.2159916393668173e-05,7.877847476349952e-07,1.112758572682562e-06,8.735272432394188e-07,1.9871452696137357e-06,7.1888630802904e-07,9.330315600319793e-07,7.040429833445719e-07,1.5315988969007985e-06,9.891742649330176e-07,4.33303783451671e-07,1.4833386397744608e-06,1.9987518950464952e-06
190,2.5280249083520113e-07,7.661343035634482e-07,1.5960294293736974e-06,1.2601956997744053e-05,8.002503349207295e-07,1.139022983416837e-06,8.90899376791539e-07,2.0412403215602683e-06,7.508330591675887e-07,9.413330612741439e-07,6.876602517903904e-07,1.5159252984497394e-06,9.98063302296113e-07,4.460306692977274e-07,1.4559638200000023e-06,1.9373019656990223e-06
191,4.2746783886328883e-07,7.445794821141963e-07,1.564070788538208e-06,1.3103007548179809e-05,8.142409325459234e-07,1.1634899288299386e-06,9.087540536726074e-07,2.0964293287308383e-06,7.886350499276334e-07,9.511341451671886e-07,6.73128487043187e-07,1.4956945274758293e-06,1.007075994941456e-06,4.602123851886449e-07,1.4313683567702055e-06,1.8813707813236027e-06
192,6.422993427139182e-07,7.282973108879923e-07,1.5326403055426861e-06,1.3655403070279131e-05,8.299315345586523e-07,1.1855993589847744e-06,9.265640447140359e-07,2.151144651167806e-06,8.321629049433994e-07,9.621797316959446e-07,6.603953781370172e-07,1.471106929028002e-06,1.0158378729609574e-06,4.755679753144663e-07,1.409984224530444e-06,1.8317098597986606e-06
193,9.015226692945994e-07,7.176639707488022e-07,1.5021938518887354e-06,1.4250639474588758e-05,8.474533761576093e-07,1.2049032436962917e-06,9.439088494313887e-07,2.203727729623726e-06,8.811448093813267e-07,9.74120486215323e-07,6.494021818530478e-07,1.4424112946375567e-06,1.0238406297990159e-06,4.918868185098858e-07,1.3919609226475993e-06,1.7888554862301814e-06
194,1.2094960110917064e-06,7.129442227874883e-07,1.4730948031889436e-06,1.4879343492485895e-05,8.668442610296702e-07,1.2211359196822967e-06,9.604499826420567e-07,2.2526864725028044e-06,9.351750033600777e-07,9.86655791600602e-07,6.400344396288813e-07,1.4099949237324086e-06,1.0305322705375753e-06,5.090471248565179e-07,1.3772217642869376e-06,1.7530419224010386e-06
195,1.570657207224436e-06,7.142942100641875e-07,1.4455815551962064e-06,1.5531206161462865e-05,8.879960813277031e-07,1.2341950100531042e-06,9.758555509863162e-07,2.2969528892446395e-06,9.93741327820866e-07,9.996558488088962e-07,6.321264286253641e-07,1.374502157758903e-06,1.0354971448040493e-06,5.269494313616313e-07,1.3655097458146352e-06,1.7241710911296875e-06
196,1.9893993791773547e-06,7.217763136040817e-07,1.419815049497289e-06,1.619623705405959e-05,9.106282558610309e-07,1.2440298850583652e-06,9.897475988167876e-07,2.335955260291266e-06,1.0562540939771332e-06,1.013117133013594e-06,6.255129655531976e-07,1.3367810544020581e-06,1.0385979663751589e-06,5.454461406538685e-07,1.356464183525761e-06,1.701820560134012e-06
197,2.469992046240986e-06,7.353867851961238e-07,1.3959452174566243e-06,1.686713457720043e-05,9.342850848990667e-07,1.2505068284612422e-06,1.0017633264473336e-06,2.369472378100428e-06,1.1220637943193161e-06,1.0270099730299163e-06,6.200678894756074e-07,1.2977588602747467e-06,1.0399460585324381e-06,5.643076049394609e-07,1.3498027614478824e-06,1.6853175019862882e-06
198,3.01653572004019e-06,7.550607867233157e-07,1.3741384348064825e-06,1.754111085755239e-05,9.583688185033355e-07,1.2533743662708529e-06,1.0116906482414456e-06,2.3973691470826667e-06,1.190451740362154e-06,1.0412232121102303e-06,6.157066570186138e-07,1.2584330611835316e-06,1.039742627096099e-06,5.832137540484621e-07,1.3454800623180045e-06,1.6738386009848577e-06
199,3.6328557424795555e-06,7.806424864092603e-07,1.35454934783771e-06,1.82199531456143e-05,9.82212953526862e-07,1.252405684986999e-06,1.0195562988461129e-06,2.419344351792848e-06,1.2606171845134927e-06,1.055654105172619e-06,6.123768574890014e-07,1.2198798369760702e-06,1.0381707412515183e-06,6.017715790465661e-07,1.3436132623982151e-06,1.6664494828052327e-06
200,4.322349916805393e-06,8.118602968496217e-07,1.337250339562437e-06,1.8908142333792877e-05,1.0051641989406585e-06,1.2476306206998786e-06,1.0256015022240247e-06,2.4348246610090386e-06,1.3317591022225052e-06,1.0702843274098468e-06,6.100354943703662e-07,1.1831591637912882e-06,1.0353992599660549e-06,6.195577151663648e-07,1.3442481628514062e-06,1.6620877282615626e-06
201,5.0878756994904965e-06,8.483233296621476e-07,1.3221414135911282e-06,1.961004047528683e-05,1.0266380354993376e-06,1.2394589213863458e-06,1.0301618650535271e-06,2.4431122517116682e-06,1.4033064507858944e-06,1.0851362296394502e-06,6.086101158794688e-07,1.1492033088520388e-06,1.0315857383618346e-06,6.361687966767896e-07,1.3472089487196604e-06,1.659633238586277e-06
202,5.931702717762449e-06,8.895147297046653e-07,1.3088854988344816e-06,2.0328352585276435e-05,1.0461570588080609e-06,1.2285885443495372e-06,1.0335238467559748e-06,2.443725354462209e-06,1.4751865928036887e-06,1.1001697038191247e-06,6.079709850318225e-07,1.1187845898329418e-06,1.0268342285481668e-06,6.512505737740162e-07,1.3521080452900349e-06,1.6581558747359807e-06
203,6.8554661574192294e-06,9.347722044645207e-07,1.2969120348424785e-06,2.1065112193234025e-05,1.0633956554923206e-06,1.2157777098663472e-06,1.0358514033534646e-06,2.436691500818585e-06,1.5479237663710755e-06,1.1152240877505637e-06,6.079266820977251e-07,1.0925494707117205e-06,1.0211669168989452e-06,6.645095117488068e-07,1.3584434244786475e-06,1.657127910297857e-06
204,7.860032267167084e-06,9.832627657065952e-07,1.2855080646062196e-06,2.1823777701070867e-05,1.0781911377719577e-06,1.2016425347609327e-06,1.0372097234039555e-06,2.4226096886259157e-06,1.6224556597905366e-06,1.1300631229706032e-06,6.082476578998772e-07,1.0710403265575526e-06,1.0145180078348318e-06,6.757275390317655e-07,1.3656777737614242e-06,1.6563752998054373e-06
205,8.945263973399866e-06,1.0339577440039823e-06,1.2740006323501935e-06,2.2610362485209277e-05,1.0904615123015536e-06,1.186587904260761e-06,1.0376165705575484e-06,2.4025125244730492e-06,1.6998373951752505e-06,1.14447072823166e-06,6.087569127421532e-07,1.054679288990623e-06,1.0067351851364404e-06,6.84753707111485e-07,1.3732282818338108e-06,1.6559502304603766e-06
206,1.01097714930498e-05,1.085634692433164e-06,1.261952750827867e-06,2.3432977833710143e-05,1.100082193275464e-06,1.1708756891510318e-06,1.0370793874561673e-06,2.3776749003419986e-06,1.781118549593802e-06,1.15827425845174e-06,6.09451704078279e-07,1.0437769269973553e-06,9.976225845258168e-07,6.914861826125487e-07,1.380450878370914e-06,1.6561231836539705e-06
207,1.1350717430263263e-05,1.1369473585002887e-06,1.2492156191395244e-06,2.4300294164782015e-05,1.1068503461593197e-06,1.1547398039253475e-06,1.0356547125235847e-06,2.3494481887290826e-06,1.8674074860587934e-06,1.1713272761827338e-06,6.105007103147799e-07,1.0385614055187314e-06,9.87009284861462e-07,6.958952792322477e-07,1.3867412519523907e-06,1.6573194408599839e-06
208,1.2663639562797757e-05,1.1865646551985335e-06,1.2357878408457637e-06,2.5219713382892747e-05,1.1105700741280198e-06,1.1384245813243313e-06,1.0335347168217235e-06,2.319097252723384e-06,1.959927578961364e-06,1.183591155022834e-06,6.121041856074326e-07,1.0391568055592567e-06,9.747566695924623e-07,6.980582635782923e-07,1.391664215681361e-06,1.6599030435257948e-06
209,1.4042208256006207e-05,1.2333167205078259e-06,1.221636450898491e-06,2.6195871565600323e-05,1.1111763240632275e-06,1.1221104247059206e-06,1.0310836625241287e-06,2.2876314505475893e-06,2.059982825877118e-06,1.19523493010451e-06,6.143816641851889e-07,1.0455389977814039e-06,9.607138982703373e-07,6.981846778905764e-07,1.394955857055291e-06,1.664007693827374e-06
210,1.5477895805235713e-05,1.276273039977958e-06,1.2066504485059424e-06,2.7229739087043577e-05,1.1088133289623465e-06,1.1058292256927204e-06,1.0287641170548227e-06,2.255684969223289e-06,2.1688818752797933e-06,1.2065635022527576e-06,6.173450999534438e-07,1.0575417580001928e-06,9.447044115244469e-07,6.966413298549436e-07,1.3964299954305769e-06,1.669541762349884e-06
211,1.6959606142740812e-05,1.3147378932932975e-06,1.1907148472631397e-06,2.8318303028246117e-05,1.103823179831289e-06,1.089493933273746e-06,1.0270152789466822e-06,2.223477421258276e-06,2.287897858326156e-06,1.217840888866876e-06,6.209114443638653e-07,1.0748920098732706e-06,9.265925396270002e-07,6.93917773659815e-07,1.395891280708979e-06,1.676297078735382e-06
212,1.847331232845491e-05,1.3482162804273629e-06,1.1737929828867438e-06,2.9454613829610597e-05,1.0966399473324759e-06,1.0730292287510168e-06,1.0261852650634883e-06,2.1908202129955236e-06,2.418298690123306e-06,1.2292027387003165e-06,6.249529031877371e-07,1.0972469915748012e-06,9.063998875652474e-07,6.905261511279776e-07,1.393093072357061e-06,1.684031663439437e-06
213,2.000169582662519e-05,1.3763695334513464e-06,1.155970258028703e-06,3.0627864652449245e-05,1.087648299377385e-06,1.056475744147507e-06,1.0265096694820228e-06,2.157172839762738e-06,2.561359715035797e-06,1.2406644638970255e-06,6.293643757341451e-07,1.1242344291625262e-06,8.843307475093233e-07,6.869512016829763e-07,1.3877635472763346e-06,1.6924519750662406e-06
214,2.15237415187915e-05,1.3989308541787125e-06,1.1374659889565278e-06,3.1823142710028457e-05,1.0770932984904537e-06,1.0399958568445943e-06,1.0280812774824438e-06,2.121804011553541e-06,2.7182587386469954e-06,1.252120955219627e-06,6.340821584866649e-07,1.1554341222784842e-06,8.60689582146434e-07,6.836761557520478e-07,1.3796833627886596e-06,1.7011353995359966e-06
215,2.3014232843576028e-05,1.4156704619999005e-06,1.1186091529649252e-06,3.3020719553106876e-05,1.0650742500375009e-06,1.0238067727327005e-06,1.0308323187264435e-06,2.084026015455219e-06,2.8898919785017145e-06,1.263309500066006e-06,6.390494989155996e-07,1.1903076608522194e-06,8.358537969412636e-07,6.811795610952728e-07,1.3687343906519623e-06,1.709481572087242e-06
216,2.4443223324893063e-05,1.4265479271765764e-06,1.0997803239378818e-06,3.4195703459655626e-05,1.051601242269271e-06,1.0081006995575652e-06,1.0345687776511106e-06,2.0434139768066465e-06,3.076710504489202e-06,1.2737908312028115e-06,6.441855728792586e-07,1.2282120600051746e-06,8.103120648010612e-07,6.798871537408924e-07,1.3548546729932165e-06,1.7167367378988828e-06
217,2.5776083629073615e-05,1.4319535585127579e-06,1.0813402292087719e-06,3.531966246952123e-05,1.0366886860889427e-06,9.930334787403292e-07,1.039014432451303e-06,1.9999876031236024e-06,3.2786510495442503e-06,1.2830346574574904e-06,6.493858285189099e-07,1.2685008103889071e-06,7.846389559060415e-07,6.801472425407084e-07,1.3379209410235898e-06,1.7220870749474024e-06
218,2.697535000423774e-05,1.432804995698087e-06,1.0635586438846595e-06,3.636469905752554e-05,1.0204457976992255e-06,9.78798760677169e-07,1.0437986194459788e-06,1.95432377952583e-06,3.4952060234820765e-06,1.2906223566384087e-06,6.54529928292594e-07,1.3105525887459946e-06,7.594126228514605e-07,6.822261519029678e-07,1.3176853332668623e-06,1.7248145542833258e-06
219,2.8005248312911947e-05,1.4304189176058886e-06,1.0465642584906557e-06,3.730837487107425e-05,1.003101454217132e-06,9.656834364260662e-07,1.0484204880064211e-06,1.907495275635249e-06,3.725573296090743e-06,1.2964302890829758e-06,6.594827086886341e-07,1.3537061863079357e-06,7.351622543798318e-07,6.86286673699049e-07,1.2938775176447715e-06,1.7244784989636411e-06
220,2.883782292206018e-05,1.4262530809489414e-06,1.0303476374260517e-06,3.813711007093928e-05,9.849398037894704e-07,9.540336084658747e-07,1.052296180876539e-06,1.860808812758036e-06,3.968716903000187e-06,1.30062528596695e-06,6.641195931550812e-07,1.397223391884878e-06,7.123408888006391e-07,6.92355855279243e-07,1.266426587560885e-06,1.720974778369148e-06
221,2.9457343138647663e-05,1.4216801090955708e-06,1.014798378812083e-06,3.8846374140331015e-05,9.66193102163211e-07,9.441738505610747e-07,1.0549214907199808e-06,1.815509133382282e-06,4.223270510297315e-06,1.3034760060507977e-06,6.683929879114264e-07,1.4402914952916927e-06,6.912966262558971e-07,7.003045190896598e-07,1.2356564627537985e-06,1.7143685045936968e-06
222,2.9859644699752463e-05,1.4178852133072502e-06,9.997308623530303e-07,3.9437369871527376e-05,9.469648589871796e-07,9.36335006294309e-07,1.0560462443339173e-06,1.7726669634405284e-06,4.48741481247857e-06,1.3051757442207737e-06,6.723906322800044e-07,1.482003687918773e-06,6.722759814813629e-07,7.098537028867526e-07,1.2023142149143551e-06,1.7046618239085062e-06
223,3.0046768515593987e-05,1.415838091597648e-06,9.84922877465962e-07,3.991172667683148e-05,9.272304147243032e-07,9.306194451432497e-07,1.0557162619096883e-06,1.7332781984833387e-06,4.758862290090596e-06,1.3058079976596495e-06,6.763225500021854e-07,1.521343384171606e-06,6.554840129734433e-07,7.206236826872551e-07,1.167389603889647e-06,1.6917238594921487e-06
224,3.0022034666235575e-05,1.4162790669377252e-06,9.701865873600517e-07,4.026737500760422e-05,9.068975673294502e-07,9.270253964720868e-07,1.0541487181274652e-06,1.6983926992231892e-06,5.03493696336823e-06,1.3053818903761544e-06,6.804545381632574e-07,1.55723202416888e-06,6.411615764304625e-07,7.322094375689971e-07,1.131856431661233e-06,1.6753774321165267e-06
225,2.979022108571849e-05,1.419720254955414e-06,9.55412789609049e-07,4.049835484325054e-05,8.85865757230004e-07,9.255114472443492e-07,1.051566032697819e-06,1.6691006542186053e-06,5.312618158773275e-06,1.3038500721502783e-06,6.850511229642295e-07,1.5886499194371243e-06,6.296051771206036e-07,7.442181887404196e-07,1.096512670543796e-06,1.6555171159615353e-06
226,2.936162266817748e-05,1.426442197718633e-06,9.40575350975044e-07,4.059821461763362e-05,8.640646822255309e-07,9.26030425036205e-07,1.048124660626846e-06,1.6463864343288922e-06,5.588396040805882e-06,1.3011156008055006e-06,6.903320787201725e-07,1.6147963516544877e-06,6.211059356048842e-07,7.562510700636117e-07,1.0619774660271323e-06,1.6321990517258207e-06
227,2.8755585368702656e-05,1.4364826630743877e-06,9.257491382732988e-07,4.056428113486327e-05,8.415103584416834e-07,9.284963978471135e-07,1.0439229259253324e-06,1.6309905784703208e-06,5.857997187278441e-06,1.297049697502511e-06,6.964345463778053e-07,1.6351964271378903e-06,6.158748889765399e-07,7.67890016126066e-07,1.0287788347551679e-06,1.605681662952751e-06
228,2.8001236252496365e-05,1.449652276582081e-06,9.111296290234628e-07,4.0400697471093324e-05,8.183858963674037e-07,9.327475616441066e-07,1.038999218334943e-06,1.6233641604167953e-06,6.116353720783924e-06,1.2915339522694206e-06,7.033982073179592e-07,1.6496681184082665e-06,6.140140905323e-07,7.787090694847331e-07,9.974116518028498e-07,1.5764232748678183e-06
229,2.713566669677184e-05,1.4655602685865642e-06,8.969893770858188e-07,4.011960923803292e-05,7.950867085396308e-07,9.385781339933141e-07,1.0333145466927738e-06,1.6237131756084657e-06,6.358168433594789e-06,1.284523482633647e-06,7.111717545751352e-07,1.6582081781864342e-06,6.155173544239102e-07,7.882656631422845e-07,9.683250860395199e-07,1.5450855423574046e-06
230,2.6200643413161362e-05,1.483609606875568e-06,8.835864560857899e-07,3.974056149789763e-05,7.72171226619072e-07,9.458140554721928e-07,1.026764410731533e-06,1.632122854425573e-06,6.579054872980936e-06,1.2760636168282878e-06,7.196493122904705e-07,1.6608893493029802e-06,6.202704298707692e-07,7.960822518312469e-07,9.418987985465303e-07,1.5125429812593986e-06
231,2.523904059079451e-05,1.5029735318813194e-06,8.711154954269763e-07,3.9288521298244494e-05,7.502399969693204e-07,9.543560451472798e-07,1.0192165649333605e-06,1.6487034818109813e-06,6.7768532597586826e-06,1.2662036507411332e-06,7.287462781535013e-07,1.6577709332963831e-06,6.280561719667606e-07,8.016997319745762e-07,9.184193821438335e-07,1.4798115224758268e-06
232,2.429192348126817e-05,1.522618512224517e-06,8.597167417827624e-07,3.879117314460385e-05,7.298414154507377e-07,9.641561339166159e-07,1.0105394016178413e-06,1.6736895801052486e-06,6.952489959186846e-06,1.2548993316580076e-06,7.384665328754482e-07,1.6489056673298818e-06,6.385848999803272e-07,8.048097899445466e-07,8.980484286035202e-07,1.4478859948209642e-06
233,2.339659625523308e-05,1.5414454817247621e-06,8.49465753278916e-07,3.827612400983005e-05,7.114549321758151e-07,9.751464995359205e-07,1.0006272382885624e-06,1.7075112378240315e-06,7.109828689217216e-06,1.2420361655278467e-06,7.489124327215024e-07,1.6345065362565438e-06,6.515353732666496e-07,8.05329783142937e-07,8.80835122667978e-07,1.417627768742205e-06
234,2.2585477080526216e-05,1.5585259901797883e-06,8.40318867985885e-07,3.77685436828047e-05,6.954966591849437e-07,9.871823136888334e-07,9.89456892320159e-07,1.7508550224396842e-06,7.254482744396398e-06,1.2275496990613807e-06,7.602377011678681e-07,1.6150574297690793e-06,6.665592942280859e-07,8.033371278208057e-07,8.66772758425849e-07,1.389764173279755e-06
235,2.1885665961635296e-05,1.5732677923667023e-06,8.320777455946107e-07,3.728947914064564e-05,6.823066529757518e-07,1.0000623424241606e-06,9.771436907972507e-07,1.8046426670461317e-06,7.392224860564123e-06,1.2115231130830146e-06,7.725684976437984e-07,1.5911980760855617e-06,6.8325546432135e-07,7.9899091356126e-07,8.558113293222078e-07,1.3649010475076052e-06
236,2.1319167481841963e-05,1.5853553880629166e-06,8.244280041118006e-07,3.6854538695880624e-05,6.721423526457443e-07,1.013612430724911e-06,9.639065254607299e-07,1.8698757176728368e-06,7.527882484484522e-06,1.1942111716143798e-06,7.859386706098407e-07,1.5635735374222656e-06,7.011878198327913e-07,7.925774931086168e-07,8.478077495205031e-07,1.3435151204797187e-06
237,2.0903546541631332e-05,1.5945309083623457e-06,8.17041063667197e-07,3.647260157846223e-05,6.651992988891376e-07,1.0277599114924996e-06,9.499494211997226e-07,1.947446212659821e-06,7.665098380227239e-06,1.176028320244871e-06,8.002695034570473e-07,1.5328364784892445e-06,7.199458754503802e-07,7.8458870999776e-07,8.424983363086121e-07,1.3259640702850986e-06
238,2.065253141718655e-05,1.600432159130482e-06,8.096753510033733e-07,3.6145099367469657e-05,6.616522450979453e-07,1.0425488032971922e-06,9.353989552380293e-07,2.0380522269892995e-06,7.806602248311091e-06,1.1575257358304307e-06,8.153840352437022e-07,1.4997195129600232e-06,7.391521310952827e-07,7.7567019029715e-07,8.395232129098676e-07,1.3124930712772166e-06
239,2.0576237919378972e-05,1.6025805417459518e-06,8.022206009003534e-07,3.586683979685798e-05,6.616732501249577e-07,1.0580765317944641e-06,9.203770166116896e-07,2.1421963383894912e-06,7.9544562323802e-06,1.1393415586463075e-06,8.310389214538387e-07,1.4650644998698307e-06,7.584249783143383e-07,7.664828810640525e-07,8.3847398593107e-07,1.3032487559826033e-06
240,2.068113215765355e-05,1.6004455127641636e-06,7.946972414059981e-07,3.562845706254819e-05,6.653994303357624e-07,1.0743823782410299e-06,9.051129008681283e-07,2.260154966543677e-06,8.109968156167232e-06,1.1221311639276405e-06,8.469538362674972e-07,1.4297833366908549e-06,7.773861811064662e-07,7.576119703298542e-07,8.389700164696554e-07,1.2983282717825645e-06
241,2.096994280078917e-05,1.5935094933197824e-06,7.872569506548517e-07,3.5419612896978165e-05,6.729018374052547e-07,1.0913730567900303e-06,8.899518964206613e-07,2.3918952973192862e-06,8.273286081456107e-06,1.106497365035095e-06,8.628094750152455e-07,1.3947484390471143e-06,7.956950696094582e-07,7.495437173716358e-07,8.407255868245368e-07,1.2978090438736651e-06
242,2.144151837400067e-05,1.5813243453717006e-06,7.801780399966373e-07,3.523187411085703e-05,6.841889047783504e-07,1.1088306081244452e-06,8.752533687670467e-07,2.537009248029897e-06,8.44307622618726e-06,1.0929272459430331e-06,8.782147957399722e-07,1.3606796036989658e-06,8.130592254002917e-07,7.426767440101561e-07,8.435478845649502e-07,1.301767497798647e-06
243,2.2090574476853963e-05,1.5636025837056525e-06,7.738086970243379e-07,3.506049438134445e-05,6.992022358947579e-07,1.1264635052674502e-06,8.613066716521604e-07,2.6947174211932025e-06,8.616761547017105e-06,1.081761030943899e-06,8.926868461380833e-07,1.3281075306265935e-06,8.292497402596035e-07,7.373245559185206e-07,8.473155837863868e-07,1.3103166684027638e-06
244,2.2907354301176287e-05,1.5403628975511231e-06,7.684666088254102e-07,3.49047615154586e-05,7.177955200471887e-07,1.1439548440712495e-06,8.483421485504933e-07,2.863891328168246e-06,8.791326902062673e-06,1.0732398403849242e-06,9.056576851935941e-07,1.2974426319967723e-06,8.441262960311448e-07,7.336830649579389e-07,8.520116985853743e-07,1.3235646277397435e-06
245,2.3877223516112264e-05,1.5120503443758158e-06,7.643716848567616e-07,3.47668815269737e-05,7.397254318564853e-07,1.1610011431297796e-06,8.365831945235315e-07,3.0429936283767104e-06,8.964202632148444e-06,1.0676148062960154e-06,9.164760441777247e-07,1.2691110926065131e-06,8.576121200307975e-07,7.317968440463486e-07,8.57772396705135e-07,1.3414967972453995e-06
246,2.4980222826536914e-05,1.4795294648286753e-06,7.616525370058856e-07,3.464975261706347e-05,7.646453660774845e-07,1.177345142408148e-06,8.262848377362823e-07,3.2299386046647083e-06,9.133689741146804e-06,1.065195957014721e-06,9.244219735894757e-07,1.2436066465748953e-06,8.696344253912458e-07,7.315530624992672e-07,8.648643577998333e-07,1.3639399274387163e-06
247,2.6190767548717254e-05,1.4439543138938318e-06,7.603752184355185e-07,3.455454663100976e-05,7.920995989910827e-07,1.1927855177883343e-06,8.177508948239685e-07,3.421983672748597e-06,9.298738327293816e-06,1.066270984593264e-06,9.288145472439881e-07,1.2213900198736249e-06,8.801261056720894e-07,7.327065425173018e-07,8.735782681775266e-07,1.3906440379789933e-06
248,2.7478013343962854e-05,1.4066048255563635e-06,7.605386616634904e-07,3.4479163542873396e-05,8.215284787295618e-07,1.2071416867856625e-06,8.11308868997139e-07,3.6157356010788433e-06,9.458354007012066e-06,1.0709803363381836e-06,9.292027934370543e-07,1.2027676205634775e-06,8.890928225686957e-07,7.349335279652117e-07,8.841154941445863e-07,1.4213607572805355e-06
249,2.8807541341740806e-05,1.3687443724066272e-06,7.620603877744421e-07,3.441799692574203e-05,8.522749078446434e-07,1.2201808251778346e-06,8.07253546059015e-07,3.8072596891297355e-06,9.611011039658943e-06,1.0792597656539533e-06,9.254711820709691e-07,1.1878377692803512e-06,8.966747877768616e-07,7.37897654829341e-07,8.965302728642013e-07,1.4558135379653816e-06
250,3.014447097214641e-05,1.3315000978379001e-06,7.647877160043034e-07,3.436272552809497e-05,8.836189340357785e-07,1.231567060418413e-06,8.058174828320613e-07,3.9921917181998425e-06,9.754167403926315e-06,1.09089218866904e-06,9.177470487665501e-07,1.1764727973209446e-06,9.031683422107611e-07,7.413160616576456e-07,9.107090141784498e-07,1.4936003145029712e-06
251,3.145707602600502e-05,1.2957944990756974e-06,7.68532530249227e-07,3.430370054608396e-05,9.148594010573786e-07,1.240928337157369e-06,8.071696478810444e-07,4.165748818524156e-06,9.883993580492504e-06,1.1056540103564549e-06,9.062557191492819e-07,1.1683149679715426e-06,9.08989673942793e-07,7.450125048830215e-07,9.263567529729863e-07,1.5341582419350188e-06
252,3.271935732415592e-05,1.2623509326981695e-06,7.731393552560043e-07,3.423148139975549e-05,9.453685612327078e-07,1.2480327015644357e-06,8.113895927002432e-07,4.322779261509803e-06,9.995662355467105e-06,1.123456574141751e-06,8.912994691810667e-07,1.1627953219312858e-06,9.145903856483973e-07,7.489208901709522e-07,9.430003750794575e-07,1.5768108633188285e-06
253,3.3911463742574826e-05,1.2317254082506276e-06,7.785696935458289e-07,3.4137599460492085e-05,9.745668650845772e-07,1.2528895585667185e-06,8.18419864793954e-07,4.458217371147872e-06,1.0084176766264561e-05,1.1443735463815362e-06,8.733011837131188e-07,1.1592089773119842e-06,9.203767759769909e-07,7.530371234256505e-07,9.600229757791682e-07,1.620791441539099e-06
254,3.5018061593059824e-05,1.2043420401686054e-06,7.849336406407957e-07,3.4013400258638226e-05,1.0018862273382925e-06,1.2556452676582919e-06,8.280545482623954e-07,4.567987699732596e-06,1.0145158657034468e-05,1.1685973207335019e-06,8.528069484767985e-07,1.1568554138802883e-06,9.266585134607414e-07,7.573977576068282e-07,9.767216000508543e-07,1.6652372027830184e-06
255,3.6025582689006076e-05,1.1805728201332227e-06,7.924407460921518e-07,3.3847390485218145e-05,1.0268055294375212e-06,1.2563838238154268e-06,8.40003043551004e-07,4.649827167176402e-06,1.0175153345019617e-05,1.196449361253331e-06,8.304633540753756e-07,1.1551317822422174e-06,9.336160644462551e-07,7.621036891171939e-07,9.923538866510287e-07,1.7093063519066975e-06
256,3.6919107009649145e-05,1.1608421873719447e-06,8.013171261232208e-07,3.362400211273766e-05,1.0489397201271933e-06,1.2550039951763224e-06,8.540048984836816e-07,4.7034232664528035e-06,1.0171375543303467e-05,1.2284411402500343e-06,8.069782643485482e-07,1.1535001060068491e-06,9.412871660267474e-07,7.672958912847451e-07,1.0061521161710235e-06,1.7524168325980286e-06
257,3.767980726238167e-05,1.1456694509364043e-06,8.11759882900452e-07,3.332587193719769e-05,1.0680740022465168e-06,1.2512148200682371e-06,8.699056886581423e-07,4.729737799902824e-06,1.0131007778462922e-05,1.2652641015883881e-06,7.830420980801826e-07,1.1514544688713774e-06,9.495929922776175e-07,7.730860748211938e-07,1.017383440210812e-06,1.7943247733649133e-06
258,3.828470311971053e-05,1.1356373957758347e-06,8.239616429214346e-07,3.2937992007211754e-05,1.084087259685475e-06,1.244631999583216e-06,8.876256838487073e-07,4.729975020681438e-06,1.0050636276771455e-05,1.3076500586686523e-06,7.592490266899181e-07,1.1485848225609246e-06,9.58415646070316e-07,7.795263451095923e-07,1.0255578330376144e-06,1.834898158659225e-06
259,3.870933919584211e-05,1.1313653531092203e-06,8.381597486623961e-07,3.245097678722216e-05,1.0968884762342361e-06,1.2349502921882776e-06,9.070697307319815e-07,4.7049482687377265e-06,9.926768187095784e-06,1.3561876241081801e-06,7.360759555142679e-07,1.1446337080965957e-06,9.67674268393065e-07,7.86606775899823e-07,1.0306712639935787e-06,1.873854380100608e-06
260,3.8931633556839536e-05,1.1335137568572979e-06,8.54632625569885e-07,3.1862532447129377e-05,1.1064881044444934e-06,1.2221066332480216e-06,9.280789467916172e-07,4.655190548313872e-06,9.757508260981976e-06,1.4112139051243312e-06,7.139012218043925e-07,1.1394621721015477e-06,9.773276603554226e-07,7.9425270017726e-07,1.0332269169502373e-06,1.9107636687249275e-06
261,3.893518519416727e-05,1.142759756809458e-06,8.73632547500463e-07,3.117739576452361e-05,1.113088147670819e-06,1.206320564905333e-06,9.504292527256681e-07,4.581436907413097e-06,9.544128303902883e-06,1.472815657912636e-06,6.930130866876244e-07,1.1329721535497808e-06,9.873456091728686e-07,8.023380722525623e-07,1.0339927194849754e-06,1.9452580045446824e-06
262,3.87117951466673e-05,1.1597105117234623e-06,8.953164505227876e-07,3.0405808194119458e-05,1.1170260902428677e-06,1.187981718800521e-06,9.738107125302763e-07,4.484995330026175e-06,9.291226035718645e-06,1.5409357996366131e-06,6.736026779507041e-07,1.1250600722910734e-06,9.977179515870084e-07,8.107070034449402e-07,1.0337115317016761e-06,1.977171974855545e-06
263,3.826311753820301e-05,1.184803992684817e-06,9.197106013911245e-07,2.9560438342799875e-05,1.1186166759532547e-06,1.167503127198376e-06,9.97806058328855e-07,4.36789401172253e-06,9.005357098613762e-06,1.6155595302423948e-06,6.557602297329313e-07,1.1156517833989884e-06,1.0084527752384115e-06,8.191894144803499e-07,1.032952111546346e-06,2.0064752260775475e-06
264,3.7600578894821584e-05,1.2182521398247987e-06,9.466871163977063e-07,2.8652987805457e-05,1.118033425086383e-06,1.1452756656173013e-06,1.021934359314832e-06,4.2328920270270125e-06,8.693157738672213e-06,1.6968596566897275e-06,6.394887318246447e-07,1.104778942200678e-06,1.0195271624789986e-06,8.276144505161053e-07,1.0321106145488104e-06,2.033106258499215e-06
265,3.6742489425774093e-05,1.2600277370986736e-06,9.759388921753774e-07,2.769272763432773e-05,1.1152815572176244e-06,1.1216852952701289e-06,1.0457311691246694e-06,4.083411507627903e-06,8.36020523067263e-06,1.7851800074518079e-06,6.247283650478728e-07,1.0925859583691778e-06,1.0308425689717812e-06,8.358239344312033e-07,1.0314645818160643e-06,2.0569334006970143e-06
266,3.570887221629516e-05,1.3098942436352357e-06,1.0069829611122412e-06,2.6687346800300324e-05,1.1102440585845674e-06,1.097104670952574e-06,1.0687970413952787e-06,3.923396126588667e-06,8.010963838435926e-06,1.8809035418362107e-06,6.113717140220868e-07,1.0792724992426176e-06,1.0422190871736064e-06,8.436716670581726e-07,1.0312354653601963e-06,2.0779257727370973e-06
267,3.4517194490739826e-05,1.367486758220834e-06,1.0392533522192078e-06,2.5644508172466506e-05,1.1027685739996303e-06,1.0719107813803283e-06,1.0908008153112925e-06,3.7571030232896425e-06,7.649215757607138e-06,1.9843487945717557e-06,5.992913380344756e-07,1.0650759683307105e-06,1.0533975754950966e-06,8.509925793300474e-07,1.0316876531174047e-06,2.0963881238400836e-06
268,3.318209755076811e-05,1.4324106870499552e-06,1.072289260493674e-06,2.457294871147545e-05,1.0927479930313676e-06,1.0465724385785013e-06,1.1114419928635754e-06,3.5888511998557203e-06,7.278471090305836e-06,2.095716042217419e-06,5.883978044391194e-07,1.050289700294111e-06,1.0640153137387642e-06,8.575875855005043e-07,1.033190564003487e-06,2.1130776703293275e-06
269,3.171848096557298e-05,1.5043241308384116e-06,1.1058702717889721e-06,2.3482603343949664e-05,1.080183059067705e-06,1.0216932051719476e-06,1.1303734252980273e-06,3.4227422447003245e-06,6.902248056242087e-06,2.214997782869752e-06,5.786790802334526e-07,1.0352292141406544e-06,1.0736276686335198e-06,8.632782487341544e-07,1.0361470574694488e-06,2.12914205858932e-06
270,3.014471748892565e-05,1.5830205351578867e-06,1.1399520283130553e-06,2.2383372712164275e-05,1.0652463063150717e-06,9.979272999456772e-07,1.1471103601446136e-06,3.262414096015439e-06,6.524145565818992e-06,2.3418531627363957e-06,5.701812332511611e-07,1.0201690246817659e-06,1.0818558218725518e-06,8.679780641700874e-07,1.0408809895471547e-06,2.145915167488851e-06
271,2.8483865817735817e-05,1.6685277493783382e-06,1.1744928809261472e-06,2.128326744342582e-05,1.0483212983108604e-06,9.758832716596862e-07,1.160977119437441e-06,3.110944261571617e-06,6.147739612065791e-06,2.4755193534122154e-06,5.629521200650314e-07,1.0053315192178819e-06,1.0885284291134354e-06,8.717068325958905e-07,1.0475984585535818e-06,2.164655046438287e-06
272,2.6762747073006216e-05,1.7611838846151595e-06,1.209371789935781e-06,2.0187747175089427e-05,1.0299660757932205e-06,9.561098152342554e-07,1.171154266169225e-06,2.970894714781195e-06,5.776515889301983e-06,2.6147894392235373e-06,5.570066421417479e-07,9.908884170832821e-07,1.0936325360950598e-06,8.74566676881074e-07,1.056385603218199e-06,2.1863419625689386e-06
273,2.5009701266632997e-05,1.8616112803217196e-06,1.2444072583604102e-06,1.910099714102704e-05,1.0107982700989612e-06,9.390789508878947e-07,1.1768566677960682e-06,2.844338567343911e-06,5.413960052089899e-06,2.758035167738464e-06,5.523462272084135e-07,9.769063337226878e-07,1.097133759106067e-06,8.767193905343961e-07,1.0671957579594102e-06,2.211595852803148e-06
274,2.3252099735959953e-05,1.9705513203148094e-06,1.2793554945865495e-06,1.802793733866508e-05,9.913578818321228e-07,9.25120466004139e-07,1.1775622204199694e-06,2.7328183049344326e-06,5.0637136046231004e-06,2.9032333131689594e-06,5.48989419759089e-07,9.632821210744483e-07,1.0988642769394106e-06,8.78349904899351e-07,1.0798226119227261e-06,2.240687517752035e-06
275,2.151445411320077e-05,2.088653566154625e-06,1.3139221454436318e-06,1.6975657470979907e-05,9.720094005045174e-07,9.143829357285939e-07,1.1731234661442665e-06,2.6373162574307338e-06,4.729628108206175e-06,3.0479905628624076e-06,5.469644556572715e-07,9.497498967288517e-07,1.0985803552671507e-06,8.795990633748905e-07,1.0938556849473415e-06,2.2736363806090527e-06
276,1.9817336402537835e-05,2.2163758368685705e-06,1.3478775760769648e-06,1.595391924939778e-05,9.529078637117145e-07,9.068528028627244e-07,1.1636743738276663e-06,2.558253913059438e-06,4.415650291468644e-06,3.1896326316687937e-06,5.462717032868427e-07,9.359620340795183e-07,1.0961452429104261e-06,8.805194077089077e-07,1.1086542195803013e-06,2.3103222850538522e-06
277,1.817699413083109e-05,2.353985261008248e-06,1.3811639814281702e-06,1.4974715305160938e-05,9.340378779201101e-07,9.023882485491786e-07,1.1494480127777688e-06,2.4955163857397225e-06,4.125651344980514e-06,3.3254371702998114e-06,5.468491451211709e-07,9.215510934979344e-07,1.09169358553926e-06,8.811093062981232e-07,1.1233905634109053e-06,2.350467356217426e-06
278,1.6605633716793855e-05,2.5015087886426924e-06,1.413878527969537e-06,1.405096525793685e-05,9.153294332309221e-07,9.007373937700001e-07,1.1306996078890881e-06,2.4485137121043554e-06,3.863348210114765e-06,3.4530130814295157e-06,5.485572104234549e-07,9.061048367073525e-07,1.0856684994778926e-06,8.813861326696388e-07,1.1371503041292183e-06,2.393530602963944e-06
279,1.5112189425294271e-05,2.6586321196858472e-06,1.4462291690532433e-06,1.3194830963416833e-05,8.968103310208667e-07,9.015597663840179e-07,1.107760580467649e-06,2.416226011629165e-06,3.632288232366771e-06,3.5706968172215687e-06,5.511888916477848e-07,8.891347421054419e-07,1.0787415127414797e-06,8.814276278282199e-07,1.1490356748655266e-06,2.438671194044146e-06
280,1.3703087714484374e-05,2.8246387670353528e-06,1.4785648495096248e-06,1.2416626751179338e-05,8.787200008464242e-07,9.044613877144224e-07,1.0810986551984306e-06,2.397225667646151e-06,3.435764383620833e-06,3.677771705972582e-06,5.545421910038544e-07,8.701414170847394e-07,1.0716696807337503e-06,8.813639702057022e-07,1.1582629831972025e-06,2.4847763738078383e-06
281,1.2382624427471356e-05,2.998371394202216e-06,1.5114157355151754e-06,1.1724869114264955e-05,8.615227767813124e-07,9.090102973175933e-07,1.05132540928327e-06,2.3897421861878144e-06,3.276640660797838e-06,3.7743762212888593e-06,5.58552073860313e-07,8.487073653861274e-07,1.0651489886184006e-06,8.81346600414872e-07,1.1642790948322564e-06,2.5304867357547534e-06
282,1.1152955745560043e-05,3.178264405684672e-06,1.5454461684824797e-06,1.1126852899141358e-05,8.458102227609595e-07,9.147410563877025e-07,1.0191746084647222e-06,2.3917189591523695e-06,3.1572233192249766e-06,3.861110501761183e-06,5.633598619138702e-07,8.244983808978091e-07,1.059737677939527e-06,8.815235580472243e-07,1.166881517989001e-06,2.5742345412835245e-06
283,1.0014066425719355e-05,3.362591096591801e-06,1.581318338680536e-06,1.0628947878829342e-05,8.321665049394488e-07,9.212150448508572e-07,9.85458843408625e-07,2.400775861211202e-06,3.0793503888607427e-06,3.938594206386272e-06,5.692383242999496e-07,7.972086539167097e-07,1.0558639547175663e-06,8.820253728077537e-07,1.166281502767374e-06,2.6143381885996372e-06
284,8.964162903739193e-06,3.5498841701624296e-06,1.6195242627822064e-06,1.0236490309866196e-05,8.210890013678283e-07,9.281354987721998e-07,9.510100294444906e-07,2.414189409966442e-06,3.0447232885046373e-06,4.007248642621841e-06,5.764675405640145e-07,7.665369449939047e-07,1.0538568723246955e-06,8.829507308071641e-07,1.163038469197537e-06,2.6491828320328614e-06
285,8.000468454767717e-06,3.7393042499148023e-06,1.6602580562028387e-06,9.95344881130875e-06,8.129663676317742e-07,9.354100532614508e-07,9.166227051975777e-07,2.429050072785677e-06,3.0552710568979263e-06,4.067192687317973e-06,5.852723197005998e-07,7.322145745689727e-07,1.0539594397786549e-06,8.843492281420722e-07,1.1578652293014524e-06,2.6774338274864425e-06
286,7.119909650067452e-06,3.930766301837695e-06,1.7033972562686181e-06,9.78201166128773e-06,8.080821910116259e-07,9.430827442799549e-07,8.830053920033561e-07,2.4425540244327472e-06,3.113307129554653e-06,4.11803780035106e-06,5.958052237405206e-07,6.94057398236637e-07,1.0563265461569494e-06,8.862183486520603e-07,1.151452454693494e-06,2.6981287544854875e-06
287,6.3193548304386714e-06,4.124807124347838e-06,1.7486046229131243e-06,9.722276393459489e-06,8.06660158335847e-07,9.51202306553792e-07,8.507501563156509e-07,2.4522893651423224e-06,3.2214438369338817e-06,4.1587164518449375e-06,6.081256992751776e-07,6.520169985725289e-07,1.0610159746137412e-06,8.885454806126636e-07,1.1444228544163132e-06,2.7105652979864285e-06
288,5.595503998819327e-06,4.3223420657197575e-06,1.7954781490232037e-06,9.772140294887424e-06,8.089338521400559e-07,9.597576749200435e-07,8.203307624295823e-07,2.45644732717327e-06,3.3823462798853113e-06,4.1876333197259705e-06,6.221737017656199e-07,6.063006391833828e-07,1.067962255092693e-06,8.913645118620797e-07,1.1373189436202753e-06,2.714055251152087e-06
289,4.944630807909151e-06,4.524426042305921e-06,1.84365227327896e-06,9.927341130433944e-06,8.151636427920133e-07,9.687153237626752e-07,7.9210919571159e-07,2.453927174438493e-06,3.5983848683385916e-06,4.2031376488501625e-06,6.377717953942227e-07,5.576002647681834e-07,1.0769211522916422e-06,8.947477336036911e-07,1.130538387659419e-06,2.7077329157845134e-06
290,4.362326919790957e-06,4.731960036783614e-06,1.8928005173440296e-06,1.0181671213639878e-05,8.255834653146967e-07,9.780957834952412e-07,7.663545965960264e-07,2.4442853258319283e-06,3.871317866732138e-06,4.203927296975118e-06,6.546967154332554e-07,5.072633093778618e-07,1.0874315939419825e-06,8.987591065955891e-07,1.1242832128790346e-06,2.690689065005407e-06
291,3.843503264874996e-06,4.94530917766488e-06,1.9425434004369457e-06,1.0527360779506833e-05,8.403351390618385e-07,9.88017652764731e-07,7.432987566419263e-07,2.427504713098747e-06,4.2021540751450024e-06,4.189135127349595e-06,6.727760658240574e-07,4.57231847040592e-07,1.0988749306342005e-06,9.034393550543416e-07,1.1185987661654818e-06,2.6624697558394084e-06
292,3.3827967452790656e-06,5.164009209172232e-06,1.9922992648657908e-06,1.0955371038051159e-05,8.594225089140725e-07,9.98657760081516e-07,7.231798800211775e-07,2.4036578192591154e-06,4.591152021812544e-06,4.158322136622015e-06,6.9189617541184e-07,4.098287987880801e-07,1.1106404932024612e-06,9.087804052914189e-07,1.1134689439764584e-06,2.6235331194332107e-06
293,2.975129743183581e-06,5.3867290091013925e-06,2.0411558017803635e-06,1.1455472813808502e-05,8.826815337490055e-07,1.0101406774554315e-06,7.062159161681966e-07,2.3726412767615307e-06,5.0378098435382205e-06,4.111591336333305e-06,7.119234876222958e-07,3.675845857203157e-07,1.1223022727641038e-06,9.146642682302006e-07,1.1088850222080844e-06,2.5752732656012765e-06
294,2.6161035085883947e-06,5.61145683265123e-06,2.087861891212207e-06,1.2016432116221809e-05,9.097667295266429e-07,1.0224439823178267e-06,6.925493723140771e-07,2.334160455634652e-06,5.540805540230822e-06,4.0497354768401405e-06,7.326403744319345e-07,3.3317430002688953e-07,1.1336681687726126e-06,9.208275048810822e-07,1.1049120923138704e-06,2.5196569647403787e-06
295,2.3021793028716785e-06,5.835792542715475e-06,2.130986331784789e-06,1.2626560889644889e-05,9.401534049456993e-07,1.0353648437235012e-06,6.822403952580075e-07,2.287954283920643e-06,6.097928409392221e-06,3.974316559592699e-06,7.537327361901588e-07,3.0944746068049267e-07,1.1446630538093583e-06,9.268740164858977e-07,1.1017661213684445e-06,2.4587971227544743e-06
296,2.03075817868103e-06,6.0572195400862055e-06,2.1691822152899282e-06,1.3274379830227553e-05,9.731529156658653e-07,1.0485237726432263e-06,6.753026562405053e-07,2.2340570806858287e-06,6.705999946868993e-06,3.887648780183604e-06,7.74829914287573e-07,2.9948342301022867e-07,1.1551831510308171e-06,9.323572349815438e-07,1.0997809933758853e-06,2.3947363474175046e-06
297,1.800271770479581e-06,6.273262778579271e-06,2.2014235225426883e-06,1.3949034712534879e-05,1.0079586194968537e-06,1.0614158290120387e-06,6.717163419240109e-07,2.1729544711368326e-06,7.360719824766886e-06,3.7926082018690383e-06,7.95588843380244e-07,3.065725402917021e-07,1.165047775961717e-06,9.369347397091089e-07,1.0992721168464354e-06,2.329414936546854e-06
298,1.6102804614187712e-06,6.481546027867166e-06,2.2271073538337952e-06,1.4640581768433216e-05,1.0437069946811337e-06,1.0735315132049956e-06,6.714053926419266e-07,2.105647828691115e-06,8.056446979832438e-06,3.6922552014241964e-06,8.157456955690629e-07,3.341322938938433e-07,1.1740490566768098e-06,9.404825412327874e-07,1.100442732789277e-06,2.2646176310672133e-06
299,1.4614328669687167e-06,6.67981867681904e-06,2.2460177118099547e-06,1.5340570369493625e-05,1.0794981424585026e-06,1.084489075431012e-06,6.742319518411686e-07,2.0336434715613153e-06,8.786073233826472e-06,3.589435256512856e-06,8.350904171471062e-07,3.856425306249999e-07,1.1820742965623598e-06,9.431116946607717e-07,1.1033565757375654e-06,2.2018876304469986e-06
300,1.3551957938937149e-06,6.8660093988044945e-06,2.2582350359978357e-06,1.6042901295964097e-05,1.1144294526034237e-06,1.0941023137036394e-06,6.800285827994348e-07,1.9588212124174382e-06,9.541097670598613e-06,3.486598254530607e-06,8.534671307676776e-07,4.6463706517373027e-07,1.189191734959002e-06,9.451439137711455e-07,1.1079208287730431e-06,2.1425291824573597e-06
301,1.2934968622046684e-06,7.038338741514737e-06,2.2640733891707042e-06,1.6744128400751837e-05,1.1477108598584672e-06,1.102369474258975e-06,6.886183060062531e-07,1.8831821993401089e-06,1.0311837071239668e-05,3.38594106508055e-06,8.708600262689529e-07,5.747269294290669e-07,1.195574319533226e-06,9.470358894713649e-07,1.1138847021915728e-06,2.087641622617341e-06
302,1.278545002085468e-06,7.195438135550149e-06,2.264045992147052e-06,1.7442314632700248e-05,1.1787284111707365e-06,1.1093904964126458e-06,6.997860992959917e-07,1.8085977180051164e-06,1.1087701119851725e-05,3.2896427808140342e-06,8.874424608407121e-07,7.19586737546744e-07,1.2013697556642834e-06,9.49244617243634e-07,1.1208935201358375e-06,2.038071654039087e-06
303,1.3129323700912173e-06,7.336339407476308e-06,2.258791804221475e-06,1.813482888925863e-05,1.2069559593295634e-06,1.1152329899041571e-06,7.13252102624392e-07,1.7367032795097706e-06,1.185749368220042e-05,3.1998343785991757e-06,9.035090649958625e-07,9.028967567933183e-07,1.206675889698692e-06,9.521131811696155e-07,1.128571423328525e-06,1.994358859326243e-06
304,1.3998457166390755e-06,7.460270561127888e-06,2.248917548672731e-06,1.8816836192511227e-05,1.231875406922497e-06,1.1198217353557386e-06,7.287025803733093e-07,1.6689216894448778e-06,1.2609537387374275e-05,3.1183008920668996e-06,9.193569063376915e-07,1.1282987084747019e-06,1.211580480687728e-06,9.55815226537644e-07,1.1365529850799255e-06,1.9567767401052082e-06
305,1.5431411150516922e-06,7.5663125367227635e-06,2.234827388546766e-06,1.948160575606236e-05,1.25303602485092e-06,1.1229313912571985e-06,7.458436019537674e-07,1.6064686328293026e-06,1.3331359397705718e-05,3.0462044704472767e-06,9.351832497589961e-07,1.3993575849709202e-06,1.216203317181352e-06,9.60347522708889e-07,1.1444698160618762e-06,1.9254146485475797e-06
306,1.7472046437969887e-06,7.652960751589288e-06,2.2167130520543992e-06,2.0121954535638102e-05,1.2701492606794527e-06,1.1242875345147562e-06,7.644091060249573e-07,1.5502869016898321e-06,1.4009301822110078e-05,2.9839756979660953e-06,9.51027937095397e-07,1.7194842442341663e-06,1.2207330802852031e-06,9.655706542476053e-07,1.1519709163758945e-06,1.9001936206201283e-06
307,2.0166721088419623e-06,7.71772332817563e-06,2.1947676091130495e-06,2.0731738285003572e-05,1.2831107088255447e-06,1.1236787565757354e-06,7.841181545444627e-07,1.500987479660756e-06,1.4629146203363476e-05,2.9313341600358736e-06,9.667761545428917e-07,2.091857943770724e-06,1.225395200242745e-06,9.712855922912639e-07,1.158784207552115e-06,1.880807889780226e-06
308,2.3561221451558494e-06,7.757145789983461e-06,2.1694678122110783e-06,2.1306970477766412e-05,1.2919706425129431e-06,1.1209527148911737e-06,8.046599029789092e-07,1.4588658909097359e-06,1.5178059154993093e-05,2.887410560105684e-06,9.822124162132378e-07,2.5194541317894706e-06,1.2303293748523942e-06,9.773181859359963e-07,1.1647465201853431e-06,1.866712495109127e-06
309,2.7699009670469813e-06,7.767485742589218e-06,2.1417552447775066e-06,2.184645380207673e-05,1.2968909134668227e-06,1.115917481252467e-06,8.257684371538316e-07,1.4239732007505386e-06,1.564652992156969e-05,2.8509747534779342e-06,9.970748848836128e-07,3.005197964704736e-06,1.2354772358597933e-06,9.835878919441948e-07,1.1697597760787732e-06,1.8572349661294988e-06
310,3.262164957131881e-06,7.745681620542548e-06,2.1130842347149046e-06,2.2351858663289655e-05,1.2980998471457037e-06,1.1082935693068503e-06,8.473211694805484e-07,1.3961648686702382e-06,1.6028890413710195e-05,2.8206662601587335e-06,1.0110636487519156e-06,3.5520828599131685e-06,1.2405731510718002e-06,9.901325616963023e-07,1.173721344200516e-06,1.8516982224804611e-06
311,3.836994892262557e-06,7.690106254300002e-06,2.085372478252539e-06,2.2827282804709636e-05,1.2958524817864363e-06,1.0977753949551398e-06,8.693562775176455e-07,1.375114251095943e-06,1.632223962300971e-05,2.7950594115651874e-06,1.0238774467509104e-06,4.163048915240684e-06,1.2452364901048355e-06,9.970632106421294e-07,1.1764815133681413e-06,1.849402754794367e-06
312,4.498347385371072e-06,7.600909935236221e-06,2.06089413370544e-06,2.327844522159856e-05,1.2903770046522676e-06,1.0841646555332953e-06,8.920058655789032e-07,1.360364258930707e-06,1.652444930735791e-05,2.772627294773223e-06,1.0353585516252058e-06,4.840629810433636e-06,1.24910633445672e-06,1.0044853039749233e-06,1.1778017775440558e-06,1.8494857930573253e-06
313,5.249768650019782e-06,7.479986395131234e-06,2.042144993002471e-06,2.371159892320601e-05,1.2818009536241097e-06,1.0675239453538102e-06,9.154145107365716e-07,1.3514193967049675e-06,1.6632523848006842e-05,2.7518691267265407e-06,1.0456109898675423e-06,5.586581099075205e-06,1.2519206932096532e-06,1.0124524999114778e-06,1.17731452192899e-06,1.850836838781845e-06
314,6.094012135220487e-06,7.3306728923271905e-06,2.0316782417487006e-06,2.413203900968901e-05,1.270127726244551e-06,1.048264172577859e-06,9.396889986535056e-07,1.3477731202993988e-06,1.6642775740135584e-05,2.7316212587494434e-06,1.054931309627964e-06,6.401637216090678e-06,1.2534644779058068e-06,1.0209476884683048e-06,1.1745491708251577e-06,1.8521898193345033e-06
315,7.032780126710244e-06,7.157345666431914e-06,2.031918470891522e-06,2.454263369215763e-05,1.255308406097588e-06,1.0270763299587884e-06,9.6486291233174e-07,1.3488489263885816e-06,1.655296632175195e-05,2.711258287574535e-06,1.0636197742729348e-06,7.2853866332417846e-06,1.253471755873857e-06,1.0298637109578362e-06,1.1690320112291924e-06,1.8523016896815974e-06
316,8.06665919691132e-06,6.965030968176066e-06,2.045054600949868e-06,2.494386403324806e-05,1.2373402954219329e-06,1.0047417816454767e-06,9.908521609447446e-07,1.3539847080707146e-06,1.636487293399483e-05,2.6905893918510194e-06,1.0718463348799247e-06,8.236206903085872e-06,1.251621018252787e-06,1.0390001571785606e-06,1.1604068106778452e-06,1.8501008769642565e-06
317,9.195096339929457e-06,6.758979929525133e-06,2.0731170987993963e-06,2.5336202044868913e-05,1.2163297736053764e-06,9.819886017097547e-07,1.0174273482777577e-06,1.3625416619753996e-06,1.608563861216264e-05,2.6695371941460425e-06,1.0796552485866888e-06,9.251197622002205e-06,1.2475886626639998e-06,1.048091776245117e-06,1.1485174251398967e-06,1.8448424287521242e-06
318,1.0416196120100747e-05,6.54410567523241e-06,2.118148319310148e-06,2.572349395916926e-05,1.1925218799250052e-06,9.594700837994685e-07,1.0442223253973335e-06,1.3740615183314631e-06,1.5727267623228937e-05,2.647834530893077e-06,1.0870480120919643e-06,1.0326060849415454e-05,1.2410931363964796e-06,1.0568575549864135e-06,1.133431354384898e-06,1.836295299421567e-06
319,1.1726297729573543e-05,6.32443771289405e-06,2.182245337320141e-06,2.6115270595015734e-05,1.166293509641341e-06,9.377618025084019e-07,1.0707623843036693e-06,1.3883719838319179e-06,1.530451425225217e-05,2.6249860537799835e-06,1.0940286502564578e-06,1.1454991590534843e-05,1.2319824431082336e-06,1.0650507158269782e-06,1.11544972772658e-06,1.8248200549878708e-06
320,1.3119527144025648e-05,6.102892449210884e-06,2.2674134166171546e-06,2.6527102738369622e-05,1.1381068848356102e-06,9.173252582880004e-07,1.0965063390520758e-06,1.4056101096175038e-06,1.4832112572171861e-05,2.600561763765882e-06,1.1005906060184476e-06,1.2630737782477804e-05,1.2203214558609283e-06,1.0724719929935944e-06,1.0951167067187656e-06,1.8112159108891811e-06
321,1.458746157693419e-05,5.881407721236189e-06,2.375381169535677e-06,2.6979357898791177e-05,1.1084424829550966e-06,8.984839599989067e-07,1.1208759865475315e-06,1.4261837257237555e-06,1.4322679775915651e-05,2.5745991368027845e-06,1.1066742718516638e-06,1.3844862060324312e-05,1.2063364078798746e-06,1.07891449168898e-06,1.0731757784329399e-06,1.7964349337337963e-06
322,1.6118926173190713e-05,5.6612795030354155e-06,2.5074995622964734e-06,2.749486489949707e-05,1.0777238947239387e-06,8.814116795657757e-07,1.1432607592037095e-06,1.450700461253042e-06,1.3785889045953226e-05,2.5477800083689717e-06,1.1120896836720546e-06,1.5088022593243005e-05,1.1902903217523226e-06,1.08410903585906e-06,1.0504712200844337e-06,1.7813414631414856e-06
323,1.770003531233989e-05,5.4435670796903e-06,2.664688614626859e-06,2.8095839946878944e-05,1.0462532412010964e-06,8.661373568474597e-07,1.1630651849110562e-06,1.4798516535827566e-06,1.3228420460296237e-05,2.5212253490940703e-06,1.1164630746140372e-06,1.6350055336040723e-05,1.1724452675752436e-06,1.0877595167801822e-06,1.0278489799455402e-06,1.766573302907882e-06
324,1.931443599861061e-05,5.229454989051394e-06,2.8473645382472205e-06,2.880110547403711e-05,1.0141984543175205e-06,8.526058268080758e-07,1.1798014333029785e-06,1.5142425084652973e-06,1.2654354872633572e-05,2.4960670268169063e-06,1.1193037087123642e-06,1.7619790650159098e-05,1.1530588399483039e-06,1.0896138977404415e-06,1.0060804749532425e-06,1.7524831046522224e-06
325,2.0943392563998377e-05,5.02047164195271e-06,3.0553536375508677e-06,2.962509669359707e-05,9.816339493616817e-07,8.407753884013257e-07,1.1931285900813397e-06,1.5542440475344501e-06,1.206615618979524e-05,2.47310135242094e-06,1.1201560367206017e-06,1.888467066381062e-05,1.1323767998974627e-06,1.0894978039907586e-06,9.85804690591285e-07,1.7391446248269925e-06
326,2.2565437975086525e-05,4.8185413030017035e-06,3.2878366294647126e-06,3.057890243596744e-05,9.485704339492135e-07,8.306847581790689e-07,1.2028450336204213e-06,1.5999274948674648e-06,1.1465979321696277e-05,2.4527207404543397e-06,1.1186992747938413e-06,2.013021460402763e-05,1.1106760924170387e-06,1.087342443241373e-06,9.674864151898667e-07,1.726388380082842e-06
327,2.415562279404973e-05,4.625923585776073e-06,3.543331077737748e-06,3.167196831678468e-05,9.149503889514723e-07,8.224410258654659e-07,1.20893933505674e-06,1.6510378908557226e-06,1.085666055368395e-05,2.4351473290053226e-06,1.1147430022480007e-06,2.1339283413173142e-05,1.088290765900547e-06,1.0832289538895298e-06,9.51394577165336e-07,1.7138661403609053e-06
328,2.5684895809315632e-05,4.445105335631375e-06,3.819685744971532e-06,3.2912986862617455e-05,8.806880299294498e-07,8.161450828356685e-07,1.2116833822653302e-06,1.7069717805120348e-06,1.0242096974467925e-05,2.4207995715545487e-06,1.1081805324511576e-06,2.249138708658577e-05,1.0655591683621573e-06,1.0774198525684343e-06,9.376081408738942e-07,1.7012127399553406e-06
329,2.7121096668727263e-05,4.27862640137639e-06,4.114158402401622e-06,3.430922076116463e-05,8.457978368478907e-07,8.118474085757519e-07,1.2116194246758625e-06,1.766791607314445e-06,9.62721358386948e-06,2.4105132795197297e-06,1.098935462024054e-06,2.356304152018638e-05,1.0427537843875062e-06,1.0703519611415255e-06,9.26043656208784e-07,1.6882540103572796e-06
330,2.843298977926789e-05,4.1287827641406396e-06,4.423741281194653e-06,3.5864383075718466e-05,8.105183884274298e-07,8.095777685679492e-07,1.209390370897883e-06,1.8292915034380748e-06,9.017768310776054e-06,2.4055010048292316e-06,1.0868936493965794e-06,2.452996583072962e-05,1.020039156271894e-06,1.0625739294799657e-06,9.164894597400998e-07,1.6750499100287896e-06
