,EMG1,EMG2,EMG3,EMG4,EMG5,EMG6,EMG7,EMG8,EMG9,EMG10,EMG11,EMG12,EMG13,EMG14,EMG15,EMG16
0,1.7657089402601353e-07,3.011484532755978e-07,1.0626893434252058e-07,1.9861259884624143e-07,3.383009509831852e-07,1.229838744518166e-07,3.1677642889783483e-07,2.248802299069706e-06,4.411458745351072e-07,2.2470981198965867e-07,5.762944735049309e-07,1.4919324131836878e-06,2.303484227005902e-07,1.2530190567296494e-07,1.4577308615001442e-07,-5.6006332848188e-07
1,1.9974434970542062e-07,3.3380802256014926e-07,1.89457348967399e-07,2.685693400996365e-07,6.345990029549601e-07,2.0415717803152572e-07,4.48605998476601e-07,2.637279985222813e-06,7.144173336735157e-07,3.245456276987125e-07,6.982065786435768e-07,2.022558925773987e-06,6.15063074602442e-07,2.256221258021231e-07,2.0384961079767714e-07,-1.2308259670030178e-07
2,2.2465666400456275e-07,3.660041712119766e-07,2.7350369914536703e-07,3.3733808547244837e-07,9.34066568501226e-07,2.860930671724855e-07,5.895463697198481e-07,3.03630552627176e-06,9.889589445515223e-07,4.215885015024391e-07,8.225479169640284e-07,2.5733307879995768e-06,9.91718684419259e-07,3.3010964617994063e-07,2.623052416969341e-07,2.965956598290876e-07
3,2.5102524190096257e-07,3.9720306306838793e-07,3.5708764207000627e-07,4.0381525954202356e-07,1.235117870870046e-06,3.6766529609647376e-07,7.388208203061719e-07,3.443304587754017e-06,1.2588661882365366e-06,5.147823268121218e-07,9.47657625483405e-07,3.1435671728530988e-06,1.3566893323539453e-06,4.374931287686417e-07,3.20129231042961e-07,6.921146155600691e-07
4,2.78700891790479e-07,4.2703576942429235e-07,4.3890992854289815e-07,4.6713768844859624e-07,1.5361698781726492e-06,4.4787221425976916e-07,8.959879352510268e-07,3.855175639847048e-06,1.5182319472100408e-06,6.031553856474391e-07,1.0719698432852348e-06,3.7322077872464625e-06,1.7065689389745115e-06,5.468287395635815e-07,3.7655513870237467e-07,1.0576435185020677e-06
5,3.07603574278062e-07,4.553495009341117e-07,5.177726039274056e-07,5.266184239800391e-07,1.8357679588679645e-06,5.259312938701059e-07,1.0609098714538968e-06,4.26830724306226e-06,1.7616311902445186e-06,6.858117337241857e-07,1.1940135124320402e-06,4.3379753552599445e-06,2.0382623439403365e-06,6.575607745228879e-07,4.311231458410769e-07,1.388680762753022e-06
6,3.3768838127718656e-07,4.821503337175479e-07,5.927096169423767e-07,5.81687364354792e-07,2.1327720291624827e-06,6.01368715532669e-07,1.233573555526907e-06,4.678740972225919e-06,1.9849374538514024e-06,7.619500052897099e-07,1.3124580906783285e-06,4.959648086594273e-06,2.349206839458503e-06,7.694194526135258e-07,4.836350833609458e-07,1.6823452105011916e-06
7,3.689609565403851e-07,5.074895539164395e-07,6.631124644901877e-07,6.318834157316839e-07,2.4264652555740256e-06,6.740904932375934e-07,1.4139023129591994e-06,5.082445035904977e-06,2.1859560531857357e-06,8.30907985082154e-07,1.4261361814177315e-06,5.5960802155277934e-06,2.637675156052976e-06,8.822967479246944e-07,5.340277181591287e-07,1.9376291148346754e-06
8,4.0149368081568403e-07,5.313895597354469e-07,7.287633177487582e-07,6.768481941098228e-07,2.7165133356153575e-06,7.443986170382133e-07,1.6016204739664977e-06,5.475583434559697e-06,2.3643861495238312e-06,8.922577284383835e-07,1.5340060587862746e-06,6.245829597613501e-06,2.902962486575936e-06,9.962121955373225e-07,5.822841069078609e-07,2.1554644721371992e-06
9,4.3539692742970613e-07,5.538463132973074e-07,7.897191411829893e-07,7.163033184615218e-07,3.0028652304462122e-06,8.129090348303709e-07,1.79616223715016e-06,5.854595143877955e-06,2.521149172163402e-06,9.459285434108221e-07,1.6350977509529046e-06,6.906827852971731e-06,3.1453620944313426e-06,1.1112654790502764e-06,6.28404533145468e-07,2.3385311826281596e-06
10,4.7075495167163896e-07,5.748550046165321e-07,8.461128595302385e-07,7.500199778632109e-07,3.2857050791185398e-06,8.803977815714359e-07,1.9966317828471125e-06,6.215949093131549e-06,2.6575334737663354e-06,9.922013210788978e-07,1.7284274193652083e-06,7.5764888153491605e-06,3.36602309313162e-06,1.227516266459114e-06,6.72372116937147e-07,2.4908895501849523e-06
11,5.075722544539329e-07,5.944014210883065e-07,8.980052280975302e-07,7.777892976364721e-07,3.565440876653547e-06,9.476531277407545e-07,2.2018382587881696e-06,6.555642970884029e-06,2.7746255000236854e-06,1.0315241140993792e-06,1.8129083809497816e-06,8.251994982585068e-06,3.566794028326333e-06,1.3448910774914394e-06,7.141287608814782e-07,2.6175629782644893e-06
12,5.457468654657624e-07,6.124420853281583e-07,9.453511679638102e-07,7.994375187629815e-07,3.842659728302347e-06,1.0153811823135328e-06,2.4104022963010437e-06,6.868673249580016e-06,2.873166745189591e-06,1.0643408094852872e-06,1.8873644284840133e-06,8.930348276494349e-06,3.7500280663633026e-06,1.4631427882248303e-06,7.535976994415066e-07,2.724167194576344e-06
13,5.850601377428644e-07,6.289132354742601e-07,9.88049927537593e-07,8.149244057747082e-07,4.11802515183145e-06,1.084168368917831e-06,2.6208724075965316e-06,7.148709668790916e-06,2.953600031387672e-06,1.0911002685566454e-06,1.9506017380395143e-06,9.608069215788793e-06,3.9183104362852404e-06,1.5817965007758481e-06,7.907062767073848e-07,2.816618463227077e-06
14,6.251776164915519e-07,6.437388427183652e-07,1.025990669581073e-06,8.244589814401925e-07,4.3921009955884755e-06,1.1544737331381473e-06,2.8317614071525168e-06,7.388257343285313e-06,3.016119172930244e-06,1.112356078566388e-06,2.001410807713421e-06,1.0280624831805487e-05,4.0741735118215746e-06,1.7000915937556761e-06,8.253533448897864e-07,2.9008772683742274e-06
15,6.656664173616079e-07,6.568174297365457e-07,1.059024956944004e-06,8.285002347032963e-07,4.665069389654954e-06,1.226604633523323e-06,3.0414785249620105e-06,7.579573538220596e-06,3.0608292811831643e-06,1.1287697092858247e-06,2.0386266947642536e-06,1.0941872500070095e-05,4.219866649971495e-06,1.8169681991845082e-06,8.573719103807415e-07,2.9826911935659666e-06
16,7.060260752444411e-07,6.680544131349333e-07,1.0869206878954243e-06,8.27636737322796e-07,4.936397978471629e-06,1.3006648769898562e-06,3.248227618410451e-06,7.716165207595156e-06,3.088044159843689e-06,1.1409989629995556e-06,2.061444318980177e-06,1.1583840894597009e-05,4.357144625538562e-06,1.931069032143011e-06,8.865925885254648e-07,3.0673662456185995e-06
17,7.457189452119977e-07,6.774638825049619e-07,1.109422412709675e-06,8.224960158642954e-07,5.204604636518491e-06,1.3765156668298354e-06,3.4499376300886946e-06,7.794169690332691e-06,3.0984382816964437e-06,1.1496075364795458e-06,2.0698010239377905e-06,1.2196811969566837e-05,4.4870544711947866e-06,2.0407091169663573e-06,9.12998649547126e-07,3.159603265223446e-06
18,7.842128390323204e-07,6.85225624142845e-07,1.1264336880939586e-06,8.13753306503313e-07,5.467179746757493e-06,1.4537787436868485e-06,3.6441923978745023e-06,7.81292223496198e-06,3.0928952196011344e-06,1.1550682008686596e-06,2.0644947997063854e-06,1.2769322167290017e-05,4.6098598254604555e-06,2.1438691141818346e-06,9.36816629945315e-07,3.2634008135660584e-06
19,8.210506345572651e-07,6.916123562451274e-07,1.1381785471967956e-06,8.021394567041266e-07,5.720596605573663e-06,1.5318730248881474e-06,3.82811444929415e-06,7.774449069523824e-06,3.0724037679221887e-06,1.1577882385993574e-06,2.046999446563654e-06,1.3287909788953604e-05,4.725228068857212e-06,2.2383092267611964e-06,9.584287392163108e-07,3.3820099201607084e-06
20,8.559025289204355e-07,6.968821905749637e-07,1.1451918405587996e-06,7.883819674046959e-07,5.960348959133602e-06,1.610061281298151e-06,3.998343289587645e-06,7.682163799158712e-06,3.0384049942157004e-06,1.1580867513184184e-06,2.0191499460262347e-06,1.3737210709130668e-05,4.832601010793555e-06,2.32178906346179e-06,9.782084290981559e-07,3.5179465424274813e-06
21,8.885505670620096e-07,7.012696933157013e-07,1.1481438402107806e-06,7.731454507697926e-07,6.181041322089058e-06,1.6874971774567815e-06,4.151351608839234e-06,7.539607342599018e-06,2.993349363350244e-06,1.1561768713961324e-06,1.9828407104426636e-06,1.410135058406151e-05,4.931622907785456e-06,2.3922987262616004e-06,9.964410332529492e-07,3.6731032032294793e-06
22,9.188417646862223e-07,7.05052627786877e-07,1.1476521596547523e-06,7.570199980294758e-07,6.376692520167558e-06,1.7633051930535793e-06,4.284075238707259e-06,7.35013862603283e-06,2.940851232737706e-06,1.1522364735312894e-06,1.9397952171704327e-06,1.4366721455669619e-05,5.022549064657224e-06,2.4482093199687035e-06,1.0133329787640484e-06,3.848935695902556e-06
23,9.466872282919997e-07,7.085727211024043e-07,1.1442338822703078e-06,7.40508365448995e-07,6.541488415882861e-06,1.8367275046944278e-06,4.39450734388793e-06,7.117594365567349e-06,2.88525488225486e-06,1.146524823961721e-06,1.891472885961003e-06,1.4524908148886614e-05,5.106524325131728e-06,2.4882537876985452e-06,1.0290548521265124e-06,4.046583464829241e-06
24,9.721026143906962e-07,7.121706983282459e-07,1.1384119451942592e-06,7.239943490898616e-07,6.6709377696482666e-06,1.9072880962329755e-06,4.481939329701282e-06,6.847097865355954e-06,2.8309735841724012e-06,1.1394322872050317e-06,1.8391484780585516e-06,1.4573896159353904e-05,5.1856529748074325e-06,2.511430652848177e-06,1.0437954658394554e-06,4.266846653719312e-06
25,9.952055364731005e-07,7.161001119168525e-07,1.1308430153012415e-06,7.077563078917242e-07,6.76282574379967e-06,1.974881833878125e-06,4.546799821872551e-06,6.545390891461094e-06,2.782035545938217e-06,1.1314255068541184e-06,1.7840402673173943e-06,1.4516500602025265e-05,5.262899342361553e-06,2.5171730292841623e-06,1.0577748336604557e-06,4.510110406309102e-06
26,1.0161271420430073e-06,7.204780654421089e-07,1.122321275261055e-06,6.920377652554806e-07,6.817188422116308e-06,2.0397692834016363e-06,4.590234353153897e-06,6.220655892010794e-06,2.7419541182760116e-06,1.1229338102949808e-06,1.727329641668152e-06,1.435724308836196e-05,5.341866377270154e-06,2.5058465963487945e-06,1.07122433797343e-06,4.7763374377660546e-06
27,1.0348910539000554e-06,7.252827074518483e-07,1.1136523303335314e-06,6.77097487538282e-07,6.835235833817593e-06,2.1025048978916916e-06,4.613583683719008e-06,5.882072383941475e-06,2.7137326328326645e-06,1.114254184501577e-06,1.67006499332252e-06,1.4100582880732786e-05,5.426383530995885e-06,2.4790891300509934e-06,1.0844017752572553e-06,5.065213486125649e-06
28,1.0513503295142427e-06,7.303807516757779e-07,1.1055373007199918e-06,6.63193161833775e-07,6.818168822017271e-06,2.1637795821024886e-06,4.617901181593552e-06,5.539346361839297e-06,2.699861137920242e-06,1.1055091012154957e-06,1.6130522912552198e-06,1.3751862773612112e-05,5.519912118505529e-06,2.4395685202652785e-06,1.097593425546455e-06,5.376483145721688e-06
29,1.0652295674904035e-06,7.355569421686996e-07,1.098548892024879e-06,6.505354074844995e-07,6.766895290997692e-06,2.224185235664588e-06,4.603742014697884e-06,5.202298156828042e-06,2.7024081338208883e-06,1.096638454126262e-06,1.5568385403376702e-06,1.3319281823251099e-05,5.6250704970092265e-06,2.390312910627716e-06,1.111049841531758e-06,5.710294037927958e-06
30,1.076238217910262e-06,7.405498343283076e-07,1.0931222361109932e-06,6.392666193441628e-07,6.682588516071668e-06,2.2840186463078124e-06,4.571373481090888e-06,4.880465615969463e-06,2.723227993075213e-06,1.0874391934717668e-06,1.5018010694294943e-06,1.2814647574970428e-05,5.743493932360438e-06,2.3341063871349703e-06,1.1249506777806566e-06,6.067210859766878e-06
31,1.0841742017518153e-06,7.451197993878861e-07,1.0895144512216045e-06,6.294795379300264e-07,6.567259535652824e-06,2.3431942575871616e-06,4.521122317274062e-06,4.5827266308972955e-06,2.76404915681375e-06,1.0776357130516814e-06,1.448241524671599e-06,1.225239944260448e-05,5.875818144276028e-06,2.27323803635504e-06,1.139451956070529e-06,6.447856838955457e-06
32,1.088967130503369e-06,7.491054300134473e-07,1.0877939756308234e-06,6.212384629280184e-07,6.42386212454381e-06,2.401204973156991e-06,4.453445080691366e-06,4.31705503020615e-06,2.8263904279556012e-06,1.0669002133278027e-06,1.3964599513275627e-06,1.1647820945665596e-05,6.0215838125578765e-06,2.209502312780785e-06,1.1547118631255088e-06,6.852525351769226e-06
33,1.0906744718264755e-06,7.52412660616464e-07,1.087894545408909e-06,6.145643796892175e-07,6.2561098297393015e-06,2.4570952881092846e-06,4.3687948169820325e-06,4.090480631848655e-06,2.911514379694548e-06,1.0548605016242201e-06,1.3469004247239519e-06,1.1015534202034898e-05,6.179132621581979e-06,2.1442870670868325e-06,1.1708443263734428e-06,7.281008622550145e-06
34,1.0894686779100483e-06,7.54999444838819e-07,1.0896940034411522e-06,6.094139578463193e-07,6.0682864667023324e-06,2.5095078360841124e-06,4.267683639799504e-06,3.909158616837822e-06,3.020432631850355e-06,1.0412136442451887e-06,1.3003022729423558e-06,1.036872251116145e-05,6.345581231894036e-06,2.078736395133569e-06,1.1879130405158043e-06,7.732508124157147e-06
35,1.0856394712172173e-06,7.56900110516269e-07,1.0930685701768233e-06,6.057010073112095e-07,5.865076292391163e-06,2.5568696234813757e-06,4.151055376378923e-06,3.7784090429274656e-06,3.153825817964235e-06,1.0259101700140991e-06,1.2576611498127265e-06,9.718868883387712e-06,6.5170056071153355e-06,2.0139738896609616e-06,1.2060165990211707e-06,8.205404652949068e-06
36,1.0796094597204239e-06,7.582065629986583e-07,1.0979303521585318e-06,6.033348850680439e-07,5.651354903987058e-06,2.597674318710823e-06,4.0206888198264844e-06,3.7027051600247277e-06,3.3119407663964774e-06,1.0092406104006167e-06,1.2200102783367744e-06,9.075623099168806e-06,6.688983214845931e-06,1.951283546486665e-06,1.2253295683013627e-06,8.696909009278656e-06
37,1.0719208392715763e-06,7.589994115831342e-07,1.1042716730891242e-06,6.022204965870122e-07,5.431940830060582e-06,2.6307298411428278e-06,3.879315569674754e-06,3.6856858655441797e-06,3.4945882291412037e-06,9.917322884084198e-07,1.1882199864654361e-06,8.446662565940577e-06,6.857289324431851e-06,1.8921349938564495e-06,1.246016882145019e-06,9.202716254493068e-06
38,1.0631522066479223e-06,7.593185862119382e-07,1.1121752100506373e-06,6.022235466201864e-07,5.211331372973091e-06,2.6552795815711896e-06,3.730385228080599e-06,3.7302472150470304e-06,3.7011454061728606e-06,9.739451790791025e-07,1.1629270088264395e-06,7.837697672429136e-06,7.018319175495262e-06,1.8380276684280176e-06,1.2681270180973471e-06,9.716714040271493e-06
39,1.0538100112131037e-06,7.591794330996706e-07,1.1217413414917851e-06,6.031439169810101e-07,4.993465271281223e-06,2.6709969591405338e-06,3.577649560675723e-06,3.838658106678177e-06,3.930451347006637e-06,9.563190749830012e-07,1.1445542443684264e-06,7.252710462003865e-06,7.16908835652711e-06,1.7902705905785767e-06,1.2915597215709455e-06,1.0230918554996636e-05
40,1.044290458342174e-06,7.586048594796835e-07,1.1329727284059354e-06,6.04717257306253e-07,4.781533707540507e-06,2.6779237225042934e-06,3.4247686199393485e-06,4.012577637378688e-06,4.1807448113068975e-06,9.391218852102031e-07,1.1333446951981469e-06,6.694241888131842e-06,7.3070672414708884e-06,1.7498499048146572e-06,1.31607240336592e-06,1.0735958770514593e-05
41,1.0349346995331666e-06,7.576768054486312e-07,1.1456958560116976e-06,6.066693352779343e-07,4.5778387725879e-06,2.6764257714702425e-06,3.275021657438903e-06,4.2529708545912656e-06,4.449819286563881e-06,9.224786139410144e-07,1.1293773587251455e-06,6.1635768534121175e-06,7.430203390937546e-06,1.7174457440830846e-06,1.3412943044853878e-06,1.122221100598072e-05
42,1.0261180347336722e-06,7.565614602958166e-07,1.1595438737571186e-06,6.088480650312696e-07,4.383791276842078e-06,2.6671664723421712e-06,3.1311169532359706e-06,4.5600903954766675e-06,4.735291254891558e-06,9.064589730820911e-07,1.1325886696840577e-06,5.661062147323813e-06,7.537206134306153e-06,1.6935536713060925e-06,1.3667889787268638e-06,1.1681253167008086e-05
43,1.0183047429864377e-06,7.554561265251456e-07,1.1739659706681486e-06,6.113543578265059e-07,4.2001131812202236e-06,2.651022013624173e-06,2.9950923248792414e-06,4.933633562164312e-06,5.0347150022675034e-06,8.911553046949476e-07,1.1428595101016818e-06,5.186754297912043e-06,7.627800697520101e-06,1.6785694591269156e-06,1.3921359368118151e-06,1.2107012835184866e-05
44,1.0120232054240743e-06,7.545178615552105e-07,1.1882220638775215e-06,6.145411331712547e-07,4.027082195236287e-06,2.6288749072595657e-06,2.868325510991686e-06,5.3729418404493925e-06,5.345412508044375e-06,8.766870922633169e-07,1.1601361063968544e-06,4.7410219822681625e-06,7.702591699817986e-06,1.6727605695785702e-06,1.4169159064018255e-06,1.2496067455932298e-05
45,1.007783044654249e-06,7.538396279493205e-07,1.2013863437530074e-06,6.188755800206201e-07,3.864615119607219e-06,2.601346304297377e-06,2.751655756767586e-06,5.87698259180668e-06,5.664251835690144e-06,8.631777220237896e-07,1.1844411972186182e-06,4.32462901947718e-06,7.76248649344704e-06,1.6762585739834445e-06,1.4405943253560032e-06,1.2847003866899825e-05
46,1.0060131790152301e-06,7.534326986632772e-07,1.2124277062718276e-06,6.247880684537642e-07,3.7121686290156966e-06,2.5686457690690215e-06,2.645519261167369e-06,6.444037049799146e-06,5.987817487682567e-06,8.507665983335123e-07,1.2157826167450715e-06,3.938344950573002e-06,7.807982285476696e-06,1.68919506662585e-06,1.4624384021793513e-06,1.3159152005796444e-05
47,1.0070405831984312e-06,7.532004172570988e-07,1.22037193983055e-06,6.326052459026546e-07,3.5685796948304267e-06,2.5306500280278697e-06,2.5499802423893894e-06,7.071360297723426e-06,6.313021922577561e-06,8.396225947205967e-07,1.2540865606388828e-06,3.582494347068382e-06,7.838605547231397e-06,1.7118708595118331e-06,1.4815480589307128e-06,1.343113862553944e-05
48,1.0110665039777908e-06,7.529481493196841e-07,1.2244811523564411e-06,6.425524120720315e-07,3.4320336353033975e-06,2.4871415579101913e-06,2.464721797935753e-06,7.755091157143174e-06,6.637630772895949e-06,8.299287457266469e-07,1.299144732329735e-06,3.2567939876464176e-06,7.852557557574346e-06,1.7447805320517814e-06,1.4969622581720916e-06,1.3659827480835107e-05
49,1.018130155572516e-06,7.524107852140239e-07,1.2243739680932965e-06,6.547628143992677e-07,3.3002986743781033e-06,2.4380490186018e-06,2.389179816281364e-06,8.490358580147036e-06,6.960160684186576e-06,8.218690411299265e-07,1.3505616941301773e-06,2.9605229150177e-06,7.846681826357019e-06,1.7884667932706487e-06,1.507776931156373e-06,1.3840283903932367e-05
50,1.028075884579254e-06,7.512669638225113e-07,1.2200275291579962e-06,6.692718759850826e-07,3.1711727829087698e-06,2.383563028933821e-06,2.3228188006615184e-06,9.271407789541377e-06,7.279185115801073e-06,8.156128814702802e-07,1.4077740485133843e-06,2.6927785506278583e-06,7.816983775727705e-06,1.843326827856153e-06,1.513227021071227e-06,1.3966907845601562e-05
51,1.0405399387160879e-06,7.492049078459408e-07,1.2116598387311173e-06,6.860042706134226e-07,3.0429202371293616e-06,2.3241195239211264e-06,2.2653125885087988e-06,1.0091696665092655e-05,7.592724471251444e-06,8.112955484908006e-07,1.4701081496001632e-06,2.4525617525860902e-06,7.75957878644986e-06,1.9095118502926474e-06,1.5127225173130593e-06,1.4035120483286957e-05
52,1.0549800547294336e-06,7.460750804187138e-07,1.199565789315237e-06,7.047566632401302e-07,2.914495941584022e-06,2.2603483962360494e-06,2.2164494437951102e-06,1.0943948987460519e-05,7.898217080460767e-06,8.090192647933675e-07,1.5368192591879032e-06,2.2387515737764527e-06,7.671546038145336e-06,1.986956371215735e-06,1.5058822209589609e-06,1.4042820900388854e-05
53,1.0707326594064297e-06,7.419937295064311e-07,1.1840027709375027e-06,7.251988688494057e-07,2.7855264196293574e-06,2.193039690828016e-06,2.1758555621179584e-06,1.182010227528177e-05,8.192661437360211e-06,8.088418228362614e-07,1.6071656379190456e-06,2.0502087854670687e-06,7.551284671558137e-06,2.0754644125378045e-06,1.4926000731645913e-06,1.3991177160087737e-05
54,1.087070196951781e-06,7.372725927891254e-07,1.1651584024944402e-06,7.469435095632191e-07,2.656165286729057e-06,2.123088749602982e-06,2.1427723231060093e-06,1.2711099664280756e-05,8.472349114252123e-06,8.107406622047812e-07,1.6804840407904094e-06,1.8859601941401732e-06,7.3984450222556034e-06,2.1747518184978113e-06,1.473110974463181e-06,1.3884666393373549e-05
55,1.1032890250286388e-06,7.322634659582069e-07,1.1431543117652126e-06,7.696760912885015e-07,2.5269213445679553e-06,2.0514160503234158e-06,2.115995523594816e-06,1.3606559198393145e-05,8.732401351974586e-06,8.145982797714498e-07,1.756137629203563e-06,1.7452051521046212e-06,7.213888205442141e-06,2.284400297690657e-06,1.4479886031748801e-06,1.373044774369958e-05
56,1.1188087376120798e-06,7.272602542469732e-07,1.1180765818154498e-06,7.932280805479077e-07,2.398448739993134e-06,1.978929789766115e-06,2.0939306817881936e-06,1.4494430814457761e-05,8.966816532199616e-06,8.202292833944178e-07,1.8334064756293236e-06,1.6271136709491814e-06,6.9999837705961715e-06,2.403803765406781e-06,1.4180328875058508e-06,1.353710848458198e-05
57,1.1331855981005969e-06,7.224614999895971e-07,1.0900964559981056e-06,8.175161996651305e-07,2.271345403863576e-06,1.9065375912509064e-06,2.0747193584192745e-06,1.5360710235749595e-05,9.169330459667307e-06,8.274325306276415e-07,1.9114874131823275e-06,1.5306255051704382e-06,6.760924671150395e-06,2.5321899820022713e-06,1.3840842315967668e-06,1.331302540234932e-05
58,1.1460588508909852e-06,7.179497343949853e-07,1.0596388944634342e-06,8.424555559106363e-07,2.146122430868118e-06,1.8351081124654575e-06,2.0563768015640222e-06,1.6189120375228557e-05,9.334614212441332e-06,8.360172659203063e-07,1.9895402636351127e-06,1.454438457772168e-06,6.502462712817725e-06,2.668644752969208e-06,1.3469068268782056e-06,1.3065279027201031e-05
59,1.1571430061162113e-06,7.136953441958848e-07,1.0274345700003927e-06,8.679710986793603e-07,2.023347784158053e-06,1.765357178825368e-06,2.0368928875391967e-06,1.6960907797090768e-05,9.458993573261571e-06,8.457808442960449e-07,2.0666412061355143e-06,1.397196062647226e-06,6.231019492512812e-06,2.8120475115879883e-06,1.3072415577984008e-06,1.2800046113185633e-05
60,1.1662749470773896e-06,7.095792564289064e-07,9.944109377847247e-07,8.940683698990001e-07,1.9037477661910275e-06,1.6977668905046796e-06,2.0144379098292236e-06,1.7655727555253805e-05,9.540152806849892e-06,8.564872472232719e-07,2.1417004923741178e-06,1.3576810324735742e-06,5.952708717026359e-06,2.960945049328181e-06,1.2659240529456401e-06,1.252407354163701e-05
61,1.173437650792377e-06,7.054126748393232e-07,9.615316232078446e-07,9.208665128100086e-07,1.7881274057412731e-06,1.6325884510841137e-06,1.9877600924108634e-06,1.8254451351871664e-05,9.576026344698646e-06,8.678839345547146e-07,2.2134793187972077e-06,1.3348243321993664e-06,5.672756169734563e-06,3.1134175720019015e-06,1.223896375360512e-06,1.2245848370514908e-05
62,1.1787151233727251e-06,7.00973156079729e-07,9.296785845629897e-07,9.485529464071139e-07,1.6771880757537836e-06,1.5698838849020922e-06,1.95652493944802e-06,1.874295647092308e-05,9.563980774343326e-06,8.797424612732048e-07,2.280701950747965e-06,1.3275936159037776e-06,5.395469768301014e-06,3.26697051842752e-06,1.1820887194286081e-06,1.1975552020769763e-05
63,1.182187846452682e-06,6.960668217018525e-07,8.996015512170546e-07,9.772863942127168e-07,1.5713962945175452e-06,1.5096030106503202e-06,1.9213285355833956e-06,1.9114818273716174e-05,9.501249621801037e-06,8.918748715059388e-07,2.3421353163482015e-06,1.3349101748025726e-06,5.124543306937165e-06,3.4184786666847625e-06,1.1412808577664554e-06,1.172391607525293e-05
64,1.1838302024286434e-06,6.905806062605461e-07,8.719116563806948e-07,1.007115634338105e-06,1.4709604446769e-06,1.4517016877315759e-06,1.883393137859135e-06,1.937164773387018e-05,9.386288412744755e-06,9.04110710858201e-07,2.396582948860214e-06,1.3555868692842578e-06,4.863229776418046e-06,3.5642170565835766e-06,1.1020386744750897e-06,1.1500791110562666e-05
65,1.1835107842164973e-06,6.845079641784045e-07,8.470859811712503e-07,1.037943461801805e-06,1.3759083028909047e-06,1.3962167363695988e-06,1.8441462015596313e-06,1.9521193653989334e-05,9.220071329180946e-06,9.162896418730258e-07,2.442876929872082e-06,1.3882546767490863e-06,4.614180636690565e-06,3.700035989632376e-06,1.0647170947823782e-06,1.1314491440603422e-05
66,1.181125343282241e-06,6.779612809338489e-07,8.254754859514234e-07,1.0695145609654596e-06,1.2862564461414452e-06,1.3432174722884274e-06,1.8048966916393282e-06,1.9574062099909785e-05,9.006712719184853e-06,9.28264992060904e-07,2.4798797560891735e-06,1.4313191498538002e-06,4.3791952457532265e-06,3.8215679325445805e-06,1.0294860491557272e-06,1.1172363361898969e-05
67,1.176742940707826e-06,6.711680620291373e-07,8.073181556534563e-07,1.1014084992967694e-06,1.2021534276412967e-06,1.2927110831702354e-06,1.7666781170374512e-06,1.954031737394105e-05,8.753161101741204e-06,9.398558252013653e-07,2.506405861104969e-06,1.4830103187302332e-06,4.1591543362070634e-06,3.924274303238038e-06,9.96389156796766e-07,1.1081791578656175e-05
68,1.1706229908842048e-06,6.644401808417291e-07,7.927522897337002e-07,1.1330513512874212e-06,1.123852122785912e-06,1.2446098350310284e-06,1.7302099955244933e-06,1.9427559215741034e-05,8.468006263493158e-06,9.508055530123826e-07,2.5211625608998406e-06,1.5415529366374695e-06,3.954126512608219e-06,4.003644830407102e-06,9.654465727199436e-07,1.1050466789206342e-05
69,1.1630972461535058e-06,6.58118103875571e-07,7.818274831941362e-07,1.1637512796601442e-06,1.051564384816272e-06,1.198738120440955e-06,1.6959450356721708e-06,1.9241227563047054e-05,8.159920696131134e-06,9.608491077853066e-07,2.522926434152691e-06,1.6053432468541909e-06,3.763466446707452e-06,4.056041791109209e-06,9.367516034628104e-07,1.1085658689498607e-05
70,1.1544282931322794e-06,6.525049472772689e-07,7.745115892021196e-07,1.192710764979187e-06,9.853668747773317e-07,1.1549031161638717e-06,1.664170756098703e-06,1.898616021784741e-05,7.836579150973043e-06,9.698622481313624e-07,2.5108856843286417e-06,1.6729810997525863e-06,3.5858612145284172e-06,4.079809518184265e-06,9.105030655039822e-07,1.1193376744552175e-05
71,1.1447492529536545e-06,6.478248565972712e-07,7.706909819918695e-07,1.2190228753616847e-06,9.252010825040646e-07,1.1130831580066188e-06,1.6350945848201416e-06,1.866798523663565e-05,7.504440626468605e-06,9.779882278976749e-07,2.484901356410386e-06,1.7432078927641816e-06,3.4194755651032006e-06,4.075625508660625e-06,8.869815132902292e-07,1.1378125238248249e-05
72,1.1341061349995852e-06,6.442240207165702e-07,7.701864316038084e-07,1.2417529336649179e-06,8.708860965412128e-07,1.0735548756032893e-06,1.6088713668847071e-06,1.8293807546576466e-05,7.1689490969892535e-06,9.856449144258778e-07,2.4456003112246762e-06,1.8149136245753125e-06,3.262264592346399e-06,4.0457281720953575e-06,8.66512647500085e-07,1.164281511587481e-05
73,1.1225581894124937e-06,6.417772419180105e-07,7.72797720657648e-07,1.2601297366287383e-06,8.221221273994233e-07,1.0367881831365372e-06,1.5855974151510316e-06,1.7872326772706175e-05,6.834641088138747e-06,9.933895327286582e-07,2.39432471335093e-06,1.8871889310252216e-06,3.1123285725176787e-06,3.992789156645888e-06,8.494281723454707e-07,1.1988334478637247e-05
74,1.1102840606595085e-06,6.404685488179004e-07,7.783225391261252e-07,1.2737430404646815e-06,7.785275258956765e-07,1.0032694594810892e-06,1.565300981833851e-06,1.74136608963061e-05,6.505156323324056e-06,1.0017416737671636e-06,2.332950808771967e-06,1.9592439676691655e-06,2.9681917405051843e-06,3.919266245286448e-06,8.360152639120682e-07,1.2413053159365432e-05
75,1.0976531393573188e-06,6.4016978204588e-07,7.865363024320988e-07,1.282637372114822e-06,7.396874539274445e-07,9.73427840734583e-07,1.547923996595617e-06,1.692903930184501e-05,6.183302731560428e-06,1.0110714850936104e-06,2.263610593430831e-06,2.0301748903300754e-06,2.82898207720264e-06,3.827219073725993e-06,8.264869727024019e-07,1.2912590854685146e-05
76,1.085206558275364e-06,6.406428834974614e-07,7.972129461025577e-07,1.2872408028888833e-06,7.051597716990309e-07,9.475940530518128e-07,1.533290695592222e-06,1.6430418086169665e-05,5.871129294286458e-06,1.021560325643752e-06,2.188389881524442e-06,2.09876287029218e-06,2.694495845644707e-06,3.7183129061092017e-06,8.210153638526544e-07,1.3479776487169513e-05
77,1.0735326802790177e-06,6.41572000636707e-07,8.101799324707406e-07,1.288152399542521e-06,6.744588633099777e-07,9.259378767294472e-07,1.5210855680272506e-06,1.5930103584362247e-05,5.569917146516701e-06,1.0332140347165083e-06,2.1090939164065756e-06,2.1634372288775154e-06,2.565133776189149e-06,3.5940239697566417e-06,8.197835425824738e-07,1.4104598866942062e-05
78,1.0631407621761054e-06,6.42636749862383e-07,8.253122754041613e-07,1.285942620764236e-06,6.470935128805114e-07,9.084482065550832e-07,1.5108382704354189e-06,1.5440534259066882e-05,5.28017495638797e-06,1.04593485281257e-06,2.027153896199581e-06,2.2223364893503722e-06,2.4417338194556603e-06,3.4559775254604917e-06,8.229733036673233e-07,1.4774113581230134e-05
79,1.0544196837594806e-06,6.436063037859318e-07,8.424936052774645e-07,1.2810959108534627e-06,6.226798042027277e-07,8.949531302595252e-07,1.5018924032458884e-06,1.497428767618085e-05,5.001786486211229e-06,1.0596205409481523e-06,1.9436399374237357e-06,2.273389467120621e-06,2.325340583212767e-06,3.3061621285361105e-06,8.30699747039431e-07,1.547242747015153e-05
80,1.0476472477891951e-06,6.443970968829728e-07,8.616141059455515e-07,1.2740295622099436e-06,6.010402702187015e-07,8.851226443466349e-07,1.4934206287238905e-06,1.4544188470087295e-05,4.734330663153796e-06,1.0742015702289956e-06,1.85925937474268e-06,2.3144949064490392e-06,2.2169586015321143e-06,3.146900822773169e-06,8.429737402787716e-07,1.6181057417994953e-05
81,1.0430151174598759e-06,6.450737865329186e-07,8.825564811664872e-07,1.2650688055109608e-06,5.821842741651062e-07,8.784751200536258e-07,1.4845743191294549e-06,1.4163335437313647e-05,4.477529676336119e-06,1.0895783115554206e-06,1.7743462391514224e-06,2.34384222463735e-06,2.1173633615138612e-06,2.9807011490167225e-06,8.597094403061291e-07,1.6880300613392622e-05
82,1.0406459398101772e-06,6.458067109497775e-07,9.05156481505739e-07,1.2543801703193258e-06,5.661827112550272e-07,8.744443160555677e-07,1.4746697254566956e-06,1.3844987219908787e-05,4.231682877890648e-06,1.1055331189231479e-06,1.6890041249173197e-06,2.3602652559300955e-06,2.0270395117424685e-06,2.8101500252694256e-06,8.807193652816902e-07,1.7551809240908213e-05
83,1.0405591963811458e-06,6.467981042004502e-07,9.29187212678705e-07,1.2419439804924834e-06,5.530514118593964e-07,8.724681379041216e-07,1.4632184592819302e-06,1.360233750069468e-05,3.99775640366438e-06,1.1217234382723775e-06,1.6034356815186672e-06,2.363476619200967e-06,1.946206965566286e-06,2.63788551322458e-06,9.056834574552095e-07,1.8181115879653147e-05
84,1.0426076558116423e-06,6.482249347604637e-07,9.543612156303733e-07,1.2276218122537872e-06,5.427209179470321e-07,8.720107916677874e-07,1.4498428933824787e-06,1.3448226464655968e-05,3.7770895259752486e-06,1.1377668947483326e-06,1.5182285759142178e-06,2.353996034973973e-06,1.8748389864095269e-06,2.466563650087448e-06,9.341361634352629e-07,1.875837105552311e-05
85,1.046439612739954e-06,6.502296418779061e-07,9.803511400217717e-07,1.2112976883820138e-06,5.35063191129498e-07,8.725521853062128e-07,1.4342655832867998e-06,1.3394847632199159e-05,3.571162276483988e-06,1.153316138748506e-06,1.4343607014932917e-06,2.332748618716038e-06,1.8127289117360108e-06,2.2987428650972738e-06,9.65478872438505e-07,1.9276891670440446e-05
86,1.0514945462069093e-06,6.529111344153272e-07,1.006825693450306e-06,1.1930097935041456e-06,5.299175913226201e-07,8.736575179659064e-07,1.4163646570834369e-06,1.3453405382050366e-05,3.3815557997642556e-06,1.1680796694045376e-06,1.3529594572908404e-06,2.300679205345196e-06,1.759687008590078e-06,2.1367170607612898e-06,9.990313587235253e-07,1.9730583763916115e-05
87,1.0570178430075126e-06,6.56295796369492e-07,1.0334489645515428e-06,1.1729954340565314e-06,5.271163747340385e-07,8.750892568259343e-07,1.3961832222036966e-06,1.3633552121752182e-05,3.2098054674377536e-06,1.1818223657281159e-06,1.2750638311036737e-06,2.258688810544188e-06,1.7157320447646009e-06,1.98240257896318e-06,1.0341571833210903e-06,2.0111639205170295e-05
88,1.0620828392785733e-06,6.603299613841511e-07,1.0598328604016016e-06,1.1516387527621777e-06,5.265084532945637e-07,8.768002387731224e-07,1.3739080070276633e-06,1.3942653947212743e-05,3.057165217448806e-06,1.1943122420887965e-06,1.2015382459549098e-06,2.207774039766655e-06,1.681136839594317e-06,1.837315291034348e-06,1.0703821797659427e-06,2.0409780298641036e-05
89,1.0656438523532825e-06,6.649123622731688e-07,1.0855083885285384e-06,1.129383563677772e-06,5.279476354981686e-07,8.787902828721706e-07,1.3498520994874109e-06,1.4385219359816565e-05,2.924496571255266e-06,1.2052493031291307e-06,1.13307452545251e-06,2.1491193903400872e-06,1.6563703214637128e-06,1.7025931451357188e-06,1.1073702942411808e-06,2.0613883867807754e-05
90,1.0666901661679897e-06,6.699573665532477e-07,1.1099992510231154e-06,1.1066797147419899e-06,5.312582712425903e-07,8.809730593615277e-07,1.3244165259983735e-06,1.4962608150030636e-05,2.8122277518608895e-06,1.2143318218654761e-06,1.0702083867746917e-06,2.0840627960109646e-06,1.6419983629057102e-06,1.5790246680112888e-06,1.1447736893378823e-06,2.0715308525175223e-05
91,1.0644875197263334e-06,6.754566679901153e-07,1.1329839791472906e-06,1.0839584908533934e-06,5.362136420893029e-07,8.831490592911738e-07,1.2980373696022354e-06,1.5672849983096472e-05,2.720299347417375e-06,1.221443748034536e-06,1.0133527917213037e-06,2.013960684085747e-06,1.6385488603980463e-06,1.467078682581614e-06,1.1820912536516206e-06,2.071084312982922e-05
92,1.0587527383376805e-06,6.814815751115338e-07,1.154390454392551e-06,1.0615820359192142e-06,5.425362775266065e-07,8.850735936848369e-07,1.27114696747562e-06,1.651050307228905e-05,2.6481278622242144e-06,1.2267431719834955e-06,9.628452346868104e-07,1.940027068024564e-06,1.6463775301602998e-06,1.366948948063168e-06,1.218613233219238e-06,2.0603671151220102e-05
93,1.049649192309924e-06,6.881215581398196e-07,1.1743177308160147e-06,1.039764366844817e-06,5.499329846249009e-07,8.865691751820194e-07,1.2441290146698757e-06,1.7466517585131067e-05,2.5945784585632707e-06,1.2305496710260475e-06,9.189699399009171e-07,1.863251586894132e-06,1.6655822580996282e-06,1.2786005498709152e-06,1.253455895577778e-06,2.040240826333628e-05
94,1.0376602538892994e-06,6.954228133420311e-07,1.192903367034148e-06,1.0185357319180384e-06,5.581628395520374e-07,8.875931168298104e-07,1.2172540719846988e-06,1.8528008553350095e-05,2.557977290452833e-06,1.2331963300080645e-06,8.819323316135826e-07,1.784424409676918e-06,1.6959525275169813e-06,1.2017962632557772e-06,1.2856510101094915e-06,2.011923475364664e-05
95,1.023447477195234e-06,7.033510187812951e-07,1.2103204719454922e-06,9.977934444317439e-07,5.671001420815243e-07,8.881888846789427e-07,1.1906505616411902e-06,1.9678056129241795e-05,2.5362728133515997e-06,1.235007047227133e-06,8.51837685306968e-07,1.704200887564538e-06,1.7369563580596895e-06,1.1361360207872682e-06,1.3142259808087143e-06,1.9767904342921538e-05
96,1.0077184270166011e-06,7.117576299435985e-07,1.2269010759413812e-06,9.773854172944813e-07,5.767421146183104e-07,8.883685299737186e-07,1.164327722146309e-06,2.0895791168212764e-05,2.5273678990412758e-06,1.2363147736101558e-06,8.287087431229684e-07,1.623145362486404e-06,1.7878335255152262e-06,1.0811197940785967e-06,1.3382768620479447e-06,1.9361856080057998e-05
97,9.910978721284759e-07,7.20373251675611e-07,1.2432247585636854e-06,9.571418371629058e-07,5.87141779566855e-07,8.880304141721929e-07,1.138173940092602e-06,2.2156873977557303e-05,2.5295037636352195e-06,1.2373995936275139e-06,8.124840150662452e-07,1.5417707147233095e-06,1.8477922071458139e-06,1.0361717938433344e-06,1.3570883451229043e-06,1.8912494783881524e-05
98,9.740469337370766e-07,7.288775979470921e-07,1.2600565194768924e-06,9.368386817498928e-07,5.98320213774137e-07,8.869371412867826e-07,1.1119099775458759e-06,2.3434401786009302e-05,2.5415165609334867e-06,1.2383970483236608e-06,8.02982470441232e-07,1.4606541777186356e-06,1.9161621815774324e-06,1.0006372394761971e-06,1.3702485541794437e-06,1.842787766096534e-05
99,9.56869367537781e-07,7.370378389825167e-07,1.2781582304315883e-06,9.161668954467844e-07,6.102422624045801e-07,8.847224561212742e-07,1.0850873163439557e-06,2.4700318025892788e-05,2.5628273967656078e-06,1.2392719750938424e-06,7.999086452014096e-07,1.3805827672004093e-06,1.9923828281494816e-06,9.73828609661969e-07,1.3776488458203122e-06,1.7912226238852238e-05
100,9.39766810614726e-07,7.448232625614283e-07,1.2981119005855535e-06,8.948008241735208e-07,6.228641172269539e-07,8.80941262517057e-07,1.0571989035840044e-06,2.592740891910065e-05,2.593179236350431e-06,1.2398440481819042e-06,8.029019416868485e-07,1.3025390414654258e-06,2.075887982201843e-06,9.550761888532684e-07,1.379367754132554e-06,1.736643240585316e-05
101,9.22871840522489e-07,7.523940214151938e-07,1.320277026224289e-06,8.725702109833188e-07,6.36170480261151e-07,8.751703359344203e-07,1.0278598894691642e-06,2.7091984609110453e-05,2.632287821086261e-06,1.239797134573661e-06,8.115756081813123e-07,1.227546391818523e-06,2.1659974616732795e-06,9.43685894072642e-07,1.3755088652707745e-06,1.678917156389724e-05
102,9.062460101776604e-07,7.599761382216062e-07,1.3448530015148782e-06,8.496274529331564e-07,6.501492248247058e-07,8.670760916354361e-07,9.96939273425226e-07,2.8177069336887026e-05,2.679596765033727e-06,1.238707948047909e-06,8.255475565662951e-07,1.1565720232147122e-06,2.2618302746927853e-06,9.388458236565995e-07,1.3660613934979425e-06,1.617815224150485e-05
103,8.898990034164642e-07,7.677489761163426e-07,1.3719182485367303e-06,8.264849204352072e-07,6.647626856569912e-07,8.564129437058624e-07,9.645411526519247e-07,2.9175176045739704e-05,2.7342620431339183e-06,1.236192436235294e-06,8.444495449571549e-07,1.0904978642008873e-06,2.362287746650126e-06,9.395720063002885e-07,1.3508814160115732e-06,1.5531320989969028e-05
104,8.738322499065288e-07,7.758217853969923e-07,1.4013989339203433e-06,8.038890129510698e-07,6.79964519962136e-07,8.430529842024089e-07,9.308690338706942e-07,3.0089170421449267e-05,2.7953880739470483e-06,1.232104395571757e-06,8.678855544650207e-07,1.0300652035094753e-06,2.4661723215130814e-06,9.447012226130669e-07,1.3298288744142994e-06,1.484789483362307e-05
105,8.580338057836124e-07,7.842470235543684e-07,1.4330450149256112e-06,7.826213557614091e-07,6.957068418815637e-07,8.270820336441584e-07,8.961289052146875e-07,3.0930179961614584e-05,2.862392794795417e-06,1.226594174723647e-06,8.954071460463213e-07,9.758186107985304e-07,2.5723673491706553e-06,9.529342952612779e-07,1.3029374489761296e-06,1.4129070446459289e-05
106,8.42441309540854e-07,7.930159542724493e-07,1.4664545853577445e-06,7.633550251588151e-07,7.119047404036898e-07,8.088612896008867e-07,8.605487144524062e-07,3.171295591188318e-05,2.935225771954952e-06,1.2199936450014945e-06,9.265707122705309e-07,9.280990777740127e-07,2.6799564555822592e-06,9.629711423239133e-07,1.2704987271069668e-06,1.3378383369486865e-05
107,8.269670707535477e-07,8.020489400920211e-07,1.5010820373812246e-06,7.466133510300548e-07,7.28403552873901e-07,7.889980843705313e-07,8.24442320973833e-07,3.245084797679426e-05,3.014195429340158e-06,1.2126657084559362e-06,9.610148018357716e-07,8.87078408251294e-07,2.7881877133085987e-06,9.73731818087663e-07,1.233092293396856e-06,1.2601747466816432e-05
108,8.115840633494759e-07,8.111764097721773e-07,1.5361994085510053e-06,7.32797156903781e-07,7.449786030076609e-07,7.682470090972905e-07,7.882435388998811e-07,3.3153011581687235e-05,3.099526802776477e-06,1.2049060360828677e-06,9.984760815853605e-07,8.527975112194368e-07,2.896246508224234e-06,9.845671330794934e-07,1.191602058450684e-06,1.1807103592763003e-05
109,7.963856437214657e-07,8.201053834093818e-07,1.5708592699211524e-06,7.222250355671588e-07,7.613727512872621e-07,7.473754658751683e-07,7.524908326017368e-07,3.382443684215302e-05,3.1910303929601908e-06,1.196893404952932e-06,1.0387645295145175e-06,8.251637390729918e-07,3.003003400290268e-06,9.95312218299413e-07,1.1471488278431683e-06,1.1003495956734163e-05
110,7.815583347253467e-07,8.284304759092335e-07,1.603897014113438e-06,7.151389581552374e-07,7.773526931376182e-07,7.270567817873286e-07,7.177654757038298e-07,3.446721732033393e-05,3.2880120984589904e-06,1.1887065825397685e-06,1.081749426931446e-06,8.039231889663894e-07,3.1069401758135108e-06,1.0061098385230082e-06,1.1009208422776793e-06,1.0199716213091938e-05
111,7.672955476103565e-07,8.357205289692622e-07,1.6339978762876105e-06,7.116748661705243e-07,7.927205091840679e-07,7.078484073945e-07,6.846304860014225e-07,3.5081530242219e-05,3.3892882666591114e-06,1.180417086952718e-06,1.1273273001685135e-06,7.886765136483568e-07,3.2062320527146287e-06,1.0171275665273284e-06,1.054024132924078e-06,9.403373999181964e-06
112,7.537253188031597e-07,8.416005186673809e-07,1.6598628699855015e-06,7.118525880840507e-07,8.072612887690599e-07,6.902333810205199e-07,6.53641094240366e-07,3.5665660686505076e-05,3.493277664725105e-06,1.1721718330540405e-06,1.1753520993156076e-06,7.789402928560328e-07,3.2988631853953535e-06,1.028372968642795e-06,1.0074276041138409e-06,8.621024681114741e-06
113,7.40871045716924e-07,8.457485861373229e-07,1.68043812844034e-06,7.156098296636188e-07,8.206956241888223e-07,6.746490189157375e-07,6.2541919062981e-07,3.621531264681979e-05,3.598201407329522e-06,1.1641920698953097e-06,1.225582995852075e-06,7.741950161875378e-07,3.3827294591124932e-06,1.0396688283705356e-06,9.619592658921135e-07,7.85885400608194e-06
114,7.286323582152281e-07,8.478574092836432e-07,1.6950792528437035e-06,7.228360427507724e-07,8.326913496598417e-07,6.614652723750405e-07,6.006868392836779e-07,3.672356059756314e-05,3.7022578862455273e-06,1.1567260250418959e-06,1.2776685546753924e-06,7.739342640613973e-07,3.4557544503616366e-06,1.0507369398857542e-06,9.183131883788061e-07,7.123199572369721e-06
115,7.167926356182647e-07,8.476655602981331e-07,1.7035575776310017e-06,7.333842905263597e-07,8.429006977745945e-07,6.509443246838377e-07,5.801973925721331e-07,3.718253158076681e-05,3.8035749326077313e-06,1.1500010055866935e-06,1.3311635538012761e-06,7.777402135227204e-07,3.5160274534714236e-06,1.0613293305508653e-06,8.770575034345552e-07,6.4207188191522e-06
116,7.050649334737699e-07,8.450697663299327e-07,1.7059372643327884e-06,7.470814464800001e-07,8.509736622225062e-07,6.432179621685381e-07,5.64638017482771e-07,3.758624877636061e-05,3.899954813141348e-06,1.1441729265017775e-06,1.3855739887557959e-06,7.853007968075759e-07,3.561899971578662e-06,1.0713174705991895e-06,8.386331266882641e-07,5.758206740797741e-06
117,6.931909414720129e-07,8.402212405734079e-07,1.70240068180465e-06,7.637222323332694e-07,8.565658916264017e-07,6.382871563449871e-07,5.545919335878062e-07,3.7933125163278014e-05,3.988765295767157e-06,1.1393127278082898e-06,1.4403793267808818e-06,7.963384327928303e-07,3.5919796090678144e-06,1.0806645884868446e-06,8.033553048853729e-07,5.142164213052021e-06
118,6.810576633626319e-07,8.335027108757848e-07,1.693074754040114e-06,7.83041328355192e-07,8.593611874035911e-07,6.36040830271517e-07,5.505448704568219e-07,3.822704760658954e-05,4.067279627368098e-06,1.1354663745895158e-06,1.495033073368531e-06,8.105371393841505e-07,3.6050034681867594e-06,1.0893270827613565e-06,7.714339419191359e-07,4.578406994015428e-06
119,6.687335206628742e-07,8.253947758282401e-07,1.6779339596918253e-06,8.046979730059579e-07,8.590685117118387e-07,6.362785515290241e-07,5.528918252117627e-07,3.84768632285369e-05,4.133255364989962e-06,1.1326977333423137e-06,1.5489727643429209e-06,8.275040926613542e-07,3.5997054587995586e-06,1.0972155600177625e-06,7.429837084272915e-07,4.071941807242522e-06
120,6.563938908672752e-07,8.163663259338051e-07,1.6568752239307412e-06,8.282825981331856e-07,8.553924668586737e-07,6.387138687547098e-07,5.619594606243023e-07,3.86946561879835e-05,4.1852779653873795e-06,1.1310396192104516e-06,1.6015829851543047e-06,8.467604268734783e-07,3.575023642668199e-06,1.1042483783571024e-06,7.180138542697363e-07,3.627032189003991e-06
121,6.442107404942208e-07,8.068697055445082e-07,1.6299318585058718e-06,8.533305117449765e-07,8.480669338362538e-07,6.429769856982941e-07,5.780706853455487e-07,3.8893349030204656e-05,4.222675455589757e-06,1.130445062044766e-06,1.6520882415191315e-06,8.677811882867897e-07,3.530749499969312e-06,1.1103946474191315e-06,6.964520072865613e-07,3.247316832599612e-06
122,6.322812036277646e-07,7.973774120074483e-07,1.5974482407400658e-06,8.793407380522877e-07,8.369812835574934e-07,6.486542291371461e-07,6.016088948221906e-07,3.9083945098950894e-05,4.245194023595306e-06,1.130824700096182e-06,1.6995006566558005e-06,8.900636616724567e-07,3.468074015291007e-06,1.1156485466225975e-06,6.782174324564618e-07,2.936013090120141e-06
123,6.206344890362942e-07,7.88405865432962e-07,1.5600894224949928e-06,9.058304851371143e-07,8.222873421693043e-07,6.553380818454299e-07,6.330224449644348e-07,3.9272705691860856e-05,4.2527217614597504e-06,1.132109320193214e-06,1.7427430779306111e-06,9.131521968394611e-07,3.3894858185647176e-06,1.1199892197283035e-06,6.632720880689222e-07,2.696185448345066e-06
124,6.09307143384684e-07,7.80522691990862e-07,1.5187226241095316e-06,9.324103471300894e-07,8.043841476232463e-07,6.626317898881774e-07,6.728142298764975e-07,3.9459198275832e-05,4.245150294685196e-06,1.1342495443631434e-06,1.7809098096159588e-06,9.366050107212053e-07,3.2981395884450792e-06,1.1233759245296294e-06,6.515885431162711e-07,2.530938837134701e-06
125,5.983997276403506e-07,7.743154324778469e-07,1.474279803450573e-06,9.587793027321515e-07,7.838073331725068e-07,6.701364138902107e-07,7.215687131812187e-07,3.9636331230631917e-05,4.222244456784341e-06,1.1371720180195582e-06,1.8135264021142748e-06,9.600110549015196e-07,3.1972179044445544e-06,1.1257488176015567e-06,6.430742217636762e-07,2.4434435264489447e-06
126,5.880591581594404e-07,7.703385470964212e-07,1.4276679148889018e-06,9.846332995823898e-07,7.611225779708104e-07,6.774905274514515e-07,7.799474892002838e-07,3.979224613469205e-05,4.183489355497092e-06,1.1407724174905159e-06,1.8406724863700703e-06,9.83092697905218e-07,3.0896505075012584e-06,1.1270115058790178e-06,6.375436104113335e-07,2.436790589071803e-06
127,5.784504408216635e-07,7.690870115747502e-07,1.379734464159592e-06,1.009616562509275e-06,7.368768975473894e-07,6.844265427203451e-07,8.486179063213483e-07,3.9912802991326217e-05,4.128153432537063e-06,1.1449294057824305e-06,1.8628975082394376e-06,1.0057401448422638e-06,2.978149824589525e-06,1.1270799812551722e-06,6.347613430446108e-07,2.513808903249121e-06
128,5.697672156918999e-07,7.709789275400964e-07,1.3312797861676698e-06,1.0333809963171556e-06,7.115770276559129e-07,6.907463545982255e-07,9.281999940651242e-07,3.998358281863888e-05,4.055658168229773e-06,1.1494631634651264e-06,1.8809765334284726e-06,1.027957055148904e-06,2.8652709190884027e-06,1.1260242632343231e-06,6.345083116238421e-07,2.6769862318654873e-06
129,5.62230720029996e-07,7.763192046381095e-07,1.2831010718453141e-06,1.0557056820185079e-06,6.856643448082001e-07,6.962300632558189e-07,1.0192613885733018e-06,3.999096894488019e-05,3.965995951987476e-06,1.1540678564158686e-06,1.8956634023958862e-06,1.0498567542344068e-06,2.753295405726562e-06,1.124124721492539e-06,6.366523931616248e-07,2.9284494790002416e-06
130,5.560449450022445e-07,7.852724900340567e-07,1.2360204763467571e-06,1.0765916786084402e-06,6.595168552104294e-07,7.005876822382366e-07,1.1222907582824857e-06,3.9922332549426176e-05,3.860015162134381e-06,1.1582929484064164e-06,1.907589213816989e-06,1.0716643060244858e-06,2.6440309601937055e-06,1.1217432024445144e-06,6.412252318088458e-07,3.2698946777036124e-06
131,5.51348283839406e-07,7.978629344619004e-07,1.1908419494716243e-06,1.096239327764416e-06,6.334994380779093e-07,7.035050970314752e-07,1.237642873146791e-06,3.97657916497073e-05,3.7395755306093243e-06,1.1616082365866335e-06,1.917290007019715e-06,1.093627289838956e-06,2.538754562540521e-06,1.1191779490012339e-06,6.484420337343677e-07,3.7024658120329117e-06
132,5.481942327727567e-07,8.139815288690372e-07,1.1482542641777734e-06,1.11489316055087e-06,6.080235033342303e-07,7.04733042477647e-07,1.3655067812521645e-06,3.951025509062255e-05,3.6075046074289117e-06,1.1635464370095507e-06,1.9252612281346e-06,1.115944083310542e-06,2.4383402110978076e-06,1.1166329129662835e-06,6.586176378214491e-07,4.226659648733478e-06
133,5.465561593964712e-07,8.333847731538892e-07,1.1087578420971263e-06,1.1326762628334493e-06,5.83567130419831e-07,7.041532604261041e-07,1.5058868815965094e-06,3.9146162763197554e-05,3.467263327685479e-06,1.1638058953426937e-06,1.932031772848573e-06,1.1388709574986786e-06,2.3433836612902937e-06,1.114214499390106e-06,6.720545446946167e-07,4.842295587291779e-06
134,5.463496809650855e-07,8.556872848151151e-07,1.0726419344241147e-06,1.14952816342057e-06,5.606381162579151e-07,7.018094736190241e-07,1.658572039801964e-06,3.866667279715051e-05,3.322410304070307e-06,1.1622069843128573e-06,1.93824225094809e-06,1.1629723678962982e-06,2.2542051089203566e-06,1.1119124680551154e-06,6.889796810928416e-07,5.5485159422777674e-06
135,5.474550429174669e-07,8.803722943207169e-07,1.0399812048242367e-06,1.1652437910359176e-06,5.397020609435636e-07,6.979148673764995e-07,1.823101022557878e-06,3.806859005679663e-05,3.1761322562195663e-06,1.1586060630878603e-06,1.9446196910593604e-06,1.1892745647795789e-06,2.170833445231787e-06,1.1096474092907121e-06,7.095197355379884e-07,6.343826850988166e-06
136,5.497128563606543e-07,9.068267396275679e-07,1.0106455833579766e-06,1.1795608416277391e-06,5.211230713534472e-07,6.928185010588471e-07,1.998729555754268e-06,3.73520928978565e-05,3.0310459258559403e-06,1.1528970164994898e-06,1.951873678451535e-06,1.2191503497077093e-06,2.0930672510792753e-06,1.107394100127034e-06,7.336980192806453e-07,7.226277380644198e-06
137,5.529161219350261e-07,9.343623803882543e-07,9.843614421567972e-07,1.1922330702826573e-06,5.051428445430546e-07,6.869163842496835e-07,2.1844401528689895e-06,3.651854838494938e-05,2.8892449459558463e-06,1.1450340674015231e-06,1.9606602782983867e-06,1.2540464829402788e-06,2.0205721839837807e-06,1.1052735187230192e-06,7.614367880706258e-07,8.193860888884407e-06
138,5.568325588625144e-07,9.622192907665356e-07,9.608555436733022e-07,1.203026213033251e-06,4.918896719132606e-07,6.805543221969717e-07,2.3790286735077574e-06,3.556765510143132e-05,2.752466692947056e-06,1.135015615130985e-06,1.9715840944584193e-06,1.2952935399935164e-06,1.953012101703001e-06,1.1035370252940867e-06,7.925522906487391e-07,9.245019371861673e-06
139,5.612243105153337e-07,9.895809293281562e-07,9.400205339963346e-07,1.2116329839447688e-06,4.814038575614541e-07,6.739806366754832e-07,2.5811684406204663e-06,3.449695246243511e-05,2.62228288831351e-06,1.1228969398919717e-06,1.985138408806459e-06,1.3440680647908674e-06,1.89023610614137e-06,1.102538057276921e-06,8.267787140657749e-07,1.0378865104360996e-05
140,5.65836615367139e-07,1.0155747402255597e-06,9.219653204408886e-07,1.217603253306807e-06,4.7367013283618905e-07,6.673594906206277e-07,2.7893376788280927e-06,3.33045952764754e-05,2.5002111373277597e-06,1.1088124477767134e-06,2.0016578280342427e-06,1.401429039910359e-06,1.8324145684005593e-06,1.1027600346937927e-06,8.63822032489413e-07,1.1594891431807942e-05
141,5.70400092328362e-07,1.0392652791359925e-06,9.069097339818613e-07,1.2203911043926204e-06,4.686596955626392e-07,6.608274543942751e-07,3.001713966234649e-06,3.1992953178336175e-05,2.3877032175954177e-06,1.0929254447852588e-06,2.0213451645547964e-06,1.4684048983931406e-06,1.7799918741323216e-06,1.1047611815542396e-06,9.033642531629098e-07,1.2892409772373256e-05
142,5.746722361147554e-07,1.0597296612294008e-06,8.950399858718992e-07,1.2195116355121194e-06,4.6639420942287787e-07,6.545520225862672e-07,3.2163032123992695e-06,3.05707256503156e-05,2.286083732113317e-06,1.075365612626521e-06,2.04427464953541e-06,1.5460720884485697e-06,1.7334814507116125e-06,1.1090141461529595e-06,9.449963104108529e-07,1.4269990126010679e-05
143,5.784704779138472e-07,1.0762272352984802e-06,8.864340545282585e-07,1.2147273146612953e-06,4.6700469387996216e-07,6.487390342271376e-07,3.4313796843010273e-06,2.9053112342536374e-05,2.1964839997986476e-06,1.056261691148188e-06,2.0703221990191138e-06,1.6354816301529768e-06,1.6932453705791494e-06,1.1158185674741094e-06,9.881637800876468e-07,1.572489535764414e-05
144,5.816671720050538e-07,1.0883487676012657e-06,8.810584269164627e-07,1.2061649732646416e-06,4.707262212982592e-07,6.435819603821257e-07,3.645946365550833e-06,2.7460541587910788e-05,2.119761035129877e-06,1.03584499024456e-06,2.0991195236624845e-06,1.7374820509634305e-06,1.6593616917874855e-06,1.1253269445417468e-06,1.0321949156370549e-06,1.7252495365346595e-05
145,5.84167205762075e-07,1.0960315782610854e-06,8.788116699834645e-07,1.1942738112529148e-06,4.778348919118418e-07,6.392118258044948e-07,3.859863299777289e-06,2.5816681606754807e-05,2.056482247291129e-06,1.014527295753146e-06,2.130074317523017e-06,1.8526471374059037e-06,1.6315882898506756e-06,1.137567484830138e-06,1.0763701697172392e-06,1.8845795082160303e-05
146,5.858836872002761e-07,1.0994314493287725e-06,8.795781858203215e-07,1.1796407647492633e-06,4.885948218800998e-07,6.356998502986137e-07,4.073537472042215e-06,2.4146266305465363e-05,2.0070424357772725e-06,9.92896229249292e-07,2.162362105025514e-06,1.9813179542989286e-06,1.609401699889866e-06,1.152408150187626e-06,1.1199417505889785e-06,2.0495106305476618e-05
147,5.867384636196364e-07,1.0987782596366638e-06,8.832338581894417e-07,1.1628185519895553e-06,5.032320019253186e-07,6.330937490518707e-07,4.28734999772335e-06,2.2473036245693495e-05,1.9717967304613425e-06,9.716245656577715e-07,2.194863711070468e-06,2.123614804439141e-06,1.5921156530355494e-06,1.169509882100498e-06,1.1621437928553952e-06,2.218767021671734e-05
148,5.86715571603907e-07,1.094358751401416e-06,8.8963530970447e-07,1.144290517826002e-06,5.219052114473677e-07,6.314343956412989e-07,4.5011905716966905e-06,2.0818009556268364e-05,1.951052213385116e-06,9.513628296018621e-07,2.2261465576987526e-06,2.279450304356786e-06,1.5790995497718003e-06,1.1883353634747429e-06,1.2023176015261425e-06,2.3907047700758267e-05
149,5.859069779019195e-07,1.0866005275561506e-06,8.986643501325423e-07,1.1245064713226447e-06,5.446740474560649e-07,6.307260274139071e-07,4.714273412121505e-06,1.9198284787130172e-05,1.944921400733858e-06,9.327074834145785e-07,2.254558867301932e-06,2.4487303398113724e-06,1.5700726755908863e-06,1.2082288172504547e-06,1.2400923812521172e-06,2.5632323191427855e-05
150,5.844733727702161e-07,1.0761222515526391e-06,9.102677237568954e-07,1.1038681479613836e-06,5.714792937247075e-07,6.30883535728721e-07,4.925057097030426e-06,1.762666404159144e-05,1.9531831218245653e-06,9.162329000122951e-07,2.278454872484788e-06,2.631743488521453e-06,1.565307976430593e-06,1.2285045982646748e-06,1.275423340794841e-06,2.7337344696390008e-05
151,5.825741199102764e-07,1.0636886898071492e-06,9.244016193416798e-07,1.0826973329077136e-06,6.021350530288457e-07,6.317101375968702e-07,5.1312573023267944e-06,1.611220809231844e-05,1.9752529558741004e-06,9.024937300743457e-07,2.2965067485204482e-06,2.8294631401901274e-06,1.5655425976578502e-06,1.2484810283908286e-06,1.3084304899984795e-06,2.8990430453374993e-05
152,5.803525506730001e-07,1.0501012189730698e-06,9.409333186708262e-07,1.0612853834053414e-06,6.363329009538307e-07,6.329390439715416e-07,5.330141721859337e-06,1.4661352267928375e-05,2.01025009956785e-06,8.919672492372118e-07,2.307936448114495e-06,3.043556628275331e-06,1.5716554050121052e-06,1.2675089656379496e-06,1.339173037262815e-06,3.055533885204671e-05
153,5.779596271829874e-07,1.0360897260593845e-06,9.596024054016285e-07,1.0399858558065526e-06,6.736583993792327e-07,6.343317252188355e-07,5.518956733094515e-06,1.3279052765342434e-05,2.057150048369248e-06,8.849897134067027e-07,2.3124930764978095e-06,3.2761659296678495e-06,1.5843819550841162e-06,1.2850758779833193e-06,1.3675247616153048e-06,3.199425264270439e-05
154,5.755805938189281e-07,1.022261221673995e-06,9.800519653693492e-07,1.019227696104458e-06,7.136009871424885e-07,6.357907799290113e-07,5.69506253381981e-06,1.1969632436524713e-05,2.1150220980708602e-06,8.817213257784055e-07,2.310182727448651e-06,3.529596386801363e-06,1.6041918180818933e-06,1.300951461556974e-06,1.393188140184012e-06,3.327258404886084e-05
155,5.734512693316318e-07,1.0091054453536114e-06,1.001881533729542e-06,9.99425872946155e-07,7.555363462449868e-07,6.374294638456079e-07,5.855645419575831e-06,1.0737165007999268e-05,2.183263646882497e-06,8.821315392916084e-07,2.3009744915932737e-06,3.8060698459320904e-06,1.6312528708704935e-06,1.3152674424395123e-06,1.4157518112106813e-06,3.436405782516933e-05
156,5.718361765087944e-07,9.970187531867147e-07,1.0246780852468977e-06,9.808915834017154e-07,7.986987799690798e-07,6.395584630850729e-07,5.997451087377307e-06,9.585403653831144e-06,2.2617162011742458e-06,8.860006086313151e-07,2.2847245282300405e-06,4.107766660887062e-06,1.6654127023522536e-06,1.328449178809036e-06,1.4347230797581675e-06,3.525377997627755e-05
157,5.709898951206053e-07,9.863179852738162e-07,1.0480017801745748e-06,9.638368574609087e-07,8.421981871925449e-07,6.425943766309554e-07,6.116983722944432e-06,8.517452281821188e-06,2.3506570514871278e-06,8.929268166754902e-07,2.26133077861504e-06,4.437110780536746e-06,1.7062209583148884e-06,1.341030234606877e-06,1.4495733894094735e-06,3.593762591724245e-05
158,5.711417139649741e-07,9.772302772002125e-07,1.0713735620240556e-06,9.484450088535696e-07,8.851146317440752e-07,6.469389643547533e-07,6.210941421120748e-06,7.535435883242193e-06,2.450715145516448e-06,9.023458097549439e-07,2.23096449610869e-06,4.79685235142134e-06,1.7530398537200532e-06,1.3535073579861515e-06,1.459815015835518e-06,3.641791475742699e-05
159,5.724792337144024e-07,9.698579362818901e-07,1.0943349164803379e-06,9.348977546791911e-07,9.266283046656126e-07,6.528972397314592e-07,6.276481464115739e-06,6.640324310016356e-06,2.562697132017062e-06,9.136315793037582e-07,2.1942512237769635e-06,5.189679115403035e-06,1.8051929799246014e-06,1.3662937172958546e-06,1.4650223005093859e-06,3.6697566253464526e-05
160,5.751192349196015e-07,9.641442365742066e-07,1.116531990839981e-06,9.233139650414467e-07,9.661055021790528e-07,6.60668496766958e-07,6.311355458883537e-06,5.831939265094962e-06,2.687382878772954e-06,9.262957315888395e-07,2.1522619059780625e-06,5.617621506543808e-06,1.8620172556855827e-06,1.3796632513305882e-06,1.4647674520725266e-06,3.677707017129703e-05
161,5.791047480644149e-07,9.598640080337937e-07,1.1377250923662652e-06,9.136704362055191e-07,1.003109454011615e-06,6.703750005824135e-07,6.314082305774083e-06,5.109114151173184e-06,2.8254815290774066e-06,9.401467841276432e-07,2.1062478515780524e-06,6.081617568102155e-06,1.922805645764505e-06,1.3936857377054935e-06,1.458635659051703e-06,3.665689857847164e-05
162,5.844427999882754e-07,9.566498637123725e-07,1.1577367236794e-06,9.057956830270534e-07,1.0373536412629566e-06,6.820687426207347e-07,6.284123513594505e-06,4.469946552976284e-06,2.9777470886789605e-06,9.552654116340306e-07,2.057349346249695e-06,6.581299244604086e-06,1.9867776485364637e-06,1.40825733091475e-06,1.4464293139126288e-06,3.634283980022278e-05
163,5.911401556656594e-07,9.540668847646586e-07,1.176409143315902e-06,8.994580153021155e-07,1.0686170005794759e-06,6.957170303037474e-07,6.221969256038085e-06,3.912059959596525e-06,3.144981685366359e-06,9.71828045895651e-07,2.0065034554077004e-06,7.114899438481377e-06,2.053081850419876e-06,1.4231723489116201e-06,1.4283430602170205e-06,3.585009173824195e-05
164,5.991972045799427e-07,9.517208120337582e-07,1.1935728184692357e-06,8.944973657388357e-07,1.0966488985878158e-06,7.112194015935045e-07,6.129096805050894e-06,3.432811528831949e-06,3.3278317036766472e-06,9.899533941955468e-07,1.954447474337782e-06,7.679223024600443e-06,2.120704871710613e-06,1.4380988141412004e-06,1.4048651649476676e-06,3.520454076274997e-05
165,6.085912038491811e-07,9.493311577808421e-07,1.2089838799220753e-06,8.90908256779868e-07,1.1211299262416389e-06,7.284493243586336e-07,6.00769298876962e-06,3.0294428057881374e-06,3.526620069689293e-06,1.0096767750431838e-06,1.9017258203053488e-06,8.26965125517878e-06,2.1883643858247335e-06,1.452488143902411e-06,1.37656026345074e-06,3.44415479976669e-05
166,6.192742382096628e-07,9.467105134690529e-07,1.2222523651363306e-06,8.888029044999978e-07,1.1417449890131593e-06,7.472569426200948e-07,5.860085821969277e-06,2.6992029706465617e-06,3.7413355036079696e-06,1.0309737837696707e-06,1.8487917734765993e-06,8.880128381179082e-06,2.254602046985074e-06,1.4655550123307273e-06,1.3440099997384195e-06,3.3602791498991587e-05
167,6.311503326284385e-07,9.437196859008812e-07,1.2328634715832517e-06,8.882910643887519e-07,1.1582934487521624e-06,7.674457529205475e-07,5.688267891862284e-06,2.439452333037116e-06,3.971576519500002e-06,1.0537363706460026e-06,1.7961679597670343e-06,9.503110727992532e-06,2.3179973829343465e-06,1.4763892100689953e-06,1.3078716332270888e-06,3.273179450711499e-05
168,6.440413672529823e-07,9.402990466235357e-07,1.2403463566243313e-06,8.893899607824966e-07,1.1706854810249435e-06,7.887656211369261e-07,5.493982723428898e-06,2.2477120388550128e-06,4.216336604160983e-06,1.0777248050213092e-06,1.7444851907635808e-06,1.0129583679075444e-05,2.377173809866591e-06,1.4841483200776048e-06,1.2688992502186053e-06,3.1869356634321646e-05
169,6.576822918043399e-07,9.365051947984694e-07,1.2444817770544528e-06,8.920091389977231e-07,1.1788458957181355e-06,8.108916902936883e-07,5.279199093659644e-06,2.121606362442537e-06,4.473792858190112e-06,1.1025354344094657e-06,1.6943610923826678e-06,1.0749330395759601e-05,2.430561455034244e-06,1.4882207419969478e-06,1.2279146681442937e-06,3.105036086233176e-05
170,6.717317734893951e-07,9.324585612800209e-07,1.2453675325848976e-06,8.959532963188356e-07,1.182711348699043e-06,8.334110470906075e-07,5.046449742932755e-06,2.058691799371584e-06,4.7412209605708e-06,1.1275790015115625e-06,1.646272354812743e-06,1.135148528699277e-05,2.476258676722555e-06,1.4883251071826401e-06,1.1857601825226976e-06,3.0302435942853572e-05
171,6.858026687545084e-07,9.28292868016855e-07,1.2432963231265386e-06,9.009007973599612e-07,1.1823841422316855e-06,8.559008908731277e-07,4.798861698442251e-06,2.056267749718539e-06,5.014958701516865e-06,1.1520923721776908e-06,1.6005578707883137e-06,1.1925115117143332e-05,2.5122836379617757e-06,1.4845918260408837e-06,1.1432392831943128e-06,2.9645797924843012e-05
172,6.995297317381453e-07,9.242234517739382e-07,1.2385878310943712e-06,9.063879542704018e-07,1.1782926466301127e-06,8.780542143285428e-07,4.540020355954773e-06,2.1112748400419533e-06,5.29037603270708e-06,1.1752032793799622e-06,1.5575100736599423e-06,1.2459452770411958e-05,2.537167240706838e-06,1.4775978148776326e-06,1.1010585532142183e-06,2.909346167863676e-05
173,7.126157161120031e-07,9.206572139922787e-07,1.2315127507793451e-06,9.118460748907913e-07,1.171201408384093e-06,8.997081073640251e-07,4.273803775511831e-06,2.2202704943859015e-06,5.561959111058126e-06,1.1959979631737967e-06,1.5174036166908325e-06,1.2943519734095547e-05,2.5504839032585476e-06,1.4682603019114372e-06,1.0598160905008448e-06,2.865148463455025e-05
174,7.248013570714959e-07,9.181730534467932e-07,1.2222864519118166e-06,9.16695960445315e-07,1.1620707351300097e-06,9.207349299602649e-07,4.0042200929184575e-06,2.379427624647041e-06,5.823567610192314e-06,1.2135743231124024e-06,1.480422232644729e-06,1.3365353902547765e-05,2.552919972901521e-06,1.457595506257358e-06,1.020043677553632e-06,2.831946883189837e-05
175,7.357975980793914e-07,9.173674848980525e-07,1.211083016908653e-06,9.204411178322985e-07,1.151868620909683e-06,9.408994106021999e-07,3.7352334999790535e-06,2.584557763509085e-06,6.068837128426123e-06,1.2271438189593648e-06,1.446593671364743e-06,1.371201265450361e-05,2.5458781518102273e-06,1.4464924426184577e-06,9.822188761781882e-07,2.8091803010637696e-05
176,7.45268361622408e-07,9.187163624099415e-07,1.1981042881141679e-06,9.226798190402031e-07,1.1414302781115004e-06,9.597826757107812e-07,3.4705910168061597e-06,2.831141596222763e-06,6.2917160737154206e-06,1.23616469703418e-06,1.4157904647573025e-06,1.397144411150218e-05,2.5309206563791876e-06,1.4356175603879797e-06,9.467189954961153e-07,2.7959838507792945e-05
177,7.529075927863904e-07,9.225283152943401e-07,1.183657325226897e-06,9.230519325707916e-07,1.1314031102289902e-06,9.768062480890614e-07,3.2136752980648554e-06,3.114309654922816e-06,6.487051831378364e-06,1.2403867766746138e-06,1.3877719869050129e-06,1.4135411055653607e-05,2.5093521461303435e-06,1.425411709879299e-06,9.138015090159377e-07,2.791473846458733e-05
178,7.585236811146287e-07,9.289564252059838e-07,1.1681125682418334e-06,9.212398916444818e-07,1.1222468390311098e-06,9.91363416768018e-07,2.96738452425867e-06,3.428753143922976e-06,6.651032280423852e-06,1.2397638859519369e-06,1.3623018599111742e-06,1.4201305551466014e-05,2.4820360191415943e-06,1.4161138409055152e-06,8.836520443058971e-07,2.7950280988111808e-05
179,7.620247932536125e-07,9.380550594700661e-07,1.151772264150461e-06,9.170637833818145e-07,1.11424575695934e-06,1.003003805868875e-06,2.734068834625598e-06,3.768627787988909e-06,6.781347846924863e-06,1.2343018196894718e-06,1.3393207347840743e-06,1.417145790516822e-05,2.4493506842470656e-06,1.4078009307603648e-06,8.564565535362642e-07,2.8064595210925883e-05
180,7.633825245387943e-07,9.498659376808546e-07,1.1347863186983489e-06,9.105699581248677e-07,1.107539758964423e-06,1.01153012438381e-06,2.515573435947835e-06,4.1275805119746675e-06,6.876995075600538e-06,1.2239537820580668e-06,1.3190118442962732e-06,1.4050528882309085e-05,2.411247128651453e-06,1.4004347918041573e-06,8.324512674537438e-07,2.8260026103422843e-05
181,7.626815275581814e-07,9.644478275845906e-07,1.1171701539531335e-06,9.02029399982256e-07,1.1021892402787676e-06,1.0169176808370358e-06,2.3133277607595254e-06,4.498950148850643e-06,6.9376561685593e-06,1.2086620362811619e-06,1.3016987108860612e-06,1.384339067176795e-05,2.367458990839109e-06,1.3939037523619107e-06,8.119250707029715e-07,2.854089702921152e-05
182,7.601582672537824e-07,9.818056452611232e-07,1.0989216285309358e-06,8.918672553244352e-07,1.0982380515748973e-06,1.0191408336437636e-06,2.128378876463102e-06,4.8760218368063665e-06,6.962973082584375e-06,1.188518455087805e-06,1.2876997961837133e-06,1.3555407453041223e-05,2.317821001912017e-06,1.3880587016208822e-06,7.951767136716557e-07,2.8910139606580164e-05
183,7.561251052742729e-07,1.0017971145710656e-06,1.0801834498597779e-06,8.805885914641424e-07,1.09572030054191e-06,1.0180813299710716e-06,1.961441031991383e-06,5.252163295278958e-06,6.952462509365206e-06,1.1638938018060696e-06,1.2772333718098118e-06,1.319429133633358e-05,2.262524332086555e-06,1.3827296778296502e-06,7.824597261923466e-07,2.9367217367496092e-05
184,7.508664155638685e-07,1.0240935582669657e-06,1.0613295777913483e-06,8.687191452370589e-07,1.094624733276602e-06,1.0136055174052709e-06,1.8130576190867831e-06,5.6207132761573615e-06,6.906272748321354e-06,1.135436303896921e-06,1.2703676764302097e-06,1.2771255295431649e-05,2.202143880281396e-06,1.3777050662137876e-06,7.739409077644033e-07,2.9908542856917315e-05
185,7.446183126865823e-07,1.0481867385046882e-06,1.0429152335658041e-06,8.567359424854266e-07,1.0948915418629718e-06,1.0057435489202566e-06,1.6837350464190843e-06,5.97461393560389e-06,6.826018088397952e-06,1.1039823194875327e-06,1.2670364554533866e-06,1.2300326462314161e-05,2.13744932528348e-06,1.3726979875381766e-06,7.696759140810858e-07,3.052856555063687e-05
186,7.376004312384502e-07,1.0734242463304905e-06,1.0255540483671326e-06,8.450011451406783e-07,1.0964408311867015e-06,9.948177540302524e-07,1.5739080277307113e-06,6.30607058047983e-06,6.715016978263601e-06,1.0704664007522705e-06,1.26714913591444e-06,1.1796384945086847e-05,2.0692230039351817e-06,1.3673496664250074e-06,7.696087437677387e-07,3.1219894309102264e-05
187,7.300161986222139e-07,1.0990785132719527e-06,1.0098018913571324e-06,8.337399984474282e-07,1.0991758944004213e-06,9.814056713390615e-07,1.4838735636525006e-06,6.606681762075437e-06,6.578065429112633e-06,1.0358405087633792e-06,1.270701210470443e-06,1.1273211980327203e-05,1.9982843096127747e-06,1.3612754816067535e-06,7.73601214578077e-07,3.197302580933262e-05
188,7.220532021555881e-07,1.124440137831093e-06,9.960704099862763e-07,8.230691556125799e-07,1.1029838750777118e-06,9.661898836123102e-07,1.4138226116303192e-06,6.868206390713217e-06,6.421136007823452e-06,1.000978465343304e-06,1.2777466679503393e-06,1.0742443380192998e-05,1.925653206146883e-06,1.3541336331668045e-06,7.814695150448952e-07,3.2776414893393004e-05
189,7.139385663373026e-07,1.1489148611988966e-06,9.845790270887344e-07,8.130526157716216e-07,1.1077512506141738e-06,9.498451540465385e-07,1.3638584088469193e-06,7.083712440695559e-06,6.251021063424031e-06,9.665989475937886e-07,1.2882697355582007e-06,1.0213444937153641e-05,1.8526115963813001e-06,1.345719456502828e-06,7.930106870950397e-07,3.3616654457335186e-05
190,7.059738870059409e-07,1.1721016654044576e-06,9.753633610756824e-07,8.037544127523221e-07,1.1133557986702336e-06,9.329961706537993e-07,1.3339347292352642e-06,7.248621157909276e-06,6.074729204165219e-06,9.332460697201621e-07,1.302130702979102e-06,9.69362763275484e-06,1.7805706264405417e-06,1.3360607809931798e-06,8.080167685350504e-07,3.447826725889725e-05
191,6.984825168284346e-07,1.1938187918212262e-06,9.683378065286284e-07,7.952688788001051e-07,1.1196638659867614e-06,9.16192138399115e-07,1.32380019317602e-06,7.361151296857773e-06,5.898764533195206e-06,9.013050166577706e-07,1.3191635412781322e-06,9.18883797824944e-06,1.7108999548150378e-06,1.3254308810221035e-06,8.262526308650137e-07,3.534271090004564e-05
192,6.917308226575872e-07,1.2140519913200918e-06,9.633664592307525e-07,7.877156928083756e-07,1.1265886188606343e-06,8.998898649659461e-07,1.3329688456847738e-06,7.421892258640472e-06,5.728679197278325e-06,8.710086028812428e-07,1.3392957833222171e-06,8.703660703769452e-06,1.644868054134748e-06,1.3142437992897143e-06,8.474361563267702e-07,3.618699281292808e-05
193,6.858953100891069e-07,1.2328420862255279e-06,9.602708851603949e-07,7.811877423456711e-07,1.1341738888318588e-06,8.844345203472368e-07,1.3606871542635534e-06,7.432641441988126e-06,5.568981806401791e-06,8.424460528825187e-07,1.3625221283606377e-06,8.241531289308608e-06,1.5836628789775095e-06,1.3029392901648733e-06,8.712968027596111e-07,3.698396377202822e-05
194,6.810660488818886e-07,1.2501686920039699e-06,9.587639522615336e-07,7.756822778904512e-07,1.1426212594963365e-06,8.700325162121424e-07,1.405929706895466e-06,7.395112928558308e-06,5.423133409023482e-06,8.156246996246364e-07,1.3887816988651e-06,7.8046728511308e-06,1.528396752664077e-06,1.2919539619099762e-06,8.976377971996539e-07,3.770575219054188e-05
195,6.772555419842305e-07,1.265874568437574e-06,9.583832799542724e-07,7.710729563380455e-07,1.152224148368308e-06,8.567608669544427e-07,1.4674354971912486e-06,7.310371838827868e-06,5.293523559517978e-06,7.905678327605203e-07,1.4178864960563342e-06,7.394022606838231e-06,1.4800540933728123e-06,1.281697070118154e-06,9.262761574850057e-07,3.8328477016039464e-05
196,6.744146166469213e-07,1.2796332758847868e-06,9.58490012263897e-07,7.671411905175991e-07,1.1632631523440172e-06,8.446134762582983e-07,1.5437546310470501e-06,7.179329974060852e-06,5.18155071497007e-06,7.673649282069821e-07,1.4494977677841421e-06,7.0093303809906114e-06,1.4394038949618166e-06,1.272460696352912e-06,9.569096535549473e-07,3.883525175622253e-05
197,6.724442694187087e-07,1.2909741383767545e-06,9.583507633338612e-07,7.636241241143336e-07,1.1759823726584913e-06,8.335429215405336e-07,1.6333067036353333e-06,7.003745051822962e-06,5.087826743487958e-06,7.461466608245194e-07,1.4831010074047824e-06,6.649394094782315e-06,1.4069351057686786e-06,1.2643525006956677e-06,9.890365766907311e-07,3.921638407953443e-05
198,6.711850742397761e-07,1.2993959763145298e-06,9.572859754862464e-07,7.602345080109212e-07,1.1906774567198106e-06,8.235127492856385e-07,1.7344256376637414e-06,6.78699132271632e-06,5.0124256212659e-06,7.270547859543297e-07,1.5179892638693311e-06,6.31218257968511e-06,1.3828548855547298e-06,1.2572956233669886e-06,1.0219565360608009e-06,3.94671134846401e-05
199,6.704195744086755e-07,1.3045138499088891e-06,9.548211750487004e-07,7.566862626328809e-07,1.2077674459223827e-06,8.145540354612958e-07,1.845353606259018e-06,6.534273389803546e-06,4.955152673070272e-06,7.102424307593968e-07,1.5532642333663834e-06,5.994857634187633e-06,1.3671275437240127e-06,1.2510359422577402e-06,1.0548259313636088e-06,3.958359529747227e-05
200,6.699319794777807e-07,1.3061226360292254e-06,9.507595393663642e-07,7.527520983652155e-07,1.2277428180127663e-06,8.067490188567054e-07,1.9642090382166568e-06,6.2522550270273506e-06,4.915793166386115e-06,6.958472812931922e-07,1.5879066877311096e-06,5.694132288542154e-06,1.3595140108746029e-06,1.2451666515400375e-06,1.0867356556098014e-06,3.955886683035789e-05
201,6.695982385499745e-07,1.3041446881187255e-06,9.451561526867023e-07,7.482887526128089e-07,1.2510268214766904e-06,8.00151506863268e-07,2.088947209743686e-06,5.948302345268458e-06,4.8941831520540885e-06,6.83935225543167e-07,1.6209550184966532e-06,5.407124311260597e-06,1.3596030950797706e-06,1.2392316839035567e-06,1.116755079435812e-06,3.9381752241444436e-05
202,6.694327537430662e-07,1.2985219178723132e-06,9.382438413644333e-07,7.432119147966459e-07,1.277849103129507e-06,7.94757367284853e-07,2.2173837916782687e-06,5.6297172129898205e-06,4.889990705899579e-06,6.744769032246518e-07,1.6516455764350877e-06,5.132110925974175e-06,1.3668292342860292e-06,1.2328912655524815e-06,1.1439536056314981e-06,3.904000752578133e-05
203,6.6955194925883e-07,1.2891655280580152e-06,9.303433181279611e-07,7.374929102698736e-07,1.3081798607834767e-06,7.905694109035919e-07,2.347342142077569e-06,5.303231753007043e-06,4.902432980854096e-06,6.673709068632714e-07,1.679353364948768e-06,4.868519843998763e-06,1.3805040861116383e-06,1.2260859971043324e-06,1.1674940182622212e-06,3.852556094055338e-05
204,6.700805287175312e-07,1.2760457148150223e-06,9.217514078391108e-07,7.312026750441685e-07,1.3417012310424687e-06,7.876876196766904e-07,2.4767471151671283e-06,4.974742694736741e-06,4.930289784590117e-06,6.624991202695418e-07,1.7034562168822393e-06,4.616408129114317e-06,1.3999178401352128e-06,1.2191400851084288e-06,1.1867886219302007e-06,3.783894368215701e-05
205,6.710609007499962e-07,1.2593107020347576e-06,9.126323255328873e-07,7.245569703133086e-07,1.377789579933269e-06,7.8633199337239e-07,2.6035049992368225e-06,4.649175679914162e-06,4.97217146355486e-06,6.597898036536305e-07,1.723357573943874e-06,4.37624190159073e-06,1.4244434618728398e-06,1.212727069608611e-06,1.201601637544053e-06,3.699140388257525e-05
206,6.724186926314491e-07,1.2392527864376126e-06,9.029774011026004e-07,7.179217084035789e-07,1.415526721244151e-06,7.867690439671023e-07,2.7253130745798036e-06,4.330500381295829e-06,5.026668131425865e-06,6.59237984314296e-07,1.7386402861049787e-06,4.149013342094138e-06,1.4535001531420431e-06,1.2076984693769686e-06,1.212049460500945e-06,3.600413952354291e-05
207,6.740073198244641e-07,1.2161734692347635e-06,8.926739285484423e-07,7.117689030480441e-07,1.4537804356339385e-06,7.892050473938491e-07,2.8396354808492368e-06,4.0219091655481215e-06,5.092176259870165e-06,6.608573648226231e-07,1.7491469773658636e-06,3.93606848967589e-06,1.4864027799732848e-06,1.204940124372237e-06,1.218514868967189e-06,3.4904815319364794e-05
208,6.757142709204162e-07,1.1903326349480502e-06,8.816439223403971e-07,7.066001800426721e-07,1.491373667243499e-06,7.937255472833222e-07,2.9439518698821754e-06,3.7260271598116248e-06,5.166535413193115e-06,6.646006710844856e-07,1.7549470181920004e-06,3.7386087271487103e-06,1.5222919946360967e-06,1.2053563649146567e-06,1.2215063766868282e-06,3.372250294824428e-05
209,6.775652742568326e-07,1.1619976156309256e-06,8.699508057111037e-07,7.028738089032922e-07,1.5272970791210472e-06,8.002921454811147e-07,3.036194021365975e-06,3.4450014088384047e-06,5.246744077624446e-06,6.70306242135416e-07,1.7562991987708934e-06,3.5573754890370123e-06,1.5602601761285066e-06,1.2098620156583915e-06,1.2215290426984898e-06,3.248311269056759e-05
210,6.797440921665216e-07,1.131501827975993e-06,8.578146390764793e-07,7.009596281120865e-07,1.5608654470370273e-06,8.087542907691391e-07,3.115088807244487e-06,3.180453562808302e-06,5.32884492059298e-06,6.776937731394832e-07,1.753624799979406e-06,3.3926763532503146e-06,1.5995532015537563e-06,1.219299142353805e-06,1.2190041959795425e-06,3.120739207686651e-05
211,6.825057047324059e-07,1.099300150036152e-06,8.45559416528037e-07,7.011154069090851e-07,1.5917477918865366e-06,8.188472806464615e-07,3.180108330909197e-06,2.93345167703694e-06,5.407906631913522e-06,6.864157236567483e-07,1.7474061191362906e-06,3.244468151587305e-06,1.6396401775709128e-06,1.2343615117757056e-06,1.2142233636505123e-06,2.991168615240098e-05
212,6.860539949068458e-07,1.0660229732152845e-06,8.335327945857271e-07,7.034799133173488e-07,1.6198683701649882e-06,8.301929605957794e-07,3.231034258736946e-06,2.7046293711373488e-06,5.4782200809983015e-06,6.961587202689111e-07,1.738022622599327e-06,3.1123321698053902e-06,1.6801437035629161e-06,1.2555728941762826e-06,1.2073506519276572e-06,2.8609691729016243e-05
213,6.904650644224599e-07,1.032457172267719e-06,8.22037496844071e-07,7.08099123355233e-07,1.6452339381474881e-06,8.423111694622514e-07,3.267541198907228e-06,2.4943442681998986e-06,5.533918518290489e-06,7.067200109641921e-07,1.7256673042410626e-06,2.99550919045427e-06,1.7207845597964461e-06,1.2832579750304597e-06,1.1984778612742154e-06,2.73137522275548e-05
214,6.956657322960432e-07,9.994200305460378e-07,8.113085016732884e-07,7.149677373318255e-07,1.6678388334580825e-06,8.546131584015898e-07,3.289194627869525e-06,2.302716021489283e-06,5.5698945301728685e-06,7.17996630516572e-07,1.7104282564281086e-06,2.893111669040473e-06,1.76140167037309e-06,1.3174825384610426e-06,1.1876735011145402e-06,2.6035414454904716e-05
215,7.01436810560747e-07,9.676233086485493e-07,8.015200167163888e-07,7.240374691692785e-07,1.6877830813715602e-06,8.663910348798586e-07,3.295804326292011e-06,2.129575597025632e-06,5.582641906503197e-06,7.299308716109623e-07,1.6924499872797843e-06,2.8043061511996537e-06,1.8019894315905767e-06,1.3580203302545866e-06,1.175000688940511e-06,2.478527834307628e-05
216,7.074392964393221e-07,9.37610558003788e-07,7.927779956105612e-07,7.35214814555812e-07,1.7054928671546406e-06,8.768740516631895e-07,3.287757928868109e-06,1.974446581561909e-06,5.570722674278567e-06,7.424673595900106e-07,1.672017036260315e-06,2.7282718389380677e-06,1.8426594443478902e-06,1.4043861457444211e-06,1.1605371985478778e-06,2.3572252298596078e-05
217,7.132747760969439e-07,9.097417558423372e-07,7.85095362943783e-07,7.483844261672365e-07,1.721809265552602e-06,8.853683521128883e-07,3.2660774155538675e-06,1.8366114494171286e-06,5.534643768888482e-06,7.555408982949481e-07,1.649546451069852e-06,2.6641591523730654e-06,1.883475288737006e-06,1.4559075370653683e-06,1.1444081253389205e-06,2.2402470292617546e-05
218,7.185520442429102e-07,8.842183728275255e-07,7.783933841542536e-07,7.634026894490226e-07,1.737901663946804e-06,8.913905347197171e-07,3.2322188443806095e-06,1.7152637202702372e-06,5.476093535005011e-06,7.691188742245591e-07,1.6256199519425012e-06,2.6112770911205945e-06,1.9242496888933254e-06,1.5118044983883562e-06,1.126811868022296e-06,2.1278178082732848e-05
219,7.229246216283797e-07,8.611820346531556e-07,7.725452940255669e-07,7.80043857570517e-07,1.755134165535689e-06,8.946930444125227e-07,3.187795972756759e-06,1.6097086499104399e-06,5.396925548772122e-06,7.832842696216832e-07,1.6010105133314602e-06,2.5692202826731155e-06,1.9644659161522597e-06,1.57128903107166e-06,1.1080297312892253e-06,2.019728049832192e-05
220,7.261062503468595e-07,8.408378200216235e-07,7.67415846116579e-07,7.979782575501945e-07,1.774980798622184e-06,8.951776392268007e-07,3.1344091007834767e-06,1.5194991833853137e-06,5.298522329396816e-06,7.982621232009888e-07,1.5765409811316632e-06,2.537678106627558e-06,2.0033440041143765e-06,1.6336440825920156e-06,1.08842319375438e-06,1.9154513131886333e-05
221,7.278823130221737e-07,8.234905669841143e-07,7.628735388983458e-07,8.168137953699444e-07,1.7989881438563443e-06,8.927978779760532e-07,3.0736551859120557e-06,1.4443908464012583e-06,5.181780869423189e-06,8.143401042933019e-07,1.5528738288674101e-06,2.516165667364025e-06,2.039920487398787e-06,1.6981785866147275e-06,1.068427923886581e-06,1.8144179025132678e-05
222,7.281062541111247e-07,8.094656274014974e-07,7.587919406160151e-07,8.361498936554262e-07,1.8287272296205378e-06,8.875498013994995e-07,3.007247525205918e-06,1.384155204483723e-06,5.047562789465359e-06,8.317750790304434e-07,1.5304281048033242e-06,2.5038859166979514e-06,2.0731309345435727e-06,1.7640645224149776e-06,1.0485405180016337e-06,1.7162766061079168e-05
223,7.26661181896998e-07,7.990034500777653e-07,7.550307012602696e-07,8.556114487703313e-07,1.8657013601033595e-06,8.795207709474537e-07,2.9370973006100723e-06,1.3384510518236427e-06,4.897456756636895e-06,8.507495709034597e-07,1.5094017048111545e-06,2.4996552918635184e-06,2.1020023645518674e-06,1.8301904234719608e-06,1.0292690041332815e-06,1.6209686704479247e-05
224,7.234116315334148e-07,7.922070489695561e-07,7.514218133512628e-07,8.748775520692404e-07,1.9112670214083376e-06,8.688885539084036e-07,2.8652692376758777e-06,1.3068685447182443e-06,4.734463560449096e-06,8.71355182950283e-07,1.4897929380688376e-06,2.501852786500113e-06,2.1258583738239813e-06,1.895102597340055e-06,1.011047359524881e-06,1.5286099090181412e-05
225,7.182131632085275e-07,7.890387191204396e-07,7.478059242194869e-07,8.936902123909412e-07,1.9666264510475802e-06,8.55880991698523e-07,2.7938208510125515e-06,1.2890270572995124e-06,4.562943304215041e-06,8.936064010200713e-07,1.4714278082948192e-06,2.5084006914850276e-06,2.1443594171347403e-06,1.9570053399132964e-06,9.941765455134664e-07,1.4393184503699571e-05
226,7.109847937319856e-07,7.893495019691124e-07,7.440597986967957e-07,9.118006762653621e-07,2.032827487448456e-06,8.40803798873907e-07,2.7245791648836874e-06,1.2845651867669086e-06,4.387804769052765e-06,9.174695512288586e-07,1.4540327716087043e-06,2.516799516683639e-06,2.1574441044844476e-06,2.0138593117689693e-06,9.788269551746782e-07,1.35309065971517e-05
227,7.017573554434344e-07,7.929229522655149e-07,7.400608955340876e-07,9.288999190094967e-07,2.110703014881026e-06,8.24113319018883e-07,2.6589326890675983e-06,1.2930314336224578e-06,4.21375772187126e-06,9.428466155922931e-07,1.4372963708842539e-06,2.524327775832863e-06,2.1653102872155745e-06,2.063628962855688e-06,9.650674111968351e-07,1.2697403741725505e-05
228,6.906615533170611e-07,7.994943204702907e-07,7.356722940169089e-07,9.446456219359165e-07,2.2008375693338716e-06,8.064053458716616e-07,2.597735528584156e-06,1.3138185503029288e-06,4.045070674279737e-06,9.69523654690466e-07,1.420917597152933e-06,2.528465728046116e-06,2.1683831720579826e-06,2.1045538691216907e-06,9.529174715855279e-07,1.1889402897425118e-05
229,6.779248320833297e-07,8.087564636820259e-07,7.307900517652858e-07,9.587747733064433e-07,2.3036458333788236e-06,7.883150089217519e-07,2.541369066809912e-06,1.3462189948156728e-06,3.885476623745385e-06,9.971799870704976e-07,1.4047481160355342e-06,2.5273955575282254e-06,2.1671728703969597e-06,2.1353104104408997e-06,9.42429041614632e-07,1.1103940844424836e-05
230,6.639101909322597e-07,8.203844674247685e-07,7.25363811623871e-07,9.71154065073156e-07,2.4194890774608918e-06,7.70429236661486e-07,2.489902683864115e-06,1.389493244260605e-06,3.738042500816429e-06,1.0254935560180739e-06,1.3889438218758818e-06,2.5202410770369805e-06,2.162145366951678e-06,2.1550926397037688e-06,9.33724199263262e-07,1.0340216717567634e-05
231,6.491191105456786e-07,8.340535207108816e-07,7.194018693659072e-07,9.817206813188582e-07,2.5487403901185813e-06,7.532447865542548e-07,2.443258878900757e-06,1.4428325152482553e-06,3.6051605347202664e-06,1.0542173306615022e-06,1.373914681629906e-06,2.506831736189981e-06,2.1537673847086353e-06,2.163590912915392e-06,9.269765207201906e-07,9.600045652614477e-06
232,6.341053617203545e-07,8.494222310592476e-07,7.130250479402661e-07,9.904206660006781e-07,2.691788892264163e-06,7.371371904020523e-07,2.4013314657213425e-06,1.505269011651569e-06,3.4885950761077975e-06,1.0831210221666108e-06,1.360154624581581e-06,2.4872801110268563e-06,2.142580374135836e-06,2.1607909715789158e-06,9.22408794098863e-07,8.886895979314663e-06
233,6.193755662616047e-07,8.66115954006262e-07,7.064748973759122e-07,9.97181783135265e-07,2.8489804228950657e-06,7.223386740726301e-07,2.364044210743607e-06,1.5756401009101947e-06,3.3894471118203777e-06,1.111911530809976e-06,1.348179578666832e-06,2.461775084590365e-06,2.129108154909598e-06,2.146791761557175e-06,9.202780712130319e-07,8.204636791901461e-06
234,6.053503523022711e-07,8.837838350988305e-07,7.000341688399427e-07,1.0018634192572084e-06,3.0204959605705553e-06,7.089618581793628e-07,2.331340791098321e-06,1.6526468368136217e-06,3.308103815001752e-06,1.1402755003018052e-06,1.3385310712181717e-06,2.4305138146414794e-06,2.113710626305855e-06,2.121949434008985e-06,9.208056039521465e-07,7.556859927368206e-06
235,5.923527448247662e-07,9.022196036614105e-07,6.939672510745853e-07,1.00420703132726e-06,3.206215890527758e-06,6.970740804335383e-07,2.3030933015220736e-06,1.7349496020333922e-06,3.2442827477018932e-06,1.1679784318865812e-06,1.3317009442606497e-06,2.3936252883089405e-06,2.0965878006677425e-06,2.0872338649786823e-06,9.241213276516885e-07,6.946756975494633e-06
236,5.805885370287788e-07,9.214125652985291e-07,6.88506193369013e-07,1.003888217562272e-06,3.405633222271778e-06,6.867713982230897e-07,2.2789500558661576e-06,1.8211745874591751e-06,3.1971899490698763e-06,1.1948755142856889e-06,1.3280290225122797e-06,2.351281320267132e-06,2.0779525710111316e-06,2.044369270940103e-06,9.302474595197629e-07,6.377047441041105e-06
237,5.701416424375876e-07,9.414628166959759e-07,6.838441888218622e-07,1.0006934627865269e-06,3.6178349753988355e-06,6.7820488783296e-07,2.258210280991348e-06,1.9098754441311643e-06,3.1657311663977614e-06,1.2208309236382072e-06,1.3276773110329853e-06,2.304066684209411e-06,2.058243388704333e-06,1.9955735185702224e-06,9.390700709303864e-07,5.849698317604046e-06
238,5.610030142160958e-07,9.624501702736973e-07,6.801413500654686e-07,9.946755199214476e-07,3.8415257312401515e-06,6.715549109936248e-07,2.239835521137484e-06,1.999640144018626e-06,3.1486877803539947e-06,1.245661179786605e-06,1.3306830844065295e-06,2.2532828530218713e-06,2.0382090085325198e-06,1.9431107978624178e-06,9.503121526141591e-07,5.3656613578477254e-06
239,5.531200297128794e-07,9.843426444665317e-07,6.775305304127007e-07,9.861158192598154e-07,4.075045376423376e-06,6.669874446169372e-07,2.2226355800298215e-06,2.0893677580515436e-06,3.1447830816118702e-06,1.2691393322101548e-06,1.3370231026707692e-06,2.2008832182827128e-06,2.0187690136639296e-06,1.8889705479895486e-06,9.635694411413511e-07,4.924858207807584e-06
240,5.464354891781248e-07,1.0069453256465926e-06,6.761200709644627e-07,9.75330325570502e-07,4.316319850782586e-06,6.646363128967803e-07,2.2055551404857493e-06,2.178621238814565e-06,3.1525901281870404e-06,1.2909749624045175e-06,1.346593990082177e-06,2.149112200387736e-06,2.000741308010443e-06,1.8347709728173147e-06,9.78401251911855e-07,4.526289782521065e-06
241,5.408889843098184e-07,1.029883403238289e-06,6.760143660214914e-07,9.625061156852216e-07,4.562714815600461e-06,6.646040744101016e-07,2.1879226292382175e-06,2.2679605636412636e-06,3.170380879323232e-06,1.3107455340346144e-06,1.3591095782341682e-06,2.1001409532950663e-06,1.9846624762779904e-06,1.7817842451495872e-06,9.943970542282539e-07,4.168190796395006e-06
242,5.363972655257595e-07,1.0526291289265243e-06,6.773167761692379e-07,9.476657074064731e-07,4.810835509000557e-06,6.669499359836716e-07,2.1695482454134755e-06,2.3590784856876203e-06,3.196179218206588e-06,1.3278848113024273e-06,1.3740407710067448e-06,2.0559008872350114e-06,1.9708269969625237e-06,1.7309817368269679e-06,1.0111820179673938e-06,3.848346232781635e-06
243,5.328693523035704e-07,1.0745520536385566e-06,6.800926672604195e-07,9.307471828980413e-07,5.056336753570298e-06,6.716738641099244e-07,2.1506560813366247e-06,2.4545973861806317e-06,3.2280985729523733e-06,1.341806901691975e-06,1.3906788718289748e-06,2.0180896388954147e-06,1.959451492733276e-06,1.6830568201007947e-06,1.0283930900514235e-06,3.564446179775723e-06
244,5.302545017672422e-07,1.094968895268065e-06,6.843344554897862e-07,9.117751616266335e-07,5.293782462065917e-06,6.787064888526174e-07,2.1317166205111954e-06,2.5576033690879844e-06,3.2646699115830353e-06,1.3520875433965497e-06,1.4082779389162624e-06,1.988192397671618e-06,1.950798487757811e-06,1.6384145513159175e-06,1.0456363341573693e-06,3.314175090045358e-06
245,5.285516450540775e-07,1.1132189061770409e-06,6.899430693679493e-07,8.910160917870211e-07,5.516661442612692e-06,6.879040335496738e-07,2.1132352970999245e-06,2.671150383500685e-06,3.304849370915857e-06,1.3585782585011537e-06,1.4262094319312327e-06,1.967473925724078e-06,1.9451957135831102e-06,1.5971713026853253e-06,1.062441767039869e-06,3.0950570752466315e-06
246,5.277759357126439e-07,1.1287933472932337e-06,6.967257942550049e-07,8.689637786184241e-07,5.717810155115507e-06,6.990558474647192e-07,2.095528341826077e-06,2.797948838631085e-06,3.3478517771487378e-06,1.3614248479074948e-06,1.4441089949994947e-06,1.9570019576501523e-06,1.942998663180134e-06,1.5592502479137655e-06,1.0782585434003414e-06,2.904400944635756e-06
247,5.279405016198754e-07,1.1414549457581956e-06,7.044403717448871e-07,8.461850785415488e-07,5.890434565772492e-06,7.118986855212297e-07,2.0785594280541132e-06,2.9402487110897474e-06,3.3932234277735714e-06,1.3609871718071954e-06,1.4619481976313444e-06,1.9576549518977423e-06,1.9445686626942934e-06,1.5245516289243828e-06,1.0924759092049772e-06,2.7394951785856774e-06
248,5.290501957913284e-07,1.1512194328384115e-06,7.128939839745378e-07,8.231969139640178e-07,6.02945958666759e-06,7.261502299195548e-07,2.0619093191727593e-06,3.099764656020257e-06,3.441118455307198e-06,1.3576771871406423e-06,1.4799297848148923e-06,1.9700569996609724e-06,1.950283144832865e-06,1.4930136020272526e-06,1.1044613557298447e-06,2.5978044937365443e-06
249,5.310783047231198e-07,1.1581961393817345e-06,7.220334822694596e-07,8.004293018682587e-07,6.132410206505687e-06,7.415781123747249e-07,2.0448725453268755e-06,3.2776443128785332e-06,3.4923339295840882e-06,1.3518233170697865e-06,1.4982736332839143e-06,1.9945227602178883e-06,1.960529363498657e-06,1.4644983201927984e-06,1.113621428849963e-06,2.476902804213128e-06
250,5.339440877467562e-07,1.1624593163761954e-06,7.319373699621588e-07,7.78221487035276e-07,6.199123409200007e-06,7.580634842899997e-07,2.0266354680677674e-06,3.47465769244175e-06,3.547988956451007e-06,1.3436120329239827e-06,1.5170930667025112e-06,2.031074673249839e-06,1.9756286678257996e-06,1.4386756486064695e-06,1.1194410711267007e-06,2.374228528719601e-06
251,5.375157851936633e-07,1.1640551025792854e-06,7.427317352498959e-07,7.568355858853621e-07,6.230495964917505e-06,7.756023182062653e-07,2.006472785063305e-06,3.6916406277414524e-06,3.6091250778286203e-06,1.33305128354004e-06,1.5364276129223886e-06,2.079486929832122e-06,1.9957292831665553e-06,1.4150348455624429e-06,1.1215290853128537e-06,2.2869800794801336e-06
252,5.41621595763716e-07,1.1630645976324017e-06,7.54522768208423e-07,7.364958830630134e-07,6.227371983492907e-06,7.942319460578962e-07,1.9838874591016292e-06,3.929938802013623e-06,3.676432309350516e-06,1.3199770431633426e-06,1.5563361732393557e-06,2.1393098257349895e-06,2.0208004129894954e-06,1.3929951841002569e-06,1.1197182913913036e-06,2.212284643891475e-06
253,5.460455491965312e-07,1.1596408733460545e-06,7.673489631948319e-07,7.174334156702094e-07,6.1903816543476314e-06,8.139318441540408e-07,1.958676520025888e-06,4.1914994240955776e-06,3.7501406223422403e-06,1.3041866736711114e-06,1.5769449107906692e-06,2.209854323489099e-06,2.0507732165574486e-06,1.3720516894307566e-06,1.1141576560613764e-06,2.14748421347979e-06
254,5.505414590171738e-07,1.154023374082419e-06,7.811295733382472e-07,6.999013684095878e-07,6.120412637160964e-06,8.345806159334397e-07,1.930970790418809e-06,4.478505990934463e-06,3.830055477898088e-06,1.2856579438749739e-06,1.5983964653090872e-06,2.2901654632654655e-06,2.0856647624878466e-06,1.351898760173534e-06,1.1053289958581541e-06,2.0903477679198196e-06
255,5.548835501656391e-07,1.146518569194212e-06,7.956378272735039e-07,6.841443449157466e-07,6.019011568256228e-06,8.559920692616297e-07,1.9012677993667203e-06,4.7928752251526045e-06,3.915642401686746e-06,1.2646733060822048e-06,1.6207485358963552e-06,2.3790877786389395e-06,2.12550138936673e-06,1.33246689531385e-06,1.0939708980225545e-06,2.039074973102342e-06
256,5.588915120055496e-07,1.1374285402260673e-06,8.105260712902641e-07,6.703512085425788e-07,5.888503067072366e-06,8.779611564332392e-07,1.8703974001708421e-06,5.13602981656233e-06,4.006066786277816e-06,1.2417421637291724e-06,1.6439542455272513e-06,2.4754848933629142e-06,2.1700875678746815e-06,1.3138386807150529e-06,1.080920739170797e-06,1.992084202063901e-06
257,5.624083419911325e-07,1.127012399338586e-06,8.254033015401849e-07,6.586440184172239e-07,5.731959768666936e-06,9.002534042089089e-07,1.8393582915876155e-06,5.5089792218017624e-06,4.1002218132959935e-06,1.2174235218619065e-06,1.6679418396366372e-06,2.5785141824087543e-06,2.2188208950229088e-06,1.2960984336492991e-06,1.0669401822152728e-06,1.9478664699197103e-06
258,5.652867064449701e-07,1.1155507093062977e-06,8.39920538524159e-07,6.491030153146086e-07,5.553127818898657e-06,9.225629348558455e-07,1.809071602930178e-06,5.912468292161858e-06,4.196795685504318e-06,1.1922070519456099e-06,1.6926394442307716e-06,2.6877127501094506e-06,2.27065283639374e-06,1.2792425221644843e-06,1.0526160648704379e-06,1.9051533376480336e-06
259,5.673949349763782e-07,1.1034006456890482e-06,8.53806604049539e-07,6.417791241472659e-07,5.356314427900185e-06,9.445152036276638e-07,1.7801903915474936e-06,6.347095124055834e-06,4.294269978760398e-06,1.1664871964516595e-06,1.7178678962921913e-06,2.802778133498158e-06,2.324127787384857e-06,1.263191941021675e-06,1.0383757185754294e-06,1.8631753738384065e-06
260,5.686241836375514e-07,1.0909470304181473e-06,8.668677146834008e-07,6.366783922872838e-07,5.146212110648915e-06,9.6573628211252e-07,1.7530644997556945e-06,6.813392328339256e-06,4.3907910906388255e-06,1.1405812169045477e-06,1.743241398984917e-06,2.923306454393572e-06,2.3774340718210023e-06,1.2477936570026858e-06,1.024553570412296e-06,1.8216342073536313e-06
261,5.689131978271357e-07,1.0785438739035349e-06,8.79013030238833e-07,6.337416843132063e-07,4.927653989010156e-06,9.859336620348286e-07,1.7278445720170636e-06,7.311722757844484e-06,4.484166216340368e-06,1.1147594797909642e-06,1.7682403168898265e-06,3.0487268482700922e-06,2.428582038865584e-06,1.2327469664975535e-06,1.0114257071752373e-06,1.7803888314437849e-06
262,5.682749823546084e-07,1.0665228850574576e-06,8.903056548092551e-07,6.328315046632071e-07,4.705322445916206e-06,1.0049371373711479e-06,1.7046370109524936e-06,7.84203507117607e-06,4.5720844269420835e-06,1.0892603135409157e-06,1.7924160569387626e-06,3.178262396831412e-06,2.4758089534498366e-06,1.2175347933209926e-06,9.9921587651279e-07,1.7391613738638908e-06
263,5.667727522929123e-07,1.0551926006592442e-06,9.009537554611411e-07,6.337380597056281e-07,4.483438306373717e-06,1.0227129143091543e-06,1.6836083220519479e-06,8.404036578946699e-06,4.652208528236037e-06,1.0642570576298013e-06,1.815528218515326e-06,3.3107955952562846e-06,2.5179556562083815e-06,1.2014454769695942e-06,9.88083913830728e-07,1.69747927949231e-06
264,5.644601889389389e-07,1.0447703503870256e-06,9.112086774102983e-07,6.362257063478858e-07,4.265483921044044e-06,1.039385658586999e-06,1.6649705602740997e-06,8.997946022563038e-06,4.722100953476849e-06,1.0398062156280603e-06,1.8375066029906576e-06,3.4447621855610555e-06,2.5544436370580237e-06,1.183714866866034e-06,9.780737394240784e-07,1.6548286889964014e-06
265,5.613437902578274e-07,1.0353243969587363e-06,9.212801248764311e-07,6.401030272440267e-07,4.054083993408551e-06,1.0552451421949708e-06,1.6488599934082227e-06,9.624859070192265e-06,4.779486034723347e-06,1.015830792845603e-06,1.8583280292824573e-06,3.5780640765042546e-06,2.5848954288380065e-06,1.1637431045776115e-06,9.690702960848035e-07,1.6108769229957165e-06
266,5.573699710493171e-07,1.0268079831927878e-06,9.313640761433294e-07,6.452635541949207e-07,3.8511119916140915e-06,1.0706803023463074e-06,1.6351935382323046e-06,1.028607707048393e-05,4.8228662279177284e-06,9.921538275557298e-07,1.8779480226246355e-06,3.707945749266823e-06,2.6088525633270137e-06,1.1412592957419816e-06,9.608447137998825e-07,1.5656472204217865e-06
267,5.524307770911564e-07,1.0191506599118553e-06,9.41705313340469e-07,6.516625362759154e-07,3.657893891103312e-06,1.086067439636463e-06,1.6236052840625156e-06,1.0982452407506454e-05,4.851747192353492e-06,9.68577377483644e-07,1.8963301378512595e-06,3.830984484123177e-06,2.625855480753903e-06,1.1163162000430885e-06,9.531735583502956e-07,1.5195911316177788e-06
268,5.464214253664153e-07,1.0123302017073756e-06,9.525742028058146e-07,6.592440653582537e-07,3.4753144350970682e-06,1.101706682984613e-06,1.6135223824977258e-06,1.1714932064925161e-05,4.866108358519252e-06,9.449683437582315e-07,1.9134959361686447e-06,3.943380808057916e-06,2.635657239137333e-06,1.089121218734841e-06,9.459567997323306e-07,1.4735554924865883e-06
269,5.393435559243427e-07,1.0064032662007083e-06,9.641693421619436e-07,6.678724081022251e-07,3.303763020041972e-06,1.1178147823816315e-06,1.6043473446773109e-06,1.2485798837006335e-05,4.865820687700622e-06,9.213216342682686e-07,1.9294742456564132e-06,4.041520776453574e-06,2.6383138579377603e-06,1.0598650922544597e-06,9.392879308673942e-07,1.428681495235421e-06
270,5.313782272063565e-07,1.0015024969842686e-06,9.76538583014878e-07,6.773200638992086e-07,3.143021182977232e-06,1.1345273069892553e-06,1.5956345508369378e-06,1.3299495101989374e-05,4.8507480992174224e-06,8.978256690329632e-07,1.9441532992564795e-06,4.122535758326482e-06,2.6341817933521968e-06,1.0286882554339422e-06,9.334490246303646e-07,1.386260910326557e-06
271,5.228706193625155e-07,9.97811798599166e-07,9.895760739562538e-07,6.873106600811405e-07,2.9922214802220017e-06,1.1519248475755982e-06,1.587139101992927e-06,1.4162717665987987e-05,4.8213332311726955e-06,8.748983038531147e-07,1.957204067158733e-06,4.184537500602131e-06,2.6238696338828055e-06,9.95733574063258e-07,9.288084409952589e-07,1.347565238063092e-06
272,5.142505260855658e-07,9.9556025275787e-07,1.0030765836139975e-06,6.975555779481536e-07,2.8499300954109758e-06,1.1700599322015984e-06,1.5787064805178283e-06,1.5083997062853338e-05,4.779106218665762e-06,8.531088903172894e-07,1.9681362990569417e-06,4.226375600519973e-06,2.6080976731990625e-06,9.612031440083888e-07,9.256851594699261e-07,1.3137333298167084e-06
273,5.059545808939427e-07,9.950484235865574e-07,1.0167795814543551e-06,7.077550292458462e-07,2.714387791462473e-06,1.1889079439727037e-06,1.570137265431224e-06,1.6072976188698752e-05,4.726805010926578e-06,8.330233209538375e-07,1.9763348011243884e-06,4.247135735029374e-06,2.5876020590423126e-06,9.254407603292119e-07,9.242921698081359e-07,1.2857808153875038e-06
274,4.983887508639251e-07,9.96634787668364e-07,1.0303696949649438e-06,7.175902373396905e-07,2.5838770627538995e-06,1.2082905467245858e-06,1.5611903530121035e-06,1.7139562033587432e-05,4.667981301246297e-06,8.151029181901945e-07,1.9810212320083586e-06,4.245988974066796e-06,2.5633030360124112e-06,8.889843750180352e-07,9.247509038408575e-07,1.26469093940868e-06
275,4.919227454498515e-07,1.0006376765367915e-06,1.0434565876924117e-06,7.267081556829719e-07,2.457053360845645e-06,1.2278903836679989e-06,1.5517118760954536e-06,1.8293111306239456e-05,4.606257751197795e-06,7.996965168258403e-07,1.981269242812612e-06,4.222650750217106e-06,2.5365880592681566e-06,8.524767025080938e-07,9.270842865806554e-07,1.2515946368892567e-06
276,4.868854315987381e-07,1.0072356848337118e-06,1.0555678159335497e-06,7.347137592747928e-07,2.3331380395005255e-06,1.2473699892277206e-06,1.5417723801443274e-06,1.9541717139511747e-05,4.544733469863801e-06,7.870706547368193e-07,1.9761398092722333e-06,4.177869420707414e-06,2.509343390738868e-06,8.165091123616676e-07,9.311702993651617e-07,1.2480697020358254e-06
277,4.835520683279856e-07,1.0164500666989672e-06,1.0661811028008405e-06,7.412198541344392e-07,2.212002295345823e-06,1.2665247410942967e-06,1.5317362337725738e-06,2.0891524218664968e-05,4.48586555311883e-06,7.77431041958675e-07,1.9649115289725665e-06,4.1133946668491355e-06,2.4836590200006307e-06,7.815460464402839e-07,9.367044694946001e-07,1.2564210915170682e-06
278,4.821503986984434e-07,1.028176277198196e-06,1.074789327678275e-06,7.45932446651799e-07,2.094139107859083e-06,1.2853718268659466e-06,1.5222268980032593e-06,2.234595498802319e-05,4.431648510478125e-06,7.709161490523094e-07,1.9473395798426683e-06,4.031558879852788e-06,2.4614762451679236e-06,7.47950015760696e-07,9.432101243552414e-07,1.2797729778252171e-06
279,4.828919209969457e-07,1.0421918515556129e-06,1.0809339473174935e-06,7.487075715246817e-07,1.9804696448587634e-06,1.30408900671618e-06,1.5140044443573952e-06,2.3904801835839032e-05,4.38372423861354e-06,7.675761338252239e-07,1.9237754405932826e-06,3.934889244916964e-06,2.4444858916628624e-06,7.160680232681487e-07,9.500910433240806e-07,1.3219998631361928e-06
280,4.859857994986819e-07,1.058133499520655e-06,1.0841556773869981e-06,7.495686848315989e-07,1.8720273872020173e-06,1.3228335599293651e-06,1.5078315829645801e-06,2.5563255852285524e-05,4.34329154990719e-06,7.673728347744114e-07,1.895006772699438e-06,3.826016236053717e-06,2.434298158660607e-06,6.863094439773118e-07,9.566806548609008e-07,1.3876252839241743e-06
281,4.916127146323254e-07,1.0755158510902257e-06,1.0839224339346323e-06,7.486907547367593e-07,1.7696987276180589e-06,1.3415799794195412e-06,1.5043739943324927e-06,2.7311034964441857e-05,4.3110345682921475e-06,7.702259356709282e-07,1.8619400244810434e-06,3.707795112873531e-06,2.4326015915119774e-06,6.591327417960074e-07,9.62301660769154e-07,1.4817156518606395e-06
282,4.998882003559265e-07,1.0938159623956568e-06,1.0796507574280068e-06,7.463411089336883e-07,1.6741574689374451e-06,1.3600678950977353e-06,1.504131197677068e-06,2.9131797166393584e-05,4.28724031172036e-06,7.760930426116026e-07,1.8253817404600424e-06,3.5832940162194615e-06,2.4410896222699067e-06,6.349636091698859e-07,9.66418349091078e-07,1.6096987036287016e-06
283,5.108433914958581e-07,1.1125234083437606e-06,1.0708477006810763e-06,7.427954851969214e-07,1.5859350981093388e-06,1.377854842520331e-06,1.507454189202052e-06,3.100296889832052e-05,4.2719177664656004e-06,7.850180971859846e-07,1.7859685005194567e-06,3.4555300137220695e-06,2.4612224191608244e-06,6.141464314814087e-07,9.688371001741598e-07,1.7771102086725961e-06
284,5.244234438063322e-07,1.1311248581292424e-06,1.0572907485239258e-06,7.382723447938232e-07,1.5054849499145779e-06,1.3944352178733252e-06,1.514720424759351e-06,3.289616131457971e-05,4.264807820477894e-06,7.970986667897417e-07,1.7441390989250575e-06,3.327221225288067e-06,2.4940180223126997e-06,5.969631797549185e-07,9.697590856417883e-07,1.989381026080269e-06
285,5.405007096871595e-07,1.1491131580013178e-06,1.0391174889157005e-06,7.329004812821066e-07,1.4331789473767527e-06,1.4093633006169497e-06,1.5265588863040677e-06,3.477851027846603e-05,4.265455502484319e-06,8.124106658765545e-07,1.700132146279692e-06,3.200686657494404e-06,2.539965862612955e-06,5.836686187109463e-07,9.696174071236612e-07,2.251705696792147e-06
286,5.589013307712794e-07,1.1660196100364086e-06,1.0167437397367506e-06,7.267266799828139e-07,1.369247932523207e-06,1.422308484026961e-06,1.5439002835422064e-06,3.661505391495616e-05,4.273415691268663e-06,8.309736315689038e-07,1.6540768541902289e-06,3.077752518519288e-06,2.59903936473435e-06,5.74496452888109e-07,9.688760514959183e-07,2.568950655751781e-06
287,5.79429519566806e-07,1.1814019119849037e-06,9.907008825215677e-07,7.197808639865812e-07,1.3137017734630708e-06,1.4330180509975993e-06,1.5677928328946088e-06,3.8371551704657005e-05,4.288425852541222e-06,8.527776351626736e-07,1.6061876113532958e-06,2.959696012507358e-06,2.6707782168140072e-06,5.696404494749384e-07,9.67939555351026e-07,2.9455948802826484e-06
288,6.018761591027067e-07,1.1948110044436099e-06,9.615592487399758e-07,7.121549283323333e-07,1.2662825141586973e-06,1.4412383391601414e-06,1.5991628111832329e-06,4.0016839477787846e-05,4.310320445678883e-06,8.777965609315677e-07,1.5569039195148686e-06,2.847371690884523e-06,2.754405447783085e-06,5.692483350162694e-07,9.671462598437367e-07,3.385688007529139e-06
289,6.260152612524729e-07,1.2057917160881734e-06,9.299501274162337e-07,7.040053869674142e-07,1.2264852554388082e-06,1.446679659320712e-06,1.6386790623714101e-06,4.152446984587034e-05,4.338698212572849e-06,9.059399567458881e-07,1.5068086757954011e-06,2.741410286516394e-06,2.8489085972160316e-06,5.734359534955178e-07,9.667875931275176e-07,3.892840343322747e-06
290,6.515879368613751e-07,1.213919398146788e-06,8.96596732017189e-07,6.95477726933585e-07,1.193632252652968e-06,1.4490282836023821e-06,1.6866965033379687e-06,4.2874129482872595e-05,4.37274800698874e-06,9.37014221158629e-07,1.456441098928469e-06,2.6422721876295366e-06,2.953033048881277e-06,5.822788954777246e-07,9.671263983713944e-07,4.470312183813136e-06
291,6.782812147848912e-07,1.2188533925100316e-06,8.623153033301958e-07,6.866494971982274e-07,1.166961119863954e-06,1.447941329328068e-06,1.7432350901079405e-06,4.405299002176216e-05,4.411546617775288e-06,9.707704270589102e-07,1.4062632714384023e-06,2.550181682059951e-06,3.0651946175060884e-06,5.957736443435151e-07,9.684208149709958e-07,5.1211297404054915e-06
292,7.057214130422945e-07,1.2203880169676635e-06,8.279762401804738e-07,6.775696194412959e-07,1.1456925179628477e-06,1.4430991619921232e-06,1.8080311724402633e-06,4.505610090979973e-05,4.45458889969269e-06,1.0069818447646777e-06,1.3567979693056317e-06,2.4650874894064633e-06,3.1834458327500868e-06,6.138103680558641e-07,9.709591105329627e-07,5.848076972580858e-06
293,7.33478353278991e-07,1.2184704306534884e-06,7.944246511960014e-07,6.683629469504769e-07,1.1290540255542627e-06,1.4344329939896472e-06,1.8806583810372093e-06,4.5884562257292926e-05,4.502173595020842e-06,1.0454328200795381e-06,1.3087074915323168e-06,2.386645578198823e-06,3.305681548535251e-06,6.361796564491034e-07,9.75052077703498e-07,6.653581014110144e-06
294,7.610780625322448e-07,1.2131593285177285e-06,7.623970009789907e-07,6.592816874304701e-07,1.1162688094844476e-06,1.4223589255549365e-06,1.96062313521219e-06,4.654115916833662e-05,4.555541940822958e-06,1.085835811559307e-06,1.2626959359864266e-06,2.314239363846341e-06,3.430059797633578e-06,6.625935033713154e-07,9.80952899363121e-07,7.539602739391911e-06
295,7.880330996929214e-07,1.2045290546476245e-06,7.324731923353747e-07,6.50642928185322e-07,1.1065583946386584e-06,1.4077362926101803e-06,2.047341133357337e-06,4.702537936697453e-05,4.6167498529922925e-06,1.1278065693119536e-06,1.2193713154592386e-06,2.247095522823955e-06,3.555335199562603e-06,6.926810776395104e-07,9.88759863878138e-07,8.507570719223252e-06
296,8.138590878308853e-07,1.1925776606098998e-06,7.050635224558693e-07,6.42725296913634e-07,1.099194416053655e-06,1.3915719635940219e-06,2.1400216963407543e-06,4.7331531212039056e-05,4.688239801410647e-06,1.1709131920204926e-06,1.1791984147753916e-06,2.184408074201221e-06,3.680803300117787e-06,7.259646792268584e-07,9.983813204742493e-07,9.558314408693549e-06
297,8.380675420602907e-07,1.177234977370482e-06,6.804125557779196e-07,6.357116622585857e-07,1.0935566204995419e-06,1.3747297853749346e-06,2.2376069568097214e-06,4.745144907710575e-05,4.7722289207575716e-06,1.2147052695202895e-06,1.1425157415951608e-06,2.125446975748063e-06,3.8060196733106847e-06,7.618844276297624e-07,1.0096056557534565e-06,1.0691855771074989e-05
298,8.602116462771872e-07,1.158495230981862e-06,6.58625721314867e-07,6.296854922065778e-07,1.0891178009632872e-06,1.3578047659716313e-06,2.3388251615370465e-06,4.737909655733245e-05,4.870180543998576e-06,1.2587370715007316e-06,1.1095413328559627e-06,2.0697171609327127e-06,3.930714212541697e-06,7.99886244165348e-07,1.0222252376502626e-06,1.190694433024405e-05
299,8.800148395805657e-07,1.1365781843393954e-06,6.397380238685196e-07,6.246736088000373e-07,1.0853757437272735e-06,1.3411399190079916e-06,2.4422430481555144e-06,4.711424505539915e-05,4.982567781099351e-06,1.3026399358921065e-06,1.0803404161237192e-06,2.0170677784248395e-06,4.054830456242573e-06,8.394744326615314e-07,1.0361105846479687e-06,1.320060160358287e-05
300,8.974719069182829e-07,1.1120074773299236e-06,6.238009248199447e-07,6.207226256529443e-07,1.0818602503486957e-06,1.3249006962554592e-06,2.546294794417501e-06,4.6664741791419745e-05,5.108919953107651e-06,1.3462019105457125e-06,1.0547990132803668e-06,1.9676606003579545e-06,4.17837186684983e-06,8.801658523845054e-07,1.0512451019694822e-06,1.4568227912537703e-05
301,9.128049361514207e-07,1.0855688540862196e-06,6.109174965574757e-07,6.179329523040608e-07,1.078241066091048e-06,1.3091212561822878e-06,2.649434454675244e-06,4.6047390376490026e-05,5.247932432519325e-06,1.389403975493857e-06,1.0326760335771283e-06,1.921902332930165e-06,4.3011362438020145e-06,9.214236377128296e-07,1.0677703396672327e-06,1.600444485282273e-05
302,9.263104343014051e-07,1.05818837128605e-06,6.012063481389527e-07,6.164065039852786e-07,1.0744027563133735e-06,1.2937033883759488e-06,2.7503941732276993e-06,4.528727119584492e-05,5.397449423651461e-06,1.4323754037994012e-06,1.013741856132263e-06,1.880388793161576e-06,4.4225296815837285e-06,9.626438564242836e-07,1.085970370286501e-06,1.7504218033015494e-05
303,9.382530505196273e-07,1.030796950361695e-06,5.947482761792217e-07,6.161703639004723e-07,1.0704076297865245e-06,1.2784328254577079e-06,2.8482820383748135e-06,4.44158262757956e-05,5.554433621861309e-06,1.4752895595094177e-06,9.979000926719541e-07,1.8437898861925517e-06,4.541413142185606e-06,1.0031819373269066e-06,1.106159816165468e-06,1.906354965066169e-05
304,9.488730107973363e-07,1.0042145715524043e-06,5.915545663441457e-07,6.171336202294255e-07,1.066389473173867e-06,1.263035326777625e-06,2.9423704023250396e-06,4.346827322523697e-05,5.715143751762413e-06,1.5182771837578485e-06,9.8518533134118e-07,1.8127546760045962e-06,4.655986128162226e-06,1.0424260035222847e-06,1.1285760050937064e-06,2.0679212863231703e-05
305,9.584129469694385e-07,9.790723562970548e-07,5.915644187666815e-07,6.190818057681001e-07,1.0624341643429262e-06,1.2472386075138645e-06,3.031781379159195e-06,4.248074925797843e-05,5.875492289029816e-06,1.5613480118712517e-06,9.7566945025953e-07,1.7879334964068954e-06,4.763884883198236e-06,1.079921292986302e-06,1.1533321736434223e-06,2.234743366856982e-05
306,9.670799708290439e-07,9.55789179663108e-07,5.946589201246744e-07,6.217202134017945e-07,1.0584995115975889e-06,1.2308382300503207e-06,3.115428871525407e-06,4.14875903682288e-05,6.031414555416052e-06,1.6043079820236724e-06,9.693842633364772e-07,1.7700084509069465e-06,4.862517777258394e-06,1.1154661184852174e-06,1.1803845020063795e-06,2.406201497687227e-05
307,9.749716604666619e-07,9.345887555397878e-07,6.006579575219754e-07,6.247741965033855e-07,1.054419919651765e-06,1.2137617610761159e-06,3.192326074128906e-06,4.0519035776628665e-05,6.179105684384546e-06,1.6467148604662397e-06,9.663053565973297e-07,1.7596811769042462e-06,4.949418227608491e-06,1.1490975831025435e-06,1.2095209241814564e-06,2.581297378320069e-05
308,9.820245562180902e-07,9.155499083406716e-07,6.093097235596429e-07,6.280941112881962e-07,1.049971114699267e-06,1.1960665303961336e-06,3.262009713715273e-06,3.959925499279159e-05,6.314943416908377e-06,1.687894554633647e-06,9.663739136597121e-07,1.757664913440452e-06,5.0224616209432465e-06,1.1809902898338656e-06,1.2404487392444953e-06,2.7586495842824146e-05
309,9.880100161021475e-07,8.986872686134031e-07,6.203065939440542e-07,6.316761848738073e-07,1.0449061227116268e-06,1.1778533092823156e-06,3.3247899352987192e-06,3.8744697064111375e-05,6.435056163473019e-06,1.7270567484720571e-06,9.695104981476651e-07,1.7646157635701249e-06,5.080009895075581e-06,1.211359393691139e-06,1.2729430683189959e-06,2.936593228305499e-05
310,9.925577016611236e-07,8.840020763789201e-07,6.333077348048051e-07,6.35578525243355e-07,1.0389323653262412e-06,1.1592262870409776e-06,3.38173047626925e-06,3.7963363432259604e-05,6.534940999252365e-06,1.7635155285876835e-06,9.756093794077503e-07,1.7809735843896005e-06,5.121060868958327e-06,1.240395467272617e-06,1.306890750596494e-06,3.113315034342929e-05
311,9.9516948968214e-07,8.714728116865021e-07,6.479463745756464e-07,6.39812575527597e-07,1.0317150201730915e-06,1.1403707441687833e-06,3.4343941808789303e-06,3.725527601523464e-05,6.609625178226667e-06,1.7968879238420467e-06,9.845430001770644e-07,1.8068187362666415e-06,5.145319625735615e-06,1.2682026192714366e-06,1.3421601085024402e-06,3.286990317201351e-05
312,9.952641045839607e-07,8.610584093446867e-07,6.638399381868134e-07,6.442922403024748e-07,1.0229678982690469e-06,1.1216120214330198e-06,3.4844292633710754e-06,3.6613343399839336e-05,6.65442083555095e-06,1.8270975099802488e-06,9.96162256924217e-07,1.8418159779678435e-06,5.153096793842539e-06,1.2947802621083366e-06,1.3784318705729576e-06,3.455889917121311e-05
313,9.923073156930824e-07,8.52742973531876e-07,6.806004014482137e-07,6.488509663887305e-07,1.0125734106806752e-06,1.103380429702494e-06,3.5331339289248765e-06,3.602396608885929e-05,6.666047672015919e-06,1.8541995602856928e-06,1.0102663304232307e-06,1.8852497502447216e-06,5.145070253913579e-06,1.3200973042820055e-06,1.4151491086433337e-06,3.6183921589734806e-05
314,9.85920598321326e-07,8.465410674943834e-07,6.978191576388791e-07,6.533012395501627e-07,1.000635114882414e-06,1.0861629565287262e-06,3.581186505569676e-06,3.5467742169018676e-05,6.643715136890332e-06,1.8782696319079985e-06,1.026595353338663e-06,1.9361398135698332e-06,5.121953829920519e-06,1.3441906408024584e-06,1.451576296511092e-06,3.772827980294282e-05
315,9.758541790860123e-07,8.42429853498135e-07,7.150601610588756e-07,6.57510898910003e-07,9.874077829013211e-07,1.0704562883954255e-06,3.6285999086068804e-06,3.492090146376217e-05,6.5894252724593495e-06,1.8994544329031888e-06,1.0448849686481236e-06,1.9933483745628974e-06,5.084182970644978e-06,1.3671882175346662e-06,1.486847625444433e-06,3.9172043854663855e-05
316,9.61955392301084e-07,8.402907342275594e-07,7.319324432264252e-07,6.61462420323023e-07,9.731515976620385e-07,1.0566869576417151e-06,3.6747490636995407e-06,3.435764708977402e-05,6.507074045348429e-06,1.918014185111164e-06,1.0649121616931352e-06,2.055602778945181e-06,5.031934427234873e-06,1.3892429687726956e-06,1.519972563696623e-06,4.049082536282446e-05
317,9.442740254083236e-07,8.399262312807777e-07,7.482203790552155e-07,6.652514808504317e-07,9.580484851806132e-07,1.0451391974508345e-06,3.7183312920946687e-06,3.3753171501541145e-05,6.401031688145812e-06,1.9342731412463758e-06,1.0864608648158113e-06,2.121525482405797e-06,4.965542423640302e-06,1.4104457470794046e-06,1.5499267608417393e-06,4.1658612595883905e-05
318,9.231716016303238e-07,8.411189100451616e-07,7.639539684180627e-07,6.69021114314976e-07,9.422290459057201e-07,1.0359205962196615e-06,3.7573093586548817e-06,3.308699217698339e-05,6.275334275841263e-06,1.948544130366593e-06,1.1092511647280238e-06,2.189728180058696e-06,4.8858562496383606e-06,1.4307970498870154e-06,1.575890635140074e-06,4.265324408196187e-05
319,8.992638401050754e-07,8.436766086995066e-07,7.793440394608976e-07,6.729106808082005e-07,9.258123192307697e-07,1.02894638837221e-06,3.7889905395330566e-06,3.234619583818338e-05,6.133771428888181e-06,1.9610403060275746e-06,1.1329376123206683e-06,2.2588358429303065e-06,4.794234604762074e-06,1.450225497419636e-06,1.5974521069285324e-06,4.346083124960432e-05
320,8.732511116007179e-07,8.474470071108481e-07,7.946348893688779e-07,6.770749092294121e-07,9.089249361677814e-07,1.0239613217321315e-06,3.8103495276909175e-06,3.152781696829976e-05,5.980337798735506e-06,1.97180382396617e-06,1.1571840187401767e-06,2.3274150347961217e-06,4.692383943471815e-06,1.4685675003841107e-06,1.6146063047965015e-06,4.407709987447749e-05
321,8.45780506027652e-07,8.523097951374974e-07,8.099885089201171e-07,6.817192947937466e-07,8.917688067644781e-07,1.020624277445956e-06,3.818581653665747e-06,3.06390986876e-05,5.819512277133712e-06,1.980709380175773e-06,1.1817119190528716e-06,2.394034531613605e-06,4.582273681430797e-06,1.4855062057217807e-06,1.6276411102572237e-06,4.4505908684352754e-05
322,8.173860262305183e-07,8.581533489671914e-07,8.254403773338532e-07,6.871049938169836e-07,8.746894336763417e-07,1.0185868022275807e-06,3.8117260003764644e-06,2.969469231921106e-05,5.6560752604580445e-06,1.987508259516512e-06,1.2063409049536398e-06,2.457542373121181e-06,4.466090250492425e-06,1.5005494214455288e-06,1.6370203475159561e-06,4.475588361985725e-05
323,7.884922313238997e-07,8.648283253595551e-07,8.408879451155186e-07,6.935331134408943e-07,8.581237599653322e-07,1.0174972055310258e-06,3.789087720011851e-06,2.871164427902325e-05,5.49450985395413e-06,1.9918994753520543e-06,1.2311292999293542e-06,2.5172805371199166e-06,4.346156750796502e-06,1.5130819677524372e-06,1.6432291578943338e-06,4.483574042080357e-05
324,7.594557004721216e-07,8.720864168659586e-07,8.561053813874742e-07,7.013062044122973e-07,8.424713526753174e-07,1.0170280952442493e-06,3.7512336294180316e-06,2.7705131496290724e-05,5.33840747984653e-06,1.993632507830689e-06,1.2565024913098144e-06,2.5729990643023537e-06,4.224839064878417e-06,1.5224875772717982e-06,1.646620079360354e-06,4.4749455166688914e-05
325,7.305839889305165e-07,8.795568471092815e-07,8.708149614938121e-07,7.106743631505875e-07,8.280107873340653e-07,1.0170162872458389e-06,3.6995457990732977e-06,2.6687421300073086e-05,5.190205466809196e-06,1.9925197446573412e-06,1.2831635983013658e-06,2.6245780537965533e-06,4.104412397263905e-06,1.5282990049886111e-06,1.6473937455191958e-06,4.449397054305089e-05
326,7.021122449615652e-07,8.868109416252214e-07,8.847995155664323e-07,7.217963961148862e-07,8.148777452209025e-07,1.0175598704039247e-06,3.635572835940078e-06,2.5669490591893903e-05,5.051171086531518e-06,1.988344954080932e-06,1.3118445755235906e-06,2.671787780450858e-06,3.986834776043293e-06,1.5302936524793697e-06,1.64572071824929e-06,4.4061221276684046e-05
327,6.742027735086163e-07,8.934792864186778e-07,8.979792901380584e-07,7.34713496361523e-07,8.030873814025437e-07,1.018943639677594e-06,3.560565987277688e-06,2.4662870905665986e-05,4.921475570902978e-06,1.9808723049244576e-06,1.3431204103956561e-06,2.714159498130415e-06,3.873494078706031e-06,1.5284889707819131e-06,1.641910189762932e-06,4.3443045719609214e-05
328,6.470046687682121e-07,8.993068894852785e-07,9.103827283008802e-07,7.493251621771007e-07,7.925979702527201e-07,1.021547794131629e-06,3.4754022762089584e-06,2.3679869501374135e-05,4.8003859118376496e-06,1.969997403475765e-06,1.3773540890989488e-06,2.750892598753766e-06,3.7650653012050645e-06,1.5230267869003988e-06,1.6365045830539405e-06,4.263622857204028e-05
329,6.207265292359287e-07,9.041122488837661e-07,9.220362308133862e-07,7.653954699629502e-07,7.833612167306089e-07,1.0258563172732268e-06,3.3807503491209255e-06,2.2731928238312955e-05,4.686576395744663e-06,1.9558133590557693e-06,1.4146796006314587e-06,2.780765806205448e-06,3.661517116077488e-06,1.5139761998390482e-06,1.6301917062102336e-06,4.164582843065597e-05
330,5.956617450782727e-07,9.077672942937299e-07,9.32886088881535e-07,7.825969460734908e-07,7.753161394297637e-07,1.0324377421633543e-06,3.2773023960272793e-06,2.1827414160332853e-05,4.578439273224754e-06,1.9384807534350786e-06,1.4549762524027302e-06,2.8021552508691885e-06,3.562201011768484e-06,1.5011764933024739e-06,1.6236166331401635e-06,4.048605129553655e-05
