,EMG1,EMG2,EMG3,EMG4,EMG5,EMG6,EMG7,EMG8,EMG9,EMG10,EMG11,EMG12,EMG13,EMG14,EMG15,EMG16
0,2.421419932605958e-07,1.9060040377752178e-07,3.444968524151074e-07,1.8803810204076916e-07,5.1332078930557216e-08,3.741284679344978e-07,1.0356092578323816e-07,-3.3377269575110613e-07,7.484650332297963e-07,6.5798658989429e-07,1.6750868378122464e-07,-2.2369945184225477e-07,2.7336844963374918e-09,1.3941479076541054e-07,3.35492309381092e-07,9.801006146162421e-07
1,2.806665680531849e-07,2.246550312413348e-07,3.771275387831314e-07,2.487849093344084e-07,1.4110370995504012e-07,4.248176060047542e-07,3.865443260777658e-07,4.272387970103842e-07,9.615039919129334e-07,8.25900385808087e-07,2.609891661749837e-07,1.4682121269060946e-06,1.1167255314704008e-07,1.492992271079155e-07,4.1133570790955533e-07,1.9736098682338805e-06
2,3.199213526898804e-07,2.6080887864281735e-07,4.120935982434717e-07,3.1143091768922575e-07,2.2806625138494165e-07,4.777593236884442e-07,6.636889709865846e-07,1.1570238745115142e-06,1.169881008501108e-06,9.998232920621595e-07,3.5306137334856027e-07,3.083211676524615e-06,2.174140449303485e-07,1.612433446709585e-07,4.898562535511759e-07,3.003468219686134e-06
3,3.596899349451263e-07,2.9861296669910707e-07,4.490891503456492e-07,3.7515988056529075e-07,3.106899725862552e-07,5.32340700981249e-07,9.327201815060406e-07,1.8486338521041562e-06,1.3715644158670753e-06,1.1783630560404986e-06,4.426329891936147e-07,4.6036355417240255e-06,3.188720394875413e-07,1.754319463283378e-07,5.701751640447656e-07,4.0639496923018855e-06
4,3.9973017898900234e-07,3.3783395865270317e-07,4.87912664520708e-07,4.3933094635370714e-07,3.8780329039806053e-07,5.878721614978321e-07,1.191574453639908e-06,2.496412528366462e-06,1.5650771705077658e-06,1.3603629535453735e-06,5.286447849877328e-07,6.0150169047235604e-06,4.1513670731612896e-07,1.920496302742265e-07,6.514655200294772e-07,5.1500913256930904e-06
5,4.397406805080854e-07,3.7845248122717223e-07,5.284706468583417e-07,5.034639744044385e-07,4.58593182458371e-07,6.435965387266578e-07,1.4382718081747165e-06,3.0957361651030196e-06,1.7493909729051187e-06,1.5449152448643095e-06,6.101847815870747e-07,7.3046058858054965e-06,5.055156714836485e-07,2.1129120883889227e-07,7.329009959820122e-07,6.257819972362943e-06
6,4.79352871181489e-07,4.205497148912994e-07,5.707176386141875e-07,5.671524405456624e-07,5.224844192412991e-07,6.98765559235921e-07,1.6708735271493084e-06,3.642490893425776e-06,1.923553145532704e-06,1.731348175272757e-06,6.866694369019939e-07,8.460610395502947e-06,5.895290408007528e-07,2.3336218204520924e-07,8.136116689340168e-07,7.383899308961609e-06
7,5.181626089063427e-07,4.642004712608522e-07,6.145725401865708e-07,6.300051690692112e-07,5.790701972714458e-07,7.527618489887309e-07,1.8875533358062476e-06,4.1329316719859955e-06,2.0864025626688526e-06,1.919217242749597e-06,7.578942262492917e-07,9.472523661700301e-06,6.668575060359993e-07,2.5845837402834165e-07,8.926803283453219e-07,8.52577200532251e-06
8,5.55771216772284e-07,5.09420884070928e-07,6.598551823394079e-07,6.916455186689501e-07,6.282137326711987e-07,8.051819606303725e-07,2.0867067798971476e-06,4.5641550686065776e-06,2.236521899060851e-06,2.1082665570335983e-06,8.23910172899218e-07,1.033182640988934e-05,7.373298698173672e-07,2.8674601311058204e-07,9.69157835011222e-07,9.681365323273393e-06
9,5.917889976806443e-07,5.561438438722744e-07,7.062534620419042e-07,7.517083177654408e-07,6.701724902747143e-07,8.557926325042228e-07,2.2670772289570475e-06,4.934778903775167e-06,2.372360688430621e-06,2.298321306068989e-06,8.849030735817094e-07,1.1032864024570924e-05,8.010045938420576e-07,3.1835646396704564e-07,1.042041123251099e-06,1.084884326967094e-05
10,6.258231690327892e-07,6.042084357183872e-07,7.533206202224791e-07,8.09794759665308e-07,7.055509431035218e-07,9.043873355438493e-07,2.4278448109837114e-06,5.245409499362534e-06,2.4924517619931666e-06,2.4891444710323047e-06,9.411565686524033e-07,1.1573763278392589e-05,8.582286751437667e-07,3.5338498235030305e-07,1.110214439455442e-06,1.202620534762286e-05
11,6.575345146100478e-07,6.533655772804281e-07,8.005157012868838e-07,8.654268673675198e-07,7.351234787103339e-07,9.506679901772174e-07,2.5685839275607736e-06,5.49878748867985e-06,2.5956401935602278e-06,2.680312608015466e-06,9.929971133290686e-07,1.1956906442490534e-05,9.095599941004413e-07,3.9188195257547675e-07,1.1724629339302991e-06,1.321075396772167e-05
12,6.867720501511996e-07,7.032910007416491e-07,8.4729524161621e-07,9.180839290955275e-07,7.596906037897767e-07,9.94213612206654e-07,2.6891427633778576e-06,5.699590428762142e-06,2.6812360904490622e-06,2.8711094821352638e-06,1.0406767442634823e-06,1.2188672985792008e-05,9.55611698714205e-07,4.338445002498316e-07,1.227648918698808e-06,1.439865212889332e-05
13,7.13674258726647e-07,7.53583516716999e-07,8.932233694645757e-07,9.673241069672858e-07,7.800139797626907e-07,1.0345084722066496e-06,2.789670924243237e-06,5.853892145654102e-06,2.7490478355053177e-06,3.0604051204939264e-06,1.0842798925438577e-06,1.2278671872276358e-05,9.96940787814934e-07,4.792143325008209e-07,1.2749731428891653e-06,1.5584741725025236e-05
14,7.386314349711278e-07,8.037510121862581e-07,9.380109781896564e-07,1.0128691290184876e-06,7.967814010578907e-07,1.0710189557712057e-06,2.870907104406997e-06,5.968428126997854e-06,2.799286933543768e-06,3.2465397243650922e-06,1.123727512290448e-06,1.2238894081136869e-05,1.0340382496016506e-06,5.278683960180759e-07,1.3141040072990355e-06,1.6762522008569694e-05
15,7.621289934627774e-07,8.532036459587455e-07,9.814326638891415e-07,1.05455582752621e-06,8.105799319119278e-07,1.1033377892267658e-06,2.9344845504801564e-06,6.049935253876982e-06,2.832338815451458e-06,3.427323664486735e-06,1.158870394972468e-06,1.208305169067158e-05,1.067412115422055e-06,5.796042664046305e-07,1.3450609506093302e-06,1.792405944486225e-05
16,7.845870774329171e-07,9.012601582733564e-07,1.023217294178201e-06,1.0922387705387739e-06,8.218692115103335e-07,1.131370916100979e-06,2.982856692601873e-06,6.104701979848778e-06,2.848488831634275e-06,3.600248048616976e-06,1.1896056966381581e-06,1.1826116993548518e-05,1.0976813252640577e-06,6.34143354979369e-07,1.3680169025934262e-06,1.9059727455457666e-05
17,8.062820309173626e-07,9.471961416007091e-07,1.0630084531118163e-06,1.1257817243584703e-06,8.309498663847359e-07,1.1554663895443478e-06,3.018772440208873e-06,6.13825381430362e-06,2.8478281591963273e-06,3.762858884726416e-06,1.21595507222706e-06,1.1483913108055674e-05,1.1255615579808104e-06,6.911499182565829e-07,1.383243127765598e-06,2.0157795300259443e-05
18,8.273358847235311e-07,9.90347636083196e-07,1.100343484384796e-06,1.1551027651391744e-06,8.379448155036549e-07,1.1763646030327305e-06,3.0447062560152767e-06,6.155199052337636e-06,2.8304416588084135e-06,3.913157556995544e-06,1.2381037962091236e-06,1.1072592291807307e-05,1.1517389436435344e-06,7.502356750565341e-07,1.3911684364389642e-06,2.1203882490197773e-05
19,8.477190344097099e-07,1.030197835885527e-06,1.1346178431860058e-06,1.1801451528065825e-06,8.428205633115699e-07,1.194980999949934e-06,3.062667893931663e-06,6.159441451382765e-06,2.79670819045723e-06,4.049882909265955e-06,1.2564129179447792e-06,1.0607949881464524e-05,1.1767550815955234e-06,8.109429337136415e-07,1.3924006878674188e-06,2.2180289047284013e-05
20,8.672575289282826e-07,1.0663864716825375e-06,1.1651143219163658e-06,1.2007883509457077e-06,8.454602324641968e-07,1.2122143701866088e-06,3.0743568494658633e-06,6.154731395171756e-06,2.747542257050633e-06,4.172561805125511e-06,1.2713780336918797e-06,1.0104671664723389e-05,1.200977149576766e-06,8.727202466471007e-07,1.3877040935854565e-06,2.306537307804541e-05
21,8.856531912549913e-07,1.0986836988171821e-06,1.1911358455962684e-06,1.2168371991598996e-06,8.457623959315985e-07,1.228890341563368e-06,3.0812899755531144e-06,6.145158801580406e-06,2.6845428688336163e-06,4.281333516778549e-06,1.2835335621429566e-06,9.575714683366634e-06,1.2246124812400948e-06,9.348912756913387e-07,1.3779965306870118e-06,2.383377456720642e-05
22,9.025044859949442e-07,1.1269678448114417e-06,1.2121694907659572e-06,1.2281478470172168e-06,8.437179108579285e-07,1.2457276167891692e-06,3.0847079881768207e-06,6.1352064411749116e-06,2.6100099629379555e-06,4.376669620947275e-06,1.2933801610437566e-06,9.032039154036273e-06,1.2477325619670683e-06,9.966337868511786e-07,1.364337556442081e-06,2.4458777094053164e-05
23,9.173622617732889e-07,1.1511688719893562e-06,1.2279916149374912e-06,1.2347946820840591e-06,8.394306849493971e-07,1.2632682598909785e-06,3.085465754470915e-06,6.129331116253852e-06,2.5268206057603533e-06,4.459082382749321e-06,1.3013769579371228e-06,8.482745606416937e-06,1.2703321890267892e-06,1.056984244367287e-06,1.3478496904167208e-06,2.4916877370654664e-05
24,9.298543269302385e-07,1.1711876801352158e-06,1.2386827438371282e-06,1.2371247931331257e-06,8.330754253209329e-07,1.2818580057161767e-06,3.084144043132397e-06,6.131461430559963e-06,2.4382809070654637e-06,4.528819492671308e-06,1.3079098103335159e-06,7.935384606596441e-06,1.2924265602136578e-06,1.1148518102813289e-06,1.3296062542682746e-06,2.5192333886122718e-05
25,9.397915271744787e-07,1.1868842782359018e-06,1.2445552211621757e-06,1.2356388477572806e-06,8.248206929796362e-07,1.3016973951042386e-06,3.0812813572021326e-06,6.1449059435246305e-06,2.348031405565355e-06,4.58557913076755e-06,1.3131901918451115e-06,7.396198159086109e-06,1.3141310818777299e-06,1.1690521460172727e-06,1.3105778599359526e-06,2.5278883865406555e-05
26,9.471441728284861e-07,1.1981499746176567e-06,1.2460163803624091e-06,1.2308146986653436e-06,8.147875946645173e-07,1.3228810021293711e-06,3.0774874705902048e-06,6.172677683249017e-06,2.259925682995867e-06,4.628424116003578e-06,1.317202325655222e-06,6.870297827453265e-06,1.3356496301131014e-06,1.2183842149740862e-06,1.2916555628430214e-06,2.5177422259097134e-05
27,9.51925379553001e-07,1.204986913354482e-06,1.2434656582509214e-06,1.223038877177661e-06,8.030899390802992e-07,1.345365197984588e-06,3.073402732776748e-06,6.217726592490081e-06,2.1778160375182086e-06,4.6560055322283306e-06,1.3198162125897958e-06,6.361809631319797e-06,1.3571471793867074e-06,1.2617653912795616e-06,1.27365476146329e-06,2.4891440017782247e-05
28,9.5410178327093e-07,1.2075570898131929e-06,1.237315834958337e-06,1.2126715771897104e-06,7.898914170290479e-07,1.3689051490138603e-06,3.06965088591115e-06,6.28272213464068e-06,2.1053321135235078e-06,4.6669784467345736e-06,1.321019274707887e-06,5.873935061108993e-06,1.3786007689890288e-06,1.2984185732810297e-06,1.2572488881926887e-06,2.442502401488162e-05
29,9.535601511650512e-07,1.2062127442650197e-06,1.2280588337629607e-06,1.2001778632584143e-06,7.753869628536075e-07,1.3930587021156183e-06,3.0669032835744844e-06,6.36957073815773e-06,2.0457728683862464e-06,4.660454105140967e-06,1.321067104926334e-06,5.408974191396568e-06,1.3997580442215095e-06,1.3280305247510813e-06,1.242904831983518e-06,2.3786068891587864e-05
30,9.500982254932757e-07,1.2014993712888046e-06,1.2162428742141452e-06,1.1862689367302794e-06,7.597270708039197e-07,1.4172921157556896e-06,3.0660258674091896e-06,6.479108031597183e-06,2.0021316584384337e-06,4.63632160386049e-06,1.320411280680356e-06,4.968381993790583e-06,1.420204985420172e-06,1.350808524050163e-06,1.23086205920888e-06,2.299090641672511e-05
31,9.434719040495309e-07,1.1940863822079039e-06,1.2023856625283813e-06,1.1719735294081921e-06,7.429884007517732e-07,1.4411116489839183e-06,3.068211621452205e-06,6.611183825416733e-06,1.9771728302400295e-06,4.595238288761577e-06,1.3195022172602616e-06,4.552823326124733e-06,1.4394352822525927e-06,1.3674046652469373e-06,1.2211272358680172e-06,2.2065263474971864e-05
32,9.335252017024662e-07,1.1846243541230964e-06,1.1869519088822922e-06,1.1585669905001322e-06,7.252550481056045e-07,1.4641067164114614e-06,3.0750512940364137e-06,6.765017544647922e-06,1.97344632036413e-06,4.538324732682107e-06,1.318669931525397e-06,4.162205823766801e-06,1.4569046157928198e-06,1.3786927290405634e-06,1.2134830956797318e-06,2.1041031132247144e-05
33,9.203122083810226e-07,1.1736315288018851e-06,1.1704265862065474e-06,1.1474039320671715e-06,7.067438355413546e-07,1.4858570709084697e-06,3.088541666333936e-06,6.93958600341732e-06,1.9932069465558766e-06,4.466874283067801e-06,1.318127353770711e-06,3.7957397497529005e-06,1.4721511916062557e-06,1.3854936030076422e-06,1.2075229827811438e-06,1.9951560229255462e-05
34,9.040865087638439e-07,1.1614842861934369e-06,1.153365005112471e-06,1.1397846089885556e-06,6.878316875843463e-07,1.505780870381983e-06,3.1110094128002176e-06,7.13384938656904e-06,2.038345036848447e-06,4.382289162090291e-06,1.317972041946033e-06,3.4520732853191602e-06,1.4849427383231096e-06,1.3884157234571419e-06,1.202702796083879e-06,1.8828070048269875e-05
35,8.851737222435794e-07,1.1484561622325712e-06,1.1363316065717505e-06,1.1369327989110585e-06,6.689686090984022e-07,1.5230848834524735e-06,3.144893795558193e-06,7.346692800950777e-06,2.1104408680302714e-06,4.286143777242835e-06,1.3181187068422777e-06,3.1295508375632387e-06,1.4953197640591252e-06,1.387879232270622e-06,1.1984116042117159e-06,1.7698126028155877e-05
36,8.638792811858967e-07,1.1347498719757437e-06,1.1198042576480538e-06,1.1400523012972645e-06,6.505935708987187e-07,1.5369172814673318e-06,3.192415932237813e-06,7.576554572942284e-06,2.210893804650901e-06,4.180156685544485e-06,1.3182310188860996e-06,2.826570052461305e-06,1.5035127615560942e-06,1.3842730294369232e-06,1.1940586502017972e-06,1.658559650117598e-05
37,8.405169206784666e-07,1.1205252411894869e-06,1.1041357783641656e-06,1.1503762860281958e-06,6.331031298011856e-07,1.5466309941840928e-06,3.2553241875708686e-06,7.820931582231115e-06,2.34097779640732e-06,4.0659729311130694e-06,1.3177151568027753e-06,2.5418684837696725e-06,1.5097981006879752e-06,1.3781281024124482e-06,1.1891167532882392e-06,1.5511071212576398e-05
38,8.154813627426301e-07,1.105901309757485e-06,1.089546547213448e-06,1.1691728117753989e-06,6.168314182845631e-07,1.5519331118421873e-06,3.3348183960282647e-06,8.076297467871938e-06,2.5017638955747257e-06,3.94485471116551e-06,1.3157940921262695e-06,2.274606898555399e-06,1.514359625544165e-06,1.3701684265830188e-06,1.1830854561407978e-06,1.4492277936530622e-05
39,7.892533912919867e-07,1.0909287001153106e-06,1.0761209357853696e-06,1.1977228984440547e-06,6.020278403101819e-07,1.5527856409687994e-06,3.431544239886506e-06,8.338826456684315e-06,2.693980523418056e-06,3.817552617234045e-06,1.311711061009275e-06,2.024289192151916e-06,1.51724769140521e-06,1.3611863686876494e-06,1.175498403442631e-06,1.3544485280432862e-05
40,7.623339111711303e-07,1.0756016592377237e-06,1.063831797172326e-06,1.2372744444020904e-06,5.888648782989679e-07,1.5491554792546328e-06,3.5456198860930935e-06,8.605532799290013e-06,2.9178987015102445e-06,3.684537649937355e-06,1.3050396224012333e-06,1.7906034103482908e-06,1.5184794336740176e-06,1.351848498902454e-06,1.1660823184207026e-06,1.2680847994134245e-05
41,7.352106867297341e-07,1.0599150924945265e-06,1.052563184502466e-06,1.2889981075653721e-06,5.774833730235362e-07,1.540850800101576e-06,3.676730380177077e-06,8.875062826753288e-06,3.173273235007013e-06,3.546414488811968e-06,1.2958893724043512e-06,1.5732389354921815e-06,1.5181656542557763e-06,1.3425778414757694e-06,1.1549371459397425e-06,1.1912658274644542e-05
42,7.083994870261299e-07,1.0438730758086013e-06,1.0420916530262521e-06,1.353981094441812e-06,5.680205189182138e-07,1.5275671846332744e-06,3.824193216575021e-06,9.147760727401161e-06,3.459311972898843e-06,3.4041989072275473e-06,1.284815143948298e-06,1.371764691047489e-06,1.5165317626244283e-06,1.3335585266258188e-06,1.14255805943711e-06,1.1249605204118959e-05
43,6.824590402085444e-07,1.0274653053909128e-06,1.032090618767503e-06,1.4332086280025052e-06,5.605859455229442e-07,1.5090544629894212e-06,3.986900778074551e-06,9.425033104511407e-06,3.774625500996821e-06,3.25932673441341e-06,1.272508401536041e-06,1.18565426639351e-06,1.5138354145803924e-06,1.3248346760845542e-06,1.1296905176749762e-06,1.0700068276390427e-05
44,6.579232146292632e-07,1.0107185495119052e-06,1.0222262810396656e-06,1.5274918302127948e-06,5.552284252878372e-07,1.4852762520435799e-06,4.163190293127982e-06,9.708250360008872e-06,4.1172080537786965e-06,3.1134443415024323e-06,1.2595257957299461e-06,1.0144700242343606e-06,1.5102488067611188e-06,1.3164493600653038e-06,1.1171212343154552e-06,1.0271303723629045e-05
45,6.352334642223849e-07,9.937872687665937e-07,1.0122581351530812e-06,1.6373952204968829e-06,5.519273901153767e-07,1.4565119672567758e-06,4.3507410246106975e-06,9.997667159835368e-06,4.4845459437116325e-06,2.9681368974483705e-06,1.246209825280887e-06,8.581422642756838e-07,1.5057854923985285e-06,1.3085377235920097e-06,1.1055144890540945e-06,9.969476249637016e-06
46,6.147337236322501e-07,9.769702450796117e-07,1.0020234485513583e-06,1.7632110537881966e-06,5.505938943430199e-07,1.4233728226076651e-06,4.5465227875713425e-06,1.0291774375863958e-05,4.873742637766286e-06,2.8247835174722347e-06,1.2327455469915356e-06,7.172091671075094e-07,1.500343820724339e-06,1.3013003957910148e-06,1.0953600991922317e-06,9.799647762672557e-06
47,5.966878266260486e-07,9.60659257317919e-07,9.91385994743764e-07,1.9049895008601035e-06,5.510829185863241e-07,1.3867106992088827e-06,4.746737690830943e-06,1.0587046942632299e-05,5.281441855303098e-06,2.684606889061666e-06,1.2192134701285132e-06,5.928520020453644e-07,1.4938544683029439e-06,1.2948943342107222e-06,1.087015065804477e-06,9.765785275622723e-06
48,5.812822214234736e-07,9.452873428825193e-07,9.802651226042221e-07,2.0625988910939163e-06,5.53241571765005e-07,1.3474628663495413e-06,4.9467853027910145e-06,1.0878022998728354e-05,5.7036118300307065e-06,2.5488072470455443e-06,1.2055815362855967e-06,4.86699237743833e-07,1.4864510731163488e-06,1.2893484300487684e-06,1.0807701252147328e-06,9.870796188970177e-06
49,5.686307693848484e-07,9.312789681149079e-07,9.686502755818107e-07,2.2357367552877596e-06,5.569661866376298e-07,1.3065263088962812e-06,5.141484196251242e-06,1.1157865728971577e-05,6.13545005936409e-06,2.4186298786205196e-06,1.1917057802291906e-06,4.0060363776962206e-07,1.4785594042348486e-06,1.284523705739339e-06,1.0768970174722055e-06,1.0116629935647273e-05
50,5.587870978143508e-07,9.189858394192577e-07,9.565149500978453e-07,2.4238426489356115e-06,5.622026527878299e-07,1.2646972966908291e-06,5.325738500282599e-06,1.1419336768800362e-05,6.571392458306587e-06,2.2952890436063617e-06,1.1774065698536063e-06,3.365969705161034e-07,1.470800399900481e-06,1.2801036813322895e-06,1.0756482200134658e-06,1.0504422772269478e-05
51,5.517473786559098e-07,9.08650958715289e-07,9.437251625687551e-07,2.6259745685187048e-06,5.688937437276681e-07,1.2226312705103942e-06,5.495489497377834e-06,1.1655952481606717e-05,7.005126175386498e-06,2.1797744259740745e-06,1.1625595202160372e-06,2.9699552740532427e-07,1.463755428723474e-06,1.2756568573729761e-06,1.0771935606331738e-06,1.1034539338189918e-05
52,5.474423303646671e-07,9.004280311504879e-07,9.300498731658965e-07,2.8407776779679136e-06,5.769383501003127e-07,1.1808135808562854e-06,5.648521465965183e-06,1.186314862135297e-05,7.430014225548122e-06,2.072675267528026e-06,1.1471212352494271e-06,2.845270539408427e-07,1.4578041529274874e-06,1.2707738816897834e-06,1.081541948693056e-06,1.17063740595505e-05
53,5.457254713730692e-07,8.94400288283834e-07,9.152952156784152e-07,3.0666123619108427e-06,5.861982436851892e-07,1.1395712274007342e-06,5.784715318571313e-06,1.2039032750133397e-05,7.840274085071404e-06,1.9741420371899473e-06,1.1311132760445676e-06,3.0243533505414893e-07,1.453119624558822e-06,1.2652159029512411e-06,1.088508597036921e-06,1.2517946904747194e-05
54,5.463637255260627e-07,8.905554672973001e-07,8.994737935991981e-07,3.3017473570848543e-06,5.965537134723394e-07,1.0991172920202107e-06,5.905618377194155e-06,1.2184106094116196e-05,8.232090152218156e-06,1.8839922884829973e-06,1.1146176740382313e-06,3.545224128425284e-07,1.4497084776521472e-06,1.2589795376729079e-06,1.0977283091151016e-06,1.3465463267266563e-05
55,5.490336788969914e-07,8.887622502307144e-07,8.828396599085451e-07,3.544435252403702e-06,6.079596267291819e-07,1.0596255200971877e-06,6.013579513527115e-06,1.2299847706211803e-05,8.603592392990699e-06,1.8019342327434304e-06,1.0977778997996964e-06,4.450403883099161e-07,1.4474564489068552e-06,1.2522132890086305e-06,1.1087243667545826e-06,1.4542985704458707e-05
56,5.533295965975733e-07,8.888006386466979e-07,8.657491344943682e-07,3.7928010812284947e-06,6.204283187279078e-07,1.0213360069657821e-06,6.110871026827315e-06,1.2387027433538251e-05,8.954347479136476e-06,1.7278435809489421e-06,1.0807867074338078e-06,5.784813815297743e-07,1.4462655603742357e-06,1.2450681755041002e-06,1.121041182232015e-06,1.5742234392370984e-05
57,5.588083769801566e-07,8.904180032527767e-07,8.484988072670882e-07,4.044651973195141e-06,6.339667476062069e-07,9.846321705114485e-07,6.199054435372759e-06,1.2444841582066634e-05,9.285569118017912e-06,1.6619172785559345e-06,1.0638835918599663e-06,7.594444147856163e-07,1.446262038518908e-06,1.237603525951246e-06,1.1343533268961998e-06,1.7052387688054662e-05
58,5.650764698773338e-07,8.93345824621708e-07,8.312510161482226e-07,4.297331221475874e-06,6.485467603656236e-07,9.500302845996632e-07,6.278676343821674e-06,1.247101499108926e-05,9.600382288041454e-06,1.6045754411380065e-06,1.0473503013932257e-06,9.926315123321265e-07,1.4479184352152594e-06,1.2297376719606855e-06,1.1484756837977954e-06,1.8459744073789715e-05
59,5.718541325912712e-07,8.972629786638803e-07,8.140219251255945e-07,4.547623043495211e-06,6.640969673498028e-07,9.180922520670529e-07,6.349333455384268e-06,1.2462295033840229e-05,9.903043559508871e-06,1.5562308072541718e-06,1.03145120595144e-06,1.282866262283593e-06,1.45198936880378e-06,1.2212138582102723e-06,1.1633281162502028e-06,1.9947208694814275e-05
60,5.789563242608182e-07,9.017651404079263e-07,7.966909592315861e-07,4.791647818279258e-06,6.804888432399535e-07,8.893220969817e-07,6.409982176277486e-06,1.2415057550172438e-05,1.0197679789991892e-05,1.5171316497751779e-06,1.0163511230982484e-06,1.635032772593014e-06,1.4593188286324054e-06,1.211601655269528e-06,1.1789080852383475e-06,2.149365240641332e-05
61,5.862574315130061e-07,9.064230774026271e-07,7.790227304015722e-07,5.024776265713596e-06,6.975511637029162e-07,8.641024270618466e-07,6.459206889281853e-06,1.2326074100982134e-05,1.048750608314049e-05,1.4873337958781341e-06,1.002128831384743e-06,2.053953059429099e-06,1.4706692059595646e-06,1.2003543426147303e-06,1.1952256017570452e-06,2.3073271812220055e-05
62,5.937388003429692e-07,9.109314124375915e-07,7.607247992201542e-07,5.2417385915148055e-06,7.151098420349262e-07,8.426743671026963e-07,6.4952864073047275e-06,1.2193390457610668e-05,1.0774490814791759e-05,1.466774516829201e-06,9.889098809959295e-07,2.54432593234615e-06,1.4866680550522324e-06,1.1869573647148869e-06,1.212193401480024e-06,2.4655119904900076e-05
63,6.015607500062208e-07,9.152344574391608e-07,7.415474775425837e-07,5.43703727274485e-06,7.329878407783494e-07,8.251463816775789e-07,6.516171230440428e-06,1.2017167819754606e-05,1.1059008302118704e-05,1.4553706464172062e-06,9.76959630667246e-07,3.110736364734966e-06,1.507856984341868e-06,1.1711324670281048e-06,1.2295674840015973e-06,2.6203045485857847e-05
64,6.100387205629319e-07,9.195130201080138e-07,7.213575026731803e-07,5.605553339976229e-06,7.50955687134422e-07,8.115287388561251e-07,6.519611517158508e-06,1.1800330408903773e-05,1.1339391675033946e-05,1.4530025427908728e-06,9.666065677601509e-07,3.7575662391160616e-06,1.53474370066659e-06,1.15295548395386e-06,1.2469823386819858e-06,2.767658258809143e-05
65,6.195361440366962e-07,9.240370829389162e-07,7.00155012381804e-07,5.743187774446178e-06,7.687115165704459e-07,8.017701375738961e-07,6.503530479782887e-06,1.154883057289052e-05,1.161169162436005e-05,1.4593987046153213e-06,9.580934773470355e-07,4.488760299160145e-06,1.5677750595061845e-06,1.1328104446182398e-06,1.2640038966284208e-06,2.903357037181417e-05
66,6.303725237283795e-07,9.290028363568807e-07,6.780963747220609e-07,5.847409391527833e-06,7.859474081312249e-07,7.957811393228283e-07,6.466451709791438e-06,1.127135595686934e-05,1.1870010007293322e-05,1.474078199296545e-06,9.515179119942273e-07,5.307591682881306e-06,1.6073116503947997e-06,1.1112338341266363e-06,1.2801338621676992e-06,3.0234685940880084e-05
67,6.427785980218723e-07,9.344582370768186e-07,6.555286883235463e-07,5.917515273262079e-06,8.024649316166164e-07,7.934452622376077e-07,6.407715260400566e-06,1.097843089508397e-05,1.2107470753347998e-05,1.4963958400440588e-06,9.468807853447036e-07,6.216464796782045e-06,1.6537040403772316e-06,1.0887593508147025e-06,1.2947990031333085e-06,3.124849254197038e-05
68,6.568693814648453e-07,9.403198468282193e-07,6.329540952086044e-07,5.954423537944693e-06,8.182520469235998e-07,7.945979343070494e-07,6.327489759150763e-06,1.0681053895091208e-05,1.2317411531496197e-05,1.525600183824268e-06,9.441547279454442e-07,7.216669722761965e-06,1.7073776462426476e-06,1.0658703840546014e-06,1.3073553851911252e-06,3.2054294537935086e-05
69,6.726372353248435e-07,9.464156010561703e-07,6.109130433202701e-07,5.960009003163861e-06,8.334608011267461e-07,7.989779414447237e-07,6.226814496288786e-06,1.0389280057686604e-05,1.2494243347617362e-05,1.5608187956051496e-06,9.432896647813393e-07,8.308092462149805e-06,1.768844695781409e-06,1.0430558365695288e-06,1.3171129709229012e-06,3.264059974039559e-05
70,6.899763348998953e-07,9.52495917162805e-07,5.898773444917885e-07,5.936229630888841e-06,8.483041211838505e-07,8.062051955097025e-07,6.107684056265301e-06,1.0111291439153648e-05,1.2633646163300713e-05,1.601027400848903e-06,9.441523099174214e-07,9.488946952062855e-06,1.8387119435063007e-06,1.0208409669698838e-06,1.3234461769268469e-06,3.2999997816070885e-05
71,7.087036883097779e-07,9.582218775682791e-07,5.702069697710292e-07,5.884459645569569e-06,8.629426237004245e-07,8.158007831365232e-07,5.972813647803586e-06,9.853110984011119e-06,1.2731996110234728e-05,1.645110676373665e-06,9.464619405095903e-07,1.0755588044181159e-05,1.917701149374067e-06,9.997268975885568e-07,1.3260096779605656e-06,3.312505896338946e-05
72,7.285496492904687e-07,9.63181049345905e-07,5.521549616693816e-07,5.805366919826706e-06,8.774117780057584e-07,8.272066213940684e-07,5.824955798828069e-06,9.618734374865784e-06,1.2785204381808333e-05,1.6919512661869407e-06,9.497855182687539e-07,1.2102461625460854e-05,2.006606685346997e-06,9.801138396510247e-07,1.3249177031393168e-06,3.3009335362451495e-05
73,7.491529360008214e-07,9.669357135266322e-07,5.35907445277333e-07,5.699287834312853e-06,8.916060072207883e-07,8.3981340245552e-07,5.666332042126625e-06,9.410558279095077e-06,1.2787507901378446e-05,1.740423495098912e-06,9.536320457510937e-07,1.3522156236116445e-05,2.10617282949955e-06,9.623070459311134e-07,1.3207139255129554e-06,3.265215823471298e-05
74,7.700812904330626e-07,9.69049460690863e-07,5.216334588861939e-07,5.566775546291967e-06,9.05324375866744e-07,8.530358896155643e-07,5.498636719896828e-06,9.229957118485837e-06,1.2730998450671207e-05,1.7892976416749302e-06,9.576095164509129e-07,1.5005406795474711e-05,2.2169627468296394e-06,9.466070312310091e-07,1.3141490679029353e-06,3.206289740126486e-05
75,7.908389683395104e-07,9.690832749385363e-07,5.094938289874686e-07,5.409069786067385e-06,9.183617801685969e-07,8.663684838504318e-07,5.323254178265643e-06,9.077668254731652e-06,1.260675163133856e-05,1.8371655105685903e-06,9.615066607388989e-07,1.6540858266546833e-05,2.3392876419691105e-06,9.3337239729438e-07,1.3059697583909858e-06,3.126222626743445e-05
76,8.108675973902717e-07,9.666446093868325e-07,4.996049708174611e-07,5.2283472180396525e-06,9.305875845631194e-07,8.793525946988834e-07,5.141234151683512e-06,8.953738795391597e-06,1.2407871535879181e-05,1.882540665006288e-06,9.65230821092767e-07,1.811451363024617e-05,2.473203074289715e-06,9.229735877286127e-07,1.2968439952232987e-06,3.0280324331697324e-05
77,8.295998673403438e-07,9.615180565544107e-07,4.920010678037089e-07,5.02765537118781e-06,9.419398822331292e-07,8.915548443029281e-07,4.9530813738735935e-06,8.857137495173275e-06,1.213319709487847e-05,1.924169271059171e-06,9.687016332998393e-07,1.9709092780764117e-05,2.618545855456544e-06,9.157062710450856e-07,1.2873545327674792e-06,2.9152913853627352e-05
78,8.465600211599741e-07,9.537842019339678e-07,4.866161422362325e-07,4.810585901189605e-06,9.523445135113886e-07,9.026603477197981e-07,4.758617179871289e-06,8.785591702342427e-06,1.1789141692126543e-05,1.9613094109488342e-06,9.717920731890674e-07,2.130373967533175e-05,2.774978406303797e-06,9.117668255616549e-07,1.2779674732032398e-06,2.7916492113650067e-05
79,8.61452674797891e-07,9.438535119695076e-07,4.832784273068072e-07,4.580909188594606e-06,9.616421031534843e-07,9.126020748628344e-07,4.5571106517709505e-06,8.736171444287541e-06,1.1388127732319456e-05,1.9937078292593666e-06,9.743159974915782e-07,2.2874383515494832e-05,2.942023558917769e-06,9.112981311519401e-07,1.2689884731700116e-06,2.6604413705861647e-05
80,8.741957743734459e-07,9.324063225325254e-07,4.817084208251999e-07,4.342358896343525e-06,9.695711584614358e-07,9.21580916220088e-07,4.347782945992583e-06,8.706410577446068e-06,1.0944892188955277e-05,2.0213772885355264e-06,9.760683799385922e-07,2.4394515238057583e-05,3.119106824796154e-06,9.144443488901705e-07,1.2605657498049534e-06,2.524501873910617e-05
81,8.848673496923186e-07,9.202544149528044e-07,4.815207430930337e-07,4.098568694213545e-06,9.758199217180838e-07,9.299442656851349e-07,4.130575163640496e-06,8.695226631118249e-06,1.0473497790776914e-05,2.0445074250061188e-06,9.768925083116432e-07,2.5835492373160583e-05,3.305559930665912e-06,9.213445260037761e-07,1.2527601528092663e-06,2.3861584599867095e-05
82,8.935957312066903e-07,9.081854711360178e-07,4.822323862522914e-07,3.853031405248688e-06,9.8012808665933e-07,9.380322359349236e-07,3.906776885123487e-06,8.703056342155765e-06,9.986334752750739e-06,2.0635625936453334e-06,9.766956037124474e-07,2.716591389826672e-05,3.500480055479917e-06,9.320698911507942e-07,1.2456462165097335e-06,2.2472920334243888e-05
83,9.004980027723476e-07,8.968636082241239e-07,4.832857559538519e-07,3.608974284479377e-06,9.823650150082013e-07,9.461010884067946e-07,3.6791040364928875e-06,8.731251419776347e-06,9.49419856813707e-06,2.079278958542951e-06,9.754736081159588e-07,2.8351550792540134e-05,3.7024847618904334e-06,9.465683549236499e-07,1.2393575041953556e-06,2.1093888236117426e-05
84,9.057058884093128e-07,8.868098346446059e-07,4.841146705125542e-07,3.369162953385803e-06,9.82549345461228e-07,9.543105103120784e-07,3.4512227709157048e-06,8.781371704315142e-06,9.006400163348526e-06,2.0924199002929534e-06,9.734512344667706e-07,2.935814515807564e-05,3.909504561289644e-06,9.646438221331563e-07,1.2340306504768874e-06,1.9735863005707702e-05
85,9.094029114355371e-07,8.784274304173309e-07,4.842407040410601e-07,3.135755279080188e-06,9.808298913679002e-07,9.62748488020037e-07,3.227075333568247e-06,8.85486152369663e-06,8.530684669743018e-06,2.103521940201918e-06,9.712001660821477e-07,3.0156923286998455e-05,4.118676319216457e-06,9.85994295347687e-07,1.2297413171462573e-06,1.8407323610316968e-05
86,9.118280327385343e-07,8.720099647879282e-07,4.833196354892254e-07,2.910337730705865e-06,9.774277664800848e-07,9.715202122349843e-07,3.010339779740965e-06,8.952947262587766e-06,8.073038608051854e-06,2.112819855266078e-06,9.695648193381186e-07,3.072961400991769e-05,4.326415363402294e-06,1.010302612504325e-06,1.2265090167347572e-06,1.7114732994356254e-05
87,9.132768209061545e-07,8.67716513473849e-07,4.811362694116463e-07,2.694151248329149e-06,9.725580402366647e-07,9.808512125009582e-07,2.8041448413819156e-06,9.076381756702973e-06,7.637579429275414e-06,2.1202613372783474e-06,9.694683400933578e-07,3.106959518784356e-05,4.528763685988061e-06,1.0372791727536637e-06,1.2243028784030373e-06,1.5863655256034152e-05
88,9.141104619776834e-07,8.655622594084043e-07,4.776175273047585e-07,2.48834524896364e-06,9.663983579239434e-07,9.910909000923329e-07,2.6110097158607365e-06,9.224980794712238e-06,7.226769414864003e-06,2.125530911138754e-06,9.717614095780653e-07,3.117823727076198e-05,4.721899853881146e-06,1.0666095873284809e-06,1.2230324078196887e-06,1.4659790668418267e-05
89,9.147373182059138e-07,8.654455853304324e-07,4.728381801529311e-07,2.2940611521449886e-06,9.591348065851605e-07,1.0026003993656317e-06,2.432898577446995e-06,9.397255741575549e-06,6.841957385476007e-06,2.1281099136790886e-06,9.772042339525681e-07,3.1059180518460574e-05,4.902539401618483e-06,1.0978829975900215e-06,1.222585933686715e-06,1.3509550678206511e-05
90,9.155486516066761e-07,8.671644564202426e-07,4.669945153872113e-07,2.1123342853547122e-06,9.510245587564603e-07,1.0156264528184482e-06,2.2712646323515697e-06,9.590537696796062e-06,6.483917421890962e-06,2.127348842255521e-06,9.865497267737163e-07,3.0715789472844506e-05,5.06810123727175e-06,1.1305497693703923e-06,1.2228483402847744e-06,1.241992008500928e-05
91,9.168465606457492e-07,8.704004161427769e-07,4.603864978190639e-07,1.9440119809539655e-06,9.423903402298991e-07,1.0302347989013006e-06,2.1270530699523313e-06,9.801644803660667e-06,6.153057158589585e-06,2.122512682501292e-06,1.0005816120674287e-06,3.015401031573995e-05,5.216671153266262e-06,1.1639101515454984e-06,1.223629072795474e-06,1.1397642546049175e-05
92,9.188094185516315e-07,8.747278909869413e-07,4.5337983565234103e-07,1.7897788642307404e-06,9.3353715969884e-07,1.0462971932061495e-06,2.000716379990114e-06,1.002754042945049e-05,5.849344375318501e-06,2.1128595000716583e-06,1.020032531314805e-06,2.938691046128382e-05,5.346772718757431e-06,1.1971958975704263e-06,1.2246379155504093e-06,1.0448304838352708e-05
93,9.21484385877041e-07,8.796948642435362e-07,4.46331235402613e-07,1.6501702019284151e-06,9.246760634541936e-07,1.063545565757211e-06,1.8922731817064004e-06,1.0265266838144121e-05,5.572271009331574e-06,2.0978172869432215e-06,1.0454766216487057e-06,2.8436519310646504e-05,5.457003579021564e-06,1.2297711228863553e-06,1.2256400114457843e-06,9.576026607353593e-06
94,9.247779969894716e-07,8.849429546843057e-07,4.395437321952186e-07,1.5255315320570467e-06,9.159337876633012e-07,1.0816951482432765e-06,1.8014044927692855e-06,1.0511228901734442e-05,5.321078278184522e-06,2.077188932479046e-06,1.0773052414849601e-06,2.7332308934506647e-05,5.5457529381948714e-06,1.2612704542450831e-06,1.2266640096234637e-06,8.783627665828016e-06
95,9.284483270781445e-07,8.903075731994605e-07,4.3326681716562047e-07,1.4160063821728963e-06,9.074297171004988e-07,1.1005435084623872e-06,1.727563974263282e-06,1.0760832582221969e-05,5.095184204544305e-06,2.051257553394164e-06,1.1157921716546235e-06,2.6107795206906612e-05,5.611198055089438e-06,1.2915058616049454e-06,1.228034865465154e-06,8.072625670619618e-06
96,9.32118379689554e-07,8.958636276598904e-07,4.2769608108660983e-07,1.3215575892527675e-06,8.993479913576309e-07,1.11997117207213e-06,1.6700832897609542e-06,1.100905260379559e-05,4.894501154963987e-06,2.0207109509225126e-06,1.1611667391888538e-06,2.4796803916475376e-05,5.651539984902232e-06,1.3202804418951541e-06,1.230221789853976e-06,7.443080765308645e-06
97,9.35344535462934e-07,9.018956809880676e-07,4.2296193491065687e-07,1.241963191132524e-06,8.919537294503008e-07,1.1398923648863636e-06,1.6282811623931827e-06,1.1251176095106373e-05,4.719321032831226e-06,1.986424315090488e-06,1.2136009171037282e-06,2.3430466985750888e-05,5.665235823567753e-06,1.3473023514072631e-06,1.233686847077974e-06,6.893707747861677e-06
98,9.377432939838674e-07,9.087911769149206e-07,4.191291200501108e-07,1.1767942935544498e-06,8.85538223947609e-07,1.1602405407350885e-06,1.6015815867170546e-06,1.1482761329689316e-05,4.5698665460012134e-06,1.949323137930905e-06,1.2731250520143324e-06,2.203547403221014e-05,5.650965360818858e-06,1.3721925454162008e-06,1.2388344885343756e-06,6.422215022600716e-06
99,9.390846330243635e-07,9.169153248046067e-07,4.162149009879408e-07,1.1254340870492253e-06,8.803291267274912e-07,1.1809992193859718e-06,1.5896087634300466e-06,1.1699143985025906e-05,4.4460156777453e-06,1.910407933430044e-06,1.3395605199751548e-06,2.0633682312076505e-05,5.607304415438611e-06,1.394561305336199e-06,1.2460168825294007e-06,6.025637593014796e-06
100,9.392680256881732e-07,9.265393820959468e-07,4.142078195038458e-07,1.0871395622184778e-06,8.76445999973236e-07,1.2022088229437966e-06,1.5922042604038265e-06,1.189573592864734e-05,4.347403043565904e-06,1.8707220539717026e-06,1.4124888574911766e-06,1.9242707394815952e-05,5.532564663150744e-06,1.4141422365455433e-06,1.2555093924903784e-06,5.70066945968784e-06
101,9.382129468528486e-07,9.37833340551865e-07,4.1306499600446957e-07,1.0610826186888692e-06,8.739386591921097e-07,1.2238891684321858e-06,1.6093502928817464e-06,1.2069241991506356e-05,4.273540540148522e-06,1.8312136761110602e-06,1.491230015515976e-06,1.787674468545193e-05,5.425398150864425e-06,1.430877024300292e-06,1.2674314469605962e-06,5.44405889291104e-06
102,9.357516054934577e-07,9.508851537199291e-07,4.1269778090146024e-07,1.046332913318974e-06,8.728509726924092e-07,1.2459149739088397e-06,1.6410523472899704e-06,1.2218318494640506e-05,4.223671656069664e-06,1.792642499851628e-06,1.574818546312194e-06,1.654712507085032e-05,5.285992954006271e-06,1.4448995746120824e-06,1.281682568410863e-06,5.253010712298885e-06
103,9.315857506401937e-07,9.656928402982583e-07,4.129692322291332e-07,1.0418104892877775e-06,8.732289923159657e-07,1.2679244817082408e-06,1.6872392604857116e-06,1.2342700480697164e-05,4.196480181408763e-06,1.7555246617506175e-06,1.6619888293142284e-06,1.5262653481777995e-05,5.116864503764684e-06,1.4564946097260677e-06,1.297948143061147e-06,5.1254269773002275e-06
104,9.253193332913734e-07,9.82126554709905e-07,4.13698860579536e-07,1.0462644272134327e-06,8.750619073687495e-07,1.289276413647865e-06,1.747678799936095e-06,1.244165683753082e-05,4.189890679010303e-06,1.720075298761421e-06,1.7512161882107826e-06,1.4029964321766662e-05,4.922575138061054e-06,1.4660390598595954e-06,1.3157773279081777e-06,5.059756617982655e-06
105,9.1655720065489e-07,9.999309773976417e-07,4.1467011688825226e-07,1.0583036617766919e-06,8.782306721743334e-07,1.309034744176589e-06,1.8218883118232522e-06,1.251326023066464e-05,4.201077807326531e-06,1.686210634316734e-06,1.8408523414344394e-06,1.2854000152237822e-05,4.708760013480801e-06,1.473879531713064e-06,1.3346974795169611e-06,5.054477754961011e-06
106,9.05064265864971e-07,1.0187752935750409e-06,4.1565312654375063e-07,1.0764528075671277e-06,8.825326718047172e-07,1.3260097143814106e-06,1.9090552208638858e-06,1.2554850137168308e-05,4.226636412263e-06,1.6536558397703982e-06,1.929314180135156e-06,1.1738535958003618e-05,4.481262545780853e-06,1.4802228786856188e-06,1.3542868343821167e-06,5.10778746233161e-06
107,8.909267348721213e-07,1.038281986433188e-06,4.1645411870798345e-07,1.099203731319731e-06,8.877633331492169e-07,1.3389322196162517e-06,2.007990600947226e-06,1.2563996784262642e-05,4.262811135221942e-06,1.6221384423295983e-06,2.0152052288483434e-06,1.0686543920357531e-05,4.245712599928522e-06,1.4851035851632696e-06,1.3741798409835264e-06,5.217947369873933e-06
108,8.745870289569548e-07,1.0580630287375398e-06,4.169840423926644e-07,1.1250892351927602e-06,8.937940555295487e-07,1.3467782087223115e-06,2.1171200737404426e-06,1.2539388323692874e-05,4.30581079179278e-06,1.5915695700847201e-06,2.097290471253167e-06,9.700271207486667e-06,4.0073672777431526e-06,1.4883716526701141e-06,1.3940562904738027e-06,5.383840191490427e-06
109,8.567044329190484e-07,1.0778018707533465e-06,4.1728346485746644e-07,1.1528013647720552e-06,9.005970868614302e-07,1.3490900679855309e-06,2.234492790454517e-06,1.248143713708064e-05,4.352253797320751e-06,1.5620648413665026e-06,2.17440886875776e-06,8.7811813219495e-06,3.771001013944223e-06,1.4897240501255177e-06,1.4136397851968614e-06,5.605054897056377e-06
110,8.379794455950035e-07,1.0972678094550683e-06,4.1746412721385726e-07,1.1812746966986556e-06,9.081967413960465e-07,1.3460714326672333e-06,2.3577954326414886e-06,1.239245841072138e-05,4.399586408096574e-06,1.533791680233671e-06,2.2454430146901884e-06,7.929987036489054e-06,3.5408098823501593e-06,1.4888198335213449e-06,1.4326647491114583e-06,5.881473524654108e-06
111,8.190748100895949e-07,1.1162094459722236e-06,4.1764654599106386e-07,1.209635168770299e-06,9.165756446738834e-07,1.338387716285509e-06,2.4844721971544966e-06,1.2276399896362168e-05,4.446202611534803e-06,1.506846987315742e-06,2.309295530320142e-06,7.146671640981555e-06,3.320368113557467e-06,1.4853448610376e-06,1.4508140423043276e-06,6.2127970332727655e-06
112,8.005894180708635e-07,1.1342483875617168e-06,4.179597642963277e-07,1.2370752445633154e-06,9.255916081212259e-07,1.3268269686518778e-06,2.6120785343476327e-06,1.2138253623720343e-05,4.491123251187849e-06,1.481288053085076e-06,2.3648155899576727e-06,6.4303107578003394e-06,3.1126336181038046e-06,1.4789374383099607e-06,1.4677302610863888e-06,6.59826779984035e-06
113,7.830218141821122e-07,1.1508671093678479e-06,4.1855557587370734e-07,1.262834388485274e-06,9.349411436382881e-07,1.3120453715065012e-06,2.738715861872458e-06,1.198332152772128e-05,4.533423676894312e-06,1.4571846636843496e-06,2.410834822180783e-06,5.77899945009144e-06,2.9199542338072642e-06,1.4691380606214285e-06,1.4831136484423392e-06,7.036482329543352e-06
114,7.667453580941441e-07,1.1655024719864455e-06,4.196040876096309e-07,1.28633860179175e-06,9.441613441631909e-07,1.2944865972902253e-06,2.8631817357089626e-06,1.1816498414443967e-05,4.571907539474349e-06,1.434571343160959e-06,2.446418204497158e-06,5.190203248910712e-06,2.7440891268068013e-06,1.455536432165224e-06,1.4967741367923182e-06,7.525146609084567e-06
115,7.520036339628093e-07,1.17770121554775e-06,4.212943768453471e-07,1.3073391043703553e-06,9.526563767229348e-07,1.2744138282926526e-06,2.9846960841860772e-06,1.1641611500942223e-05,4.605213091011399e-06,1.4133636202906374e-06,2.4711433819493648e-06,4.6611785858634324e-06,2.5863408878067806e-06,1.4380419065413386e-06,1.5086133145639449e-06,8.060812371631732e-06
116,7.389106846504745e-07,1.1872259104421086e-06,4.238274390475974e-07,1.3258679077069759e-06,9.597805913248984e-07,1.2519780170481047e-06,3.102424790767455e-06,1.1460810571856006e-05,4.631908245141589e-06,1.393371715008979e-06,2.485189175954307e-06,4.189017686441009e-06,2.4477715942078074e-06,1.4170624770657485e-06,1.5186453700108198e-06,8.638714752848009e-06
117,7.274591887628463e-07,1.1940598825668318e-06,4.2738333268769517e-07,1.3420183785065113e-06,9.649844970406562e-07,1.2272887464362014e-06,3.2151269642795077e-06,1.1274306481818696e-05,4.650295761084816e-06,1.3743928645015922e-06,2.4891887469850712e-06,3.7704690856626247e-06,2.3293031307267644e-06,1.3934506035950423e-06,1.5270463523380449e-06,9.252720054828704e-06
118,7.175390527796814e-07,1.1983699641191681e-06,4.32089280517424e-07,1.3557282904474082e-06,9.679330862301546e-07,1.2005003472952205e-06,3.3211241037002923e-06,1.1080870943200354e-05,4.658241568873964e-06,1.3562332663534355e-06,2.4839360732736216e-06,3.402011781290263e-06,2.231614516107251e-06,1.3682544346667206e-06,1.5341061606665564e-06,9.89528156246273e-06
119,7.089699638663018e-07,1.2004574255451714e-06,4.38005812345292e-07,1.3667147995547428e-06,9.685008104651563e-07,1.1719136561271705e-06,3.4185904663256555e-06,1.0879003729789315e-05,4.6531990195138395e-06,1.3387090207969088e-06,2.470156348483246e-06,3.080253521535961e-06,2.1550110720972767e-06,1.3424727714257847e-06,1.5400965052862597e-06,1.0557394466524824e-05
120,7.015561946787503e-07,1.2006636982166099e-06,4.451258665786949e-07,1.3745494304210492e-06,9.666552471628744e-07,1.1420029109968341e-06,3.5059928754490906e-06,1.0668195659163039e-05,4.632291591157248e-06,1.32175548186089e-06,2.448503141579281e-06,2.802143825722413e-06,2.0994550434384662e-06,1.3169657510266648e-06,1.5452106328155215e-06,1.1228658483840027e-05
121,6.951316270618641e-07,1.1992401896812808e-06,4.5338182258207045e-07,1.3787383832466692e-06,9.623442849922963e-07,1.1113109377920542e-06,3.582448540435305e-06,1.0449723202570147e-05,4.59266716993264e-06,1.3055068157312737e-06,2.4196623528775233e-06,2.5647522243012976e-06,2.0647108247765367e-06,1.292484028711119e-06,1.5496273228713608e-06,1.1897362274923207e-05
122,6.895612906407828e-07,1.1962769259348424e-06,4.626570800775899e-07,1.3787340422866057e-06,9.554850145054037e-07,1.0803265542435646e-06,3.6478490378513354e-06,1.022667438762716e-05,4.532357664934102e-06,1.290197651715814e-06,2.384347603149325e-06,2.365005398389091e-06,2.0504181834231424e-06,1.269724986126178e-06,1.5535947799428138e-06,1.2550420414588037e-05
123,6.847308499013248e-07,1.1917634584866467e-06,4.7279616714480226e-07,1.3739796829783752e-06,9.460312195577387e-07,1.0494765908573827e-06,3.7027522877500767e-06,1.000323662551104e-05,4.451169461168299e-06,1.2760191188969935e-06,2.3431695658517995e-06,2.199723560351041e-06,2.056014005865397e-06,1.2493828576468795e-06,1.5574210573487814e-06,1.3173723345488095e-05
124,6.805394661691963e-07,1.1857326988889483e-06,4.835993599707634e-07,1.364058599912542e-06,9.340489320395884e-07,1.0191952598642412e-06,3.7481595850543065e-06,9.783580165616177e-06,4.350916726721851e-06,1.2630773646245494e-06,2.2965407284626637e-06,2.06591984244046e-06,2.0805852158631845e-06,1.2321533756159359e-06,1.561362835047677e-06,1.3753805815713995e-05
125,6.768817426099958e-07,1.178367559451207e-06,4.948185162313926e-07,1.3488194693218212e-06,9.19779938568916e-07,9.899579827019738e-07,3.7852894552483848e-06,9.570946531474652e-06,4.234839621796017e-06,1.2513935884460611e-06,2.2447999714045265e-06,1.961205380807892e-06,2.1227689211537467e-06,1.218660709800279e-06,1.5655118174324127e-06,1.428051111626855e-05
126,6.73659265543464e-07,1.1699830542335015e-06,5.062033542934511e-07,1.3283656581521832e-06,9.036644492164921e-07,9.622660229750335e-07,3.815365890708033e-06,9.36756024746828e-06,4.1066052744138045e-06,1.2408788627176407e-06,2.188537999334308e-06,1.884041722299955e-06,2.1807744405119657e-06,1.209370903082511e-06,1.569763411646517e-06,1.4749212364515034e-05
127,6.708313030024691e-07,1.1608930756155564e-06,5.175919509862058e-07,1.3029705594954616e-06,8.862690371615295e-07,9.36620420333987e-07,3.839369148239186e-06,9.175370125246635e-06,3.969480350845753e-06,1.2313324078748077e-06,2.128818887560614e-06,1.8336148937785914e-06,2.252587334512921e-06,1.2045722989617711e-06,1.573887204064313e-06,1.5161403792599608e-05
128,6.684215298316145e-07,1.1512657891185746e-06,5.289683291113944e-07,1.2730334560729723e-06,8.681454239703007e-07,9.13470276947956e-07,3.8577665038080015e-06,8.996959221090182e-06,3.825958484596838e-06,1.2224631862509723e-06,2.067058367204269e-06,1.8095574016477457e-06,2.3363280040806163e-06,1.2043977355832197e-06,1.577698576291273e-06,1.552322769329046e-05
129,6.664536940559221e-07,1.141063818035737e-06,5.404332041843799e-07,1.2391118654577327e-06,8.497243543421883e-07,8.931388136393932e-07,3.870393599015317e-06,8.835938424130185e-06,3.6777633459391644e-06,1.2138914289967665e-06,2.00471613148904e-06,1.811981711623088e-06,2.4305245714084746e-06,1.2088385082061618e-06,1.5812465671838642e-06,1.5842705063512354e-05
130,6.648900314445986e-07,1.1300929551389985e-06,5.521171163882296e-07,1.2019463981552798e-06,8.313141864635713e-07,8.75798805270281e-07,3.876616722068857e-06,8.696530701930998e-06,3.5261476421651564e-06,1.2051610842651588e-06,1.9430826743137013e-06,1.8417829600329815e-06,2.534031976969565e-06,1.2177465329816337e-06,1.584855954989445e-06,1.6128024549953022e-05
131,6.63610615917292e-07,1.1181318524302329e-06,5.641137121672822e-07,1.1623802204115753e-06,8.131753309411028e-07,8.615241773697166e-07,3.875665982528772e-06,8.58269899289009e-06,3.3723218502322206e-06,1.1958022431124462e-06,1.8831771846727725e-06,1.9007229487346222e-06,2.6456627202605924e-06,1.2308063117634505e-06,1.5889771592408868e-06,1.638873543362508e-05
132,6.624181567885503e-07,1.1050366053198592e-06,5.764724670604715e-07,1.1212310175702377e-06,7.955717251475688e-07,8.503509310876598e-07,3.866924586895322e-06,8.49768123051867e-06,3.2176232823676964e-06,1.185425882375536e-06,1.8256739054928824e-06,1.9911243535976885e-06,2.763868833832884e-06,1.2474939039396934e-06,1.5939671542011423e-06,1.66385790362198e-05
133,6.61060731870384e-07,1.0907129284828315e-06,5.892136211414083e-07,1.0792338213075765e-06,7.787503507235918e-07,8.422800703261693e-07,3.850068438467519e-06,8.444214858931263e-06,3.06331255267329e-06,1.1738043615387855e-06,1.7708925228647932e-06,2.115480385509603e-06,2.886659848173213e-06,1.2670950493809336e-06,1.5999496851813617e-06,1.68970428985398e-05
134,6.592516094360349e-07,1.0750329699359667e-06,6.023206875882617e-07,1.0370676988797605e-06,7.629023481008308e-07,8.372364644838061e-07,3.8251073619977065e-06,8.424793006049362e-06,2.9103891431712428e-06,1.1609050173529792e-06,1.7188565940874948e-06,2.276257196577973e-06,3.0116466968562623e-06,1.2887518023945326e-06,1.6068372866259234e-06,1.718840899471508e-05
135,6.56682111612039e-07,1.0578352442321728e-06,6.157186199716939e-07,9.95435049600102e-07,7.481503219126027e-07,8.35063971902144e-07,3.7924349583601252e-06,8.441577704082508e-06,2.7597406795723168e-06,1.1468653262888808e-06,1.669361570660674e-06,2.4758443404790674e-06,3.1360820139132517e-06,1.3114474180992584e-06,1.6144769085242978e-06,1.753936133602775e-05
136,6.530668022771116e-07,1.0389819487579353e-06,6.29261093458314e-07,9.551227385204203e-07,7.345566233113616e-07,8.35588924461165e-07,3.7528789271951767e-06,8.496379273066375e-06,2.612461918834575e-06,1.1318970521765956e-06,1.6220973719891708e-06,2.716468278981349e-06,3.256890311181777e-06,1.3339870314484056e-06,1.6227671326716712e-06,1.7976831301478977e-05
137,6.482142514841835e-07,1.0184107593177574e-06,6.427285761854411e-07,9.169509426659888e-07,7.221545430399759e-07,8.386738232342201e-07,3.7076060265818963e-06,8.590962207921424e-06,2.4700062018715524e-06,1.1161663034455506e-06,1.576848970334486e-06,3.0000745539303393e-06,3.3707244513763334e-06,1.3551043196370101e-06,1.6316652599042e-06,1.852687046220481e-05
138,6.42062407618354e-07,9.961944725501692e-07,6.558511646697879e-07,8.816493547954185e-07,7.10984138459734e-07,8.441891221500781e-07,3.657815186284307e-06,8.727270667866912e-06,2.33405054240508e-06,1.0997335971480449e-06,1.5336129693754378e-06,3.3284687487603426e-06,3.4741455641068943e-06,1.3736749982654682e-06,1.6411200338669422e-06,1.9214207896662392e-05
139,6.34655623887975e-07,9.72575243906728e-07,6.683843265535527e-07,8.497792880544383e-07,7.010904167656137e-07,8.519440672445836e-07,3.6044351406915306e-06,8.907077812929529e-06,2.2062072601427007e-06,1.0825429129702284e-06,1.4925379500814944e-06,3.7038913052520426e-06,3.5639808286405657e-06,1.3888993461079034e-06,1.6509708986599696e-06,2.006176149668507e-05
140,6.261029588061725e-07,9.479027500815068e-07,6.801970131885977e-07,8.217342708442876e-07,6.925073861353713e-07,8.61676791647033e-07,3.548128852836512e-06,9.131191739921034e-06,2.0877923228714144e-06,1.0644288162324147e-06,1.4537963277625743e-06,4.129666115552469e-06,3.6377405555122675e-06,1.400384249461727e-06,1.6608672177442066e-06,2.1089801338128714e-05
141,6.165565454026426e-07,9.225058397401393e-07,6.912730895195912e-07,7.977742487584661e-07,6.852903327614938e-07,8.731354294088498e-07,3.4895954194659787e-06,9.398879856207591e-06,1.9797658319073975e-06,1.0451736719825572e-06,1.4174692644217098e-06,4.610338414369064e-06,3.6939684291247483e-06,1.408143367827087e-06,1.6702413369960372e-06,2.2315026029262915e-05
142,6.061917109490588e-07,8.966147076506886e-07,7.016198709622283e-07,7.780446250568648e-07,6.79568970320664e-07,8.861550988869705e-07,3.4298914405910615e-06,9.70786414766378e-06,1.8827851111561097e-06,1.0246052964473332e-06,1.3834696265244808e-06,5.151138692518414e-06,3.7324375971995156e-06,1.4125037275194176e-06,1.6783336958242243e-06,2.374991877419642e-05
143,5.951714299401928e-07,8.703966774568152e-07,7.111985312566985e-07,7.625764727345992e-07,6.755394409893521e-07,9.00650072899632e-07,3.370556237088087e-06,1.0054573645362949e-05,1.797251413282605e-06,1.0026912573794863e-06,1.351569887685039e-06,5.7571442843399605e-06,3.7540710640867153e-06,1.4139003256732507e-06,1.6842846180145224e-06,2.540247883144187e-05
144,5.836400957918244e-07,8.440335164340639e-07,7.199511877442541e-07,7.513025084591193e-07,6.733892873434151e-07,9.165891261597828e-07,3.3134816466762557e-06,1.0434277018183422e-05,1.7233515999122214e-06,9.796073045941525e-07,1.3215357123547384e-06,6.4326208694263695e-06,3.760591428584996e-06,1.4126625020706376e-06,1.6872271250385965e-06,2.7276200882884757e-05
145,5.71773729982092e-07,8.1773401029852e-07,7.27872010084336e-07,7.44093973127086e-07,6.73216995174702e-07,9.340016411997408e-07,3.2605771489422465e-06,1.0841066147067672e-05,1.6611361207288632e-06,9.557428642240407e-07,1.2932105426095438e-06,7.180737156332235e-06,3.7541119647617536e-06,1.408945118933322e-06,1.686322240762781e-06,2.9370166575606734e-05
146,5.598313147839725e-07,7.917087129038763e-07,7.350298678211489e-07,7.407735773631455e-07,6.749991729206237e-07,9.529516888990388e-07,3.2133936820949682e-06,1.1267768197818222e-05,1.610580208572652e-06,9.316325623388645e-07,1.2664456839756812e-06,8.003482641675379e-06,3.7368497946602515e-06,1.4028157124114157e-06,1.6808917972599502e-06,3.167914503466323e-05
147,5.481410501443883e-07,7.662009646159966e-07,7.415374369900966e-07,7.410834415662726e-07,6.786276375557028e-07,9.734762380253651e-07,3.1729253185037537e-06,1.170572724291803e-05,1.5715793821525651e-06,9.078554030611793e-07,1.2410219484421474e-06,8.901494539803748e-06,3.710912345907691e-06,1.3943796629125705e-06,1.670704035836448e-06,3.419357874703495e-05
148,5.370261067922641e-07,7.415414788240018e-07,7.475415216622595e-07,7.446617617213317e-07,6.839893330592917e-07,9.955324766011375e-07,3.1396784946036587e-06,1.2144537658729746e-05,1.5439130141955572e-06,8.849299539828237e-07,1.2167287514271589e-06,9.873727127739701e-06,3.678045430146329e-06,1.3838506470568986e-06,1.656101927948707e-06,3.689934296649031e-05
149,5.267376446821532e-07,7.181286940201618e-07,7.532401942937373e-07,7.510807442199459e-07,6.910084959034084e-07,1.018957755883967e-06,3.113884342669208e-06,1.2572431325233863e-05,1.5272521264152862e-06,8.632295368765523e-07,1.193489819894831e-06,1.0917106957890235e-05,3.6394096375793137e-06,1.3715494025884969e-06,1.637762937710133e-06,3.9777150610353327e-05
150,5.174429416238183e-07,6.963500458862336e-07,7.588542331994234e-07,7.59914810955563e-07,6.996091504804545e-07,1.0434378319257091e-06,3.0956786941866656e-06,1.2977902306384889e-05,1.5212617570469235e-06,8.429506967248582e-07,1.1713426596513505e-06,1.2026266494399922e-05,3.595510414591683e-06,1.3578367872928444e-06,1.616323186307966e-06,4.2801411424429944e-05
151,5.092485187545488e-07,6.76525324437951e-07,7.645568408759514e-07,7.707903671447478e-07,7.096650780892671e-07,1.0684868898396225e-06,3.085174403917845e-06,1.335171743667143e-05,1.5257287677398629e-06,8.241211967101875e-07,1.1503027322289011e-06,1.3193398006236291e-05,3.5462666806440767e-06,1.3430188285259998e-06,1.5921684111195183e-06,4.5938563535325026e-05
152,5.022337862097501e-07,6.588844659203538e-07,7.704378719081336e-07,7.834235923198943e-07,7.21004717282624e-07,1.0934488886800619e-06,3.0824657526443193e-06,1.3687596759133538e-05,1.5405833108490988e-06,8.066249296732121e-07,1.130255050043349e-06,1.4408230467253849e-05,3.4911885365925004e-06,1.3273070089792099e-06,1.5654175179156903e-06,4.914537448092468e-05
153,4.96483086794962e-07,6.435530477817537e-07,7.765127999426425e-07,7.976411336308143e-07,7.334433404446966e-07,1.117543833341135e-06,3.087664700224944e-06,1.3980977762298013e-05,1.565805323234626e-06,7.902636678815222e-07,1.1109165072254896e-06,1.56580000558586e-05,3.429718264387599e-06,1.310846187766128e-06,1.5360342530396583e-06,5.2367775831180816e-05
154,4.92079342232322e-07,6.305505169389647e-07,7.827249054755989e-07,8.133416103829481e-07,7.467943885094223e-07,1.1399939955725166e-06,3.100990239843093e-06,1.4227319794834475e-05,1.601326132730033e-06,7.74845735695099e-07,1.0918746564203495e-06,1.6927244463068508e-05,3.3617056752178402e-06,1.2937321988267155e-06,1.5040533713918945e-06,5.55403930106157e-05
155,4.890667089992651e-07,6.19805627062972e-07,7.889402129110921e-07,8.304030794384516e-07,7.608499569422229e-07,1.1602090138825585e-06,3.1227940807046295e-06,1.4421880197569683e-05,1.6470098627708481e-06,7.60250602689213e-07,1.072712378395615e-06,1.8197390381258067e-05,3.2878445439902793e-06,1.275999167961687e-06,1.4698084100761323e-06,5.858715723670425e-05
156,4.874294955356862e-07,6.111742958186224e-07,7.949611674548612e-07,8.485987637678028e-07,7.75345719394377e-07,1.177918527221504e-06,3.153416132983368e-06,1.4561064249559559e-05,1.7027313055733293e-06,7.464532943728986e-07,1.0531194885954626e-06,1.9446439929371266e-05,3.2098680904556182e-06,1.2576321998292548e-06,1.4339813270758e-06,6.14246761959896e-05
157,4.870859957235985e-07,6.044464231855675e-07,8.005462453509799e-07,8.675814359750301e-07,7.899452444426507e-07,1.193172528020664e-06,3.192919267564698e-06,1.4643936358590425e-05,1.7684774578776773e-06,7.335088495428193e-07,1.0328833234794804e-06,2.0649394585484724e-05,3.1303639911863973e-06,1.238617387849695e-06,1.3974457564913476e-06,6.397047351596811e-05
158,4.878968387909609e-07,5.993491261107935e-07,8.054466688862147e-07,8.869539654208448e-07,8.042694755380274e-07,1.2062352110233418e-06,3.2408705331012013e-06,1.4672931553572688e-05,1.8443323258363255e-06,7.214885315114698e-07,1.0118628985159228e-06,2.1779846473596684e-05,3.052259265219598e-06,1.2189740076027261e-06,1.3610934977919735e-06,6.615494578609368e-05
159,4.897150246086323e-07,5.956038451992211e-07,8.094592728674182e-07,9.063690171530061e-07,8.179467827516845e-07,1.2174371576744171e-06,3.2962900774316247e-06,1.465371679628572e-05,1.930329344216765e-06,7.104132537658627e-07,9.900833278727705e-07,2.2812530084785858e-05,2.9782753790074366e-06,1.1987514792451757e-06,1.3257999527720948e-06,6.793079666034266e-05
160,4.924595580656959e-07,5.930572611647142e-07,8.124261215574456e-07,9.255580878469904e-07,8.306391470298564e-07,1.2270694167053115e-06,3.3577382043073965e-06,1.4594332586773515e-05,2.026338687629594e-06,7.002576397995868e-07,9.678267092467118e-07,2.372620564324039e-05,2.9106227858865306e-06,1.1780352053934325e-06,1.2924269733159393e-06,6.927400374889521e-05
161,4.961505564259116e-07,5.917604446722835e-07,8.141817007677663e-07,9.442709923104739e-07,8.420806183092568e-07,1.2354081508533647e-06,3.4234544579198682e-06,1.450370952759204e-05,2.1321374808690553e-06,6.91009129037871e-07,9.455419327354753e-07,2.4505996283756557e-05,2.850903193242923e-06,1.1569628359011953e-06,1.2617444981524877e-06,7.017715330206922e-05
162,5.008736939073505e-07,5.918900602856201e-07,8.14516856474837e-07,9.622360494150922e-07,8.521965251936856e-07,1.242837544683774e-06,3.4915166151086275e-06,1.4390174737045162e-05,2.2476973696508963e-06,6.827012110272165e-07,9.23640123626672e-07,2.514404342386791e-05,2.800080074478215e-06,1.135707751089843e-06,1.234340846170675e-06,7.064001130222558e-05
163,5.067181363972205e-07,5.936027210203227e-07,8.131490010466752e-07,9.79208950138502e-07,8.612344677470295e-07,1.2499156225253961e-06,3.5599534921964444e-06,1.4260973767637478e-05,2.3735977107059172e-06,6.75397812859734e-07,9.023584956322494e-07,2.5637520977503747e-05,2.7584910490527007e-06,1.114440288606239e-06,1.21060138262119e-06,7.066080375208217e-05
164,5.137453684955422e-07,5.969524258862873e-07,8.096967360528808e-07,9.950436227043558e-07,8.698004253607469e-07,1.2572997703390214e-06,3.6267109915939807e-06,1.4122894388630788e-05,2.5112962665342734e-06,6.691621401366448e-07,8.817636716021684e-07,2.5984851178837636e-05,2.725925314044275e-06,1.0933120938876354e-06,1.1907375545738423e-06,7.023227774252939e-05
165,5.219841918047883e-07,6.01877577069156e-07,8.037561957225433e-07,1.009755301265611e-06,8.788280327169722e-07,1.2656034733515718e-06,3.6896234499571197e-06,1.39830065436762e-05,2.6630328612859162e-06,6.640523594520707e-07,8.618517137073858e-07,2.618376197400366e-05,2.7018351429210496e-06,1.0724450044714118e-06,1.1748143347016144e-06,6.934629573441657e-05
166,5.314335049745376e-07,6.08220432366617e-07,7.950849244185658e-07,1.023593730648485e-06,8.89515381127211e-07,1.275301206500205e-06,3.746723419612169e-06,1.3848906310536265e-05,2.831441976213677e-06,6.601699336358469e-07,8.426605107122886e-07,2.6233788146566315e-05,2.6856965201500316e-06,1.051902040821971e-06,1.1627626377902707e-06,6.800386641836474e-05
167,5.420737791468115e-07,6.157561335718529e-07,7.837231656860999e-07,1.0370521515821926e-06,9.032100429452883e-07,1.2867095636639931e-06,3.796778404519132e-06,1.3728565037776885e-05,3.0191589906766357e-06,6.576998561070331e-07,8.243172102860481e-07,2.6140857162550835e-05,2.6772849773025278e-06,1.0316766657146357e-06,1.1544399968261768e-06,6.622341355827941e-05
168,5.538707549283359e-07,6.242045647692252e-07,7.699344756780733e-07,1.0507823822922192e-06,9.212957672632906e-07,1.299981836382569e-06,3.839469260781413e-06,1.3629921034523361e-05,3.2287431977274793e-06,6.568627523809694e-07,8.070035602038041e-07,2.591981903784779e-05,2.6766653766550173e-06,1.01169514452671e-06,1.1497495373982287e-06,6.404379830375586e-05
169,5.66754190365445e-07,6.332296465971597e-07,7.540451978575538e-07,1.0655174463917063e-06,9.451423619805516e-07,1.315096317004773e-06,3.874972519449329e-06,1.3560172315742095e-05,3.463015613764483e-06,6.5782745381647e-07,7.909013372049584e-07,2.5593364935449603e-05,2.6840325451990835e-06,9.918382499887902e-07,1.1487002455260158e-06,6.152268011612448e-05
170,5.805907179014176e-07,6.424476954878869e-07,7.363425814751712e-07,1.0820314665809223e-06,9.76075777264199e-07,1.3319145591773195e-06,3.9034099751446225e-06,1.352486656802126e-05,3.725484519673084e-06,6.606832693855011e-07,7.761854227703028e-07,2.518835739619538e-05,2.699584375847767e-06,9.720346228486044e-07,1.1513582838570443e-06,5.8731598699533e-05
171,5.951897138649446e-07,6.514420584902961e-07,7.171064818014359e-07,1.1011099595401378e-06,1.0153265308820827e-06,1.3503364445830463e-06,3.9246968201505734e-06,1.3527349816219833e-05,4.020443228435883e-06,6.654677711169016e-07,7.630308494506318e-07,2.4731605999864483e-05,2.7233971257215193e-06,9.523670553824043e-07,1.1577794570590196e-06,5.574902289229321e-05
172,6.103475934334674e-07,6.598142172737698e-07,6.967051954829138e-07,1.123548000026001e-06,1.063991146114601e-06,1.3704103641568385e-06,3.938741154920115e-06,1.3569002259624801e-05,4.352630288687329e-06,6.721754316786429e-07,7.51570562357426e-07,2.4246700524378466e-05,2.75530027872292e-06,9.330986030117176e-07,1.1679843961001708e-06,5.265316032482912e-05
173,6.258896573936517e-07,6.67286124421882e-07,6.75624468559691e-07,1.150124334228729e-06,1.1230230110071113e-06,1.3922592884597143e-06,3.945583878033004e-06,1.3649889786337119e-05,4.726645712433005e-06,6.807226243673181e-07,7.418342940640318e-07,2.375234110428814e-05,2.7948894778797877e-06,9.14632856439543e-07,1.1819360940807656e-06,4.9516594752784746e-05
174,6.416726469947911e-07,6.737559238118657e-07,6.543943775131351e-07,1.1815039085383936e-06,1.19323346035177e-06,1.4158936517983934e-06,3.9453033406779355e-06,1.3769329442574171e-05,5.146413410061453e-06,6.90912249693248e-07,7.337319377290717e-07,2.326182592797807e-05,2.8416654805114563e-06,8.974547161768154e-07,1.1994857988093953e-06,4.6403545337674625e-05
175,6.575527067593158e-07,6.79252622478395e-07,6.335020437199957e-07,1.2181516819682607e-06,1.2753274847025393e-06,1.4410678016123477e-06,3.937838530970415e-06,1.3926313257936323e-05,5.614838522114873e-06,7.024342621994948e-07,7.271071183184021e-07,2.2783194820856776e-05,2.8951189747831743e-06,8.820674728429781e-07,1.22031554525098e-06,4.3368868908956344e-05
176,6.733728016351395e-07,6.838778060766954e-07,6.133535524353408e-07,1.2603445369753453e-06,1.3700005727612433e-06,1.467228472071289e-06,3.922916867701054e-06,1.4119813655564641e-05,6.13363065280198e-06,7.149138849693709e-07,7.218375590359703e-07,2.231952928504226e-05,2.954735098218106e-06,8.689158820636766e-07,1.2439126595560944e-06,4.0457892631634674e-05
177,6.890040141197256e-07,6.877914481406134e-07,5.942608336363701e-07,1.308290802274182e-06,1.478040659708369e-06,1.4935521723750968e-06,3.900151232079303e-06,1.434890839541354e-05,6.703234938251681e-06,7.280001899519202e-07,7.178961996776971e-07,2.1869075154361416e-05,3.0200322784493436e-06,8.58305084490675e-07,1.2696183208236231e-06,3.770717166338506e-05
178,7.043779789132676e-07,6.911911746037105e-07,5.764257267315523e-07,1.3623094657284864e-06,1.600354144977896e-06,1.519098044192733e-06,3.869295189515689e-06,1.4612744754160911e-05,7.322854638124078e-06,7.414446418556024e-07,7.153205851258361e-07,2.1425443714231758e-05,3.0906579018258097e-06,8.503644388143691e-07,1.2967594628141024e-06,3.514614936634877e-05
179,7.194654211101102e-07,6.942501655276475e-07,5.599382695940778e-07,1.42296035176807e-06,1.7379074264931845e-06,1.5430338236054374e-06,3.83059046813166e-06,1.4910434185200733e-05,7.990517492965775e-06,7.551274965208081e-07,7.141445703350153e-07,2.0978586801968336e-05,3.166461848691925e-06,8.450588918567718e-07,1.3247705765128492e-06,3.279892716699815e-05
180,7.342577431226678e-07,6.970616195680405e-07,5.448342475344461e-07,1.4910269942502166e-06,1.8916285939136287e-06,1.5647806223422374e-06,3.7850373129683764e-06,1.5240869358496336e-05,8.703025957968926e-06,7.690306699802417e-07,7.143449925460646e-07,2.0516870545792965e-05,3.2474410338482346e-06,8.422006365350224e-07,1.3532239079550392e-06,3.068557924936134e-05
181,7.487744433520355e-07,6.996383567064133e-07,5.311932057066801e-07,1.567383706918235e-06,2.0622939890528166e-06,1.5839870722105812e-06,3.7343864580222596e-06,1.5602227928352374e-05,9.455714114208898e-06,7.831658951569016e-07,7.158085079076462e-07,2.0029784842269863e-05,3.333509351777444e-06,8.414630395971341e-07,1.3817736701186973e-06,2.8823066871991314e-05
182,7.630539962558579e-07,7.019560512208393e-07,5.191722646779052e-07,1.6528889135307195e-06,2.2503978977021395e-06,1.6004262856102433e-06,3.680828753705194e-06,1.5991085955936233e-05,1.0242250898734476e-05,7.975171492564197e-07,7.183563441772095e-07,1.9510171687198222e-05,3.4242597537530013e-06,8.424407302928692e-07,1.410037353815198e-06,2.7225880554390093e-05
183,7.771273560004236e-07,7.040185440552059e-07,5.089525990330532e-07,1.748392993513046e-06,2.456021172440182e-06,1.6139472932918779e-06,3.6265843961488464e-06,1.6401828293282945e-05,1.1054706141932269e-05,8.120741999831577e-07,7.218725370541037e-07,1.895468333702625e-05,3.5189960949353223e-06,8.44746707697942e-07,1.4374698693260984e-06,2.590640312258866e-05
184,7.909956518040699e-07,7.059281810549114e-07,5.006784582347685e-07,1.8548001454301308e-06,2.6787412350074836e-06,1.624504983532476e-06,3.5735745126283933e-06,1.6827125583652154e-05,1.1883632244550838e-05,8.269008383847142e-07,7.264709245762647e-07,1.8362079663564853e-05,3.617073653725994e-06,8.480688133172627e-07,1.4633115587503965e-06,2.4874966129678012e-05
185,8.045999604825845e-07,7.079125335354711e-07,4.944249240058386e-07,1.9730705827794457e-06,2.9176185660627504e-06,1.6322259330152146e-06,3.52320586850753e-06,1.725926181292161e-05,1.2717853298672166e-05,8.42118866386081e-07,7.325497999384929e-07,1.77308495572317e-05,3.71825071563913e-06,8.521291868671938e-07,1.4866620154701116e-06,2.4139626666545584e-05
186,8.177815371926436e-07,7.102685182081892e-07,4.901963215696404e-07,2.104137645560767e-06,3.171264874956586e-06,1.63746106574865e-06,3.4763326278755233e-06,1.7691738714674657e-05,1.354427015225251e-05,8.5784214056994e-07,7.406833925052768e-07,1.7058594576909986e-05,3.8227173313038995e-06,8.565897596850359e-07,1.5066863542703119e-06,2.370574444406992e-05
187,8.302719798898348e-07,7.13260847702453e-07,4.87952799424622e-07,2.24880221910034e-06,3.4379556973125955e-06,1.64078186673194e-06,3.4334718978827996e-06,1.8120953126146705e-05,1.43482231728784e-05,8.741763956698381e-07,7.51456232351208e-07,1.634389550401942e-05,3.930824956725581e-06,8.61025611089265e-07,1.5228396686087877e-06,2.357544187764755e-05
188,8.417358983971244e-07,7.170538010539728e-07,4.876276737644858e-07,2.407638926634008e-06,3.715716492889688e-06,1.6429003807210496e-06,3.395150579037083e-06,1.8547551603101944e-05,1.511434486779205e-05,8.912876307689749e-07,7.653531822066834e-07,1.5588802787293615e-05,4.042876930114251e-06,8.650561456377606e-07,1.534944933069123e-06,2.374699908635415e-05
189,8.518347842067656e-07,7.216996117660035e-07,4.891248483175247e-07,2.5808959391208783e-06,4.002352828011958e-06,1.6445270395331221e-06,3.3621628903611715e-06,1.8976612484978123e-05,1.5827447766111613e-05,9.094327888107111e-07,7.827240320450604e-07,1.479965483792029e-05,4.159143604103284e-06,8.685682127953798e-07,1.5431153949645967e-06,2.4214194627841362e-05
190,8.60276774412519e-07,7.27149487600852e-07,4.923173278259166e-07,2.7684186348845515e-06,4.295458699825271e-06,1.6462335618355757e-06,3.335586870974492e-06,1.9416005801935875e-05,1.6473289380102532e-05,9.288888684148168e-07,8.037846640692849e-07,1.3985583436523858e-05,4.2798607157708756e-06,8.718332632660158e-07,1.5476069966457165e-06,2.4965626941369224e-05
191,8.668518139266065e-07,7.332758853423267e-07,4.970376842835466e-07,2.969634262031136e-06,4.592366778842073e-06,1.6483956605577446e-06,3.3165290839714736e-06,1.9873573052662202e-05,1.703933251910897e-05,9.498736867929727e-07,8.286265637959696e-07,1.3156113257184263e-05,4.4049960397823915e-06,8.754013688078033e-07,1.5486423651774374e-06,2.5984191586928628e-05
192,8.71455133072905e-07,7.399055983908068e-07,5.030605345735325e-07,3.1835361105974314e-06,4.889996828076529e-06,1.6512013909873773e-06,3.305755205448069e-06,2.0355305350426338e-05,1.751543695671036e-05,9.72549992215436e-07,8.572302733450368e-07,1.2319943205206184e-05,4.533889590042176e-06,8.798860205450848e-07,1.5462966041507434e-06,2.7246868680401726e-05
193,8.740777580572041e-07,7.468377966320037e-07,5.101007794133437e-07,3.408650716539529e-06,5.184891293580493e-06,1.654671650476644e-06,3.3034324969646152e-06,2.0865849115787195e-05,1.789401366607301e-05,9.970397854963894e-07,8.894777956248353e-07,1.148536774043934e-05,4.665036823130118e-06,8.858320532218701e-07,1.540560983925326e-06,2.8724670725126967e-05
194,8.74759950899832e-07,7.538446030824053e-07,5.178350234722246e-07,3.6430628742579255e-06,5.47382652630211e-06,1.6586833696663236e-06,3.3090481409112424e-06,2.140985830388346e-05,1.8169095869750677e-05,1.0233899470340563e-06,9.251736903996864e-07,1.0660989544949609e-05,4.796174368781331e-06,8.936861650028632e-07,1.5315262984486574e-06,3.0382443151543014e-05
195,8.735534413439848e-07,7.60695587324713e-07,5.25954805670776e-07,3.8844547374005156e-06,5.754780508900359e-06,1.6629948759416342e-06,3.3214105022868285e-06,2.199195237329814e-05,1.8334526854143995e-05,1.0515488776202803e-06,9.64079831104898e-07,9.855710982604974e-06,4.92460880728974e-06,9.037757255093546e-07,1.5195157262583922e-06,3.21785501454981e-05
196,8.705121489403384e-07,7.6723324189525e-07,5.34257904535358e-07,4.130042775548962e-06,6.027523951966114e-06,1.6672731350213075e-06,3.3386584822861903e-06,2.261511005065503e-05,1.8382866507556643e-05,1.0813668109013523e-06,1.0059302563523444e-06,9.078191022761389e-06,5.047625097717875e-06,9.162792586063124e-07,1.5050925001002477e-06,3.4065081453331466e-05
197,8.656861596571685e-07,7.734570540705277e-07,5.427372386513177e-07,4.3764204249552885e-06,6.2933294982082655e-06,1.6711412890489694e-06,3.3583133330525453e-06,2.327943223472865e-05,1.830703025120702e-05,1.1125617991327144e-06,1.0504571579861158e-06,8.336246282203567e-06,5.1628010815873106e-06,9.312156720366926e-07,1.488963983531693e-06,3.5989235376815366e-05
198,8.591573191157547e-07,7.795344991997026e-07,5.51594902009015e-07,4.619398481339849e-06,6.553993813204267e-06,1.6742429556554278e-06,3.3774798574874462e-06,2.3982714800400112e-05,1.8104650595197742e-05,1.1446793072062585e-06,1.0974932242355468e-06,7.636396670404192e-06,5.268099657486902e-06,9.484541854034374e-07,1.4718232118811845e-06,3.7895877512275275e-05
199,8.51122745545885e-07,7.857147023487328e-07,5.61157210557466e-07,4.85397844649516e-06,6.811002260823648e-06,1.6762864904445467e-06,3.393262037415709e-06,2.4721789673267724e-05,1.77822629301597e-05,1.1771593191424314e-06,1.1470733832620147e-06,6.983611569391009e-06,5.361806513513731e-06,9.677332519355956e-07,1.4541919795772311e-06,3.973098599384172e-05
200,8.418971531166657e-07,7.922056143095624e-07,5.717558482609577e-07,5.074667463520773e-06,7.06549806249531e-06,1.677055785195379e-06,3.4032920059384937e-06,2.5492602364826038e-05,1.7355908661419825e-05,1.2095240588449743e-06,1.199427931203626e-06,6.3812696002750545e-06,5.442531368965986e-06,9.886708317225288e-07,1.436357811041972e-06,4.144569143029064e-05
201,8.318103991672968e-07,7.990895712042227e-07,5.836518437136514e-07,5.276206869345517e-06,7.3188460466776286e-06,1.676422736551406e-06,3.406120713323113e-06,2.628874386306646e-05,1.684758312363413e-05,1.2415215991978603e-06,1.2548802120175233e-06,5.831263574057871e-06,5.509346053683656e-06,1.0107875689232089e-06,1.4184503227350896e-06,4.300007325288622e-05
202,8.211215316568238e-07,8.063077227383486e-07,5.970064089563354e-07,5.454406892692393e-06,7.573170686973793e-06,1.6743938734708532e-06,3.4012640033115297e-06,2.7100490657476855e-05,1.6280272368720893e-05,1.2730714728201576e-06,1.3137129803155101e-06,5.334240339087975e-06,5.561911761459595e-06,1.0335937748778438e-06,1.4005823319436637e-06,4.4365293818869604e-05
203,8.099817065516251e-07,8.137033005037816e-07,6.118670481083439e-07,5.606618127144431e-06,7.831570238395245e-06,1.6711738352417566e-06,3.388911825204927e-06,2.7916065406913997e-05,1.5674636782315733e-05,1.304080608904749e-06,1.3760769073010542e-06,4.890019897584336e-06,5.6004515233050475e-06,1.056728491918972e-06,1.382922606055238e-06,4.552291390516726e-05
204,7.984289876049274e-07,8.21078535454159e-07,6.281626765169588e-07,5.731662790118118e-06,8.098061029455653e-06,1.6671982636656985e-06,3.369467732454083e-06,2.872414427681438e-05,1.5048004385509993e-05,1.3343327008525193e-06,1.4419787938167407e-06,4.498054269431841e-06,5.6255848593264094e-06,1.0800546117544595e-06,1.3656389388425207e-06,4.6461065919651425e-05
205,7.864359220119692e-07,8.282023943066227e-07,6.457172689800458e-07,5.829420248299098e-06,8.3773794088933e-06,1.6631030570569668e-06,3.343115735705134e-06,2.9515696014851024e-05,1.4414523545122165e-05,1.3635116164526478e-06,1.5113275244322385e-06,4.157704061476333e-06,5.638124681120691e-06,1.1036157414296665e-06,1.3487776196696631e-06,4.7168652294723233e-05
206,7.739891521107622e-07,8.347725967048694e-07,6.642843143764424e-07,5.9003144592484645e-06,8.674688369735188e-06,1.6596328081917382e-06,3.309620138068796e-06,3.0284431467672697e-05,1.378557809835628e-05,1.391245088383495e-06,1.5840032428246483e-06,3.868274659417852e-06,5.638873135350164e-06,1.1274862254744984e-06,1.332208021676888e-06,4.763112843685171e-05
207,7.611316424840937e-07,8.404189583661225e-07,6.835827574304186e-07,5.944761235993031e-06,8.995192655146262e-06,1.6575241629007264e-06,3.268439614851514e-06,3.1026061705146395e-05,1.3170358198689838e-05,1.4171320497165088e-06,1.6598718268465644e-06,3.6288897466848308e-06,5.628388173392651e-06,1.1516571469205407e-06,1.3156882072650123e-06,4.783144225238544e-05
208,7.479349360088743e-07,8.447986111518394e-07,7.033205154056714e-07,5.9626152501222145e-06,9.343705306167372e-06,1.65740063136175e-06,3.2189593944350093e-06,3.173681323464306e-05,1.2576580492537178e-05,1.4408105421421664e-06,1.7386924663677738e-06,3.4382899693760594e-06,5.606734324931538e-06,1.1760248086351094e-06,1.2989851698012162e-06,4.775561434155536e-05
209,7.344630106717228e-07,8.477205584169813e-07,7.232404924316001e-07,5.952916885016959e-06,9.724202566158451e-06,1.659685625633116e-06,3.1606188803298987e-06,3.241157060513043e-05,1.2011112814449764e-05,1.4620091271607327e-06,1.820002316604618e-06,3.2946259414408922e-06,5.573274137975356e-06,1.2004029067433433e-06,1.2819540430694326e-06,4.739941527795784e-05
210,7.207798788129333e-07,8.491899296671259e-07,7.431788919641136e-07,5.91419969951081e-06,1.0139339241870095e-05,1.664532033529427e-06,3.0929732555077716e-06,3.30418010395151e-05,1.1480183481783757e-05,1.4805358252404617e-06,1.9030903011625144e-06,3.195321898890924e-06,5.526524048994607e-06,1.2244899135885272e-06,1.2645404820309864e-06,4.677311292949526e-05
211,7.06959247217202e-07,8.493386807856667e-07,7.630466792670459e-07,5.845153083535261e-06,1.0589957201307323e-05,1.6717881161785479e-06,3.0158241250702683e-06,3.361374583745988e-05,1.0989054970649432e-05,1.496322050424152e-06,1.987081762847996e-06,3.137044679735411e-06,5.464191763025353e-06,1.2478685670636852e-06,1.2467264512771117e-06,4.590216836258728e-05
212,6.930943936858033e-07,8.48324050906958e-07,7.827409285039957e-07,5.745263021520919e-06,1.107477869794848e-05,1.6810320672114949e-06,2.929408490934761e-06,3.4108375425294e-05,1.0541390077035368e-05,1.5095370218203366e-06,2.0710660006745634e-06,3.1157343705790106e-06,5.3837094808670326e-06,1.2701431306386996e-06,1.2284810455025691e-06,4.482269155938431e-05
213,6.793338958700816e-07,8.462824260527012e-07,8.0208594317676e-07,5.615272581892932e-06,1.1590394532225609e-05,1.6916655707975672e-06,2.8345519351099874e-06,3.450444658553902e-05,1.0138713744977868e-05,1.5205909754504844e-06,2.154148787916302e-06,3.1266449908453865e-06,5.2832989448831516e-06,1.2911240975586223e-06,1.2097908399648192e-06,4.357355568606582e-05
214,6.658772780461569e-07,8.433491851946979e-07,8.208537190175903e-07,5.457424025523813e-06,1.2131490764309634e-05,1.702977543968772e-06,2.7327242083201486e-06,3.4783998544597156e-05,9.780197728346618e-06,1.5299743712504165e-06,2.235371364164325e-06,3.164409049721398e-06,5.1629018499653876e-06,1.3108522425440065e-06,1.1907418708260515e-06,4.219047012158176e-05
215,6.529033087745693e-07,8.397265912805063e-07,8.388612761521549e-07,5.27541760657213e-06,1.2691429705678713e-05,1.7141457001897597e-06,2.625919927491547e-06,3.49380646164509e-05,9.462687785205046e-06,1.5380829533296858e-06,2.3136164377279918e-06,3.223209831876706e-06,5.024264132093039e-06,1.3294284873398777e-06,1.1715274494739133e-06,4.0705541986638625e-05
216,6.405163604802348e-07,8.357618657314316e-07,8.560649784919003e-07,5.074043148251845e-06,1.3263366598297317e-05,1.7242934535545896e-06,2.516330870088763e-06,3.49699943347493e-05,9.180816821693945e-06,1.5451082609719126e-06,2.387695090174372e-06,3.297109977197793e-06,4.870285748676537e-06,1.3468245008656002e-06,1.1523467609161804e-06,3.9150104524726354e-05
217,6.287677190551655e-07,8.31947481782038e-07,8.725484663301695e-07,4.858570011970874e-06,1.3841603935270136e-05,1.7326361438677815e-06,2.4059939437450583e-06,3.489420953999412e-05,8.927288024123038e-06,1.5509834250536894e-06,2.45658578766982e-06,3.380435280032069e-06,4.704299308660598e-06,1.3628359362768519e-06,1.1332900653977553e-06,3.755650658599733e-05
218,6.177226985897361e-07,8.28806884351896e-07,8.884425209057219e-07,4.634097077761876e-06,1.4422486716136158e-05,1.7385584829257724e-06,2.2966596744689365e-06,3.473051942677273e-05,8.693507454442705e-06,1.5554356812736875e-06,2.5195697158754707e-06,3.468038828358687e-06,4.529685999890547e-06,1.3771759581698925e-06,1.114287471614553e-06,3.595697709376614e-05
219,6.075040338941687e-07,8.267554937949535e-07,9.038568639097165e-07,4.405056030718708e-06,1.5004350042212065e-05,1.7415364064983443e-06,2.189895170311198e-06,3.449732039051642e-05,8.47047034503711e-06,1.558141596429206e-06,2.576146062516041e-06,3.5553754902709943e-06,4.349785517430593e-06,1.3895874275118362e-06,1.0951096205720165e-06,3.4380846126979014e-05
220,5.982646146164322e-07,8.260330723938788e-07,9.188201280339657e-07,4.17498772422073e-06,1.5586528660327154e-05,1.7410050996079032e-06,2.087274033539788e-06,3.4207560431378516e-05,8.249606729275084e-06,1.5588562896116962e-06,2.6258760784421143e-06,3.6384273009265703e-06,4.167909924098676e-06,1.3998602306950118e-06,1.0753935119509336e-06,3.285329245939471e-05
221,5.90133670178926e-07,8.267083859095812e-07,9.332296942638881e-07,3.946589813474413e-06,1.6167895957420298e-05,1.7363264990029787e-06,1.9905157872796628e-06,3.3868231793774545e-05,8.023169533668402e-06,1.5574698406225144e-06,2.668274177868022e-06,3.7135415232139483e-06,3.987354037284194e-06,1.4077672837526812e-06,1.054721993620432e-06,3.139701163868671e-05
222,5.831981698798392e-07,8.287151055944083e-07,9.468306122525277e-07,3.7219150749678916e-06,1.6745685435343222e-05,1.7269436606926363e-06,1.9014765211457407e-06,3.348133026864306e-05,7.784150537450446e-06,1.5540477730133895e-06,2.7027305629151205e-06,3.777304272340854e-06,3.8113856179538886e-06,1.4130878296790916e-06,1.032788228634218e-06,3.0034813306764564e-05
223,5.774984181673558e-07,8.31893501897281e-07,9.59242405974412e-07,3.502615671461534e-06,1.731517494867183e-05,1.7126582598666685e-06,1.8219880375483081e-06,3.3044987094158755e-05,7.526928122365927e-06,1.5488447823004306e-06,2.7285393412672784e-06,3.826596069761591e-06,3.6432185182776203e-06,1.415762996333263e-06,1.0095652769111015e-06,2.8790904974003965e-05
224,5.730167595315088e-07,8.360184122843338e-07,9.700612857526556e-07,3.2901744940472436e-06,1.7870167644826572e-05,1.6938272549069762e-06,1.7536681553161479e-06,3.2555231166805576e-05,7.249215578390045e-06,1.5422254132627977e-06,2.745126458348568e-06,3.858731811333767e-06,3.4859643734453958e-06,1.4159616540588632e-06,9.85339188247288e-07,2.7690214624943083e-05
225,5.696814664839483e-07,8.408038582046717e-07,9.790167702357533e-07,3.086042144034564e-06,1.840358092097398e-05,1.6713052875323916e-06,1.6978348767189192e-06,3.2008587020136394e-05,6.9534093204654625e-06,1.5345038637947899e-06,2.7522730080452386e-06,3.871409844836282e-06,3.342579354537893e-06,1.4139769259330593e-06,9.605826646019179e-07,2.6756217815746125e-05
226,5.673812523674647e-07,8.459284454655578e-07,9.861040250793952e-07,2.891643608940241e-06,1.8907314346603272e-05,1.6461592399181607e-06,1.6555271566917529e-06,3.140475404492961e-05,6.645725334584359e-06,1.525829307012133e-06,2.7500465352434274e-06,3.862619063649985e-06,3.2158514648121607e-06,1.410149975808339e-06,9.357907786977791e-07,2.600889406047557e-05
227,5.659680643549585e-07,8.511329740164093e-07,9.91616371085003e-07,2.7083295253923324e-06,1.9371283548094233e-05,1.6193594738522115e-06,1.627533068625802e-06,3.074856302640286e-05,6.334074572882415e-06,1.5162004222789087e-06,2.7386102481506137e-06,3.8309618194952194e-06,3.1084320929867207e-06,1.4049045585811517e-06,9.11418280995503e-07,2.546424727396255e-05
228,5.652436374981582e-07,8.563332066739363e-07,9.96060085131767e-07,2.5373513093527366e-06,1.978278916435603e-05,1.5916295221126428e-06,1.6143933514579135e-06,3.0050882552002205e-05,6.026289702376677e-06,1.5055373237316658e-06,2.718238269320344e-06,3.776219636166426e-06,3.0228141410728622e-06,1.3987670706539662e-06,8.879385377281279e-07,2.5134805476976364e-05
229,5.649393031126269e-07,8.616447276298074e-07,1.0000074085899256e-06,2.3798371223843986e-06,2.012745883248639e-05,1.5634981237737193e-06,1.6164407781096749e-06,2.9328464320165644e-05,5.7292077876628385e-06,1.4937365422727003e-06,2.6893927236917735e-06,3.699515440981715e-06,2.961178555007744e-06,1.3922919901414826e-06,8.659068365598073e-07,2.502968641464327e-05
230,5.64721973424997e-07,8.673167004965313e-07,1.0039760199418369e-06,2.23671709234748e-06,2.039149888993119e-05,1.5354600747048993e-06,1.6338578562383703e-06,2.8602838391616356e-05,5.448358127174533e-06,1.4807348298342293e-06,2.6526062862115985e-06,3.602974799585796e-06,2.9252184904222704e-06,1.3859639061091147e-06,8.459354204569304e-07,2.5153954792997525e-05
231,5.642556618651716e-07,8.736321458093383e-07,1.0083802755315077e-06,2.10863380301017e-06,2.0564115206982238e-05,1.508056469514883e-06,1.66666773537879e-06,2.7898521165874135e-05,5.187954937808064e-06,1.466588196343079e-06,2.6083170009401807e-06,3.489312037389199e-06,2.9160744858578678e-06,1.380174841885651e-06,8.286251756897999e-07,2.5507943515435606e-05
232,5.632961170086654e-07,8.808136860466379e-07,1.0135203069643196e-06,1.995903875192532e-06,2.0639300205209846e-05,1.4818245401891889e-06,1.7147026474261847e-06,2.724096199661968e-05,4.951025799481059e-06,1.4514765914215195e-06,2.556916534083394e-06,3.361574559023302e-06,2.9343394309735662e-06,1.3752662946245283e-06,8.145519360043368e-07,2.6087101246930544e-05
233,5.617726969398865e-07,8.889733917140637e-07,1.019562248057411e-06,1.8985160522436265e-06,2.061661294923519e-05,1.457294913679964e-06,1.7776373301233098e-06,2.6654597512025568e-05,4.739621854436156e-06,1.4355783076575623e-06,2.49899209575754e-06,3.22296553232208e-06,2.980089739015742e-06,1.371541369068515e-06,8.043004886196887e-07,2.6882351390111373e-05
234,5.598203100906334e-07,8.981121622649326e-07,1.026524182361787e-06,1.8161362857377637e-06,2.0500876458568228e-05,1.4351081390538669e-06,1.8550398016321588e-06,2.6161158590825062e-05,4.555105273671593e-06,1.4189430845555364e-06,2.4355051906135426e-06,3.0766619508704623e-06,3.0529749929588194e-06,1.369215490814355e-06,7.984477127696783e-07,2.7880562182065363e-05
235,5.577303331020197e-07,9.081319464227987e-07,1.0342830160758567e-06,1.7481619401009111e-06,2.0300927185478523e-05,1.4160697961541418e-06,1.9463852746225924e-06,2.577831967297727e-05,4.398415478824076e-06,1.4015365381665864e-06,2.3677354559810126e-06,2.92565876027465e-06,3.152315527303894e-06,1.3683886279216892e-06,7.97482522623722e-07,2.9064764903635034e-05
236,5.558339868602214e-07,9.188811411968569e-07,1.042576663156125e-06,1.6938393801811824e-06,2.0027568042976504e-05,1.401022786843016e-06,2.051066749103631e-06,2.551881996378565e-05,4.270173709585751e-06,1.383404027716204e-06,2.2971008715611397e-06,2.7726875100982774e-06,3.2770925398522944e-06,1.3690880979890724e-06,8.017393430949217e-07,3.0413860545548562e-05
237,5.543914858085009e-07,9.302653178457212e-07,1.0510058335919266e-06,1.652361105632195e-06,1.9691144935837957e-05,1.3906664818457327e-06,2.1684283274340263e-06,2.5389986180918768e-05,4.170678982899127e-06,1.3647623897586634e-06,2.225042567881554e-06,2.620178137718459e-06,3.425808484578746e-06,1.3712958062290794e-06,8.113748163707752e-07,3.190199971423986e-05
238,5.535537605398938e-07,9.423448919458614e-07,1.059051239667075e-06,1.6228617078104592e-06,1.9299902615178197e-05,1.3854732141089157e-06,2.297807009245349e-06,2.5393459957979204e-05,4.099987098312871e-06,1.3459595562005725e-06,2.152953918408422e-06,2.4702175200186666e-06,3.5963524141318876e-06,1.3748962011407748e-06,8.263703308412032e-07,3.349914972722887e-05
239,5.53411235612061e-07,9.553206920889987e-07,1.0661129974005918e-06,1.6043192260024053e-06,1.886016486310739e-05,1.3856858262274793e-06,2.4385488813505503e-06,2.5525238153235875e-05,4.0580848663093755e-06,1.3273810712861483e-06,2.082047988159322e-06,2.324555858384724e-06,3.7860566848286664e-06,1.3796156993701307e-06,8.465483310309721e-07,3.517436259421347e-05
240,5.540907199786617e-07,9.694216735282146e-07,1.0716144470374465e-06,1.595441474705387e-06,1.837784163973906e-05,1.3913344084505614e-06,2.589957948689339e-06,2.5776237721621514e-05,4.044958631101871e-06,1.3094211312727154e-06,2.013228986094768e-06,2.1846874257579726e-06,3.991918241624715e-06,1.3850185549850638e-06,8.715865425871722e-07,3.69004573257987e-05
241,5.558166753081767e-07,9.847906976537764e-07,1.0751566404885328e-06,1.5946111961748063e-06,1.7859848088475277e-05,1.4022437380799946e-06,2.7511751747093032e-06,2.6133317298099547e-05,4.060431414053265e-06,1.2925687718097483e-06,1.9470618178699908e-06,2.051922344719635e-06,4.2106965931594e-06,1.3905358779250643e-06,9.010190771791193e-07,3.865690417138544e-05
242,5.588788750431952e-07,1.001456387754481e-06,1.0766136023713973e-06,1.5999066811477153e-06,1.7314742000933532e-05,1.4180178120242925e-06,2.9210465140135593e-06,2.658082921568004e-05,4.103869438765271e-06,1.2774633449966455e-06,1.8837908695662543e-06,1.9274000386522055e-06,4.438788222992005e-06,1.3954936403412323e-06,9.342542461444135e-07,4.0428872459641045e-05
243,5.635452033121567e-07,1.0193979353187565e-06,1.076115815301744e-06,1.6092059777708588e-06,1.6752680459149122e-05,1.4380356184006568e-06,3.09801994190088e-06,2.710298690317069e-05,4.17393003399724e-06,1.2647721268224182e-06,1.8233658407659788e-06,1.8120656451769413e-06,4.6721580227165885e-06,1.3991667068802805e-06,9.70653687263286e-07,4.2203091779925066e-05
244,5.700081810384064e-07,1.0386124171779918e-06,1.0739739409609459e-06,1.6203892364158583e-06,1.6184841336251175e-05,1.461483492977406e-06,3.28004852228683e-06,2.7686708989794583e-05,4.268433913805576e-06,1.2549960774940298e-06,1.7654972556598994e-06,1.706663361566346e-06,4.90649636367456e-06,1.4009188449638453e-06,1.0096260219616082e-06,4.3964240981776175e-05
245,5.784014105635207e-07,1.0591145620356673e-06,1.070599672434101e-06,1.6315998110327882e-06,1.5622418682075118e-05,1.4873902720233932e-06,3.46453189710746e-06,2.8323888337971274e-05,4.384377109729718e-06,1.2483902582603028e-06,1.709749337926939e-06,1.6118202491765946e-06,5.137438819945533e-06,1.4003761306996517e-06,1.0506186661721602e-06,4.5695660575506054e-05
246,5.888405376494935e-07,1.0808981955316733e-06,1.0664539811003771e-06,1.6414626471100037e-06,1.5075505935834704e-05,1.5146701903631022e-06,3.648445061694779e-06,2.9012265767787016e-05,4.518114335545006e-06,1.2450707988875617e-06,1.655626060782329e-06,1.528220672074997e-06,5.360703056745386e-06,1.3974591658763796e-06,1.0930315649608622e-06,4.7383226487796444e-05
247,6.014298800761305e-07,1.1038944796928102e-06,1.0620275910513001e-06,1.649157626144701e-06,1.4552295661123807e-05,1.5422300042502241e-06,3.828753056643552e-06,2.975476860302322e-05,4.665778701252108e-06,1.2452546755870747e-06,1.60260035254511e-06,1.4567927698545486e-06,5.572164455632503e-06,1.3922098165356291e-06,1.136201500896918e-06,4.9017390108705236e-05
248,6.162312213856656e-07,1.1279293800780093e-06,1.057817988283339e-06,1.6543111497999145e-06,1.4058856114344957e-05,1.5691511596655247e-06,4.002993719451489e-06,3.055754509897483e-05,4.823885183289787e-06,1.2494308504053427e-06,1.5501580435803696e-06,1.3988626618063926e-06,5.76795754223741e-06,1.3845664225111569e-06,1.1795091416803541e-06,5.0590458673562885e-05
249,6.332291886168068e-07,1.1527145144798667e-06,1.0543000472977203e-06,1.6567532594878972e-06,1.3599407784288112e-05,1.594905024652437e-06,4.169738827179339e-06,3.142707166244339e-05,4.989812339020146e-06,1.2582844624076997e-06,1.4979511091165698e-06,1.3562703368512482e-06,5.944670957906846e-06,1.3742738323463353e-06,1.2225353324167044e-06,5.209070991260086e-05
250,6.52312503777537e-07,1.1779036018913275e-06,1.0519262995426602e-06,1.6562490264424552e-06,1.31767283506571e-05,1.6195282587453135e-06,4.328675818058637e-06,3.236695044989288e-05,5.1617647883239605e-06,1.2724607561567833e-06,1.4459764528342795e-06,1.3313909103623947e-06,6.0995785566420515e-06,1.3609758533785678e-06,1.2651417790378967e-06,5.349740697024144e-05
251,6.732749701189396e-07,1.2031667327607006e-06,1.0511180934691922e-06,1.6523376301568732e-06,1.2792291542834122e-05,1.6436429414369968e-06,4.480283130431414e-06,3.337526574689133e-05,5.338261800519805e-06,1.2923933788702182e-06,1.3946244192619804e-06,1.3270045293433062e-06,6.230787435700977e-06,1.3444124005919438e-06,1.3074018075651843e-06,5.477979486870547e-05
252,6.958438106027692e-07,1.2281971966853688e-06,1.052200848296133e-06,1.644351305385967e-06,1.24460094674024e-05,1.668246961647614e-06,4.625315235031219e-06,3.444314237876538e-05,5.517935100406784e-06,1.3182903171636176e-06,1.3445651388376884e-06,1.3460792286943374e-06,6.3372952206718304e-06,1.3245713804158408e-06,1.349450469285179e-06,5.59008055151682e-05
253,7.197205259388386e-07,1.2526591151911994e-06,1.0553305627575308e-06,1.6315725823090133e-06,1.2135938882333624e-05,1.6943721083406272e-06,4.7643655958700006e-06,3.555468101727793e-05,5.700149684828792e-06,1.350222099503197e-06,1.2965581089772339e-06,1.3915959330138284e-06,6.418997540308256e-06,1.3016720898965942e-06,1.3913669920330288e-06,5.6824363886962734e-05
254,7.446002173288922e-07,1.2761919592500824e-06,1.0604597669660104e-06,1.6134476783834512e-06,1.185878871336471e-05,1.722816400071379e-06,4.89763731615589e-06,3.668818323701384e-05,5.885780528178791e-06,1.3881966130107654e-06,1.2512855934779239e-06,1.4664936761307942e-06,6.476610698098356e-06,1.276010901689231e-06,1.4331058679790887e-06,5.752309725040685e-05
255,7.701651796469894e-07,1.2985025969291113e-06,1.0673465074657595e-06,1.589793812280991e-06,1.1611623722275975e-05,1.754045504495184e-06,5.024881255858017e-06,3.781811757916734e-05,6.077302963608739e-06,1.4321379069925374e-06,1.2092808524107794e-06,1.5737485253606016e-06,6.511456205904931e-06,1.247809378988747e-06,1.4744427498947827e-06,5.7982169669123194e-05
256,7.960683551808834e-07,1.319417650568585e-06,1.0755884754104569e-06,1.560929698969886e-06,1.1393837295462365e-05,1.7881862981445038e-06,5.1453891713096216e-06,3.891708887787147e-05,6.278177546761423e-06,1.4818313330265047e-06,1.1709506625364224e-06,1.7165200443866073e-06,6.525087107236508e-06,1.2171770275216103e-06,1.51496564816238e-06,5.8196556067580264e-05
257,8.219337845243322e-07,1.338821620989906e-06,1.0846457668533215e-06,1.5276279806280032e-06,1.120797300954394e-05,1.8250320332022864e-06,5.2579636513323705e-06,3.9957853995917464e-05,6.491939343097141e-06,1.5369291606620451e-06,1.1366012419875265e-06,1.8981966205815583e-06,6.518766436144736e-06,1.1842256613741152e-06,1.5541653064508475e-06,5.8163568674373276e-05
258,8.4742252953709e-07,1.3565660980937004e-06,1.09387596946922e-06,1.4908810458417775e-06,1.1058898003534441e-05,1.8640873544329011e-06,5.360834666024666e-06,4.091587588924687e-05,6.721401904494224e-06,1.5969646043277563e-06,1.1064322830894105e-06,2.1222475107484226e-06,6.492960302742006e-06,1.1492537738353387e-06,1.5915959369346333e-06,5.787802070303626e-05
259,8.723361634282568e-07,1.372453353591574e-06,1.102656325075787e-06,1.4516948984041797e-06,1.0952009032168779e-05,1.9046931062911728e-06,5.451518311874582e-06,4.177178628785784e-05,6.968308068740915e-06,1.6613047810037877e-06,1.0805758757718509e-06,2.3920860378086823e-06,6.447184133377101e-06,1.1128222753052073e-06,1.6270089363671097e-06,5.7335754434784324e-05
260,8.966365818659612e-07,1.3862779978106068e-06,1.110571832267903e-06,1.411079526630847e-06,1.0891648181725976e-05,1.9461635087132944e-06,5.526748802462497e-06,4.251161445000435e-05,7.233501277586268e-06,1.7291177363204623e-06,1.0591683759222337e-06,2.7111715764674785e-06,6.380362510878091e-06,1.075643641585007e-06,1.660377561393864e-06,5.654169727749755e-05
261,9.203733469036697e-07,1.3978273215957965e-06,1.1175481654764768e-06,1.3700932058693227e-06,1.0880448763054675e-05,1.987815864389282e-06,5.5827740074861634e-06,4.312364227158141e-05,7.517391060610713e-06,1.7994558743723166e-06,1.0423500988434985e-06,3.0832208120733544e-06,6.291484469865294e-06,1.0383977562037152e-06,1.6918373777435412e-06,5.551427250917297e-05
262,9.436457831825657e-07,1.4068342780075257e-06,1.1238243838805369e-06,1.3297768565630978e-06,1.0919378946534339e-05,2.0289193684243734e-06,5.616095079493198e-06,4.3594847462044004e-05,7.820332524470768e-06,1.8714190274567814e-06,1.030241102126981e-06,3.512229218800077e-06,6.180233835933779e-06,1.001639916939011e-06,1.72164961869274e-06,5.42826590066704e-05
263,9.666245119351846e-07,1.4129983858808747e-06,1.129767623434516e-06,1.2910269463240192e-06,1.1007858783111879e-05,2.068759553922507e-06,5.624295339308383e-06,4.3911341618518155e-05,8.14258065456324e-06,1.9442642652848055e-06,1.0230032076893894e-06,4.002197335018993e-06,6.0473506030216954e-06,9.658625531118684e-07,1.750197700172287e-06,5.287910451940034e-05
264,9.895452447032925e-07,1.4160998751286052e-06,1.1356659882867607e-06,1.2545045184348173e-06,1.1143707042453878e-05,2.1068438207736986e-06,5.6065436980227855e-06,4.406239770691416e-05,8.483962564287149e-06,2.0173667339577294e-06,1.0209019896120835e-06,4.556753086691033e-06,5.894591429036061e-06,9.316209786624315e-07,1.7779190273996548e-06,5.1331405311089135e-05
265,1.0126552028628038e-06,1.416097095222935e-06,1.1416314939299446e-06,1.2206071869923635e-06,1.1323041960294224e-05,2.1429685244953527e-06,5.563672351189128e-06,4.404376940212463e-05,8.843852948397008e-06,2.090069248060178e-06,1.024245294666979e-06,5.178920369172985e-06,5.724437151493993e-06,8.995760681162735e-07,1.805154781942739e-06,4.966033581430039e-05
266,1.0361559322432244e-06,1.413154906027154e-06,1.1476115309770704e-06,1.1895003282306713e-06,1.1540262033596726e-05,2.1770122074911965e-06,5.497960858366712e-06,4.3858304426430895e-05,9.221542396859579e-06,2.161571926063541e-06,1.033249650089832e-06,5.871041986248288e-06,5.539879935695804e-06,8.704111982089119e-07,1.8320025100239365e-06,4.788262898779085e-05
267,1.0601660849144632e-06,1.4076413326460222e-06,1.1534235530132229e-06,1.1612184132419736e-06,1.178811001212339e-05,2.208708067628744e-06,5.412757739553246e-06,4.351520093417093e-05,9.616463568353631e-06,2.2309100633345927e-06,1.0479439353222562e-06,6.634747432347161e-06,5.344402495580947e-06,8.447269150607727e-07,1.8582389360782636e-06,4.601523343679072e-05
268,1.0847068939104629e-06,1.4000816065532018e-06,1.1587486208273869e-06,1.1357873687189032e-06,1.2057786197594997e-05,2.237617673696732e-06,5.312007708177215e-06,4.302945749922236e-05,1.0028015041864626e-05,2.2969652903922418e-06,1.0681452618140892e-06,7.47093534124097e-06,5.141951176916414e-06,8.230067141422635e-07,1.8833440469912487e-06,4.4076244303439074e-05
269,1.1097072730837328e-06,1.3910361975974894e-06,1.163124396333575e-06,1.113258303696676e-06,1.2339160214422368e-05,2.2632477053525926e-06,5.19974430191182e-06,4.242183367859743e-05,1.0455126870778429e-05,2.358597943976002e-06,1.0934840085155775e-06,8.379719168481205e-06,4.936701588278922e-06,8.056247586022891e-07,1.9066315302316672e-06,4.208205424937146e-05
270,1.1350258238428525e-06,1.3809853171398904e-06,1.1660016983720143e-06,1.0936815543913646e-06,1.2621194583179767e-05,2.2852215360608237e-06,5.079616523631699e-06,4.1718891120049444e-05,1.089566299400801e-05,2.4149723539552644e-06,1.1234456270610153e-06,9.360221797583848e-06,4.732629912378284e-06,7.928515084060492e-07,1.927419381133127e-06,4.004436843130497e-05
271,1.160488836669798e-06,1.370303384956196e-06,1.1668081776860752e-06,1.077110148551193e-06,1.289266843050137e-05,2.3034557149836485e-06,4.954581640339769e-06,4.095252636275522e-05,1.1345788509420349e-05,2.4658660812766686e-06,1.157395331801046e-06,1.0410192671181081e-05,4.5331024056246106e-06,7.848737451612334e-07,1.945125550543e-06,3.797068908985843e-05
272,1.185921207085767e-06,1.359253549975782e-06,1.1649511954280542e-06,1.0635841184258594e-06,1.3143244206614072e-05,2.318225646024174e-06,4.826941336691092e-06,4.0158576591315265e-05,1.1799694707397448e-05,2.511711602738966e-06,1.19456362128876e-06,1.1525581617773056e-05,4.34072494174458e-06,7.818138491516687e-07,1.959237094762193e-06,3.586796055943595e-05
273,1.2111203781612358e-06,1.3479495111631593e-06,1.1598164252020172e-06,1.0530658030753898e-06,1.3364721849105308e-05,2.3300515955443836e-06,4.698668391760738e-06,3.9374456584062536e-05,1.224997022346659e-05,2.5533490758935113e-06,1.2340207747392157e-06,1.2700242864211018e-05,4.157468994070111e-06,7.837088265287801e-07,1.9692180254497116e-06,3.3746408823776155e-05
274,1.2357649198623877e-06,1.3363520096734728e-06,1.1508469973039628e-06,1.0453792453437545e-06,1.3551892797979336e-05,2.339501214937777e-06,4.571687109398489e-06,3.863614679440742e-05,1.2688330806674391e-05,2.5916482000256514e-06,1.2746997402240177e-06,1.3925812873556713e-05,3.9848332463338e-06,7.904783753268863e-07,1.974487404821437e-06,3.1621490407885695e-05
275,1.2593470190413472e-06,1.3243467159655825e-06,1.13769640975302e-06,1.0401685395846398e-06,1.3702224777638563e-05,2.347087479814298e-06,4.4478879072840666e-06,3.7975067971651746e-05,1.3106133607343684e-05,2.6272345526743056e-06,1.3155097272477779e-06,1.5191652702296868e-05,3.823844777117465e-06,8.019206888456188e-07,1.9745394282068423e-06,2.9513603641569158e-05
276,1.2812251126253705e-06,1.311868825938663e-06,1.1203581390338927e-06,1.0368749447857539e-06,1.3814270069408702e-05,2.3533273908781195e-06,4.328969673632376e-06,3.741554428449867e-05,1.3494527938419306e-05,2.660470823085368e-06,1.3555173213737628e-06,1.64848106855942e-05,3.6750124868117063e-06,8.177347689685726e-07,1.9691148576942044e-06,2.7446125384336822e-05
277,1.3007476322017396e-06,1.2989963388927761e-06,1.0991615424983146e-06,1.0347610376657779e-06,1.3885887505868918e-05,2.3588357806949867e-06,4.216302655515853e-06,3.697353420082693e-05,1.3844546845242255e-05,2.691598582101783e-06,1.39408748148829e-06,1.779015361192397e-05,3.5384957650809893e-06,8.375539496426663e-07,1.9582559754309255e-06,2.5442658238850465e-05
278,1.3173053996555358e-06,1.28595426677774e-06,1.0746140834408228e-06,1.0330121951898594e-06,1.3913681928825921e-05,2.3643246193298202e-06,4.110954694730005e-06,3.6656712899587076e-05,1.4147210944626248e-05,2.720848281631008e-06,1.430891016948703e-06,1.9090677115647472e-05,3.4144772807736183e-06,8.609489816135334e-07,1.9421661853077168e-06,2.352440887928062e-05
279,1.330320355462897e-06,1.2730545900169127e-06,1.047203835313223e-06,1.0308878190235066e-06,1.389387116497096e-05,2.370536682353578e-06,4.013936178301066e-06,3.646531358066797e-05,1.4393960228324596e-05,2.748455749351325e-06,1.465778570119545e-06,2.0367567026136246e-05,3.303386046963431e-06,8.873886455230422e-07,1.920958398267495e-06,2.1708419619508624e-05
280,1.3393280938094287e-06,1.2606250986945067e-06,1.0173246066238504e-06,1.027831707884539e-06,1.3823644057523467e-05,2.378182660297917e-06,3.9265080986343234e-06,3.639320570798027e-05,1.4578346848143631e-05,2.7746357566759266e-06,1.4985935994626853e-06,2.1599662352515707e-05,3.2057191564326374e-06,9.162231059051475e-07,1.8944981222743563e-06,2.000683498698192e-05
281,1.3441440494341368e-06,1.2489378973106876e-06,9.853683639487942e-07,1.0234763547937696e-06,1.3702166573930619e-05,2.387857301584491e-06,3.850217427654401e-06,3.642905092185612e-05,1.4698235412491639e-05,2.799538464064334e-06,1.5290457675327666e-06,2.2763061339996937e-05,3.1216643030540614e-06,9.467206837342358e-07,1.8624790857532158e-06,1.8426896330903545e-05
282,1.3449034870976878e-06,1.2381671300589874e-06,9.518584614807694e-07,1.0175552400729328e-06,1.3530960060401793e-05,2.3999119932727546e-06,3.7865731330716557e-06,3.655739914972175e-05,1.475587611387462e-05,2.8231736540107402e-06,1.5567074262674849e-06,2.3832467119724135e-05,3.050924588134247e-06,9.781000898019668e-07,1.8246470406933249e-06,1.6971520104004492e-05
283,1.341910150217725e-06,1.228406832310445e-06,9.174805504426824e-07,1.0098190238013346e-06,1.3313709412638914e-05,2.414379858302659e-06,3.7367649231841097e-06,3.675952449230241e-05,1.475565074117585e-05,2.8453603883707876e-06,1.5810780968255106e-06,2.4784862171803367e-05,2.9928205693116644e-06,1.0095532428074052e-06,1.7809839471596217e-06,1.5640585526305924e-05
284,1.3354608415733756e-06,1.2196904707621023e-06,8.829950444186356e-07,1.0000770034918855e-06,1.3055720804636994e-05,2.43102919743598e-06,3.701741995866137e-06,3.701394357492947e-05,1.47026611035139e-05,2.8657782350447827e-06,1.601696265479686e-06,2.560402368850583e-05,2.9463946659518227e-06,1.0402981263737745e-06,1.7317750364084515e-06,1.4432684859551787e-05
285,1.3257878320585782e-06,1.211974730924174e-06,8.491166079792828e-07,9.883453114724274e-07,1.2763272834361184e-05,2.449426663681892e-06,3.6824168194083277e-06,3.7296950209457765e-05,1.4603654519512747e-05,2.8840365348615973e-06,1.6183140586172215e-06,2.6283258221937097e-05,2.9103787599369856e-06,1.0695874306834612e-06,1.6776151075380318e-06,1.3346693329475596e-05
286,1.3130979307028377e-06,1.2051503490835235e-06,8.164433484183979e-07,9.749102500639265e-07,1.2443005493089395e-05,2.4688722682154377e-06,3.6796450921129243e-06,3.758387471012549e-05,1.4467997606028268e-05,2.8996678089018792e-06,1.6310206937050968e-06,2.682429090213994e-05,2.883176405452808e-06,1.0966066905817508e-06,1.61940459366282e-06,1.2382746310916286e-05
287,1.297628203732466e-06,1.1991094819917014e-06,7.854584695443977e-07,9.602087524708956e-07,1.2101356112701517e-05,2.4882758926977004e-06,3.693998961848929e-06,3.785148595951781e-05,1.4306774680991205e-05,2.9121423258477603e-06,1.6401670027214867e-06,2.7232883481577202e-05,2.8629373559604344e-06,1.1203589585574435e-06,1.5583076344124815e-06,1.1542650820735576e-05
288,1.279682422804277e-06,1.1938128313785542e-06,7.565814506826137e-07,9.44676691341787e-07,1.1744019483354325e-05,2.5061312072657234e-06,3.725622409230579e-06,3.808096234949472e-05,1.4130907964538323e-05,2.9209397093090656e-06,1.6461375252640463e-06,2.7515296147328682e-05,2.84765139105311e-06,1.1396704078357562e-06,1.49564595977145e-06,1.0829914506779807e-05
289,1.2596264615360284e-06,1.1892945650658253e-06,7.302143606403812e-07,9.287058241583948e-07,1.137554611174973e-05,2.5206388040369838e-06,3.7743126742951635e-06,3.826023910294745e-05,1.394977139414262e-05,2.9255118111269486e-06,1.6491717285060939e-06,2.767927835673087e-05,2.835291351214898e-06,1.1533659360735406e-06,1.4327546464886252e-06,1.0249512155352936e-05
290,1.2378129659559203e-06,1.1855916687619478e-06,7.067307444784718e-07,9.126536773335941e-07,1.0999215177715204e-05,2.52993034912633e-06,3.839676960255828e-06,3.838490244801875e-05,1.377050523223154e-05,2.925145312614407e-06,1.6493755369964252e-06,2.773813696159745e-05,2.8240574592717974e-06,1.1605204412605053e-06,1.3708444772750582e-06,9.807500751290818e-06
291,1.2144702926267423e-06,1.1826391533951836e-06,6.864167439917209e-07,8.968446903015517e-07,1.0617016344592402e-05,2.5323114297189363e-06,3.9212487438620205e-06,3.845737136577758e-05,1.3597633573084608e-05,2.918975237072899e-06,1.6468843418087393e-06,2.771344188997408e-05,2.8126410125439524e-06,1.1605797257578363e-06,1.310929024945301e-06,9.510628439412097e-06
292,1.1896510201761395e-06,1.1802069966011563e-06,6.694257859643497e-07,8.815805562011354e-07,1.022961855712441e-05,2.5264568931913554e-06,4.018581573893105e-06,3.848428149869876e-05,1.343296550622612e-05,2.9062139096096543e-06,1.6419831539919695e-06,2.7633945257913394e-05,2.800406284114658e-06,1.1533106410321568e-06,1.2538287558686393e-06,9.365981456137608e-06
293,1.163280756196423e-06,1.177940655972625e-06,6.557903329626459e-07,8.671335122543958e-07,9.836884636225409e-06,2.51154331294338e-06,4.1312528052233545e-06,3.847238566266099e-05,1.3275928904088786e-05,2.8864240697437127e-06,1.6350297015797287e-06,2.7531484252530176e-05,2.7874279744935337e-06,1.1387502429777834e-06,1.2001796914612803e-06,9.380571399669112e-06
294,1.135267460674342e-06,1.175479211612811e-06,6.454744442807496e-07,8.536890291384694e-07,9.439334633394542e-06,2.487322367412268e-06,4.258669469433005e-06,3.842457448451085e-05,1.3124105416375455e-05,2.8596972249595448e-06,1.6262744887127693e-06,2.7436471501505756e-05,2.7743479345034902e-06,1.117183818268109e-06,1.1504127506552364e-06,9.560763059470106e-06
295,1.1056160954102895e-06,1.172541299445527e-06,6.384072738380789e-07,8.412938963211745e-07,9.039726418475105e-06,2.45409892839417e-06,4.399734954890477e-06,3.8338488890072304e-05,1.2973457416014499e-05,2.8266249794728373e-06,1.6158026316140792e-06,2.7375464667327346e-05,2.7621355360308213e-06,1.0890425173493867e-06,1.1047382957675113e-06,9.911589031849945e-06
296,1.0745019215128451e-06,1.168915396152787e-06,6.344693783984903e-07,8.298782882837327e-07,8.643614326518612e-06,2.4125468364582464e-06,4.552602950954298e-06,3.820861829507009e-05,1.2818131085232804e-05,2.787991809939852e-06,1.603661695924768e-06,2.7371118172239714e-05,2.7519589728139808e-06,1.0547493088386503e-06,1.0631608325391668e-06,1.043619721836614e-05
297,1.042263707461948e-06,1.1643998353068868e-06,6.334866710523099e-07,8.193298134590196e-07,8.258671973268678e-06,2.363382434486935e-06,4.71469618453858e-06,3.8030152317057486e-05,1.2650605054747765e-05,2.7443785235632346e-06,1.5900404802586584e-06,2.744285019562728e-05,2.7452515005296307e-06,1.0146425524311033e-06,1.0255501171936529e-06,1.1135657013093303e-05
298,1.0093156841110392e-06,1.1587625252576737e-06,6.352771715610978e-07,8.095463023326655e-07,7.893325694790472e-06,2.3070868601287207e-06,4.882963780873145e-06,3.7802194814948456e-05,1.2462885463503049e-05,2.6960301266542647e-06,1.5753536662970623e-06,2.7606909142484097e-05,2.7437601867991337e-06,9.690569757368861e-07,9.91765577890832e-07,1.2009064969833043e-05
299,9.760389525282694e-07,1.151728134090659e-06,6.396937042764402e-07,8.004395319813122e-07,7.555447093164185e-06,2.243858228057577e-06,5.054250172867402e-06,3.752926523235964e-05,1.2248120369449795e-05,2.64308837989401e-06,1.5601885465818865e-06,2.7875651388599676e-05,2.7493617682569827e-06,9.184987638310883e-07,9.617385980798556e-07,1.3053710048753369e-05
300,9.427278262513867e-07,1.1429585212991008e-06,6.466015646136337e-07,7.91918302039882e-07,7.251727635840704e-06,2.1737695615594003e-06,5.225687581382626e-06,3.722146910961702e-05,1.200127714270744e-05,2.585916771036647e-06,1.545156310801641e-06,2.8256499528028207e-05,2.763785065871729e-06,8.637315806338719e-07,9.354336790000634e-07,1.4265083350297792e-05
301,9.096065854442576e-07,1.1320603976846573e-06,6.55833565817368e-07,7.838726728738836e-07,6.987836171736311e-06,2.097009015608983e-06,5.39502877418819e-06,3.689403207828372e-05,1.171838083777316e-05,2.525199696462902e-06,1.5307595699491815e-06,2.8751499889888177e-05,2.7884586112593496e-06,8.057193283707796e-07,9.1275486473169e-07,1.563664220919528e-05
302,8.768767559139435e-07,1.1186983581670168e-06,6.672006518020994e-07,7.761578872456931e-07,6.768869352503018e-06,2.014099511604608e-06,5.560788541346516e-06,3.6566350005594665e-05,1.1395504211223255e-05,2.461780487371581e-06,1.5173562709444005e-06,2.935784695822604e-05,2.824428770041993e-06,7.455536843663531e-07,8.935095748521653e-07,1.7159478622111294e-05
303,8.447505142340074e-07,1.1027658366806672e-06,6.805438153654758e-07,7.685837352343267e-07,6.599627149955976e-06,1.9260058751945864e-06,5.722086397779381e-06,3.626054091729903e-05,1.1029287262415653e-05,2.3964246161493272e-06,1.5051787521320861e-06,3.006869122115491e-05,2.872306840154398e-06,6.844220249339539e-07,8.774880544748883e-07,1.882218749560356e-05
304,8.134376814575242e-07,1.0844702057850606e-06,6.957346784670228e-07,7.609169799727141e-07,6.484660141797788e-06,1.8340862945480115e-06,5.878194367093233e-06,3.59997298173254e-05,1.0619049776903956e-05,2.329655134982423e-06,1.494393559064629e-06,3.0873667713100984e-05,2.9323561367620893e-06,6.2355798166138e-07,8.646360024081728e-07,2.0611024035962897e-05
305,7.83090033597274e-07,1.0642755341528984e-06,7.126063373001928e-07,7.528867674346e-07,6.428222526854618e-06,1.7399202982851395e-06,6.027945011214619e-06,3.580641342540148e-05,1.0168632426993663e-05,2.2617333620256376e-06,1.4852151685187104e-06,3.1759253107867224e-05,3.004646791443073e-06,5.641808277322434e-07,8.551496623511604e-07,2.251012228944299e-05
306,7.537737283393735e-07,1.0427615411719667e-06,7.308929640955929e-07,7.441804521671998e-07,6.434217239851771e-06,1.6450921633848526e-06,6.1693102579092016e-06,3.570121327446988e-05,9.686293880589057e-06,2.192822020699344e-06,1.47794229239907e-06,3.270902780123605e-05,3.0890535972485206e-06,5.074791322496637e-07,8.493747622258349e-07,2.450150188609374e-05
307,7.255389995542667e-07,1.0204896769152587e-06,7.502205153943799e-07,7.344553024036347e-07,6.506129039600868e-06,1.5510450099718644e-06,6.29942874203392e-06,3.570206545613911e-05,9.182735902056863e-06,2.123194641340159e-06,1.472841803293524e-06,3.370351752501328e-05,3.1850856851130144e-06,4.546407907630079e-07,8.476462256527374e-07,2.6564774990272516e-05
308,6.985463103689047e-07,9.979449269625972e-07,7.701443083913362e-07,7.234071411959091e-07,6.646913983582979e-06,1.4590783865798577e-06,6.415086743065448e-06,3.582346463090813e-05,8.668773960425407e-06,2.053256232211327e-06,1.4700111738116628e-06,3.471926491076922e-05,3.291734777693742e-06,4.069263963621839e-07,8.50204739010131e-07,2.8676658863067008e-05
309,6.73126121929351e-07,9.755536384211725e-07,7.90239765431171e-07,7.108477050664496e-07,6.858853995922037e-06,1.37041135839244e-06,6.513436073971594e-06,3.607545528299268e-05,8.154008902264844e-06,1.9833905028740376e-06,1.46933370514827e-06,3.5727710915199795e-05,3.4074438652298923e-06,3.6578127901748865e-07,8.571539918453263e-07,3.081050526394727e-05
310,6.497126249280835e-07,9.536982327959257e-07,8.102095177136194e-07,6.966905372649063e-07,7.143389515493928e-06,1.2861893633853967e-06,6.592650814234726e-06,3.646346699895666e-05,7.646551216053961e-06,1.9138745513720776e-06,1.4705577086918026e-06,3.669563508985618e-05,3.5302554833347558e-06,3.3289804911000024e-07,8.684216585506562e-07,3.2935999761417325e-05
311,6.287227135613076e-07,9.326678025102431e-07,8.299222484682081e-07,6.808682709469906e-07,7.500919303418317e-06,1.2074440249837486e-06,6.652225016455101e-06,3.6991301857597876e-05,7.153173279863763e-06,1.8449564321668361e-06,1.4734612802626364e-06,3.758813396428367e-05,3.6582279407835738e-06,3.1015157046057537e-07,8.837451365124043e-07,3.501899974586997e-05
312,6.104778214666919e-07,9.125935134514142e-07,8.493513029127569e-07,6.632858042173665e-07,7.930591655472925e-06,1.1350796697381572e-06,6.69280831102678e-06,3.76673567401263e-05,6.679573232215525e-06,1.7769820700954164e-06,1.4779500033461416e-06,3.8372992837623006e-05,3.789996350794808e-06,2.9948208650276776e-07,9.026976753522089e-07,3.702124673308889e-05
313,5.951840407805758e-07,8.934543000847037e-07,8.684828247244517e-07,6.438138057550534e-07,8.43014427908826e-06,1.0698796256124544e-06,6.715768980753125e-06,3.8510134862417575e-05,6.230672503601328e-06,1.710478869260455e-06,1.4839811401190506e-06,3.902463352928126e-05,3.925174151810015e-06,3.028524404388466e-07,9.24742177831158e-07,3.889988479299868e-05
314,5.829357109668288e-07,8.751612385799031e-07,8.873016123393269e-07,6.222734438397486e-07,8.995775292997515e-06,1.0124829847431608e-06,6.7227699259082085e-06,3.954892112806406e-05,5.810768638590742e-06,1.6461772358231933e-06,1.4914011418510388e-06,3.952622970927958e-05,4.064417074353272e-06,3.2227934984408397e-07,9.492943028668763e-07,4.060850620712997e-05
315,5.737240956004441e-07,8.5766028164841e-07,9.058605085541024e-07,5.984444114503019e-07,9.621954837622279e-06,9.63346051534129e-07,6.7155224488851465e-06,4.081961905500122e-05,5.423423820936539e-06,1.5849265869079206e-06,1.4998563055876603e-06,3.986861324997886e-05,4.20917316512827e-06,3.598472428004032e-07,9.758268946274462e-07,4.2102665963484463e-05
316,5.674503883293977e-07,8.409979887600176e-07,9.243100234611269e-07,5.721373791306121e-07,1.0301171282551163e-05,9.227270429820977e-07,6.695736525584869e-06,4.235905928845002e-05,5.0712761333840885e-06,1.5275172318455105e-06,1.5088112427704916e-06,4.004590225353298e-05,4.361263460466903e-06,4.1766746844074246e-07,1.0039891565202094e-06,4.3348878703213076e-05
317,5.639434376954939e-07,8.25334810157891e-07,9.428244473955694e-07,5.432803475700059e-07,1.1023688612087337e-05,8.906899591514899e-07,6.6651729253058535e-06,4.420058220495348e-05,4.755999275526872e-06,1.47455572810281e-06,1.5175800026111707e-06,4.005122283354213e-05,4.522465306023253e-06,4.978319940968799e-07,1.0336095400190195e-06,4.433092880084168e-05
318,5.629778636400996e-07,8.109047798360125e-07,9.61526605230317e-07,5.11953981251335e-07,1.1777333101259125e-05,8.671290390531603e-07,6.625602457905864e-06,4.637130525705633e-05,4.478355567042752e-06,1.426464527570939e-06,1.5253310188361629e-06,3.9876696380995846e-05,4.694177680699477e-06,6.023983136056519e-07,1.0645856602934774e-06,4.5049109002273206e-05
319,5.642855831620857e-07,7.979355438109474e-07,9.804920372542564e-07,4.783811448748872e-07,1.2547414761404221e-05,8.518322859644312e-07,6.578492306568628e-06,4.889016365944913e-05,4.238302780726849e-06,1.3834859965989505e-06,1.5311003050824112e-06,3.9517273668900524e-05,4.877182808701477e-06,7.333795783338522e-07,1.096803721825617e-06,4.551374505890957e-05
320,5.675820008659195e-07,7.86591030799432e-07,9.997550838555168e-07,4.4291273312212643e-07,1.3317207584763521e-05,8.445443780878e-07,6.5244928829677785e-06,5.1766203779239094e-05,4.03524740017482e-06,1.3456464597238927e-06,1.5338275741321112e-06,3.897437852902843e-05,5.071593419771695e-06,8.927233422692997e-07,1.1301581100537107e-06,4.5737295383543e-05
321,5.726195928329691e-07,7.769888006888621e-07,1.0192545161582716e-06,4.060295891344999e-07,1.4069460575130879e-05,8.449682216969558e-07,6.4630941956038805e-06,5.4997623626260314e-05,3.868335103420674e-06,1.3128055736863573e-06,1.5325050996400856e-06,3.825692227003275e-05,5.276985822539515e-06,1.0823190992770561e-06,1.1646180626854169e-06,4.573023438986541e-05
322,5.792094911053065e-07,7.692527346875347e-07,1.0387886081633955e-06,3.683333534271789e-07,1.4788916873402915e-05,8.527487175585225e-07,6.3927377334770415e-06,5.857218902289097e-05,3.7365733734650306e-06,1.2847992669500415e-06,1.5265166310916627e-06,3.737999084178968e-05,5.492523746470835e-06,1.3040769783261185e-06,1.2002325867400974e-06,4.5503697860479515e-05
323,5.871767424637022e-07,7.635198342764594e-07,1.0580480782100606e-06,3.304981216227936e-07,1.5465082248464477e-05,8.675063800903978e-07,6.311365335865639e-06,6.246879354531988e-05,3.6387765254731933e-06,1.2615129627268296e-06,1.5159387299562667e-06,3.63623005495182e-05,5.717062649357804e-06,1.5600301536004544e-06,1.2370925688386297e-06,4.5075411967330845e-05
324,5.963181851548556e-07,7.598884051641603e-07,1.0767079001352719e-06,2.9321782099626666e-07,1.609380700113227e-05,8.888738305019108e-07,6.217264303439812e-06,6.665928882597899e-05,3.5734744793197677e-06,1.2428290083794972e-06,1.5014842809833996e-06,3.522313973307187e-05,5.9494119300414115e-06,1.8523239578079142e-06,1.2753272247370993e-06,4.447242042742224e-05
325,6.064117244337935e-07,7.583742602759587e-07,1.094524677315841e-06,2.571867893439396e-07,1.6676262740943796e-05,9.164771746503296e-07,6.1099018921769e-06,7.110968791012291e-05,3.5389358281518574e-06,1.228544302794476e-06,1.4841832558335497e-06,3.397925424241672e-05,6.188689179012525e-06,2.1830436912001394e-06,1.3150657520920612e-06,4.3727982437370744e-05
326,6.172348322528704e-07,7.589156362274889e-07,1.1114005836383399e-06,2.2309507264695823e-07,1.7215639376600086e-05,9.4988245188407e-07,5.9902528948134545e-06,7.578043195133815e-05,3.5332771684497058e-06,1.2183332775421275e-06,1.4651316632789567e-06,3.264282491717867e-05,6.434560772257081e-06,2.5540097278611185e-06,1.35635382180489e-06,4.2875192677771e-05
327,6.28557880192646e-07,7.614013283504801e-07,1.1273848767465566e-06,1.916315708316394e-07,1.7714103612322827e-05,9.885363899068457e-07,5.86039910859932e-06,8.062590483754424e-05,3.554455618938826e-06,1.2118031015573724e-06,1.4453690188446088e-06,3.1222081396553885e-05,6.687295441888263e-06,2.96664172936746e-06,1.3991158676958845e-06,4.1942208073649245e-05
328,6.401278953365245e-07,7.656984595220135e-07,1.1425953299728637e-06,1.635175429047584e-07,1.8172029426414825e-05,1.0317110231347245e-06,5.722729026665127e-06,8.559247647871913e-05,3.6001563941988315e-06,1.2086531958303427e-06,1.4257980891571425e-06,2.972441206110075e-05,6.947542357863466e-06,3.421868996293239e-06,1.4431632177601618e-06,4.095187320200351e-05
329,6.516645024435891e-07,7.716637251155419e-07,1.157111178922009e-06,1.395621019664582e-07,1.8588939587049832e-05,1.0784643788254568e-06,5.5792949303225e-06,9.061463027709973e-05,3.667862991840852e-06,1.208821790785756e-06,1.4071452753639826e-06,2.8159789663996616e-05,7.215755480966644e-06,3.920066441414043e-06,1.4882275903485982e-06,3.9923896320854564e-05
330,6.628800972351146e-07,7.791319095572994e-07,1.1709452392126599e-06,1.206962689496773e-07,1.8964692618016305e-05,1.1276388423820037e-06,5.431652197522174e-06,9.561217341629209e-05,3.755151163698427e-06,1.2124727196968172e-06,1.3899431591536513e-06,2.65423559541476e-05,7.491470772401976e-06,4.461004806496057e-06,1.5339821857123913e-06,3.887585533634483e-05
