,EMG1,EMG2,EMG3,EMG4,EMG5,EMG6,EMG7,EMG8,EMG9,EMG10,EMG11,EMG12,EMG13,EMG14,EMG15,EMG16
0,9.493030917989423e-08,1.3154320193230832e-07,2.1026160625869766e-07,1.9036814737713346e-07,-3.080134505997361e-07,1.2040760315683222e-07,9.77813284499533e-07,1.482071296680504e-06,7.488342232358048e-06,1.3403169670022065e-07,9.82687644105567e-08,4.318679050305154e-07,7.852390495411273e-07,5.006407666154195e-06,1.8395216437883527e-07,5.14356317170941e-06
1,1.763982554480814e-07,1.7089436054981775e-07,2.641173398006271e-07,2.3170336530829571e-07,1.865639938848926e-08,2.00842806272861e-07,1.1314150099098936e-06,3.116738365251525e-06,8.22943768772547e-06,2.4304506575179054e-07,2.1963250176059266e-07,5.597984969007823e-07,1.4098498022912661e-06,5.1758180395841245e-06,2.296980685280553e-07,7.0520851606034154e-06
2,2.5496213593797275e-07,2.0983378263619136e-07,3.2042693975506294e-07,2.7397312106996005e-07,3.264998896206044e-07,2.7930402013547656e-07,1.2864328288580788e-06,4.735354822972902e-06,8.988409892611934e-06,3.476215667586829e-07,3.368777073819665e-07,6.843680807441405e-07,2.014555134839278e-06,5.344254356800775e-06,2.768189821936145e-07,8.915406775558807e-06
3,3.296994545179522e-07,2.4789596456365465e-07,3.7857019323629953e-07,3.1671373872212374e-07,6.087078467743185e-07,3.543073951074211e-07,1.4416487618276872e-06,6.335701665544748e-06,9.758728795287723e-06,4.47162078560866e-07,4.4842272413420636e-07,8.031362069022048e-07,2.5860984809275287e-06,5.505985843323461e-06,3.24442630266672e-07,1.0698650499321973e-05
4,3.997263201154561e-07,2.847844718186697e-07,4.3807716674431046e-07,3.594944380836489e-07,8.606498716418508e-07,4.246402902567509e-07,1.5958067665859522e-06,7.914722311884185e-06,1.0533200649678637e-05,5.41054194524304e-07,5.53001602287502e-07,9.145247833849059e-07,3.1116931806661914e-06,5.6554112263484574e-06,3.718631825506631e-07,1.237402712383219e-05
5,4.6424101178406817e-07,3.202843897808877e-07,4.98641149335371e-07,4.020074646262774e-07,1.0799543717805383e-06,4.894340541755006e-07,1.7475569693378603e-06,9.468032315811273e-06,1.1304398137818575e-05,6.286598915086245e-07,6.497103375039341e-07,1.017825761877733e-06,3.5795993462158765e-06,5.7874965589855555e-06,4.186135224981058e-07,1.3921337582407997e-05
6,5.225942353278062e-07,3.5420592157500315e-07,5.600404675470312e-07,4.4414787293662397e-07,1.2658801413284907e-06,5.482151195194689e-07,1.8953327886638638e-06,1.098992202912421e-05,1.2064878257679364e-05,7.093161070088534e-07,7.380343124548351e-07,1.1128465608679634e-06,3.980421582600836e-06,5.898016988545706e-06,4.6444351380230165e-07,1.5327201532554324e-05
7,5.743528597919305e-07,3.8641358194504593e-07,6.220572801941755e-07,4.859912790043132e-07,1.4184762625694487e-06,6.009275871562778e-07,2.0372563831845166e-06,1.247417541515582e-05,1.2806958879533406e-05,7.823938396846472e-07,8.178442938257352e-07,1.1995230893140274e-06,4.308839951910038e-06,5.983523179141018e-06,5.09286545904298e-07,1.6583017215380644e-05
8,6.193625443505179e-07,4.1685956904998216e-07,6.844579029088971e-07,5.276779302565471e-07,1.5381209043442892e-06,6.478706482510645e-07,2.171116848160384e-06,1.3915813798014873e-05,1.352245834921347e-05,8.474378355805207e-07,8.893083373963687e-07,1.2777253384099363e-06,4.564584747613641e-06,6.040898553330415e-06,5.532270709169546e-07,1.768178581722201e-05
9,6.578021327704543e-07,4.45557250089617e-07,7.469958291458191e-07,5.69306035570258e-07,1.625589488752199e-06,6.895361952663589e-07,2.2943992801601806e-06,1.5313126196326925e-05,1.4202734597242603e-05,9.043290665231796e-07,9.527768133473326e-07,1.3471898494637102e-06,4.7517458359686196e-06,6.066716557885759e-06,5.964121242598099e-07,1.8615568859555995e-05
10,6.901536926828749e-07,4.725355213954325e-07,8.093764728815775e-07,6.109074619635334e-07,1.6822975924273109e-06,7.264495889304231e-07,2.4043749013996557e-06,1.666868618016665e-05,1.4838744976758889e-05,9.533620731200454e-07,1.0087575676567854e-06,1.4075159820294291e-06,4.876890748929598e-06,6.056919985961668e-06,6.389491682563025e-07,1.9375246599840666e-05
11,7.170617014015293e-07,4.978115789282287e-07,8.71192815624078e-07,6.524894552573944e-07,1.7104239855232036e-06,7.591019786264091e-07,2.498332017106747e-06,1.798833626710669e-05,1.5421284724102263e-05,9.951684931265808e-07,1.0579482706380704e-06,1.4582342213715671e-06,4.947203460819612e-06,6.00720810537091e-06,6.808472925804157e-07,1.9952101557314138e-05
12,7.391986072077055e-07,5.213811850574638e-07,9.318903915188646e-07,6.940662507759529e-07,1.7129172007822265e-06,7.879605370659161e-07,2.5739956615111447e-06,1.9278494052214494e-05,1.5942303003413143e-05,1.0305339560135672e-06,1.1011831477829997e-06,1.4989785584635433e-06,4.9693509078179544e-06,5.914274325861934e-06,7.219887151133105e-07,2.033994068890954e-05
13,7.572208727642337e-07,5.432552227452109e-07,9.907760665804686e-07,7.356328947292016e-07,1.6934156446731144e-06,8.135018814033446e-07,2.630012032644881e-06,2.054354327595511e-05,1.6396816777309368e-05,1.0602411323373418e-06,1.1393139346188378e-06,1.5297429988790714e-06,4.949104177038873e-06,5.777350809723457e-06,7.621240001174325e-07,2.053713718447011e-05
14,7.717584041740884e-07,5.635431632453509e-07,1.047035267925518e-06,7.771126795443374e-07,1.6560899638694575e-06,8.362165764251243e-07,2.6662451605427693e-06,2.1784752223483145e-05,1.6783505672254573e-05,1.0850174488228971e-06,1.173149807948055e-06,1.550991344546727e-06,4.891490706202822e-06,5.598950207436917e-06,8.009039524257538e-07,2.0548138154999702e-05
15,7.834016369579451e-07,5.824976013871095e-07,1.0997868362128517e-06,8.183137140716559e-07,1.6055120096657232e-06,8.566078657974603e-07,2.683724907154992e-06,2.3000544651716695e-05,1.7103517907266558e-05,1.1055255491561853e-06,1.2034261160677938e-06,1.5635108417767423e-06,4.801177674312116e-06,5.384359127025757e-06,8.379266391552959e-07,2.038377436904359e-05
16,7.92692992251039e-07,6.004590828314436e-07,1.1482330561770154e-06,8.589037566417133e-07,1.5466419903014622e-06,8.752193093959664e-07,2.6842745773098445e-06,2.4187272467830925e-05,1.7358830943888816e-05,1.122329731576814e-06,1.2307396294056633e-06,1.568271879831654e-06,4.682784691312161e-06,5.140473256354005e-06,8.727562576558453e-07,2.0059924145821895e-05
17,8.000946139859229e-07,6.177500727825586e-07,1.1918216617559395e-06,8.9844605877184e-07,1.4848444195434371e-06,8.926245015943697e-07,2.6699885663523705e-06,2.5340036600528402e-05,1.7551214062139124e-05,1.1358867447608367e-06,1.255510224635928e-06,1.5664188240514033e-06,4.540977926101488e-06,4.874785890490284e-06,9.049221572723516e-07,1.9594786531881565e-05
18,8.059417895382538e-07,6.346032485296284e-07,1.2302722988360865e-06,9.365120543923874e-07,1.4257744559610033e-06,9.093482705164322e-07,2.6428352405320323e-06,2.645344171735676e-05,1.768186087749644e-05,1.146607000717019e-06,1.2780130482989444e-06,1.5592069851253133e-06,4.38043025873596e-06,4.594922329228191e-06,9.339519690986171e-07,1.9006063158055263e-05
19,8.104238851771827e-07,6.511660610161702e-07,1.2634597765187827e-06,9.727792595114064e-07,1.3751805445309655e-06,9.257986067135174e-07,2.604553014878011e-06,2.7522229812283944e-05,1.7751463641752462e-05,1.154926589090831e-06,1.2984420475757413e-06,1.547844722988444e-06,4.20583701992541e-06,4.30859396196195e-06,9.594495710443996e-07,1.8309941958204207e-05
20,8.135929017422012e-07,6.675597344290076e-07,1.2912634756176283e-06,1.007026374296349e-06,1.3388210615548985e-06,9.422610801476991e-07,2.5566883848088362e-06,2.85416573626386e-05,1.776052450191771e-05,1.1613225087988144e-06,1.316937489908312e-06,1.5333795727370879e-06,4.022004834131913e-06,4.023606188576334e-06,9.811830616953167e-07,1.75223056517186e-05
21,8.153979859937656e-07,6.839136123269065e-07,1.3134556332108016e-06,1.0390585887702073e-06,1.3225210522224107e-06,9.589290744564238e-07,2.5005597094771647e-06,2.9507464202485465e-05,1.770954991293884e-05,1.166298025679799e-06,1.3335677794171435e-06,1.5166902910946427e-06,3.833801878602325e-06,3.7477024575919414e-06,9.991489845525714e-07,1.666026711263045e-05
22,8.157732551431773e-07,7.003271142203548e-07,1.3296499951293478e-06,1.0686592293127992e-06,1.332218333939081e-06,9.759170218329435e-07,2.4371899028711308e-06,3.041536404732117e-05,1.7598740172410054e-05,1.1703675360765663e-06,1.348382690264778e-06,1.4985908114053615e-06,3.6458640794865102e-06,3.4882925167406533e-06,1.0135757126071688e-06,1.574227682483152e-05
23,8.147621413785345e-07,7.168101493503938e-07,1.339376897109527e-06,1.0956252689602835e-06,1.3739250617358216e-06,9.932337882866514e-07,2.3673839684062436e-06,3.1259975420548566e-05,1.7427093615589633e-05,1.173994825596629e-06,1.3615841458905488e-06,1.4799922461856597e-06,3.462250539706443e-06,3.2522307877084443e-06,1.024869861696847e-06,1.4786992599027586e-05
24,8.125921694276107e-07,7.332571150488922e-07,1.342323769867928e-06,1.119870398087674e-06,1.4536301692749969e-06,1.010768221785328e-06,2.291973512685107e-06,3.203313713777506e-05,1.7191374076985352e-05,1.1774998700743453e-06,1.373631242584009e-06,1.461973941936288e-06,3.2862975897363798e-06,3.045760569655161e-06,1.033554294824958e-06,1.3811994394034405e-05
25,8.096533078843339e-07,7.494523105619784e-07,1.338597632052627e-06,1.1415108976819871e-06,1.5771759738413416e-06,1.0283449524630305e-06,2.212048063570794e-06,3.2722300015615307e-05,1.6886151191989708e-05,1.1810463130543748e-06,1.3851520124613417e-06,1.445690175798602e-06,3.120748765092885e-06,2.8745979435921288e-06,1.0402002928977033e-06,1.2832962010786253e-05
26,8.064222697663835e-07,7.651166896750822e-07,1.328793662670034e-06,1.1608346969470212e-06,1.7501683152130029e-06,1.0458182523775706e-06,2.128983659743277e-06,3.331086367502471e-05,1.650618513910693e-05,1.1847135544155962e-06,1.3967728374053598e-06,1.4322024828766481e-06,2.968027615019073e-06,2.7440294598163506e-06,1.045345345255758e-06,1.1863327534772802e-05
27,8.033793628379298e-07,7.799969632119853e-07,1.3138161018752265e-06,1.17815044845675e-06,1.9779501960669958e-06,1.0631238153620606e-06,2.044259430050496e-06,3.378167649078869e-05,1.605064808944038e-05,1.1885458333384018e-06,1.4089948837403648e-06,1.4223832312021192e-06,2.830392281365832e-06,2.658967754106082e-06,1.0494270799576442e-06,1.091428657937882e-05
28,8.009371281632354e-07,7.939192277236512e-07,1.2945995720553773e-06,1.1936365508454807e-06,2.2655741582781224e-06,1.0802492765958037e-06,1.9592162598839865e-06,3.412233441006964e-05,1.552639120521754e-05,1.192576410541032e-06,1.4221426197065795e-06,1.4169504947446679e-06,2.7098896053182336e-06,2.6240195935734883e-06,1.052731054631873e-06,9.995066665564611e-06
29,7.994086182798315e-07,8.067575978618459e-07,1.2719385514214483e-06,1.2072734527710648e-06,2.617742700022824e-06,1.0971838410467312e-06,1.874916938872519e-06,3.432957335513559e-05,1.494749673710424e-05,1.196857627415772e-06,1.4363812339385228e-06,1.416548825174076e-06,2.6083099789904276e-06,2.643567049305246e-06,1.0553513595848508e-06,9.113194927926448e-06
30,7.990205837532837e-07,8.183905745840312e-07,1.2464968621334453e-06,1.218816704153192e-06,3.038769788342758e-06,1.1139363487922856e-06,1.7921534123650557e-06,3.441091670754341e-05,1.4331482616294744e-05,1.201445147632832e-06,1.4517842674254325e-06,1.4217562629359304e-06,2.527245216455894e-06,2.7217565551444327e-06,1.0572327851142015e-06,8.27453434839595e-06
31,7.999366739579325e-07,8.28694181840309e-07,1.2188819499892108e-06,1.227775321224356e-06,3.532548219943051e-06,1.130567217656176e-06,1.7115215310184354e-06,3.4383206526704375e-05,1.3695457211144743e-05,1.2063689083552849e-06,1.4684184401458072e-06,1.4330003292428049e-06,2.4681189260081336e-06,2.8623557558900114e-06,1.0583125026922804e-06,7.48322126000653e-06
32,8.022733197043802e-07,8.375379113582761e-07,1.1896648494425994e-06,1.23344104166798e-06,4.10246139041654e-06,1.1471199635780994e-06,1.6334514381898446e-06,3.4268820035471606e-05,1.3054419493411612e-05,1.2116608247461767e-06,1.486423098864174e-06,1.4504873111492717e-06,2.432120427781559e-06,3.068588594624544e-06,1.0586450278994364e-06,6.741798482312723e-06
33,8.061037580911474e-07,8.448002423010519e-07,1.1593692822711022e-06,1.2350061544274197e-06,4.75126105412593e-06,1.1634992230975022e-06,1.5581812540984336e-06,3.409094826828338e-05,1.2421008694228395e-05,1.217384281579663e-06,1.5060235309663135e-06,1.4742540926960346e-06,2.420114744196684e-06,3.3430581889593294e-06,1.0584043026117764e-06,6.051578360808539e-06
34,8.114314658809606e-07,8.504153087186033e-07,1.1285040514237027e-06,1.2317337637540666e-06,5.480925810560624e-06,1.1794227537134952e-06,1.4857745869913519e-06,3.386933791249276e-05,1.1805690856139789e-05,1.2236060548475668e-06,1.5274320064728164e-06,1.5042775424526002e-06,2.4326282109954414e-06,3.6877466518307443e-06,1.0577816955723048e-06,5.413087825655906e-06
35,8.181528438492188e-07,8.543711926653516e-07,1.0976160740494722e-06,1.2231148290320192e-06,6.292491189149458e-06,1.194490104322955e-06,1.4162570647112694e-06,3.361760113100889e-05,1.1217173704118183e-05,1.2303285529676823e-06,1.550757931906249e-06,1.5404766010809927e-06,2.4699352788317175e-06,4.104000304888409e-06,1.0568690556267591e-06,4.826478843654114e-06
36,8.260698935917614e-07,8.566458084664709e-07,1.0672745395999306e-06,1.2089900385455066e-06,7.185920978770111e-06,1.2083309296531672e-06,1.3498148090773775e-06,3.334219946672091e-05,1.0662724460045197e-05,1.2374213260277995e-06,1.5760706213710196e-06,1.5826042203277632e-06,2.53212103868942e-06,4.592433872913722e-06,1.0556134043821644e-06,4.291744536566033e-06
37,8.349513536800634e-07,8.571840722626495e-07,1.0379737562972282e-06,1.1896278407705041e-06,8.160021315258777e-06,1.2207387567270742e-06,1.2869101006253965e-06,3.3042130918591086e-05,1.0148419191209885e-05,1.2446097468357055e-06,1.6035289875240961e-06,1.6301611267773343e-06,2.6190232706232576e-06,5.152796748972873e-06,1.0538591011330955e-06,3.8086114483851068e-06
38,8.445611285630562e-07,8.559635272825711e-07,1.0100374361736593e-06,1.1656852813569132e-06,9.212249242086996e-06,1.231691759714004e-06,1.2282152440826401e-06,3.2708809142120635e-05,9.67957790565136e-06,1.251564198794032e-06,1.6334154655710404e-06,1.6824042405659342e-06,2.730135300297844e-06,5.783888961625671e-06,1.051428380406192e-06,3.3762474786128563e-06
39,8.546264808604315e-07,8.530726168246964e-07,9.835967709685465e-07,1.1380195533788612e-06,1.0338370428866585e-05,1.2412480141795703e-06,1.1744168614361095e-06,3.232693186036021e-05,9.260935238856185e-06,1.2580428519968989e-06,1.6660817774239776e-06,1.7384226931863892e-06,2.864516256769246e-06,6.483567787421872e-06,1.0482078470723213e-06,2.99307314352968e-06
40,8.648031032343376e-07,8.487125414731811e-07,9.586544106356235e-07,1.1075091292471851e-06,1.1532104311438038e-05,1.249390130279792e-06,1.1260443498724396e-06,3.1877211300161457e-05,8.8962097925754e-06,1.2639635707082056e-06,1.701904869519034e-06,1.7971812409156331e-06,3.0207022232509118e-06,7.2487810424392e-06,1.0441921216834273e-06,2.6567983771312156e-06
41,8.746655953090857e-07,8.431129694628137e-07,9.351815978552628e-07,1.0750122199388833e-06,1.278481378906589e-05,1.2559101251854618e-06,1.0834081344471834e-06,3.134049698895989e-05,8.587524810410513e-06,1.2693330008212943e-06,1.7412655815435535e-06,1.8574856580338848e-06,3.196731949108425e-06,8.075454626681558e-06,1.0394635489287975e-06,2.3646163212382073e-06
42,8.837207029577267e-07,8.364381053631507e-07,9.131671919203154e-07,1.0413593423093866e-06,1.4085163383882483e-05,1.2603716040758841e-06,1.046611885207611e-06,3.0701721240913235e-05,8.33519090144981e-06,1.2741086737823656e-06,1.784483521734517e-06,1.9179687487560987e-06,3.3903067104631305e-06,8.958205061668258e-06,1.0342070399014004e-06,2.1134290886286056e-06
43,8.914506232419451e-07,8.287570096950974e-07,8.926197859482358e-07,1.0073099973780677e-06,1.54187719217515e-05,1.2621248331568562e-06,1.0155758097527915e-06,2.9952451521279652e-05,8.13798219603526e-06,1.278113189272059e-06,1.8316814893045448e-06,1.9771715789553726e-06,3.598853479685826e-06,9.89002591298847e-06,1.0287754800462535e-06,1.9000031026856766e-06
44,8.973479249067557e-07,8.200570765365749e-07,8.735885364189981e-07,9.735320836457638e-07,1.6768017990872687e-05,1.2603714149947713e-06,9.900488696280844e-07,2.9091858348080614e-05,7.993644129877803e-06,1.28105704779291e-06,1.8826482190754978e-06,2.033672259485155e-06,3.819356602093927e-06,1.0861966501867056e-05,1.0236693686121934e-06,1.7210074449703576e-06
45,9.009100818084376e-07,8.10260106549633e-07,8.561831675773647e-07,9.406095660553025e-07,1.8112232521337907e-05,1.2543326331945011e-06,9.696387337337675e-07,2.81263940519035e-05,7.899135752801546e-06,1.282676293937734e-06,1.9367824382210945e-06,2.086168267617763e-06,4.048136157166268e-06,1.1862759542800158e-05,1.019407349141349e-06,1.5729577111523476e-06
46,9.016862860825886e-07,7.992722890957673e-07,8.40533707259107e-07,9.090626203300769e-07,1.9428626762196967e-05,1.2434980862084873e-06,9.538988580417172e-07,2.7068514287856634e-05,7.850560715803505e-06,1.282888614110007e-06,1.9931091123037537e-06,2.133420003747529e-06,4.280781018909762e-06,1.2878477896343339e-05,1.016403220555581e-06,1.4521813628171469e-06
47,8.994387122246194e-07,7.870937696955515e-07,8.267431920128774e-07,8.793733436944272e-07,2.0694135105591755e-05,1.2277990680723607e-06,9.42434804263367e-07,2.5934810808496775e-05,7.843262109278456e-06,1.281797988229649e-06,2.0503080061349625e-06,2.1740612229134647e-06,4.5122577400546595e-06,1.389235566375705e-05,1.0149164057355466e-06,1.3548700546834895e-06
48,8.942612650736109e-07,7.739289838292964e-07,8.149041932082817e-07,8.519771956145906e-07,2.1887643569853034e-05,1.2076042138928755e-06,9.349352774764402e-07,2.4743902596328546e-05,7.87209091303465e-06,1.2795283944652128e-06,2.1067334629500107e-06,2.206446927033156e-06,4.7371843194287364e-06,1.488516521092476e-05,1.0150634746800602e-06,1.2771098126137478e-06
49,8.865051371132623e-07,7.60199909396804e-07,8.051370765618037e-07,8.27218276933661e-07,2.2991359203064724e-05,1.183589165261025e-06,9.311164348126018e-07,2.3514250812058502e-05,7.93131966461215e-06,1.2760746793706702e-06,2.1604731007746783e-06,2.2287326625386452e-06,4.950294424789936e-06,1.5836886843099976e-05,1.0168956816261575e-06,1.2148688545723583e-06
50,8.766280300005591e-07,7.464523466046846e-07,7.975907884508024e-07,8.053100460273045e-07,2.3990188161057104e-05,1.1565798905643772e-06,9.306724333040967e-07,2.2262102529743984e-05,8.014118656534237e-06,1.2712970703764354e-06,2.2095295362797184e-06,2.239231434442968e-06,5.146990102205985e-06,1.672975141905694e-05,1.0205565329072548e-06,1.1641282084549878e-06
51,8.651399876458406e-07,7.332648927912897e-07,7.923974133289923e-07,7.863206681017426e-07,2.486938518257281e-05,1.1274326746557148e-06,9.333013942767822e-07,2.1000280828446264e-05,8.112101836896513e-06,1.2649733087308633e-06,2.252117498570589e-06,2.236903560480937e-06,5.3237364606879645e-06,1.755098330245363e-05,1.0264173354744985e-06,1.1212231119985244e-06
52,8.525978157172804e-07,7.21210851346718e-07,7.895971424006169e-07,7.701916947985827e-07,2.5612780635912616e-05,1.0969753816734954e-06,9.387797134832983e-07,1.9738508479651017e-05,8.2154387647679e-06,1.2568347809350792e-06,2.286933241229766e-06,2.2216644609746203e-06,5.478126150126334e-06,1.8292836196677514e-05,1.035051734011259e-06,1.0832160435224922e-06
53,8.395432318310381e-07,7.108085590739711e-07,7.890753778959176e-07,7.567851085193805e-07,2.6204002093176434e-05,1.0659951264154056e-06,9.470180350860517e-07,1.8484811326411522e-05,8.313677723500063e-06,1.2466427114246385e-06,2.3132069366724975e-06,2.1942391116438003e-06,5.6086741073014315e-06,1.8949780717502637e-05,1.0470726774983198e-06,1.0481014218934814e-06
54,8.264332251371006e-07,7.024515150651479e-07,7.905435889457445e-07,7.459137769264138e-07,2.6630233580607256e-05,1.0352219345456838e-06,9.580704498069976e-07,1.7246853973318876e-05,8.396884865811795e-06,1.2342839484035258e-06,2.3304745859214444e-06,2.1557045082757133e-06,5.714519938241335e-06,1.951596525445426e-05,1.0629720947117417e-06,1.0147875914329713e-06
55,8.136231612090684e-07,6.963751865744661e-07,7.935529374750367e-07,7.373472454314605e-07,2.6885720431685677e-05,1.0052749844844489e-06,9.721026282097728e-07,1.603261552960646e-05,8.456246308458066e-06,1.2197786034769862e-06,2.3383208641810783e-06,2.1071818432244313e-06,5.795091274005723e-06,1.9985511736473752e-05,1.083064186613287e-06,9.829181055208644e-07
56,8.013675666502505e-07,6.92670002600854e-07,7.975160079839679e-07,7.308486626337858e-07,2.6973000412206023e-05,9.76601402655707e-07,9.89322997232434e-07,1.4850469190870626e-05,8.484025977449221e-06,1.2032333746516732e-06,2.3363902834312806e-06,2.04989261071486e-06,5.849678269036412e-06,2.035454943387426e-05,1.1075517383647627e-06,9.526152565611901e-07
57,7.89821062230276e-07,6.913099295244048e-07,8.017464496984531e-07,7.262506075220327e-07,2.6901792052753936e-05,9.494592127361289e-07,1.0099051622919697e-06,1.3708903705743491e-05,8.474291068815848e-06,1.1848598375766678e-06,2.324564200677273e-06,1.985383020312201e-06,5.87707564619723e-06,2.062266230193638e-05,1.1366690514210124e-06,9.242334315377784e-07
58,7.79047426083633e-07,6.921685615362137e-07,8.05559635634762e-07,7.23515274664626e-07,2.6686333668175817e-05,9.239616887318832e-07,1.0339382222711246e-06,1.2616124987779621e-05,8.424893020082674e-06,1.1650264000768163e-06,2.303019019936474e-06,1.915627195554282e-06,5.875573637797984e-06,2.0792872038762337e-05,1.170804708584041e-06,8.982248335809438e-07
59,7.690207319650536e-07,6.950150139200486e-07,8.084201653656042e-07,7.227410464346717e-07,2.6341884196225142e-05,9.001691411550204e-07,1.0613851800171225e-06,1.1579731874689003e-05,8.338595753773678e-06,1.1442176646377446e-06,2.272127042311553e-06,1.842861623824245e-06,5.843254737426203e-06,2.087039264976272e-05,1.210506828812703e-06,8.751023245222979e-07
60,7.596408708721818e-07,6.995076550566008e-07,8.100149246557008e-07,7.241044704656426e-07,2.5881441828874355e-05,8.781863486239151e-07,1.0920536097766727e-06,1.0606559283617546e-05,8.221798178073877e-06,1.1229082927831521e-06,2.2323568065181815e-06,1.7692590130459575e-06,5.778391315173431e-06,2.0860774227155447e-05,1.2563922835848938e-06,8.553845043071785e-07
61,7.507992021209778e-07,7.052088028481459e-07,8.101865133749673e-07,7.277577223281682e-07,2.53142927202029e-05,8.582123177372166e-07,1.1256600952696856e-06,9.702636917109031e-06,8.082030277627481e-06,1.1014693492745188e-06,2.1842773486568258e-06,1.6966991850719816e-06,5.679975793045034e-06,2.0768127759285947e-05,1.309116203346752e-06,8.395435781039248e-07
62,7.424445207589e-07,7.116171604668458e-07,8.088702022989792e-07,7.337412742070759e-07,2.464694314370547e-05,8.405230525700853e-07,1.1619787987574067e-06,8.873100208774848e-06,7.926047349262811e-06,1.0801371331575227e-06,2.128639317122268e-06,1.6267314932836275e-06,5.548367234174063e-06,2.0594427659311057e-05,1.3695016411598877e-06,8.280250182906868e-07
63,7.345709983858636e-07,7.182038070660525e-07,8.061419859195427e-07,7.419592733820116e-07,2.3885140515803118e-05,8.254064849982717e-07,1.2009213869533916e-06,8.121956261619735e-06,7.75913434901262e-06,1.0590037041349826e-06,2.066453833539556e-06,1.5605998997037206e-06,5.385678684511779e-06,2.0340983172001428e-05,1.4387415107461984e-06,8.212584786559736e-07
64,7.271493326036576e-07,7.244648212624831e-07,8.02243908840054e-07,7.522204783376462e-07,2.3035586015906735e-05,8.130949081151636e-07,1.2424547562368981e-06,7.451829026156281e-06,7.585219554038552e-06,1.0380410327546469e-06,1.998981894050768e-06,1.499224098841427e-06,5.195565223756477e-06,2.0011260431944787e-05,1.5184768095882136e-06,8.195991185263889e-07
65,7.201027270918297e-07,7.299694645881808e-07,7.975061732300142e-07,7.643249849611316e-07,2.210699168021318e-05,8.037429017334241e-07,1.2864406036072395e-06,6.863939099601565e-06,7.407145086442176e-06,1.0171802864014746e-06,1.927585940891334e-06,1.4431791812308618e-06,4.982604586985848e-06,1.9611994479311975e-05,1.6106625705697225e-06,8.232723936021207e-07
66,7.133620390773615e-07,7.343501734565677e-07,7.92284719708268e-07,7.781498806632927e-07,2.1110541944208253e-05,7.974348383671988e-07,1.3325630841344492e-06,6.35842286556129e-06,7.226713084119018e-06,9.96422407371444e-07,1.8535667096888427e-06,1.3927349130459604e-06,4.751718751851865e-06,1.915122326445492e-05,1.7173721230406178e-06,8.323572245065583e-07
67,7.069177052625349e-07,7.372898994815878e-07,7.869721359100136e-07,7.936595260640237e-07,2.0059735164527696e-05,7.941694049936381e-07,1.3804359328314637e-06,5.934796818977967e-06,7.044543156202235e-06,9.759102555641744e-07,1.7781433222530661e-06,1.3479525606241203e-06,4.5077467621941875e-06,1.86358789539874e-05,1.8407221988263843e-06,8.46774169601308e-07
68,7.008203615337254e-07,7.386097132076966e-07,7.81997643843893e-07,8.108222670887566e-07,1.896970014084067e-05,7.938352936923975e-07,1.4298040456825114e-06,5.5922951668102e-06,6.86008684557402e-06,9.558967190683722e-07,1.7024997473112243e-06,1.3087891059999872e-06,4.255100095245267e-06,1.8071659901620693e-05,1.982872584260548e-06,8.66278789830214e-07
69,6.951870699720411e-07,7.383854258615728e-07,7.77763813114203e-07,8.29521021887253e-07,1.7856280672447743e-05,7.962089289763094e-07,1.4806406626648565e-06,5.33002478308907e-06,6.6720333789764795e-06,9.366585816022411e-07,1.6277566174435043e-06,1.2751332480612979e-06,3.997647476032341e-06,1.7464534636956276e-05,2.145944234514899e-06,8.904683147626335e-07
70,6.90221282125452e-07,7.369313151940145e-07,7.745819124140209e-07,8.495272567903807e-07,1.6735067291311264e-05,8.009454983142015e-07,1.5330434984675156e-06,5.147043454272459e-06,6.47880073716824e-06,9.18443824050608e-07,1.5549067296282546e-06,1.246804170441664e-06,3.7388885145974635e-06,1.682197741833238e-05,2.3318691566722896e-06,9.188153742087293e-07
71,6.861785176114797e-07,7.346851493145397e-07,7.726638296989863e-07,8.705005095583056e-07,1.5620352140126242e-05,8.07568045146363e-07,1.5870262002710562e-06,5.042424021129368e-06,6.278630830429877e-06,9.014675090821162e-07,1.4847870210930449e-06,1.2235918920053503e-06,3.4821515634266247e-06,1.615312448688276e-05,2.542318682520338e-06,9.507537238660045e-07
72,6.83286047751648e-07,7.321466943228701e-07,7.721311632584874e-07,8.919813241026831e-07,1.4524130482291247e-05,8.155340710264579e-07,1.6423522088103666e-06,5.015293691149093e-06,6.069434588159931e-06,8.859367796985439e-07,1.4180641078991193e-06,1.2052649819646744e-06,3.2305899578455383e-06,1.5467867538689462e-05,2.7787296747299938e-06,9.857612560400172e-07
73,6.817005130310329e-07,7.298661573924119e-07,7.730000561281056e-07,9.134050128285646e-07,1.3455585495193692e-05,8.243977508492137e-07,1.6984935216854803e-06,5.064783155637726e-06,5.849098175158834e-06,8.720437985445167e-07,1.3552232764075123e-06,1.1914936988585335e-06,2.987006929495059e-06,1.477537322930156e-05,3.0423249012355354e-06,1.023367724457731e-06
74,6.815280347163742e-07,7.284016623904084e-07,7.751831732421144e-07,9.341260659420882e-07,1.2421352316808416e-05,8.339387068823847e-07,1.7547446241510194e-06,5.1897958278905764e-06,5.616458529789766e-06,8.599082399764092e-07,1.296583381249224e-06,1.1818156613163535e-06,2.7536829442759633e-06,1.4082737175838522e-05,3.33409979171291e-06,1.0631402344507902e-06
75,6.828404080254975e-07,7.282578993141602e-07,7.785526702500577e-07,9.534334091677697e-07,1.1426274273546271e-05,8.441277937438992e-07,1.8104736013699865e-06,5.38867225694237e-06,5.372206632556425e-06,8.495480375926443e-07,1.2423018798263623e-06,1.1757065745101783e-06,2.5323683526604486e-06,1.3394293276625001e-05,3.6547825490296697e-06,1.104727126851394e-06
76,6.856374237884735e-07,7.298466078574265e-07,7.830234458868985e-07,9.706384383678022e-07,1.0474125416964891e-05,8.54980249749444e-07,1.8654219060697286e-06,5.6589944358953195e-06,5.118958702059683e-06,8.409122710423098e-07,1.1923592906599195e-06,1.1726389082389661e-06,2.324444475355969e-06,1.2711931927919722e-05,4.004706614634297e-06,1.147912358082708e-06
77,6.897957395954538e-07,7.334649105649977e-07,7.885843638452123e-07,9.852834085317182e-07,9.568041479943157e-06,8.664475967616369e-07,1.9199077718797673e-06,5.997563065667467e-06,4.860549041778826e-06,8.339338008227547e-07,1.1466038624551769e-06,1.172064091346912e-06,2.1310961977531977e-06,1.2036496181663718e-05,4.383609057017047e-06,1.1925831007888605e-06
78,6.950667783092965e-07,7.392802889403299e-07,7.952560664727707e-07,9.973192576282382e-07,8.710645840618772e-06,8.784364910441901e-07,1.974816284000208e-06,6.400319854939383e-06,4.601139272710757e-06,8.285593170130625e-07,1.1048468681336323e-06,1.1734325522298064e-06,1.9533485042820715e-06,1.1369596438387314e-05,4.790485780657065e-06,1.2386202132827625e-06
79,7.011182522900119e-07,7.473365485712074e-07,8.030150310713838e-07,1.0071009256174082e-06,7.903964544623256e-06,8.909251178945805e-07,2.0313938978289017e-06,6.862149252986399e-06,4.34457771859691e-06,8.247617798017478e-07,1.066894599459385e-06,1.1763267679829276e-06,1.7919677136607984e-06,1.0714733720246545e-05,5.223527840283593e-06,1.2858015024701088e-06
80,7.075654169971585e-07,7.575903092326448e-07,8.117556086435727e-07,1.0152437746561285e-06,7.149300529546212e-06,9.04045912132701e-07,2.090985983552569e-06,7.376714549147165e-06,4.094089597632987e-06,8.225781359652834e-07,1.0325382923089208e-06,1.180555705245072e-06,1.6473630858733453e-06,1.007720217833379e-05,5.680028913878774e-06,1.3337583121402018e-06
81,7.139880767097014e-07,7.699538694234393e-07,8.213119999641786e-07,1.022454684294963e-06,6.4472062990534714e-06,9.180488201927521e-07,2.1548413934994295e-06,7.936390374272252e-06,3.852271630254645e-06,8.221735573290165e-07,1.0015758203103228e-06,1.1860703651195684e-06,1.5196003203366513e-06,9.463290032081595e-06,6.1562329616536825e-06,1.381951483125411e-06
82,7.199859970257459e-07,7.843135676084489e-07,8.314769538179573e-07,1.029391330878852e-06,5.797573007593927e-06,9.331966865317513e-07,2.22401340326579e-06,8.532192766758424e-06,3.621281885073642e-06,8.238781518641163e-07,9.738232094146647e-07,1.1928339309554463e-06,1.4084852742150266e-06,8.87965135704249e-06,6.647172802480444e-06,1.4296337336788782e-06
83,7.252522026366949e-07,8.005222270585222e-07,8.419808053292326e-07,1.0365794012434528e-06,5.199764594670788e-06,9.496732579960457e-07,2.2993291891785703e-06,9.153759558981443e-06,3.403020810829059e-06,8.281484883310796e-07,9.491370044964027e-07,1.2007939389940017e-06,1.313641911051673e-06,8.333121312098526e-06,7.146501034618337e-06,1.4758261894118826e-06
84,7.295687309258574e-07,8.183938160789174e-07,8.524821817512294e-07,1.0444142385112427e-06,4.6527112965583834e-06,9.675483161655886e-07,2.381390461388709e-06,9.789835678640114e-06,3.199217271589305e-06,8.354584689104785e-07,9.275041474781971e-07,1.2099027639962728e-06,1.2346043147087124e-06,7.830579356620576e-06,7.646315862783824e-06,1.519359386463574e-06
85,7.327194940735553e-07,8.377216966878912e-07,8.626206070698353e-07,1.0532059343862143e-06,4.1549158906900935e-06,9.86797549415852e-07,2.4705558362996125e-06,1.0429603940850932e-05,3.011452013733106e-06,8.46194936175108e-07,9.090880003604002e-07,1.220166672022286e-06,1.170904080609729e-06,7.378499200470054e-06,8.13703732139385e-06,1.5589684927038112e-06
86,7.344182255628593e-07,8.582971261916315e-07,8.721130737739388e-07,1.0631861407769373e-06,3.70439338742769e-06,1.0073167219785237e-06,2.56686315470555e-06,1.1064345070244568e-05,2.8411064756766833e-06,8.606340991455631e-07,8.941371846370834e-07,1.2317495771234315e-06,1.122073818023477e-06,6.982352013441306e-06,8.607415510988214e-06,1.5933673750985292e-06
87,7.343308764639705e-07,8.798845914002405e-07,8.808280593642203e-07,1.074490624361259e-06,3.2986280248438744e-06,1.0289072068704264e-06,2.6699307016948325e-06,1.1688369873316873e-05,2.6892573692076515e-06,8.789817625300527e-07,8.828667472503656e-07,1.2450145108075727e-06,1.0876267306289914e-06,6.646292600784882e-06,9.044865211220904e-06,1.6212606863628248e-06
88,7.321842139955966e-07,9.021614451215624e-07,8.887710026164273e-07,1.0871868568541757e-06,2.934644182981546e-06,1.0512752776080612e-06,2.778944784543015e-06,1.2298637872237772e-05,2.5566745309089987e-06,9.013974321191984e-07,8.754123627287464e-07,1.2604377776944562e-06,1.0671493196001033e-06,6.373292457419708e-06,9.436396301437066e-06,1.6413851160406147e-06
89,7.278479073478964e-07,9.246729788827877e-07,8.959890669403852e-07,1.101310113468512e-06,2.6092259550313315e-06,1.0740452511916162e-06,2.8927712765966996e-06,1.2893444306143067e-05,2.444004388993984e-06,9.279598571531275e-07,8.718289546527011e-07,1.278551132614849e-06,1.060458603866586e-06,6.165559241611595e-06,9.770116522265105e-06,1.652625314200715e-06
90,7.212980057352014e-07,9.468153562504233e-07,9.024887622853599e-07,1.116825626028555e-06,2.3192250831355725e-06,1.0967751062460835e-06,3.010106304516737e-06,1.3471087545459446e-05,2.351936034126316e-06,9.586096129466169e-07,8.721235056648444e-07,1.2999991591204731e-06,1.0676354575183235e-06,6.0249267717182995e-06,1.0036742955081664e-05,1.6540762293241763e-06
91,7.125488924727586e-07,9.67826801562226e-07,9.082220490214407e-07,1.1335339210000489e-06,2.061843004650605e-06,1.119018866999101e-06,3.129568097291946e-06,1.4028963016914087e-05,2.281143861640457e-06,9.931153023940875e-07,8.76300355302458e-07,1.3255711648234324e-06,1.0889089425531001e-06,5.952882610350322e-06,1.0230297228820251e-05,1.645115435901066e-06
92,7.016939428004625e-07,9.867874444841249e-07,9.131152011491203e-07,1.151003349400663e-06,1.8347845634437612e-06,1.1404033089962404e-06,3.2497169828529346e-06,1.4562913214844384e-05,2.2321601793379726e-06,1.031079856694881e-06,8.843443460591213e-07,1.3560942197879328e-06,1.1245405714355783e-06,5.95021350562085e-06,1.0347426925265039e-05,1.6256641613967694e-06
93,6.890144449476159e-07,1.0026461075978011e-06,9.171224687292476e-07,1.1685898315764256e-06,1.6362320078867472e-06,1.160611088235073e-06,3.369068195260204e-06,1.5067103069119112e-05,2.205368703799049e-06,1.0720098360157556e-06,8.961699023326459e-07,1.3922603581768437e-06,1.174768978015721e-06,6.016601757874159e-06,1.0385784403789518e-05,1.596411654180247e-06
94,6.749969661099545e-07,1.014339017956754e-06,9.202871292891855e-07,1.1855369324777897e-06,1.4646640438311746e-06,1.1793182287672544e-06,3.486169777096412e-06,1.553499912344513e-05,2.200996563438614e-06,1.1154394432396267e-06,9.116048177353274e-07,1.434539980306473e-06,1.2397937228820953e-06,6.150400089825201e-06,1.0343218948703232e-05,1.558709118402725e-06
95,6.602243091478288e-07,1.0210312833692392e-06,9.227594827041722e-07,1.201066704276771e-06,1.318623997160525e-06,1.196223898545117e-06,3.5997581578065e-06,1.5961100826798318e-05,2.219054886022767e-06,1.1610140942586937e-06,9.303815144777859e-07,1.4832603031253062e-06,1.3197750281435237e-06,6.3485477118392405e-06,1.0219035376601908e-05,1.5142417188698763e-06
96,6.452613871985912e-07,1.0223320922075683e-06,9.247414035101843e-07,1.2143874879696278e-06,1.196548652809583e-06,1.2111554551874668e-06,3.7089282113702327e-06,1.6342527416483426e-05,2.259390943063021e-06,1.2084442378678177e-06,9.521239766855264e-07,1.5387457729404372e-06,1.414783607160185e-06,6.606584837309628e-06,1.001611766587835e-05,1.4647257198319663e-06
97,6.306100280073511e-07,1.018318442350467e-06,9.263816636353423e-07,1.224692108300565e-06,1.096690787348618e-06,1.2241687559515735e-06,3.813206693760943e-06,1.667995740651031e-05,2.3218245193670287e-06,1.257388502797557e-06,9.763640400059094e-07,1.6013386716196254e-06,1.524710850948468e-06,6.918783820543716e-06,9.741802581806034e-06,1.411781616697461e-06
98,6.166891280392722e-07,1.009400812763779e-06,9.276877651795842e-07,1.2312718175580684e-06,1.0171220214547077e-06,1.235638042395017e-06,3.912404835173214e-06,1.697767734087752e-05,2.4061553783029876e-06,1.3073974622094866e-06,1.0025661544656383e-06,1.6713338667374212e-06,1.6492058764510583e-06,7.278332257092939e-06,9.406905721971889e-06,1.3569796980889003e-06
99,6.038117818367356e-07,9.961603754603205e-07,9.285176416938682e-07,1.2337188658984985e-06,9.558256914273198e-07,1.2462986267106157e-06,4.006267510440397e-06,1.7242736546014096e-05,2.511991500428876e-06,1.3579266199389304e-06,1.0301333610054181e-06,1.7490599811122644e-06,1.7876469740606007e-06,7.67741519958274e-06,9.023809819443964e-06,1.3018805395353022e-06
100,5.921781733995291e-07,9.79217843923409e-07,9.286715961271525e-07,1.232029068601356e-06,9.108638693577814e-07,1.2571506587103375e-06,4.094247418137809e-06,1.7483651928778253e-05,2.6385588908007674e-06,1.4083738973010402e-06,1.058415200062239e-06,1.8352188172116032e-06,1.9391831370216647e-06,8.107125485658139e-06,8.604763860562084e-06,1.2479651152683484e-06
101,5.818807626628666e-07,9.591349064000029e-07,9.280522218927488e-07,1.2264977676506044e-06,8.805308310708581e-07,1.2692357586770717e-06,4.175684346438602e-06,1.7709240630462475e-05,2.7846161718421455e-06,1.4581766678475304e-06,1.0867212871257242e-06,1.9313688822412606e-06,2.102881204468245e-06,8.557450886951617e-06,8.160893647111077e-06,1.1965437813347965e-06
102,5.729128255888735e-07,9.363803909750633e-07,9.268034822728615e-07,1.2175906045548907e-06,8.634173488663393e-07,1.283436221425691e-06,4.250157487127273e-06,1.792784164965456e-05,2.948480948965871e-06,1.506936157510634e-06,1.1143250404438525e-06,2.040273194878968e-06,2.277892491775957e-06,9.01780988813805e-06,7.701770871586687e-06,1.1487303465240905e-06
103,5.652046322572113e-07,9.113882702251821e-07,9.253239097405541e-07,1.2059524246191775e-06,8.583925981461882e-07,1.3004053063655975e-06,4.3176199567787375e-06,1.814681890055479e-05,3.1281377877867968e-06,1.5544394046786397e-06,1.1404582927973005e-06,2.165809314085404e-06,2.463481118891219e-06,9.477965151539358e-06,7.235312331811321e-06,1.105498712806211e-06
104,5.58686075759747e-07,8.846398429566844e-07,9.24143452292257e-07,1.1923989343379953e-06,8.645492140250356e-07,1.320593827248934e-06,4.378294731600173e-06,1.837209861127457e-05,3.32130910935257e-06,1.6005812558863605e-06,1.1643124147672627e-06,2.312495667033584e-06,2.6588468475648355e-06,9.928381252598855e-06,6.767968290234701e-06,1.0678190313535518e-06
105,5.533091216167466e-07,8.566910786697676e-07,9.237886363224337e-07,1.177795987857002e-06,8.81136829009042e-07,1.3442766644608806e-06,4.432570780857336e-06,1.8607536962502074e-05,3.5253798884659952e-06,1.6452933325185228e-06,1.1851135915864229e-06,2.4850645345610043e-06,2.8628500822561188e-06,1.036003580231508e-05,6.305114268655875e-06,1.036810747730008e-06
106,5.490058765034935e-07,8.281539908487669e-07,9.247247466909527e-07,1.1629556414523976e-06,9.074891348750177e-07,1.371533915792497e-06,4.481056338846308e-06,1.885411611428874e-05,3.737290256824591e-06,1.688488879626837e-06,1.2022790604222048e-06,2.6882710131825758e-06,3.0738264064498346e-06,1.076481220927203e-05,5.851430807079935e-06,1.0138492303369677e-06
107,5.456572307951055e-07,7.996609495389804e-07,9.273156809945955e-07,1.1485800240435596e-06,9.429458491213916e-07,1.4022463006814333e-06,4.524739415400406e-06,1.9109354260049884e-05,3.953555871078398e-06,1.7300049445824144e-06,1.2154973681886137e-06,2.926773746731183e-06,3.2896222768889354e-06,1.1136469698398815e-05,5.411095181396495e-06,1.0006179574992444e-06
108,5.431319998284373e-07,7.718084083049647e-07,9.317618725122392e-07,1.1352262455621048e-06,9.86769635528443e-07,1.436171419855206e-06,4.565086469697876e-06,1.9367411875102298e-05,4.17038097268797e-06,1.7695975138601054e-06,1.224672091151791e-06,3.205010909037345e-06,3.5078491465378904e-06,1.1471012865742213e-05,4.987723260628289e-06,9.990725160087256e-07
109,5.413541973641481e-07,7.450972128459897e-07,9.380705755510233e-07,1.1233283561892988e-06,1.0380683502520192e-06,1.4730488960386273e-06,4.603934179304729e-06,1.9619795891697826e-05,4.38388689966507e-06,1.8069800111873235e-06,1.2298581174071212e-06,3.527092161668687e-06,3.72619800567809e-06,1.1766151022567055e-05,4.584157302471348e-06,1.0113107080588767e-06
110,5.403102008189688e-07,7.199017086367079e-07,9.460876939782935e-07,1.1132397775740126e-06,1.0957425631248832e-06,1.5126368856118746e-06,4.643132796038928e-06,1.9856077958419452e-05,4.5906839842382715e-06,1.841803137751749e-06,1.2312316714643047e-06,3.896757947526946e-06,3.942624600443399e-06,1.2020367854001659e-05,4.202355709839086e-06,1.0394461301037846e-06
111,5.399830593105295e-07,6.964653466666619e-07,9.555696370902642e-07,1.1052245501742833e-06,1.1584689917489949e-06,1.5546606167704544e-06,4.684069936532023e-06,2.0064408045404546e-05,4.788742534880929e-06,1.8735621274281547e-06,1.229013366083634e-06,4.317413054115542e-06,4.1553231392729284e-06,1.2231899393730553e-05,3.843499770378639e-06,1.0855697603126759e-06
112,5.402972897765365e-07,6.749172481142855e-07,9.66239615172568e-07,1.0994297525666622e-06,1.2247296481556799e-06,1.5987351969034695e-06,4.727368241862551e-06,2.023230399453393e-05,4.9779614438029445e-06,1.9015006384955966e-06,1.2233754149178675e-06,4.792057503623977e-06,4.362494790753367e-06,1.2398126110333719e-05,3.508125386054818e-06,1.15184318538565e-06
113,5.411473126211755e-07,6.553127415548012e-07,9.7778164854671e-07,1.0958993348560076e-06,1.292881539117913e-06,1.6443572592949535e-06,4.772950021398234e-06,2.0348347593396668e-05,5.159862158673513e-06,1.924571230772465e-06,1.2144896054452124e-06,5.323090010846694e-06,4.562046946822059e-06,1.2516112162396468e-05,3.1961605540414934e-06,1.2407404884035802e-06
114,5.424864543571011e-07,6.376729254856432e-07,9.898386941917865e-07,1.0945987481683291e-06,1.3612192248113759e-06,1.691021616177356e-06,4.8203541620347995e-06,2.04047335498233e-05,5.336714911275613e-06,1.941564419210042e-06,1.202723162507044e-06,5.912187418813986e-06,4.7515211034756905e-06,1.2583770393882429e-05,2.906995567274181e-06,1.355323267195528e-06
115,5.443779723748857e-07,6.21994379357141e-07,1.0020862796825737e-06,1.0954227995764412e-06,1.4280181264189995e-06,1.738393878818101e-06,4.869038701107121e-06,2.039959940345441e-05,5.511061832620685e-06,1.9514439473224815e-06,1.1887421884396292e-06,6.560297497539107e-06,4.928353991472715e-06,1.2600182326727785e-05,2.639650802264384e-06,1.4993517753981303e-06
116,5.46953798311677e-07,6.082341677482962e-07,1.0142805736029186e-06,1.0982339452562246e-06,1.4916405131557295e-06,1.7863699982141845e-06,4.918443707738845e-06,2.0337734336363383e-05,5.6858322511723086e-06,1.9536811098725134e-06,1.1733665986875619e-06,7.267663857823937e-06,5.090183407488759e-06,1.2565181431470131e-05,2.392959307710642e-06,1.6771568564639574e-06
117,5.503467429340101e-07,5.962913474384997e-07,1.0261874450487375e-06,1.1029220739032543e-06,1.5507475300469645e-06,1.834936611616479e-06,4.967763019566762e-06,2.022912515633445e-05,5.86425745515198e-06,1.9484079846805554e-06,1.1573414157448947e-06,8.033863334935777e-06,5.23497676386575e-06,1.2479373369842393e-05,2.1657048082319455e-06,1.8933781256452783e-06
118,5.546688329121022e-07,5.860005919037288e-07,1.0374998897988545e-06,1.1094217953476978e-06,1.6044983361648071e-06,1.8839344357762692e-06,5.01567198210979e-06,2.0086005607931675e-05,6.049366221215517e-06,1.9364277816140376e-06,1.1412297214345774e-06,8.857847395747317e-06,5.361011373914729e-06,1.2344260992357418e-05,1.956705714151458e-06,2.152738298036862e-06
119,5.600065341675854e-07,5.771692116829869e-07,1.0478632367307141e-06,1.1177047711458455e-06,1.6525695724658252e-06,1.932898480859067e-06,5.06039133374406e-06,1.991969625586869e-05,6.243575936079022e-06,1.9191083681521142e-06,1.1254231812676734e-06,9.737995863282317e-06,5.466712566959075e-06,1.2162157187500205e-05,1.7648473431158387e-06,2.4599353290902417e-06
120,5.663917244406006e-07,5.696775481766808e-07,1.0569780617576408e-06,1.1277837323202618e-06,1.6949874222085389e-06,1.981065311715692e-06,5.100168621109781e-06,1.9738423623527746e-05,6.448509902116313e-06,1.8981205339504617e-06,1.1102058084056484e-06,1.0672119094922265e-05,5.550579451822089e-06,1.1936712756242613e-05,1.5891102347529263e-06,2.8196191200510392e-06
121,5.737724511958464e-07,5.635655584612862e-07,1.0647112143028731e-06,1.1396810331134071e-06,1.7319241737519647e-06,2.027502342245125e-06,5.133799892553639e-06,1.9546452178169246e-05,6.6649970607258815e-06,1.8750987387838044e-06,1.0958493438333416e-06,1.1657213480352625e-05,5.611566348886082e-06,1.1673336546952782e-05,1.4286267451299547e-06,3.2364184670553555e-06
122,5.820207023715791e-07,5.590051517136509e-07,1.0711629695717886e-06,1.1533349894590228e-06,1.7635593932538313e-06,2.0712338087209063e-06,5.160779240717923e-06,1.9344063070543183e-05,6.893308104291876e-06,1.8513823070584155e-06,1.082707574345116e-06,1.2688926355182596e-05,5.649524144697451e-06,1.1378149036770164e-05,1.2826826541649995e-06,3.714989160534078e-06
123,5.90985264916736e-07,5.561981579739392e-07,1.0766277198996708e-06,1.168515078097683e-06,1.7899687290850385e-06,2.111305509875593e-06,5.181082509423226e-06,1.9127819166231363e-05,7.133389894172153e-06,1.8279028037737422e-06,1.0712413572213223e-06,1.376107318757231e-05,5.6649726442579675e-06,1.105648110250135e-05,1.1506010304341234e-06,4.259988425819647e-06
124,6.005523007953728e-07,5.553067082338531e-07,1.0814654506566136e-06,1.1848078384674115e-06,1.8110211630131901e-06,2.1468553536469886e-06,5.194869584860494e-06,1.8890877253852602e-05,7.38501047421295e-06,1.8051744353379077e-06,1.0619308630339232e-06,1.4865584535863309e-05,5.6585543805706245e-06,1.0712450545968448e-05,1.031614247810216e-06,4.875925515238507e-06
125,6.106506436833023e-07,5.564367810097527e-07,1.0859971206166808e-06,1.2016730259406347e-06,1.826333785132207e-06,2.1772293292083206e-06,5.202283230311205e-06,1.862385792451765e-05,7.648173647130156e-06,1.783338816094332e-06,1.0551579748633014e-06,1.5992718339638568e-05,5.631068858032058e-06,1.0349360050980931e-05,9.248549775659031e-07,5.566961612015786e-06
126,6.211962740876248e-07,5.5964627090631e-07,1.0904665857481488e-06,1.218558098331222e-06,1.8352821131814447e-06,2.2020578022194066e-06,5.2033258209229956e-06,1.831680331926103e-05,7.923846610838138e-06,1.7622381996524314e-06,1.0511549373793699e-06,1.7131033003498354e-05,5.584036687166012e-06,9.970227096155192e-06,8.294446624658165e-07,6.336690657499659e-06
127,6.320568910546718e-07,5.6495328483163e-07,1.0950394749135622e-06,1.2350283939976322e-06,1.8370616624629005e-06,2.2212132457204562e-06,5.1976985422050135e-06,1.796154582071318e-05,8.214389523518578e-06,1.7414929637526535e-06,1.0499929779705724e-06,1.8266973446248242e-05,5.5200826448723965e-06,9.578229086023611e-06,7.445698386385161e-07,7.187821638166204e-06
128,6.431076742433669e-07,5.723250546578029e-07,1.099842027403038e-06,1.2508187565617239e-06,1.8308700384654398e-06,2.234694131772525e-06,5.184534788930932e-06,1.7553314325623604e-05,8.52316336066727e-06,1.7206213458207026e-06,1.0515779800734456e-06,1.938436236374281e-05,5.442772726448259e-06,9.1766759781514e-06,6.695050208392453e-07,8.121766508664606e-06
129,6.543376265301796e-07,5.816611986432098e-07,1.1049957081984752e-06,1.2657479205965109e-06,1.816177064629238e-06,2.2425388017336764e-06,5.162162104288921e-06,1.709118405421388e-05,8.853529981877055e-06,1.6992138038476667e-06,1.0556725852003774e-06,2.046416739138847e-05,5.356008168077427e-06,8.768410570182144e-06,6.036111418404721e-07,9.138269263303365e-06
130,6.65887794384866e-07,5.928051563644751e-07,1.1105829382149595e-06,1.2795634826009606e-06,1.792895243277452e-06,2.244801331089974e-06,5.12811808604818e-06,1.657778230039902e-05,9.20785597140226e-06,1.6769920978513755e-06,1.0619558704723564e-06,2.1484826491948803e-05,5.263414425099556e-06,8.35540820601736e-06,5.463174426726617e-07,1.023513539576797e-05
131,6.779792244532503e-07,6.055776464337134e-07,1.1166017827429003e-06,1.2918700974407904e-06,1.761342468653231e-06,2.2415084830883807e-06,5.079442698985664e-06,1.601880783296263e-05,9.586897899751134e-06,1.6536488158116207e-06,1.0701167819828044e-06,2.2423311322016173e-05,5.168162789497675e-06,7.939052961316113e-06,4.971122511818895e-07,1.1408007511976016e-05
132,6.908275221304346e-07,6.197997663427558e-07,1.1229717945780712e-06,1.3022154892562355e-06,1.722081406001032e-06,2.2325613508447593e-06,5.013088647214575e-06,1.5422582508260752e-05,9.98972141719014e-06,1.6286456949499984e-06,1.07997027858232e-06,2.325693372213721e-05,5.073136157428443e-06,7.520493515212849e-06,4.556154616097453e-07,1.2650192586739448e-05
133,7.046166606415439e-07,6.353220746353723e-07,1.1295484634780341e-06,1.3102508498894878e-06,1.6757886487168554e-06,2.217718497714129e-06,4.926356107008363e-06,1.4799527313624833e-05,1.0414221645553533e-05,1.6011657540136125e-06,1.0915579661099633e-06,2.3965586710196446e-05,4.9810381591462575e-06,7.100687624671538e-06,4.2171578823078055e-07,1.3952642087533802e-05
134,7.194940037258221e-07,6.520602274115331e-07,1.136132114359179e-06,1.3158386518620628e-06,1.6232185524247433e-06,2.1967362601429685e-06,4.817372029895358e-06,1.4161433040444202e-05,1.0857956008361223e-05,1.5702544337153829e-06,1.1051474218339713e-06,2.4533679091226747e-05,4.894323650853207e-06,6.680587377760203e-06,3.9564302993745275e-07,1.530410188313481e-05
135,7.355558734969981e-07,6.699694893423065e-07,1.1425072228838406e-06,1.3190589890373433e-06,1.565205784836094e-06,2.1695131227361446e-06,4.685596336917039e-06,1.3520585805674298e-05,1.1318674365885527e-05,1.5351116423600477e-06,1.1210850507403698e-06,2.4950669934828688e-05,4.81509951207688e-06,6.261614665421471e-06,3.779050374573083e-07,1.6691225789331168e-05
136,7.528334428244482e-07,6.889667200896372e-07,1.1484871778730416e-06,1.320136949043995e-06,1.5026519523882808e-06,2.136120029904971e-06,4.532145441633779e-06,1.2888933061453079e-05,1.1794105142631309e-05,1.49539758203877e-06,1.139608878605646e-06,2.520932400838588e-05,4.745096539187415e-06,5.845834365100555e-06,3.6917285046482106e-07,1.809836612908252e-05
137,7.713077057062904e-07,7.088806529357734e-07,1.1539095548205257e-06,1.3193410555281242e-06,1.4365199375822434e-06,2.0967805260896833e-06,4.35961045030085e-06,1.2277401925559132e-05,1.2281132833200583e-05,1.4513520245999903e-06,1.1607692115057017e-06,2.5302565505964775e-05,4.685688170101916e-06,5.435618114849171e-06,3.7023415145240487e-07,1.9506951897726867e-05
138,7.909650829879637e-07,7.294525674200333e-07,1.1586020665685896e-06,1.316902756561478e-06,1.3678515270272796e-06,2.0518801136032844e-06,4.171348338123027e-06,1.1695326369132375e-05,1.2775093462688981e-05,1.4036856561425987e-06,1.1844827356911704e-06,2.5222212962179636e-05,4.637878409161019e-06,5.03345768155535e-06,3.8200075552967987e-07,2.0894739359658814e-05
139,8.118201564939391e-07,7.503604477573171e-07,1.1623998273324867e-06,1.3129634743948222e-06,1.2977617872187235e-06,2.002004442623354e-06,3.9707721261047924e-06,1.1149970583479328e-05,1.3269625314252304e-05,1.3533756244531935e-06,1.2106455674227812e-06,2.496179741821208e-05,4.60217945907876e-06,4.642180364357767e-06,4.054794463294185e-07,2.2235621508080213e-05
140,8.338618998208099e-07,7.712236289737299e-07,1.165226142966034e-06,1.30753751313154e-06,1.2273729741609637e-06,1.947965903728529e-06,3.761156546956353e-06,1.064639784714332e-05,1.3756642550447522e-05,1.3014646658795465e-06,1.2391952975999353e-06,2.4521436886766786e-05,4.578415767403495e-06,4.264979577208038e-06,4.417096937975199e-07,2.350078746762854e-05
141,8.570061746980667e-07,7.915759333642708e-07,1.167124865657235e-06,1.3005467922607934e-06,1.1577187391438235e-06,1.8907842148836636e-06,3.5458108561711286e-06,1.018789031359503e-05,1.4226310967412887e-05,1.2488942501355796e-06,1.2700596469645046e-06,2.3911149884204886e-05,4.565657952311476e-06,3.905182831893381e-06,4.917276505245559e-07,2.4661565042290446e-05
142,8.811082764476781e-07,8.108585568750148e-07,1.1681743839375221e-06,1.2919617554423648e-06,1.0897099514971926e-06,1.8316109033121924e-06,3.328167853897655e-06,9.776639920883225e-06,1.4667602471168173e-05,1.19643772979644e-06,1.3030896042507972e-06,2.3150780023465337e-05,4.562417108024676e-06,3.566328992667914e-06,5.565796704393551e-07,2.5693330959849644e-05
143,9.059730066867241e-07,8.28478914763749e-07,1.1684039624655243e-06,1.281938034034702e-06,1.0242389837518041e-06,1.7715991264358109e-06,3.1116826883912882e-06,9.414250186510565e-06,1.5069381446599771e-05,1.144773646885331e-06,1.3380922591703956e-06,2.2266830186498356e-05,4.566964722078122e-06,3.252508236293831e-06,6.373836338067845e-07,2.6578892246508497e-05
144,9.313169182928663e-07,8.439307295996976e-07,1.1678320958801061e-06,1.2708315989119885e-06,9.623773672385258e-07,1.711743431979601e-06,2.8996757924037702e-06,9.101879225835143e-06,1.542134405788684e-05,1.0945852900321573e-06,1.3748914005241096e-06,2.12880208652267e-05,4.577532745585768e-06,2.9683539743721693e-06,7.353832700986523e-07,2.7309683480745446e-05
145,9.567240746084741e-07,8.569229840114721e-07,1.1665557729540622e-06,1.2591050006662127e-06,9.055268119091551e-07,1.6527643598834315e-06,2.6951729545519876e-06,8.840115847829012e-06,1.5714495958734814e-05,1.0465422261415489e-06,1.413307116769632e-06,2.024159074151049e-05,4.5922397649241685e-06,2.7185748294349647e-06,8.519150622104069e-07,2.7884275954867954e-05
146,9.816449459125411e-07,8.674314350990864e-07,1.164790522040024e-06,1.2472018180456694e-06,8.554293366556413e-07,1.5950721009488882e-06,2.5007487655521272e-06,8.628782026344033e-06,1.594128634605496e-05,1.0012003941871557e-06,1.4530676838293862e-06,1.9151225593851017e-05,4.608836407785632e-06,2.5074738883916446e-06,9.883003219091428e-07,2.8304832267943668e-05
147,1.0054669735274257e-06,8.756225573384446e-07,1.1628630762890026e-06,1.235467805085153e-06,8.140437132195812e-07,1.5387600801324957e-06,2.318431297648642e-06,8.466845768572876e-06,1.609554674078211e-05,9.589623723722747e-07,1.4937036152713037e-06,1.8036561763433336e-05,4.624689232700149e-06,2.338764455577187e-06,1.145744031559883e-06,2.8573072274235542e-05
148,1.0276449342928683e-06,8.817006631674636e-07,1.1611659304799067e-06,1.2241745223478482e-06,7.833696536582999e-07,1.4836466565059014e-06,2.1497004140130824e-06,8.352514364958033e-06,1.6172098980662087e-05,9.201332000948782e-07,1.5344676174613514e-06,1.6913833854967604e-05,4.6372564022023e-06,2.2156347883892705e-06,1.3252773211631854e-06,2.8688565848440898e-05
149,1.0478050919426402e-06,8.857863436209616e-07,1.1600691159120883e-06,1.2136103834120366e-06,7.653173171156627e-07,1.4294440118386576e-06,1.995531765574867e-06,8.28347142158494e-06,1.616583165861478e-05,8.849738970681339e-07,1.5743200427256383e-06,1.5796843348485294e-05,4.644657571691583e-06,2.1409208860101393e-06,1.5277234713017607e-06,2.8651021528790104e-05
150,1.0657637325892694e-06,8.879037523331415e-07,1.159854092246647e-06,1.204113490488693e-06,7.616512296403558e-07,1.3760137985377494e-06,1.8564413797421078e-06,8.257168558524061e-06,1.607101516563884e-05,8.536697474783498e-07,1.61197265862469e-06,1.4697489108381838e-05,4.645793512893307e-06,2.1173108695898407e-06,1.7536862383351755e-06,2.8464351355931306e-05
151,1.0814787412565606e-06,8.880833233785246e-07,1.1607273609324936e-06,1.1959883412912182e-06,7.739724522768467e-07,1.3235601683589476e-06,1.7325395792804935e-06,8.271018554890916e-06,1.588248100582251e-05,8.262725567772078e-07,1.645983380135066e-06,1.3625762908941568e-05,4.639985418408604e-06,2.1475040201004055e-06,2.00360642376816e-06,2.8138940803383993e-05
152,1.0949592816813466e-06,8.865184085521639e-07,1.1628447876489334e-06,1.1894111579027232e-06,8.037146632912325e-07,1.27264885682569e-06,1.6236177363731902e-06,8.322319566217326e-06,1.5598736929803254e-05,8.027232557921882e-07,1.674943595542243e-06,1.258952908024877e-05,4.626596819170442e-06,2.2342079440325605e-06,2.277836633625838e-06,2.769074636451764e-05
153,1.106194794022015e-06,8.83668114804936e-07,1.1662843158504123e-06,1.1844233232899572e-06,8.521452826537331e-07,1.2240521233550878e-06,1.5292515346393545e-06,8.407876355702352e-06,1.5224663177223163e-05,7.829295251894985e-07,1.6977501198533822e-06,1.1594329727362152e-05,4.605139509095599e-06,2.379977176854686e-06,2.5765991396184463e-06,2.7137958301030324e-05
154,1.1151740200617065e-06,8.802134325633707e-07,1.1710247034602945e-06,1.1809667690680143e-06,9.203560744480239e-07,1.1785283942032296e-06,1.4488538721906213e-06,8.523489845059729e-06,1.4771712974850347e-05,7.668232390360218e-07,1.7138280493988286e-06,1.0643298936890749e-05,4.575803920082426e-06,2.587045016545127e-06,2.8999033846412687e-06,2.6497204177877683e-05
155,1.1219480089762092e-06,8.768934128106857e-07,1.1769653340710402e-06,1.1789032884428887e-06,1.0092419748140417e-06,1.1366720073126624e-06,1.381665676736168e-06,8.66361534908508e-06,1.4255790989919543e-05,7.544197425546318e-07,1.723136086897252e-06,9.737300859464403e-06,4.539723097459551e-06,2.857219676937033e-06,3.2475971379289564e-06,2.578171079539898e-05
156,1.1266460769523206e-06,8.743643989788344e-07,1.1839231433178379e-06,1.178047686532315e-06,1.1194803758871307e-06,1.0988717091015018e-06,1.3267838679389491e-06,8.821502444315289e-06,1.369426995584756e-05,7.458692865093671e-07,1.7259272354401053e-06,8.875459476987252e-06,4.4985369023092895e-06,3.191830322560581e-06,3.619480084761735e-06,2.5001859499153165e-05
157,1.1294372730087248e-06,8.731702677888782e-07,1.1915809440357038e-06,1.1782284565116775e-06,1.2515163990510474e-06,1.0653392592984489e-06,1.283244756243845e-06,8.989984486465858e-06,1.310355041190638e-05,7.414095397176258e-07,1.722462128346579e-06,8.056049371279326e-06,4.4537495205231626e-06,3.5917188334578326e-06,4.015370797732152e-06,2.4165904506462405e-05
158,1.1304873498868013e-06,8.737725462897592e-07,1.1994693389100063e-06,1.1793149303489096e-06,1.4055478615971212e-06,1.0361939354735599e-06,1.2500489577470908e-06,9.16274074151271e-06,1.2497979347589928e-05,7.412420503905541e-07,1.7129125814394864e-06,7.277431092781556e-06,4.406531783318312e-06,4.05721829212186e-06,4.4351884191444606e-06,2.3279729050247173e-05
159,1.1299576630848594e-06,8.765614245522357e-07,1.2070550007090704e-06,1.18115761681503e-06,1.5814987060007579e-06,1.0115712255158633e-06,1.2261554457659125e-06,9.335480205233316e-06,1.1889961822899559e-05,7.454510781354874e-07,1.6974649943048577e-06,6.538695461773427e-06,4.357919098179125e-06,4.588079702193601e-06,4.8790542053503026e-06,2.2347297720124417e-05
160,1.128044981093951e-06,8.818307031241949e-07,1.21390939271544e-06,1.1834761033030798e-06,1.778978938042796e-06,9.91658689330255e-07,1.210557354973331e-06,9.506440249640652e-06,1.129039072039319e-05,7.539888952483789e-07,1.676449087529391e-06,5.839903653085698e-06,4.30907100672903e-06,5.1833843059493566e-06,5.34727125387638e-06,2.137273216711517e-05
161,1.1250152335652781e-06,8.897363411284675e-07,1.2198594928275611e-06,1.1857933720532922e-06,1.9972370525015742e-06,9.766184425563946e-07,1.2023511362425995e-06,9.675969835576868e-06,1.0708786541177387e-05,7.66671617358889e-07,1.6503881400201334e-06,5.181984786526043e-06,4.261408592810186e-06,5.8414187525935735e-06,5.840077226007739e-06,2.0362552911717495e-05
162,1.121200688078719e-06,9.002646563968967e-07,1.2250093808728914e-06,1.1874821799876986e-06,2.235115940190129e-06,9.664867148266547e-07,1.2006791704465547e-06,9.845435229945052e-06,1.0153096668118267e-05,7.831727204763844e-07,1.6200046148574427e-06,4.566385071132627e-06,4.21647574149794e-06,6.5594629776374045e-06,6.3572164995882946e-06,1.9326563100925623e-05
163,1.116953800668336e-06,9.132439083874938e-07,1.229604482131511e-06,1.1879026876404903e-06,2.491033041243211e-06,9.611354096670925e-07,1.2046042495918301e-06,1.001594629344918e-05,9.629354353066157e-06,8.030421665237641e-07,1.5862154974421422e-06,3.994589866479374e-06,4.175550644601626e-06,7.333538695812886e-06,6.897483555701603e-06,1.827711203118771e-05
164,1.1125719954480818e-06,9.28409604969765e-07,1.2338491295492392e-06,1.1865625298095281e-06,2.7630064652578175e-06,9.602679617523995e-07,1.2130281859110582e-06,1.0187550903360813e-05,9.141464824741497e-06,8.257386305167897e-07,1.5500693122387617e-06,3.4676957075897764e-06,4.139292243481566e-06,8.158175494795566e-06,7.458414722035478e-06,1.72271801082218e-05
165,1.1082787131667823e-06,9.454698316564689e-07,1.2378027324077735e-06,1.1832310456922781e-06,3.0487315312880122e-06,9.634037849560043e-07,1.2247329120515335e-06,1.035938399753545e-05,8.691262961288282e-06,8.506296444574448e-07,1.512598803652395e-06,2.9861639347539865e-06,4.107603750430654e-06,9.026208392552122e-06,8.036215831054955e-06,1.6188214830819392e-05
166,1.1042978558364852e-06,9.640995496990124e-07,1.2413668719770246e-06,1.177956867238966e-06,3.3456617312330312e-06,9.698701681173175e-07,1.238545138483177e-06,1.0530544781171911e-05,8.27881934328096e-06,8.769650181048334e-07,1.474693884455253e-06,2.549750251514715e-06,4.079719673728707e-06,9.928635962186388e-06,8.625807117360915e-06,1.5168980172065421e-05
167,1.100887736617266e-06,9.838692437663274e-07,1.2443552481777962e-06,1.1709787928026419e-06,3.651005402318376e-06,9.788278169859217e-07,1.2534994603830453e-06,1.070093652981168e-05,7.90286916672716e-06,9.038941622767371e-07,1.4370756125209907e-06,2.1575413998218668e-06,4.0544788948017546e-06,1.0854488243127395e-05,9.220785476440888e-06,1.4175886341654992e-05
168,1.098249762018988e-06,1.004194663692627e-06,1.246641106942996e-06,1.162611996990591e-06,3.9616079584899905e-06,9.893125441948612e-07,1.2688853242863858e-06,1.0871527342735861e-05,7.561184062607108e-06,9.305667437878538e-07,1.4003003080025617e-06,1.8080501612230111e-06,4.030629407390162e-06,1.1790587636676743e-05,9.813276805619139e-06,1.3213963654167468e-05
169,1.096430727260414e-06,1.0243871416056111e-06,1.2482465239002546e-06,1.1532272289108623e-06,4.2738037471338335e-06,1.000294168724417e-06,1.2841956331363118e-06,1.1043986589064714e-05,7.250884265542212e-06,9.56242486222456e-07,1.3647608167586554e-06,1.4993171083885935e-06,4.0070870866107905e-06,1.272122027275926e-05,1.0393813492967377e-05,1.2287582046466408e-05
170,1.0953419100162523e-06,1.0437949250389e-06,1.249248109007262e-06,1.143288976545507e-06,4.583339378385461e-06,1.0108205390951732e-06,1.2990344206326568e-06,1.1219918064553413e-05,6.9689400383884934e-06,9.80311169487966e-07,1.3307150394219273e-06,1.2290068206043038e-06,3.983267666484412e-06,1.3627895613746902e-05,1.0951369381781685e-05,1.1400755096212143e-05
171,1.0948512778187646e-06,1.0619209000623676e-06,1.2496023797192556e-06,1.1333175916899388e-06,4.885380751755986e-06,1.0202459049310364e-06,1.312996394359453e-06,1.1399934741706118e-05,6.712963985766886e-06,1.0022470616086208e-06,1.2982952139903266e-06,9.945777929591245e-07,3.95945259256835e-06,1.4489679195939373e-05,1.1473732506357667e-05,1.0557186305017285e-05
172,1.0948251631288392e-06,1.0783984274789425e-06,1.2490751720335243e-06,1.1237877780773645e-06,5.1745468614041844e-06,1.028378733115041e-06,1.3255488021326878e-06,1.1582806586204217e-05,6.481916626336506e-06,1.0215919483782458e-06,1.2674970829535617e-06,7.935144814807347e-07,3.936929241708914e-06,1.5285038655119545e-05,1.1948507982043058e-05,9.760272540233511e-06
173,1.0951173406143197e-06,1.0928700782629756e-06,1.2473325381859286e-06,1.1150864862857144e-06,5.444910376639512e-06,1.0354111599194922e-06,1.3360302924291638e-06,1.1764974345572289e-05,6.276119380391876e-06,1.0379658370150894e-06,1.238192173208501e-06,6.234436069159478e-07,3.917739000497159e-06,1.599541788756789e-05,1.2364773071835267e-05,9.013239865300387e-06
174,1.0956219230478368e-06,1.1049471321570976e-06,1.2441145464932947e-06,1.1075601788396584e-06,5.689910861393012e-06,1.0417265640489002e-06,1.3438571392921019e-06,1.1940620601761818e-05,6.096499218422806e-06,1.051036894162714e-06,1.2101244851926249e-06,4.821062088669322e-07,3.904119569649459e-06,1.660838213149112e-05,1.2714727299205523e-05,8.319317495679817e-06
175,1.0963920513555784e-06,1.114312409739551e-06,1.2393467120180558e-06,1.10156335682824e-06,5.902275367731419e-06,1.0477928180696678e-06,1.3488392423794724e-06,1.2102265483661863e-05,5.943905868200095e-06,1.0604684606435724e-06,1.182916119606874e-06,3.673586944132426e-07,3.897942258209883e-06,1.711757770863822e-05,1.2994350615706146e-05,7.681713636910469e-06
176,1.0976843631459516e-06,1.1208390282189492e-06,1.2331151857866147e-06,1.0974259483416765e-06,6.074388241073149e-06,1.0541724748357842e-06,1.351382880761446e-06,1.2241835691288243e-05,5.819207129843382e-06,1.0659442670167107e-06,1.1561764779577867e-06,2.772256675527074e-07,3.900379390539381e-06,1.752046167433298e-05,1.3202462923293032e-05,7.103450539128001e-06
177,1.0998641042685152e-06,1.124611595584363e-06,1.2255562940283288e-06,1.095372664214634e-06,6.199489116250749e-06,1.0615127207657876e-06,1.3524305683263394e-06,1.2352061421350581e-05,5.7237571688401176e-06,1.0673045899705498e-06,1.1296802327102122e-06,2.0988412299076782e-07,3.911787821110932e-06,1.7817500370630718e-05,1.3338746685660232e-05,6.5873830177775105e-06
178,1.1032446051362057e-06,1.125869887849737e-06,1.2167393110798882e-06,1.0954760862556043e-06,6.273284940101549e-06,1.070453762816467e-06,1.3531827292677164e-06,1.2427647382841724e-05,5.659618615302555e-06,1.0646625775761891e-06,1.1034633597638156e-06,1.6360235749822156e-07,3.931814026369609e-06,1.801334862020362e-05,1.3402788632398675e-05,6.1364900185474616e-06
179,1.1079646808588918e-06,1.124938624524217e-06,1.2066333914736861e-06,1.0976638041556506e-06,6.294880559544901e-06,1.0815207917990295e-06,1.3548114498817885e-06,1.2465483305740833e-05,5.629546374161952e-06,1.0583511966631365e-06,1.0777340327020405e-06,1.3676085367370455e-07,3.959834776840085e-06,1.8117159820987712e-05,1.339556733388673e-05,5.754157231036835e-06
180,1.113947363957648e-06,1.1221729391757e-06,1.1952198164455308e-06,1.1017510569690604e-06,6.266225713676193e-06,1.095068584288238e-06,1.3583143162939863e-06,1.2463604443492117e-05,5.636896768085358e-06,1.0487703664360541e-06,1.0526729310721783e-06,1.2794656574262948e-07,3.9955793278507e-06,1.8140972491260476e-05,1.3322063582390387e-05,5.4441715002402785e-06
181,1.1209150736115265e-06,1.1179113502014518e-06,1.1826644894770648e-06,1.1074478496888976e-06,6.190493940852926e-06,1.1113092529656304e-06,1.3644673995451483e-06,1.24195447572447e-05,5.685412556834548e-06,1.0363269881665148e-06,1.0283139019871778e-06,1.35980059709567e-07,4.0394088356895126e-06,1.809761258949673e-05,1.3192692121420463e-05,5.210397883012703e-06
182,1.1284158638861027e-06,1.1124227858845348e-06,1.1693905769344257e-06,1.11434191113098e-06,6.070819664114855e-06,1.1304074956231066e-06,1.373829171744838e-06,1.2329484288542601e-05,5.778796887485474e-06,1.0214898749256315e-06,1.0045865641183024e-06,1.5985392934049833e-07,4.092021375103446e-06,1.7999089801139735e-05,1.3022686181110662e-05,5.056294740668686e-06
183,1.1358353297371018e-06,1.1058963142356325e-06,1.1559854774409261e-06,1.1219501360347624e-06,5.910260007051352e-06,1.1525550478015378e-06,1.3868122665931033e-06,1.2188985053533833e-05,5.920164030217838e-06,1.0048196245074866e-06,9.814216062300724e-07,1.9873240140623095e-07,4.154062478827412e-06,1.7855348769410048e-05,1.2830015074328839e-05,4.984494386060635e-06
184,1.1424285751764658e-06,1.098514492821035e-06,1.143026392352348e-06,1.1298643705322134e-06,5.712457004070808e-06,1.177946239334927e-06,1.4037667670863252e-06,1.1994587496332308e-05,6.111616342553666e-06,9.86905929864292e-07,9.587950772685392e-07,2.5206644807757523e-07,4.22599617239213e-06,1.7673365421872874e-05,1.2632990043709013e-05,4.996590342320593e-06
185,1.1474260622116391e-06,1.0905254447757587e-06,1.130955426282837e-06,1.1378698767104065e-06,5.4821362004407515e-06,1.2066833013222773e-06,1.4249735995206703e-06,1.1745109101663927e-05,6.354098276766883e-06,9.683023004334204e-07,9.367105711791636e-07,3.197136480774109e-07,4.3080181910142154e-06,1.7456882539582017e-05,1.2448468442347444e-05,5.093063381980815e-06
186,1.1501728405382252e-06,1.0822379440003026e-06,1.1200427805788782e-06,1.1459168585654016e-06,5.225137511178022e-06,1.2387010516949806e-06,1.4505641102079656e-06,1.144218766979666e-05,6.647432771190284e-06,9.495516916933809e-07,9.151848439046773e-07,4.020073935933392e-07,4.39992879865478e-06,1.720664710572469e-05,1.2290957660351814e-05,5.273236696285903e-06
187,1.1502091189964744e-06,1.0739980969426188e-06,1.110412608018296e-06,1.153980084329461e-06,4.9480561614623e-06,1.2737653244295492e-06,1.4804858712651314e-06,1.1090172757440617e-05,6.990385744560359e-06,9.312562427554528e-07,8.942539254028496e-07,4.997990360000168e-07,4.501063119520021e-06,1.6921095476780727e-05,1.2172481673169749e-05,5.535303704601249e-06
188,1.1472740732817673e-06,1.0661971053909805e-06,1.1020870251253008e-06,1.1619780709142833e-06,4.6576871593032895e-06,1.311512876028297e-06,1.514574141326151e-06,1.0695630576028547e-05,7.380696007902923e-06,9.140874926801571e-07,8.739900007681253e-07,6.144508977127596e-07,4.610279883289832e-06,1.6597903984453053e-05,1.210283243632368e-05,5.876514609390683e-06
189,1.1412687520867522e-06,1.0592522141471015e-06,1.0949873229172976e-06,1.1698468302581206e-06,4.360492833733491e-06,1.3514615553106598e-06,1.5526794697451183e-06,1.0266677499772214e-05,7.815012815309376e-06,8.987166398003732e-07,8.545170976660807e-07,7.477410664926064e-07,4.726109738709642e-06,1.6235658277760365e-05,1.2089825605444054e-05,6.2934688074849425e-06
190,1.1322003741220632e-06,1.0535196245695684e-06,1.088920273289002e-06,1.1776593365505418e-06,4.062260177964463e-06,1.3929932033429372e-06,1.594781470578655e-06,9.812217624430978e-06,8.288679875515065e-06,8.85735918044786e-07,8.35993259997463e-07,9.016861431817141e-07,4.8470232603446565e-06,1.58339425261584e-05,1.2139421401330472e-05,6.7823432823153024e-06
191,1.120113132472472e-06,1.0492034023652077e-06,1.0836327887752958e-06,1.1856565523166583e-06,3.7679858300746653e-06,1.4353923173222044e-06,1.6410617675587416e-06,9.341065827991926e-06,8.795434295010483e-06,8.756214678852165e-07,8.185731225851715e-07,1.0783385794732513e-06,4.971479260978965e-06,1.5392283948205922e-05,1.2255772341397114e-05,7.338957961268672e-06
192,1.1050136457071777e-06,1.0463364452112136e-06,1.0789052075490255e-06,1.1941838883596914e-06,3.4818919411198394e-06,1.4779876827196105e-06,1.69194385786042e-06,8.861140719690316e-06,9.327231695432765e-06,8.687089371818551e-07,8.02403519488732e-07,1.279646061532228e-06,5.09769330758108e-06,1.4910185765213182e-05,1.2441258043111298e-05,7.958763460646012e-06
193,1.086846175256864e-06,1.0448418024192535e-06,1.0745854920459735e-06,1.203586526414956e-06,3.20747617285224e-06,1.520337541873603e-06,1.7480758549708771e-06,8.379313013645889e-06,9.87443449565183e-06,8.651700595599147e-07,7.876346738864436e-07,1.5074158189443707e-06,5.223573841371272e-06,1.4388715851665422e-05,1.269646724200323e-05,8.636865531678201e-06
194,1.0655936027753866e-06,1.044615983398582e-06,1.070543446318013e-06,1.214099765038929e-06,2.947588211394975e-06,1.562338679573042e-06,1.8101997737333514e-06,7.902181972245527e-06,1.0426487478785016e-05,8.650209387730949e-07,7.744302835031488e-07,1.76331961332228e-06,5.346989160165593e-06,1.383213726014585e-05,1.3020061427126692e-05,9.36804263564184e-06
195,1.0414599828774073e-06,1.0455514045711483e-06,1.0666183516611658e-06,1.2257597196967342e-06,2.704524990039056e-06,1.6041652229074945e-06,1.8789416723355863e-06,7.437097085488669e-06,1.097292276110291e-05,8.681566638114433e-07,7.63006745312044e-07,2.0488696514013823e-06,5.4658713315780576e-06,1.324830115237647e-05,1.3408541271887026e-05,1.0146671993340404e-05
196,1.0149735904821658e-06,1.0475158922454093e-06,1.062641220326957e-06,1.2383665654113065e-06,2.4800866866618707e-06,1.646061126342471e-06,1.9546477903924154e-06,6.992547792947347e-06,1.1504240300439671e-05,8.743665453890037e-07,7.536484617385695e-07,2.3654204945134153e-06,5.577992413931129e-06,1.2647456105454526e-05,1.3855985554654067e-05,1.0966533466224662e-05
197,9.8692283909149e-07,1.0503948441331136e-06,1.058510012982863e-06,1.2515137197121045e-06,2.2755772157248945e-06,1.688158247314194e-06,2.037328385886561e-06,6.577749011073297e-06,1.2012256071358238e-05,8.833183112397341e-07,7.466459015863582e-07,2.7142364988076233e-06,5.680949831757938e-06,1.2040205861267967e-05,1.4353804873543702e-05,1.182054403784896e-05
198,9.581848880069595e-07,1.0541838616047966e-06,1.054202813255606e-06,1.2646501841626914e-06,2.0917988620064005e-06,1.7304453964763272e-06,2.126656829820628e-06,6.201833572707025e-06,1.2489837822516054e-05,8.945637274335349e-07,7.422417439365686e-07,3.096556511584213e-06,5.772575250665812e-06,1.1436177210471371e-05,1.4890551513591208e-05,1.2701036788589593e-05
199,9.295596278800625e-07,1.0590020303712936e-06,1.0496873245740832e-06,1.2771132374806383e-06,1.9290708659971043e-06,1.7727971417282301e-06,2.221955034278387e-06,5.873136296714194e-06,1.2930081830076069e-05,9.075846381044888e-07,7.406402307788828e-07,3.513634128298014e-06,5.851232305707444e-06,1.084405484131709e-05,1.545178663100991e-05,1.3601385162583408e-05
200,9.016785801223215e-07,1.0650077294554148e-06,1.044832660368244e-06,1.288110987783067e-06,1.7872748637898851e-06,1.8149307787419384e-06,2.322172904732351e-06,5.598827149821582e-06,1.3325139734911395e-05,9.218272616153287e-07,7.42002130505144e-07,3.966716590195818e-06,5.9155438612654645e-06,1.0272107529231068e-05,1.6020124991035438e-05,1.451828505225962e-05
201,8.749929826595501e-07,1.0723389006000546e-06,1.0394130917317152e-06,1.2967572929542899e-06,1.6659746149814688e-06,1.8563177014359853e-06,2.425899499927642e-06,5.384891124540237e-06,1.3665477455020114e-05,9.366950396887206e-07,7.463981260115866e-07,4.456851466592815e-06,5.963897075084709e-06,9.72831777322175e-06,1.6576112408782408e-05,1.545274560092367e-05
202,8.498033747776479e-07,1.0811062084006868e-06,1.0331739282507882e-06,1.3022639682443554e-06,1.5646554598121417e-06,1.8961438808790704e-06,2.5314067866831857e-06,5.236296018641086e-06,1.3940373997185733e-05,9.515244499886784e-07,7.537950459598835e-07,4.984545118959416e-06,5.994378406035424e-06,9.219957840600397e-06,1.7100313536565897e-05,1.640892401425679e-05
203,8.26285190921041e-07,1.0913442705127684e-06,1.0259189564378092e-06,1.3041994038053308e-06,1.483005700575932e-06,1.9333166731683745e-06,2.6367350526590253e-06,5.1571865970577405e-06,1.41395265080621e-05,9.656075755703064e-07,7.640934371437886e-07,5.5494160858953905e-06,6.0051481246659415e-06,8.752908296707343e-06,1.7575244516282906e-05,1.7391685612608428e-05
204,8.045004074038365e-07,1.1029340408453364e-06,1.0176024049527834e-06,1.3026098149893358e-06,1.4210700815278659e-06,1.9664754251748524e-06,2.739838571300265e-06,5.15102795907212e-06,1.425502186487268e-05,9.783233282453324e-07,7.77172588135293e-07,6.1499244525396315e-06,5.994818788091795e-06,8.331248924520728e-06,1.7985368745477547e-05,1.840436992881754e-05
205,7.844083382590943e-07,1.1156053151679769e-06,1.0083550041571094e-06,1.29790150183321e-06,1.3791718378192743e-06,1.994088759009835e-06,2.838767750046565e-06,5.220665958773318e-06,1.4282949705196561e-05,9.893289899766163e-07,7.929207587727132e-07,6.7832048457304425e-06,5.962646251785846e-06,7.95736938845597e-06,1.831598903619771e-05,1.9448163545956987e-05
206,7.658721997716389e-07,1.1290128113497131e-06,9.983959458465549e-07,1.2905670909968464e-06,1.3576941081220324e-06,2.0147259790543396e-06,2.931846231651842e-06,5.368309220733511e-06,1.4223920999893228e-05,9.986397426557564e-07,8.112344085584804e-07,7.445066118260285e-06,5.908582825332746e-06,7.632331601613605e-06,1.855357135053845e-05,2.0523633368975685e-05
207,7.48680148685903e-07,1.1427767618830884e-06,9.879381505788437e-07,1.2809462591267933e-06,1.3569766280097646e-06,2.0273798559759346e-06,3.017816288911338e-06,5.59544209626898e-06,1.4082083941744169e-05,1.0064970849123625e-06,8.320040653303148e-07,8.13023223571121e-06,5.833284651465527e-06,7.356103960033076e-06,1.868766423360372e-05,2.1633325092816878e-05
208,7.326179632131121e-07,1.156459777155664e-06,9.772003564411464e-07,1.2691475414348149e-06,1.377486739845507e-06,2.031640779739548e-06,3.095924195926083e-06,5.9026710394088636e-06,1.386309687906848e-05,1.0131683215399768e-06,8.551291066252996e-07,8.83274390885699e-06,5.73816012079479e-06,7.127541572715414e-06,1.8712195299806915e-05,2.2783499966816078e-05
209,7.175546006714254e-07,1.1695716341687518e-06,9.66449467345207e-07,1.2551187026336996e-06,1.420136023679172e-06,2.027689286459778e-06,3.1659313664270644e-06,6.289650009225212e-06,1.3572161298967223e-05,1.018878642082058e-06,8.805477811241677e-07,9.546247090339086e-06,5.625399135275329e-06,6.9442292798704055e-06,1.8625169527056254e-05,2.3983711697664835e-05
210,7.034551337992443e-07,1.1816471744756188e-06,9.559637042622345e-07,1.2387731319765557e-06,1.4864988374264466e-06,2.0162026645603913e-06,3.2280883813443385e-06,6.755204964278678e-06,1.3213340273645861e-05,1.023875718429622e-06,9.082629533796706e-07,1.0263929769963e-05,5.49773352899941e-06,6.802337625006959e-06,1.8427686827032976e-05,2.5244341968449452e-05
211,6.903229856705718e-07,1.1923225875250803e-06,9.459638902115401e-07,1.2200715211214524e-06,1.5788221606029028e-06,1.9982062775447968e-06,3.2831051920078848e-06,7.297419516894321e-06,1.2790894634750494e-05,1.0284949010464568e-06,9.383446731571513e-07,1.0978153016266167e-05,5.357863893256231e-06,6.6966140542971696e-06,1.8122960917349184e-05,2.6573846388990386e-05
212,6.781570823012444e-07,1.2013390097242824e-06,9.366199263769892e-07,1.1990162909179862e-06,1.6998737911165032e-06,1.974835461190631e-06,3.332048720838824e-06,7.913410121941731e-06,1.2311734325432637e-05,1.0331546289135607e-06,9.708702111568702e-07,1.1680136307174144e-05,5.207985675340737e-06,6.6206709017295895e-06,1.7715070980800473e-05,2.7977754317141247e-05
213,6.669659954142428e-07,1.2084743120439351e-06,9.281378676603566e-07,1.1756085093429167e-06,1.8527132931919242e-06,1.9470781649133416e-06,3.3760760785997294e-06,8.59893358451788e-06,1.1786688600354533e-05,1.038312064924229e-06,1.0058438894324495e-06,1.2360047916867e-05,5.049826669679406e-06,6.5676287000182366e-06,1.720773647998844e-05,2.9459434713903347e-05
214,6.567916241709776e-07,1.2134609992791084e-06,9.208344135653762e-07,1.149855069375891e-06,2.0404399966316297e-06,1.915651938271789e-06,3.41610715667048e-06,9.34816549326992e-06,1.1229386553622137e-05,1.0444125787173448e-06,1.0431649442403923e-06,1.3007405278796289e-05,4.885029925821057e-06,6.530922320280683e-06,1.6604720005514352e-05,3.1020754868210486e-05
215,6.476885529927218e-07,1.2159799717201433e-06,9.151226879631959e-07,1.1218636791007131e-06,2.266000598371401e-06,1.8810505005401543e-06,3.452663682350007e-06,1.0153765751428173e-05,1.0653854527191083e-05,1.0518126265985748e-06,1.0826360223586511e-06,1.3611282325190315e-05,4.715507856526704e-06,6.505025781419166e-06,1.5912281046514924e-05,3.266130993510669e-05
216,6.396688460832091e-07,1.2157561029249147e-06,9.114212342105387e-07,1.0919748663049801e-06,2.5321420083609286e-06,1.8436588001480576e-06,3.4859133248337286e-06,1.1007091201494361e-05,1.0072600983863469e-05,1.0606891758899346e-06,1.1239936233682592e-06,1.4159932075075678e-05,4.543607068771956e-06,6.485937097898322e-06,1.5141400303980977e-05,3.43765971992025e-05
217,6.326626666651954e-07,1.2126474152530826e-06,9.100711966489207e-07,1.060825642262481e-06,2.8414484739306224e-06,1.8038558154470133e-06,3.515823083067364e-06,1.1898354485476416e-05,9.49586815508894e-06,1.0709964071096715e-06,1.166928686813752e-06,1.4639997211811878e-05,4.3720702827589555e-06,6.471260938038144e-06,1.4307698874820615e-05,3.6156668217020586e-05
218,6.26537419869236e-07,1.2066103096552317e-06,9.113301211699012e-07,1.0292780755473442e-06,3.1963053393011962e-06,1.7620956054220476e-06,3.542420641654608e-06,1.2816503128612944e-05,8.931691723143406e-06,1.0824738633397226e-06,1.2110527953493707e-06,1.5036171620344309e-05,4.203847670243957e-06,6.45981417234555e-06,1.3429435135390268e-05,3.798652259309172e-05
219,6.211704379772132e-07,1.1976024250282394e-06,9.15409188612654e-07,9.982527034734386e-07,3.598737593932136e-06,1.718971035827777e-06,3.5661235413215767e-06,1.3748848691047702e-05,8.386204843375505e-06,1.094683542750678e-06,1.2558444556408845e-06,1.5332348065641486e-05,4.041817020055825e-06,6.450894961523875e-06,1.252508922078676e-05,3.984771147984269e-05
220,6.165154441440858e-07,1.1855778100971542e-06,9.224767953429229e-07,9.685712756089727e-07,4.050193899653005e-06,1.6752395946767411e-06,3.587937245836366e-06,1.4681327348478807e-05,7.8638436151659e-06,1.1070840128294377e-06,1.3006579093059762e-06,1.5514403315724067e-05,3.888451392351716e-06,6.443473844927646e-06,1.161155812924175e-05,4.171947578126756e-05
221,6.126069880002978e-07,1.170588281552958e-06,9.326136195591672e-07,9.408844162800134e-07,4.551363616465225e-06,1.631770847429639e-06,3.60938245136681e-06,1.5600324461110682e-05,7.367477837717675e-06,1.1190982335805007e-06,1.3448001878051495e-06,1.5573435961948784e-05,3.745532457159215e-06,6.435588110278862e-06,1.0703260671973235e-05,4.3578404291253485e-05
222,6.095048286216889e-07,1.1528933525467966e-06,9.457567610221792e-07,9.156746777245008e-07,5.102066412180453e-06,1.58940864662554e-06,3.632223581851563e-06,1.649532484331539e-05,6.8986976510197526e-06,1.1301276137706366e-06,1.387603400075191e-06,1.5507580780994e-05,3.6140499686424144e-06,6.424168927486665e-06,9.81197121274433e-06,4.539701035036012e-05
223,6.072345008316909e-07,1.1330122030226127e-06,9.616705349458172e-07,8.932682778682561e-07,5.701162377068483e-06,1.5488234907445565e-06,3.658160107372342e-06,1.7360399646245062e-05,6.458288105510062e-06,1.1396132573596942e-06,1.4284556569322036e-06,1.5321039380790995e-05,3.494351871291071e-06,6.405351644477423e-06,8.947031326769789e-06,4.714373689594659e-05
224,6.057766059970147e-07,1.1116851714534118e-06,9.79955222217533e-07,8.738232142819264e-07,6.346407336813206e-06,1.510442034005307e-06,3.688588346597976e-06,1.819332411878512e-05,6.046714946957861e-06,1.147182326141046e-06,1.4668108414345924e-06,1.5020904777456373e-05,3.3864524980988517e-06,6.3751932382436336e-06,8.115723582683059e-06,4.878729284188387e-05
225,6.050895983549498e-07,1.0897529294794966e-06,1.000075894897817e-06,8.573137568565339e-07,7.034300632867957e-06,1.4744410930516757e-06,3.724476835119895e-06,1.8992932580865214e-05,5.664435462935883e-06,1.1526718330401684e-06,1.5021723422014804e-06,1.4614524570159003e-05,3.2902651778521154e-06,6.330605531554834e-06,7.323685717626532e-06,5.030356095692892e-05
226,6.051139873218853e-07,1.0680160659873856e-06,1.0213989560182871e-06,8.435273400850869e-07,7.760046424340709e-06,1.440762478753907e-06,3.7663516291352015e-06,1.9756741411091583e-05,5.311891828074697e-06,1.1559719769766273e-06,1.534042950824865e-06,1.4109626112194517e-05,3.205581220824553e-06,6.2700185774865815e-06,6.575198779704687e-06,5.1678926927090024e-05
227,6.057505174406386e-07,1.0471374020762379e-06,1.0432312480124432e-06,8.320803426858995e-07,8.517709007059431e-06,1.4091832819274626e-06,3.814331526057736e-06,2.0480714569118117e-05,4.989209294684435e-06,1.1569295812102992e-06,1.5619146942865775e-06,1.351640439702643e-05,3.1318486254569517e-06,6.1932604912896366e-06,5.873292355721357e-06,5.290670264365851e-05
228,6.068476984177245e-07,1.0276236534759119e-06,1.0648292472092454e-06,8.224488201241048e-07,9.30065183372928e-06,1.3794554148417031e-06,3.868152329876621e-06,2.1161123081087216e-05,4.695899790238695e-06,1.1554318050687239e-06,1.5853631464100764e-06,1.2849166671233281e-05,3.0679554165832798e-06,6.100710104669946e-06,5.219817105459546e-06,5.398043477292291e-05
229,6.082289810813063e-07,1.009869743808324e-06,1.085370203584966e-06,8.13993310426788e-07,1.0102274852487645e-05,1.351416138993157e-06,3.927216905188106e-06,2.1796739956014565e-05,4.4309799381086365e-06,1.1515315878515235e-06,1.6041431392168679e-06,1.2126066891137125e-05,3.012201676966208e-06,5.992385163734744e-06,4.615648712957209e-06,5.4891229369299955e-05
230,6.097651295271197e-07,9.94179298610662e-07,1.103978696840579e-06,8.060038176562372e-07,1.0916757485739117e-05,1.3249747176819965e-06,3.990750724765954e-06,2.238990385275781e-05,4.193557515199592e-06,1.145449915335356e-06,1.618171400618762e-06,1.1367129016969867e-05,2.9625085313525645e-06,5.867709598004767e-06,4.061006514891459e-06,5.563117768051631e-05
231,6.114340873834842e-07,9.807207002287882e-07,1.1198817773359287e-06,7.978178880424333e-07,1.1739314691295208e-05,1.3000298669028564e-06,4.057966918299932e-06,2.294631330853986e-05,3.983429555494543e-06,1.1374587857105052e-06,1.6274942944117939e-06,1.0591905462802266e-05,2.916739338233923e-06,5.726219615555489e-06,3.555723746042583e-06,5.619808232691317e-05
232,6.132915856496446e-07,9.694910204304827e-07,1.1325724759175103e-06,7.889713929715741e-07,1.2565688898967503e-05,1.276471174629121e-06,4.128026083076746e-06,2.347394717614881e-05,3.801221950804803e-06,1.1278023783691488e-06,1.6323137552862332e-06,9.818036774797335e-06,2.872909422666994e-06,5.568689252687836e-06,3.0993579206227617e-06,5.6597268060532546e-05
233,6.153975691439653e-07,9.60347693096221e-07,1.1418095854420565e-06,7.792793458980408e-07,1.3391051840164785e-05,1.2542594311670873e-06,4.199887990665058e-06,2.3981325691619273e-05,3.6480448327698276e-06,1.1167168574346362e-06,1.6329635005989387e-06,9.060947505923374e-06,2.8291398094688726e-06,5.397754752570811e-06,2.6911835513883188e-06,5.684027196875341e-05
234,6.177952090943206e-07,9.530613485250264e-07,1.1475031531998895e-06,7.687961654893674e-07,1.4208962827125444e-05,1.2334396173655624e-06,4.272390459815927e-06,2.44753571983629e-05,3.525052080934595e-06,1.1044430903485996e-06,1.6298376793748816e-06,8.334127214137043e-06,2.783515877528619e-06,5.217552178810013e-06,2.3301465855081277e-06,5.6940825618236314e-05
235,6.205340643665916e-07,9.473417835571527e-07,1.1496707449085645e-06,7.576880801405025e-07,1.5011324595340961e-05,1.214121822131887e-06,4.344508395005059e-06,2.4959370358024802e-05,3.433226106530997e-06,1.0911910210171208e-06,1.6233530577895961e-06,7.6494198156382e-06,2.7342232003674004e-06,5.032713168554249e-06,2.014820837607869e-06,5.690936706886161e-05
236,6.236993150980664e-07,9.428876829641839e-07,1.1484636770706063e-06,7.461202407775242e-07,1.5789783736720207e-05,1.1965129167938297e-06,4.415425606880338e-06,2.5432320877800554e-05,3.373304404979035e-06,1.0770991222480075e-06,1.6138972375958125e-06,7.017152811977322e-06,2.6799923609614688e-06,4.847514183593691e-06,1.7434174036268919e-06,5.675069412918219e-05
237,6.274459473093751e-07,9.394849109324476e-07,1.1441188993901938e-06,7.342333132588751e-07,1.6537682259686285e-05,1.1808866375629852e-06,4.4843383413367876e-06,2.5889804491254608e-05,3.345726952019916e-06,1.0622268296801107e-06,1.6017869900233752e-06,6.446285701407988e-06,2.620433095919704e-06,4.665611199444453e-06,1.5138495880873548e-06,5.646780090189521e-05
238,6.32003078017258e-07,9.370588877512435e-07,1.1368528542227438e-06,7.221625453738411e-07,1.7250669106404224e-05,1.1674772877695454e-06,4.550238713782802e-06,2.6326311696194417e-05,3.350618489956669e-06,1.0466260306433508e-06,1.5873242793249594e-06,5.94465851133261e-06,2.556036304747019e-06,4.490125283278084e-06,1.3237712664323581e-06,5.606796594725046e-05
239,6.37614926028586e-07,9.356151023705697e-07,1.1268475817279775e-06,7.100281152816805e-07,1.7925275107736148e-05,1.1564596493396593e-06,4.611871438539671e-06,2.6737531974122927e-05,3.3878115864967495e-06,1.0304378688159878e-06,1.5708422114702689e-06,5.51914847680595e-06,2.4880665847815944e-06,4.3237821203618325e-06,1.1705633475854846e-06,5.5565501439312105e-05
240,6.444668783168554e-07,9.351302209847603e-07,1.1143700357092392e-06,6.979140279762331e-07,1.8557600277368433e-05,1.1480439067309847e-06,4.667834292701257e-06,2.7121871370958194e-05,3.4570358650270518e-06,1.0138852152276094e-06,1.5526543809443376e-06,5.1756881655533865e-06,2.4185057639814343e-06,4.169106975228874e-06,1.0513320305016298e-06,5.497979450241886e-05
241,6.526504787605378e-07,9.354848113267807e-07,1.0999170804397217e-06,6.858723172158553e-07,1.9143948797089512e-05,1.142554030173637e-06,4.716691988646833e-06,2.7480911812930232e-05,3.5582746967912994e-06,9.971618520792212e-07,1.5330352368617632e-06,4.919366193848132e-06,2.349904184295951e-06,4.028664350954411e-06,9.629709032201108e-07,5.4330196094682155e-05
242,6.621600839706789e-07,9.364494335433299e-07,1.0842596812794598e-06,6.739301921569684e-07,1.968170398800381e-05,1.1403907462791221e-06,4.757064636816516e-06,2.781890746621763e-05,3.6919524173595393e-06,9.803382604843839e-07,1.5122873872109544e-06,4.754688074798164e-06,2.2850351168392246e-06,3.905201201121525e-06,9.023065646981039e-07,5.363079495028589e-05
243,6.729127847826691e-07,9.376867614500829e-07,1.0683457435716568e-06,6.620818904226685e-07,2.0168426307747062e-05,1.1419152643725193e-06,4.787769606365114e-06,2.8141462743123988e-05,3.858808420995423e-06,9.633729155850066e-07,1.4907958371542756e-06,4.685821422001706e-06,2.2265035012219494e-06,3.8016467525317177e-06,8.662839267625015e-07,5.288897285383731e-05
244,6.84778002756968e-07,9.387632510512119e-07,1.0531265729348382e-06,6.50302878791191e-07,2.060021557131266e-05,1.1473611892746646e-06,4.8080315175857684e-06,2.845344836199494e-05,4.059772929312146e-06,9.462039252016936e-07,1.469010416357076e-06,4.71662433006659e-06,2.176514867223763e-06,3.7210678022879697e-06,8.520614965419697e-07,5.210891329741603e-05
245,6.975848730630437e-07,9.391820218577632e-07,1.0394155474993728e-06,6.386028221315753e-07,2.0971507528344336e-05,1.156827130225052e-06,4.81757697177318e-06,2.8756611881609054e-05,4.296110257370182e-06,9.288126280475911e-07,1.4473820881420438e-06,4.850428300395618e-06,2.1368536370412353e-06,3.6666355864888993e-06,8.569396903862844e-07,5.129670041378589e-05
246,7.111157331832245e-07,9.384503008999824e-07,1.027837200097222e-06,6.270705199043568e-07,2.127661197050588e-05,1.1703367510949639e-06,4.816396625808411e-06,2.9048216171409586e-05,4.569637985231138e-06,9.112008118931725e-07,1.4263058255153948e-06,5.089774066617965e-06,2.1089583256452764e-06,3.6415540908415434e-06,8.782083439639847e-07,5.046306837662358e-05
247,7.251099827052527e-07,9.361995261718995e-07,1.0188412238651936e-06,6.158667588474117e-07,2.1511456295008804e-05,1.187895655473194e-06,4.8042956128872506e-06,2.932176127379741e-05,4.882611056909632e-06,8.933325785312458e-07,1.4060825599492284e-06,5.436249232246638e-06,2.0939563534870826e-06,3.648948542497632e-06,9.130728624877072e-07,4.962256505104564e-05
248,7.392938711493097e-07,9.323169729375198e-07,1.0127258884971875e-06,6.051838006930257e-07,2.1674298832487363e-05,1.2094590772830963e-06,4.780705873841618e-06,2.9569187315746408e-05,5.237189472820775e-06,8.751381843985131e-07,1.386877484479369e-06,5.890358909906513e-06,2.092656682100751e-06,3.6918275040454134e-06,9.587520123770108e-07,4.878992721218456e-05
249,7.53433803637382e-07,9.269965896784239e-07,1.0096418433797127e-06,5.95234701325678e-07,2.176539557183831e-05,1.2348501412774267e-06,4.744969111652688e-06,2.9783232021986015e-05,5.634898702009177e-06,8.565892307646412e-07,1.3687177885042686e-06,6.451385499109956e-06,2.1055657039857617e-06,3.7731746578428736e-06,1.0127010617149534e-06,4.797552630596562e-05
250,7.673482583987821e-07,9.206698968266225e-07,1.0095789292752452e-06,5.862734484386482e-07,2.1786126503098342e-05,1.263759722376897e-06,4.696755858456829e-06,2.9959182514646523e-05,6.076446093759224e-06,8.377354169361724e-07,1.3515739055326196e-06,7.117308037880003e-06,2.132893197771445e-06,3.8960172403167695e-06,1.072789281728389e-06,4.718242697317366e-05
251,7.808584059545271e-07,9.138601974435526e-07,1.0123642225588531e-06,5.785783456248635e-07,2.1737981847488907e-05,1.295858530437737e-06,4.636300926650406e-06,3.0095679088689296e-05,6.561798808246932e-06,8.18673587763835e-07,1.335428781175489e-06,7.884795147440295e-06,2.1744952837033885e-06,4.0632697478878466e-06,1.1372855266254245e-06,4.6406903713288775e-05
252,7.937548102921092e-07,9.070471864286061e-07,1.0177046309006005e-06,5.724046889922886e-07,2.162140974762951e-05,1.3309194454769388e-06,4.564470052720704e-06,3.0194417836481556e-05,7.090245112933643e-06,7.995366809368109e-07,1.320238687693947e-06,8.7491742068309e-06,2.2297982160660543e-06,4.277399562020009e-06,1.2047055274568819e-06,4.564161442832796e-05
253,8.05793692075924e-07,9.006111291730137e-07,1.0252696178038723e-06,5.679615795122988e-07,2.1434555311528106e-05,1.3688424690198849e-06,4.482725406108802e-06,3.0258829177224427e-05,7.660242835082701e-06,7.805133984505625e-07,1.3058622483201074e-06,9.7043085272365e-06,2.297770989205682e-06,4.540139515535743e-06,1.2737125709717914e-06,4.48788209733586e-05
254,8.166718129218474e-07,8.94835092370175e-07,1.034775518088649e-06,5.653956942045606e-07,2.1172883412433714e-05,1.409571571713163e-06,4.392960420606648e-06,3.0291885260231235e-05,8.26907419962729e-06,7.618406676856973e-07,1.2920536586677757e-06,1.0742445091786474e-05,2.3769453430695278e-06,4.852339538207433e-06,1.3431347978033934e-06,4.411239363340677e-05
255,8.25996047035015e-07,8.899001780167933e-07,1.046019967415837e-06,5.647733060238964e-07,2.083077198522413e-05,1.4529767893751616e-06,4.297259418174164e-06,3.0293463249293942e-05,8.912664317031471e-06,7.437720902999661e-07,1.2784838870297116e-06,1.1854106921280813e-05,2.465433712309757e-06,5.213928416164532e-06,1.4119873503362239e-06,4.3338993756609626e-05
256,8.333101051016315e-07,8.858939766907399e-07,1.0588338233623886e-06,5.661235209077165e-07,2.0404338799544365e-05,1.498807602222671e-06,4.197794475670046e-06,3.0258443924244885e-05,9.585828941532384e-06,7.265801350991358e-07,1.2647467048835061e-06,1.30280047810732e-05,2.560956226647668e-06,5.62396758788855e-06,1.4794334709051195e-06,4.255816709159126e-05
257,8.382062147874063e-07,8.828892449158027e-07,1.0730143958608768e-06,5.695332196638393e-07,1.989372206141111e-05,1.5467893416073027e-06,4.096919477189999e-06,3.0176863452421037e-05,1.0282669035293643e-05,7.105947974810228e-07,1.250387222148723e-06,1.4250905468468922e-05,2.6609960703414237e-06,6.08073452939346e-06,1.5447068432389725e-06,4.177027305502652e-05
258,8.404614317082507e-07,8.810346885081167e-07,1.0883286718149164e-06,5.751854639322554e-07,1.930405920982545e-05,1.596780061350383e-06,3.997171742389514e-06,3.0036256770414052e-05,1.0996631698665156e-05,6.961903595601964e-07,1.2349981488739545e-06,1.5507420820154083e-05,2.7631388029260164e-06,6.581750753755896e-06,1.6070080893417628e-06,4.0973242767300575e-05
259,8.400674788750604e-07,8.805451832319756e-07,1.1045413878280555e-06,5.833237831465692e-07,1.8645317451426696e-05,1.648792504319523e-06,3.901002698570001e-06,2.9825040885068134e-05,1.172009189442531e-05,6.837032673159826e-07,1.218383615559691e-06,1.6779702952461993e-05,2.865435249287136e-06,7.123717788787048e-06,1.665453348415424e-06,4.0161999927418864e-05
260,8.371292410981156e-07,8.816026926642735e-07,1.121374479680199e-06,5.942146727440282e-07,1.7931172701869693e-05,1.702821898151983e-06,3.8105459835383837e-06,2.9535493190481297e-05,1.2443691050788358e-05,6.733977376294277e-07,1.2007179721297432e-06,1.8047009065391407e-05,2.9666111515358635e-06,7.702438473364044e-06,1.7191913817306762e-06,3.933233903397374e-05
261,8.317991367330029e-07,8.842808878106243e-07,1.1384092083472493e-06,6.081176006614643e-07,1.7177308910384887e-05,1.7586338941442284e-06,3.7276366693999372e-06,2.9165444231836703e-05,1.3155739076180886e-05,6.655239742279304e-07,1.1825637072159615e-06,1.9285227887510446e-05,3.066141094896067e-06,8.313005386361428e-06,1.7676105344641644e-06,3.8485903145762734e-05
262,8.243489341137586e-07,8.885480162942723e-07,1.15500538768919e-06,6.252442118901732e-07,1.6399687658638118e-05,1.8156770978924319e-06,3.6537972136536625e-06,2.8718499936581267e-05,1.3841860216854965e-05,6.603668816454104e-07,1.1646957936333682e-06,2.0466930546184426e-05,3.1642758110436306e-06,8.950428683187288e-06,1.8104236926797285e-06,3.7632077528842126e-05
263,8.152351216781113e-07,8.94310888375238e-07,1.1702959286044051e-06,6.457198900288124e-07,1.561304618713246e-05,1.8731569323932375e-06,3.5900425179551134e-06,2.820284198383051e-05,1.4485129652922446e-05,6.582105395361133e-07,1.1478644973937783e-06,2.1562625836740654e-05,3.2620016541342366e-06,9.61024124789392e-06,1.8475946894003584e-06,3.6785942722179204e-05
264,8.050192727784317e-07,9.014489133295556e-07,1.183290292887989e-06,6.695569042124292e-07,1.482971562409312e-05,1.9302175619127934e-06,3.5367593148831116e-06,2.7628643474480172e-05,1.5067015321820449e-05,6.592637933234588e-07,1.1326481257597553e-06,2.2543192205823425e-05,3.360796503017747e-06,1.0288354609866394e-05,1.879235259380993e-06,3.5963963222998264e-05
265,7.942209934651207e-07,9.098176380734944e-07,1.193080526149845e-06,6.966393138674206e-07,1.40591226268787e-05,1.9861139497936042e-06,3.493759102475717e-06,2.700482298337697e-05,1.556909341358615e-05,6.636173266805284e-07,1.119402908550551e-06,2.338276986820041e-05,3.4621830926883584e-06,1.0980354565271037e-05,1.905529455862472e-06,3.5179571174985005e-05
266,7.832476908262282e-07,9.192342606535849e-07,1.1990708619021733e-06,7.267136291938374e-07,1.330813205576626e-05,2.0402331963124142e-06,3.4603199816121068e-06,2.633712786295364e-05,1.5975021023879908e-05,6.712434762522829e-07,1.108259727340816e-06,2.406118875927294e-05,3.5674180771215553e-06,1.1681307672296163e-05,1.9266348841018454e-06,3.44402729425229e-05
267,7.724248612332917e-07,9.294604942456297e-07,1.2011044117299074e-06,7.593784688257566e-07,1.2581688128982202e-05,2.091987348546492e-06,3.4351756007840202e-06,2.562902817271649e-05,1.6272061693267685e-05,6.820259925035877e-07,1.099149848433147e-06,2.456500724835578e-05,3.6775468040658914e-06,1.2386369457232914e-05,1.9425424673732324e-06,3.3746944340038464e-05
268,7.620407800375461e-07,9.401709141276486e-07,1.1994063217365204e-06,7.940756208070198e-07,1.1883222041324618e-05,2.140845176666646e-06,3.416556475251182e-06,2.488435093440943e-05,1.6451631587198515e-05,6.958227805974804e-07,1.091840411093406e-06,2.4886457199869498e-05,3.7935274333838826e-06,1.3091241720765815e-05,1.952987771534396e-06,3.3094728844706266e-05
269,7.52339104111647e-07,9.50904772162463e-07,1.1943837064826196e-06,8.300971731860994e-07,1.1214854066236849e-05,2.1866505970163918e-06,3.4022374393565024e-06,2.410944422205587e-05,1.6508595292900188e-05,7.125293730026959e-07,1.0859738383070702e-06,2.5020515224958066e-05,3.9160816581830775e-06,1.3791839121843015e-05,1.9575252522789483e-06,3.2474291841396116e-05
270,7.434936059313847e-07,9.61054580546467e-07,1.1864081977027764e-06,8.666403123788659e-07,1.057759827443791e-05,2.2299616791757947e-06,3.3895787405600007e-06,2.3313866640376696e-05,1.6439641894518038e-05,7.320810450028508e-07,1.0811124957145968e-06,2.496228361387305e-05,4.0453531196792655e-06,1.4483740049811835e-05,1.955724204514901e-06,3.187277427889585e-05
271,7.356324819627229e-07,9.699522609332246e-07,1.1756809507466625e-06,9.028963600482072e-07,9.971654524609858e-06,2.2720735543096386e-06,3.375753057607776e-06,2.2509908583501754e-05,1.6242622370505143e-05,7.544097623710664e-07,1.0767398942355307e-06,2.4707651666109837e-05,4.180653083478403e-06,1.5162336579876447e-05,1.947300595662337e-06,3.127468984819231e-05
272,7.288975532650768e-07,9.770160154739648e-07,1.1622172423853866e-06,9.380898474276839e-07,9.396760307773616e-06,2.314696624596124e-06,3.358202920098334e-06,2.1711620776332586e-05,1.5918828997558292e-05,7.794135983245147e-07,1.07221827336132e-06,2.4257310088854105e-05,4.320483855010563e-06,1.582366305948368e-05,1.932056512602659e-06,3.066326380965405e-05
273,7.234604361041684e-07,9.8183499885345e-07,1.1459543098123398e-06,9.714500190168212e-07,8.852503780382502e-06,2.3595211427856593e-06,3.3350734187989854e-06,2.093378279575008e-05,1.547655764693448e-05,8.069393224763418e-07,1.0668148055967346e-06,2.3620789022331684e-05,4.462909102588357e-06,1.6464875668160047e-05,1.9097112227125728e-06,3.00223868079973e-05
274,7.194796942217444e-07,9.841587791221334e-07,1.1269339607770004e-06,1.0022145891925856e-06,8.338519156288018e-06,2.407916668407483e-06,3.3053574476238076e-06,2.019094739063997e-05,1.493179685290649e-05,8.367863083509067e-07,1.0598454651478603e-06,2.2817525002371958e-05,4.606198303285684e-06,1.708369553202488e-05,1.8798929083755965e-06,2.9338863508460885e-05
275,7.170721404350065e-07,9.838966305389036e-07,1.1054553817848248e-06,1.02971363029266e-06,7.854594871176003e-06,2.460821610703467e-06,3.268720433653109e-06,1.949662686663099e-05,1.4305026968399257e-05,8.687411200122479e-07,1.0508060442066954e-06,2.187447023052324e-05,4.7494855787880574e-06,1.767729310621382e-05,1.8424466779213918e-06,2.8604289836811966e-05
276,7.163285824684841e-07,9.811678175324928e-07,1.0821094948867714e-06,1.0534251446426298e-06,7.400783779028165e-06,2.518758430549753e-06,3.2252070930750885e-06,1.8862632274907906e-05,1.361713831152873e-05,9.025797944269595e-07,1.039385424068657e-06,2.082167208467157e-05,4.89311151173627e-06,1.8241272316738424e-05,1.7977718077124785e-06,2.7815725922866723e-05
277,7.17312976946814e-07,9.762951771299065e-07,1.057687882588245e-06,1.0729136301659456e-06,6.977534026559055e-06,2.581956993925545e-06,3.175047627555276e-06,1.8298409934638616e-05,1.2887072227508798e-05,9.380102019024088e-07,1.0255049411995283e-06,1.968818881077707e-05,5.038477570299877e-06,1.8768835407444126e-05,1.7467891988415634e-06,2.6974282326816364e-05
278,7.20030603758422e-07,9.69676809711409e-07,1.0330290400666371e-06,1.087786251816453e-06,6.585767923266319e-06,2.650531503889973e-06,3.118527763199008e-06,1.7810397593729892e-05,1.2131144949565054e-05,9.746101841737077e-07,1.009478089020702e-06,1.850015360828893e-05,5.187501257798064e-06,1.9250490003339577e-05,1.6906699796681762e-06,2.6081930772352882e-05
279,7.244229706834237e-07,9.616299785701569e-07,1.008881737298548e-06,1.0978173827939837e-06,6.226849749362412e-06,2.7245832343316563e-06,3.0558082053124747e-06,1.740196574511166e-05,1.136312048723735e-05,1.011813021718004e-06,9.920569505237576e-07,1.728077177816404e-05,5.342034501770426e-06,1.9674947126891436e-05,1.6306966266135684e-06,2.5139354810007144e-05
280,7.303869172395154e-07,9.523231067795654e-07,9.85854100375635e-07,1.1030979481246284e-06,5.9024600527243014e-06,2.804155181423896e-06,2.986897301476143e-06,1.7074275845344155e-05,1.0594600440829554e-05,1.0489504881313399e-06,9.742316613305841e-07,1.6050727091359367e-05,5.5037557564672926e-06,2.0030807592805204e-05,1.5682319586787222e-06,2.4147143279070792e-05
281,7.377607352466743e-07,9.41813441342703e-07,9.644542569070138e-07,1.1039905700816136e-06,5.6144200757266264e-06,2.889070360642868e-06,2.912010076049661e-06,1.6827434195178455e-05,9.835375177908544e-06,1.0853074396012551e-06,9.569934289343282e-07,1.4828152231966427e-05,5.674616966354391e-06,2.030780828697098e-05,1.5046316996487674e-06,2.3108492005366075e-05
282,7.462939047205101e-07,9.301483138268391e-07,9.451313205704259e-07,1.1009444903913465e-06,5.364503911129877e-06,2.97878538111081e-06,2.8320680816175384e-06,1.666112867851343e-05,9.093440556522831e-06,1.1201729595758714e-06,9.412322803310692e-07,1.3628390232234244e-05,5.857290524548978e-06,2.0497031682527313e-05,1.4411477640837643e-06,2.2030245821673575e-05
283,7.556773292537214e-07,9.1747300844075e-07,9.282420210449009e-07,1.0943558162243772e-06,5.154302285241981e-06,3.072379087068984e-06,2.748907124093814e-06,1.657445201280521e-05,8.374929812096792e-06,1.1529317775620745e-06,9.277331041007049e-07,1.2463947219262262e-05,6.055164121894051e-06,2.059063879510289e-05,1.378899819948912e-06,2.0921773533777286e-05
284,7.656166515059224e-07,9.040917326015474e-07,9.13986412269467e-07,1.084538456320105e-06,4.985193039586687e-06,3.1686329407675487e-06,2.6650498103810182e-06,1.656501553177311e-05,7.684403263271273e-06,1.1831650388326143e-06,9.171831076493179e-07,1.1344743169683555e-05,6.27198573295638e-06,2.058236589556912e-05,1.3188984594916503e-06,1.9793207728593805e-05
285,7.758458978428404e-07,8.904544059083795e-07,9.023878018102398e-07,1.0717581943863311e-06,4.8583862413557745e-06,3.2661019679575496e-06,2.5832299443862393e-06,1.662785722539936e-05,7.0255024274466705e-06,1.2106815691183407e-06,9.101418890818924e-07,1.0278530461699366e-05,6.511454224381604e-06,2.0469309358026155e-05,1.2620476786365445e-06,1.86544638400661e-05
286,7.86085259342603e-07,8.770682679217603e-07,8.933253311070838e-07,1.0562548546036426e-06,4.774959727644814e-06,3.363169634847659e-06,2.5060203874202903e-06,1.675497517392303e-05,6.401562731457254e-06,1.2354505602395164e-06,9.069933817199637e-07,9.271309175081217e-06,6.776874147964641e-06,2.0253476366673376e-05,1.2091008839224537e-06,1.751527475408246e-05
287,7.960379204570815e-07,8.643743135387744e-07,8.865750887316797e-07,1.0382460040489876e-06,4.735828295726282e-06,3.4580860860437405e-06,2.4357386088989714e-06,1.693588822250935e-05,5.815786035736067e-06,1.257500916355401e-06,9.079294390962879e-07,8.32768238516693e-06,7.070858711937333e-06,1.994100981422428e-05,1.160633473662473e-06,1.6385492195473082e-05
288,8.05426640226962e-07,8.526626291409044e-07,8.818225247104636e-07,1.0179576188327984e-06,4.741603654671896e-06,3.5489413085356056e-06,2.3744536202495437e-06,1.7158722607533205e-05,5.2709470662262e-06,1.2769330552005627e-06,9.129857210033767e-07,7.451150170617797e-06,7.395101941663745e-06,1.95398801529265e-05,1.117042843859799e-06,1.5274943199400547e-05
289,8.139922484037791e-07,8.420525210022311e-07,8.786829881567888e-07,9.956431496687583e-07,4.792345370633894e-06,3.633593035214488e-06,2.323905530692205e-06,1.7411156087313284e-05,4.769032495940505e-06,1.2940518057149998e-06,9.221009358680422e-07,6.6443029750031064e-06,7.750210580171073e-06,1.9059116195659954e-05,1.0785349754227714e-06,1.4192784972685266e-05
290,8.214444349166697e-07,8.325013478656527e-07,8.767865411720477e-07,9.715396128794523e-07,4.887358172301321e-06,3.709676514349853e-06,2.2853996211543433e-06,1.7681029163509036e-05,4.311145096436814e-06,1.3094239670455345e-06,9.351358405634832e-07,5.9089135431589466e-06,8.135492880258955e-06,1.851000267164936e-05,1.0451371547429396e-06,1.3146671804000958e-05
291,8.274612158205322e-07,8.238373233069057e-07,8.758596214022827e-07,9.458557426235004e-07,5.02521594812252e-06,3.7748171947068254e-06,2.259785872037931e-06,1.7956627529597004e-05,3.897551459678625e-06,1.323746986074708e-06,9.518616282973435e-07,5.245988175069677e-06,8.548700956170134e-06,1.7906542280595853e-05,1.016780695634138e-06,1.2142041966418752e-05
292,8.317909136644068e-07,8.158179271803333e-07,8.756978212439523e-07,9.18878516147137e-07,5.20394635305451e-06,3.827031194181569e-06,2.2474849618920037e-06,1.8226477852088358e-05,3.527689718753728e-06,1.337639328684327e-06,9.719968909696227e-07,4.655806003496902e-06,8.985910818913743e-06,1.7263985728842688e-05,9.933876997515978e-07,1.1181857093252914e-05
293,8.343348642978248e-07,8.081702834658499e-07,8.760834708705599e-07,8.91070210056003e-07,5.421141967409956e-06,3.8651241857077185e-06,2.2484794106016757e-06,1.847851175148722e-05,3.2002567989658203e-06,1.3514992561446562e-06,9.952839029901494e-07,4.137954985312894e-06,9.441665935688475e-06,1.6596855978649244e-05,9.748746614124215e-07,1.0267014401866173e-05
294,8.351000981980798e-07,8.00644497308332e-07,8.76766866252202e-07,8.630127295634557e-07,5.673854653899323e-06,3.888820328834604e-06,2.262299088027366e-06,1.8699271123718554e-05,2.9135126077188182e-06,1.3654634255462707e-06,1.02150863587797e-06,3.6914073087295065e-06,9.909243247273525e-06,1.5917764329993947e-05,9.610907731136387e-07,9.397213266074376e-06
295,8.341094064987115e-07,7.931292255329852e-07,8.775115159603805e-07,8.352778463449879e-07,5.958324288339252e-06,3.898464827239483e-06,2.288087038281761e-06,1.8874598212996055e-05,2.665677478040577e-06,1.3794422974338421e-06,1.0504417428876384e-06,3.314651460818749e-06,1.0380733426078307e-05,1.5236997811218792e-05,9.517816735100833e-07,8.571827483056178e-06
296,8.313629397853104e-07,7.857278512376608e-07,8.781502176795511e-07,8.083575920075984e-07,6.269776396727953e-06,3.894490390245225e-06,2.3247777107179316e-06,1.8991992918605292e-05,2.4551924327654983e-06,1.3932183087204921e-06,1.0817978668404253e-06,3.0058033275045762e-06,1.084694298137702e-05,1.4562398875505308e-05,9.466040564583674e-07,7.790534042395889e-06
297,8.268126888460262e-07,7.787135105795581e-07,8.786193595427541e-07,7.826646009412983e-07,6.6024366777416405e-06,3.877156611970741e-06,2.371350388482773e-06,1.9042789455292955e-05,2.2807487159160914e-06,1.4065651100354728e-06,1.1152691169777879e-06,2.762613301456962e-06,1.1297924447562827e-05,1.3899440178088449e-05,9.451357459322815e-07,7.053649930440598e-06
298,8.203403802923632e-07,7.724336091810781e-07,8.789309007766322e-07,7.585680726713863e-07,6.9495936849208e-06,3.846796105270669e-06,2.4270427653256857e-06,1.902261711685375e-05,2.1411511683129023e-06,1.419331154469216e-06,1.1505497506859183e-06,2.5824359532687647e-06,1.1724880154330247e-05,1.3251659032428787e-05,9.468924633907934e-07,6.36217120827331e-06
299,8.118280030420073e-07,7.672253994527779e-07,8.790888361383458e-07,7.364215801886772e-07,7.303664224410123e-06,3.8042035072580165e-06,2.491375262994399e-06,1.8930561858431186e-05,2.035136842475736e-06,1.4314597255557486e-06,1.1872784466787739e-06,2.46229081747585e-06,1.2122688808551463e-05,1.2621400007394561e-05,9.514018231869693e-07,5.717518800073903e-06
300,8.013412143747667e-07,7.633405511766835e-07,8.790233313521972e-07,7.165357992353644e-07,7.656703510794207e-06,3.7507605932859946e-06,2.563949472908935e-06,1.8768308327486105e-05,1.9613113631348235e-06,1.4429323951419268e-06,1.2249470390848646e-06,2.398979175067145e-06,1.2491244417972077e-05,1.201067554706356e-05,9.582521575283895e-07,5.121044396440346e-06
301,7.892645812109145e-07,7.608897161338914e-07,8.785966144432973e-07,6.991307089571032e-07,8.001628621667778e-06,3.688252772454451e-06,2.6441795288305707e-06,1.8539767869639116e-05,1.918342741605389e-06,1.453669692065761e-06,1.262891720603693e-06,2.389144918680298e-06,1.283447709919843e-05,1.1421801310618585e-05,9.67022486881722e-07,4.573489864511271e-06
302,7.762343833651094e-07,7.598381140801521e-07,8.77681768107211e-07,6.84324124561072e-07,8.333575353444419e-06,3.618536408170272e-06,2.7311774733920345e-06,1.8250555786824495e-05,1.905266413193084e-06,1.4635205193422236e-06,1.3004161442356388e-06,2.4292947382581883e-06,1.3157690477311506e-05,1.0857400261511098e-05,9.771740883759613e-07,4.074690718861619e-06
303,7.629393853990757e-07,7.600670016780146e-07,8.762431434886645e-07,6.721370017648382e-07,8.650391984998778e-06,3.5432852296362866e-06,2.8238419120930313e-06,1.7906665994651583e-05,1.9215403105213535e-06,1.4723995329672497e-06,1.3369287268112463e-06,2.5158066640701887e-06,1.3465085310271482e-05,1.0320267782199593e-05,9.880278199909306e-07,3.6236076491558532e-06
304,7.499704821430214e-07,7.614638358232021e-07,8.743177618153084e-07,6.624856592449242e-07,8.951777299319306e-06,3.463996260963931e-06,2.9210478862082294e-06,1.751309630399057e-05,1.9668111809542994e-06,1.480381457158404e-06,1.37199107916277e-06,2.644929936345388e-06,1.3758713067671998e-05,9.813677497478872e-06,9.988538313201056e-07,3.2184888527134114e-06
305,7.377877581226965e-07,7.63961899785078e-07,8.719239195596486e-07,6.551713265570466e-07,9.237619819502511e-06,3.3822151883288292e-06,3.021901376339035e-06,1.707397675930958e-05,2.040708862533963e-06,1.4875946326186245e-06,1.4053845989137164e-06,2.812927570692052e-06,1.403862200417213e-05,9.341601888444418e-06,1.0090312080323619e-06,2.857045037228799e-06
306,7.26743058344932e-07,7.675100828759777e-07,8.690231137515225e-07,6.498768961783079e-07,9.506778368145252e-06,3.2997569822000194e-06,3.1260556668497396e-06,1.6594210652396992e-05,2.142809541529933e-06,1.4940905344842117e-06,1.4372038624916237e-06,3.016449867887724e-06,1.4303463598921474e-05,8.908973279611478e-06,1.0181969009197927e-06,2.5366826842268478e-06
307,7.170879651802583e-07,7.720421838780543e-07,8.655768288805781e-07,6.461772782392313e-07,9.756930959093568e-06,3.2187411795991405e-06,3.2339636605331447e-06,1.608092627109668e-05,2.272625176159281e-06,1.4998710864500832e-06,1.467776627187947e-06,3.2529430103337456e-06,1.4551118634770881e-05,8.52224293679246e-06,1.0262965775638739e-06,2.2546915847748604e-06
308,7.089639103455726e-07,7.774670498362312e-07,8.616371529648597e-07,6.435848176097152e-07,9.984973430585754e-06,3.141420745299071e-06,3.3468843589166157e-06,1.554363295078478e-05,2.429503933534551e-06,1.5049289223394267e-06,1.4974733737839325e-06,3.5208887718407662e-06,1.4779171335207917e-05,8.189043802663462e-06,1.0335002285495392e-06,2.008240737963269e-06
309,7.023960221288962e-07,7.836316999724377e-07,8.57380232759571e-07,6.416147903881575e-07,1.0187171039259717e-05,3.069893432245968e-06,3.466563238375551e-06,1.4993372434420594e-05,2.612506917862661e-06,1.509160783323648e-06,1.526617062712451e-06,3.819808249066986e-06,1.4985298214920394e-05,7.91693351101186e-06,1.0400619601693103e-06,1.794377203418754e-06
310,6.972932731696116e-07,7.902676135032274e-07,8.530323138753751e-07,6.398171293744338e-07,1.0358920185587404e-05,3.0058565249183456e-06,3.594710323345777e-06,1.4441410904441297e-05,2.8204050179255665e-06,1.5123029946241375e-06,1.5554340316328518e-06,4.150046812716016e-06,1.5167673987061483e-05,7.712669687180642e-06,1.0462944128520676e-06,1.6102485646981773e-06
311,6.934779945835525e-07,7.969823126214338e-07,8.487580704024035e-07,6.378133621567646e-07,1.0495008582168076e-05,2.950558919101277e-06,3.732569777050553e-06,1.3897885965445746e-05,3.051797721676744e-06,1.5140179904592992e-06,1.584003637566347e-06,4.51246455992329e-06,1.5325293117253773e-05,7.582376043672518e-06,1.0526833865135675e-06,1.453327767174667e-06
312,6.907733520574852e-07,8.033309566910599e-07,8.44617277749389e-07,6.35406566505394e-07,1.0591099508910425e-05,2.904934828578088e-06,3.8807382605291544e-06,1.3371206464751723e-05,3.305157792110712e-06,1.5139936251985275e-06,1.6123006797338438e-06,4.908113503717775e-06,1.545810515321518e-05,7.5320411831739755e-06,1.0599523455941522e-06,1.3213790643724912e-06
313,6.890989575867259e-07,8.089429881327303e-07,8.406083196989154e-07,6.326713846385392e-07,1.0645414993799565e-05,2.869749950028731e-06,4.039104407785182e-06,1.2868643027048252e-05,3.5786706994106766e-06,1.5119048043732598e-06,1.6402755461688202e-06,5.337841075368265e-06,1.556700134463743e-05,7.567819364752647e-06,1.0689676114786928e-06,1.2123258699499245e-06
314,6.884970716956342e-07,8.136009276393843e-07,8.36760538536275e-07,6.299069562142547e-07,1.0658932997462692e-05,2.8456336601780464e-06,4.206815413701545e-06,1.2397177379177925e-05,3.870016966905764e-06,1.507331573213514e-06,1.667840357705429e-06,5.80184196990546e-06,1.5653625727189075e-05,7.696085010509351e-06,1.080574033101729e-06,1.1242842558411869e-06
315,6.890903543636096e-07,8.172007333465314e-07,8.332207333407566e-07,6.274935846265174e-07,1.063393972860845e-05,2.8329836462762496e-06,4.382366850308521e-06,1.1963493405585083e-05,4.176283450654315e-06,1.4997813810054665e-06,1.6947524067646037e-06,6.299361955036276e-06,1.5719938584412163e-05,7.923526968699956e-06,1.095467137134511e-06,1.0557321968041407e-06
316,6.910126054155149e-07,8.197008749684548e-07,8.302784424079799e-07,6.257613613807816e-07,1.0572509876023967e-05,2.8318022529438567e-06,4.563867512585408e-06,1.157318528136897e-05,4.493941550785014e-06,1.4887945332975085e-06,1.7204942617467694e-06,6.828665527275074e-06,1.5767633211075072e-05,8.257060010261216e-06,1.1141550288932799e-06,1.0056259988685256e-06
317,6.943402579816634e-07,8.211795207227946e-07,8.28307450175198e-07,6.249258006657083e-07,1.0476377148844814e-05,2.841567417661517e-06,4.749388707100114e-06,1.1230016449024479e-05,4.8187529803445625e-06,1.4740725720468664e-06,1.7442337836279466e-06,7.387116463389095e-06,1.579754725700798e-05,8.703226045066767e-06,1.1370218258131963e-06,9.733878241396575e-07
318,6.990627423087091e-07,8.219018647721311e-07,8.276534761164225e-07,6.250857414427298e-07,1.0348000069809162e-05,2.861215415906302e-06,4.937309840743566e-06,1.0935864396189933e-05,5.14559437109303e-06,1.4556118885978609e-06,1.7648505697138901e-06,7.971173301859185e-06,1.5808993073400993e-05,9.267424343865386e-06,1.1644206955202953e-06,9.588246503538811e-07
319,7.051296421375305e-07,8.222599284162275e-07,8.285398166695055e-07,6.262558058539956e-07,1.0191701708511167e-05,2.889256458729958e-06,5.126627446411229e-06,1.0691211737250566e-05,5.468266855041315e-06,1.433760786989974e-06,1.7810067306668077e-06,8.576363748809023e-06,1.5799120324996903e-05,9.95341692736306e-06,1.1967330288636419e-06,9.620465634556826e-07
320,7.125289501712111e-07,8.226403765409934e-07,8.310398523269114e-07,6.283995407131199e-07,1.0014156120226892e-05,2.924009117774605e-06,5.317118464968305e-06,1.0495473928057245e-05,5.779378364531388e-06,1.4091036212429702e-06,1.7913293506471822e-06,9.197577675252238e-06,1.5763063816944786e-05,1.0763041021949206e-05,1.2344518550092982e-06,9.833665602907072e-07
321,7.212966329145744e-07,8.233369550633614e-07,8.351008321241335e-07,6.314360012777177e-07,9.824112593429171e-06,2.963880377298515e-06,5.5091427884572946e-06,1.0346961250407877e-05,6.0704489311140344e-06,1.3822408911755428e-06,1.7947286959242298e-06,9.829859253828817e-06,1.5695320196009943e-05,1.1696049275946224e-05,1.2783095757991404e-06,1.023168100805103e-06
322,7.314844846396879e-07,8.245183892925617e-07,8.405671768209721e-07,6.352316219211886e-07,9.631653712592636e-06,3.007561828780285e-06,5.703072384134009e-06,1.0243160393436771e-05,6.3324389813045765e-06,1.3536617651489643e-06,1.7906868450512054e-06,1.04692581924838e-05,1.5591563147588742e-05,1.2750368674339882e-05,1.329313477416188e-06,1.081825977474555e-06
323,7.431662809542921e-07,8.262280603874156e-07,8.471767882546809e-07,6.396261976186191e-07,9.447362067880817e-06,3.0540255885248927e-06,5.898782991888943e-06,1.018165609994465e-05,6.556797823775847e-06,1.323771806039398e-06,1.7792959283986297e-06,1.1112910420021555e-05,1.5449832341953774e-05,1.392279374502079e-05,1.3886212944272403e-06,1.1597359208785485e-06
324,7.564331709120327e-07,8.284046580540187e-07,8.545678998995717e-07,6.444871874324918e-07,9.281555293493463e-06,3.1023148645793846e-06,6.095638486697213e-06,1.0160919758367495e-05,6.736775492543822e-06,1.2929606398053972e-06,1.7610174003213636e-06,1.1758044404251053e-05,1.527080694749576e-05,1.5209446069752519e-05,1.4574107844237561e-06,1.2574049736311735e-06
325,7.713567501304217e-07,8.308931237163746e-07,8.623238185917786e-07,6.497203569094107e-07,9.143598421001499e-06,3.1512823195531575e-06,6.292827308153894e-06,1.018014019236758e-05,6.8680983862220906e-06,1.2616400641538057e-06,1.7364094287339722e-06,1.2400569461274187e-05,1.5057408561757718e-05,1.6605343041364162e-05,1.5368845647119553e-06,1.3755831038295248e-06
326,7.879961601449502e-07,8.334657255880629e-07,8.700191485595908e-07,6.552493246990118e-07,9.041347464835459e-06,3.199480174528048e-06,6.489641709072597e-06,1.0238280467288556e-05,6.94847006980095e-06,1.2302805251993237e-06,1.7060806889110834e-06,1.3034140056346696e-05,1.481402917105473e-05,1.8103254367255923e-05,1.628306803572401e-06,1.5154972533848664e-06
327,8.064422541179175e-07,8.35897193315372e-07,8.772578620938903e-07,6.610353221619985e-07,8.980889382705004e-06,3.2452974740932524e-06,6.685558924977298e-06,1.0333542486113162e-05,6.977331167508376e-06,1.199432487281527e-06,1.6707960975158504e-06,1.3650127588045175e-05,1.4545569594804471e-05,1.969273065986232e-05,1.732913490996955e-06,1.679204424322103e-06
328,8.268241236387215e-07,8.380228820989238e-07,8.837162863355237e-07,6.671143610494573e-07,8.966778440156099e-06,3.2872804771048378e-06,6.88021168114337e-06,1.0464188163762561e-05,6.957003834375756e-06,1.1696770224830841e-06,1.6314841345708606e-06,1.423837899798594e-05,1.4256366807816524e-05,2.1359970857361542e-05,1.8517466114648923e-06,1.869907049924717e-06
329,8.492660980717464e-07,8.396876222137745e-07,8.891495091682738e-07,6.736043632649382e-07,9.002725761588086e-06,3.3244431503855587e-06,7.073321287116424e-06,1.0630197786682094e-05,6.893359376169641e-06,1.141521632080093e-06,1.5891339804709175e-06,1.4788097285775633e-05,1.3949164920491006e-05,2.3088220034253994e-05,1.985532064597086e-06,2.091997987138243e-06
330,8.738369066113093e-07,8.406576060567937e-07,8.933677739963898e-07,6.806867789777512e-07,9.092276151880968e-06,3.356312630644897e-06,7.264590052090334e-06,1.08343884914084e-05,6.7944432854256424e-06,1.1153308385384849e-06,1.5447627104711723e-06,1.5288123089375233e-05,1.362462935601082e-05,2.4857875214600588e-05,2.1346246598370715e-06,2.3507829880372924e-06
