,EMG1,EMG2,EMG3,EMG4,EMG5,EMG6,EMG7,EMG8,EMG9,EMG10,EMG11,EMG12,EMG13,EMG14,EMG15,EMG16
0,1.9835854887074255e-07,1.7389379328972203e-07,3.1327519821340154e-07,3.087629744693889e-08,2.3281725252245748e-08,1.994182219149185e-07,1.5797846122843612e-06,3.0066568406960663e-06,1.2062388719798844e-06,2.642137953511756e-07,7.449622227750714e-08,-2.1581536418472947e-07,1.0850401873566094e-07,6.382682388957937e-06,2.9294454621825536e-06,-2.713421575538468e-06
1,2.744421215652911e-07,2.581107134518183e-07,3.4775645341144507e-07,1.4516438990555329e-07,6.471973751844901e-08,2.3063939567922154e-07,1.97729926139525e-06,3.1455368008592093e-06,1.274075124156245e-06,3.6768976910332975e-07,1.7092360435657122e-07,3.48241388971415e-07,2.351546835480796e-07,7.766350330385701e-06,3.7468781517351417e-06,9.454227976520621e-06
2,3.487259375004244e-07,3.39576150926608e-07,3.837243388606757e-07,2.550791463929036e-07,1.0570266045847276e-07,2.6370378110991546e-07,2.3744219621317474e-06,3.305161443764482e-06,1.3473169864462072e-06,4.682608383366216e-07,2.6431635424052335e-07,8.848187151230844e-07,3.693070403081039e-07,9.135667021989534e-06,4.551318821835583e-06,2.1005797416041428e-05
3,4.204277936916269e-07,4.1748962669443624e-07,4.2047021667203556e-07,3.581907057766899e-07,1.4571378495591886e-07,2.9842399310133794e-07,2.7654218577608484e-06,3.4861993851110735e-06,1.425223950583526e-06,5.642544808253327e-07,3.533143816842379e-07,1.3836018110420388e-06,5.094263311734915e-07,1.0460515371284238e-05,5.332473135254593e-06,3.176036335980486e-05
4,4.888065424406372e-07,4.912552210662634e-07,4.5730043197742025e-07,4.5261388009274e-07,1.843883872588106e-07,3.3458139499041646e-07,3.144764897615193e-06,3.688713954133887e-06,1.507073320923268e-06,6.542823950648223e-07,4.3694415122620064e-07,1.8358982469444943e-06,6.541533155565278e-07,1.1711977322941009e-05,6.081832579278779e-06,4.154595389854445e-05
5,5.532340011978703e-07,5.605191661868159e-07,4.935925882145464e-07,5.37060862808179e-07,2.2148071985556168e-07,3.719179986399546e-07,3.507547494556387e-06,3.912251876173728e-06,1.5921114080434929e-06,7.372702393198229e-07,5.14780000614904e-07,2.2350599559686293e-06,8.024289763444688e-07,1.2862524053641048e-05,6.793241540816013e-06,5.0211675350087524e-05
6,6.132268829503575e-07,6.251381240743545e-07,5.288478957113011e-07,6.107602622402217e-07,2.568262523157717e-07,4.1014060218221654e-07,3.84980113896491e-06,4.1561668551630046e-06,1.679422005758017e-06,8.124069931106582e-07,5.868770253888269e-07,2.5765688847806127e-06,9.536980532268938e-07,1.3887780848392689e-05,7.462628178165326e-06,5.764259777967387e-05
7,6.684395148738821e-07,6.851160627002855e-07,5.627419173860167e-07,6.733773449006236e-07,2.9033846960148794e-07,4.489504907834034e-07,4.168595577130219e-06,4.419994411368801e-06,1.767817904207282e-06,8.791014962016364e-07,6.53517681914754e-07,2.857967162684828e-06,1.1081095426575471e-06,1.47699482059627e-05,8.087030639320464e-06,6.377271276193251e-05
8,7.186662605565414e-07,7.405330190836474e-07,5.951338290753255e-07,7.249617671983392e-07,3.2199863983053363e-07,4.881007912458684e-07,4.4619767912962904e-06,4.703641683522755e-06,1.855812604690126e-06,9.369830310961956e-07,7.150069045942641e-07,3.0788248912482567e-06,1.2664683906029504e-06,1.5500155247111615e-05,8.663543084436319e-06,6.859221882908263e-05
9,7.638605459571551e-07,7.914879398561709e-07,6.259850205002896e-07,7.658671471917798e-07,3.518215199270712e-07,5.274257267052927e-07,4.728720667887235e-06,5.007271637403209e-06,1.9416263723349928e-06,9.859029156930585e-07,7.716452800481477e-07,3.240647598102928e-06,1.4298933191172491e-06,1.6077082857783306e-05,9.188934812105561e-06,7.214671171640963e-05
10,8.041347842889605e-07,8.381210637862507e-07,6.552419181724849e-07,7.966521404720184e-07,3.7982804110284036e-07,5.668015646774421e-07,4.967921340117084e-06,5.330899845265565e-06,2.023194670895822e-06,1.0258963609307345e-06,8.238026800194958e-07,3.3465639157458662e-06,1.599438847970923e-06,1.650300928876861e-05,9.660039644005657e-06,7.452810169218526e-05
11,8.397179145525672e-07,8.806960699197006e-07,6.828122931894841e-07,8.18026642698463e-07,4.060281042501701e-07,6.060931708447977e-07,5.178588818457792e-06,5.673895384568496e-06,2.0982880379069203e-06,1.057143426990894e-06,8.719381166622926e-07,3.400913453335355e-06,1.7759137567259233e-06,1.6781364690087727e-05,1.0074314675175101e-05,7.585977323618527e-05
12,8.708823949569882e-07,9.195973152496251e-07,7.08663357836034e-07,8.308529700438678e-07,4.3040673554242107e-07,6.451300970599739e-07,5.359515495678554e-06,6.034689331246587e-06,2.164848840781968e-06,1.07997920739631e-06,9.165101945134248e-07,3.4089484414019137e-06,1.95985754305691e-06,1.691763111297322e-05,1.0429994845222327e-05,7.628002881285384e-05
13,8.978700380605407e-07,9.552182598312847e-07,7.329185392341704e-07,8.361403801913477e-07,4.529205311045696e-07,6.836924505286369e-07,5.509550387251348e-06,6.410815715100573e-06,2.221416130916296e-06,1.0949260625092307e-06,9.578718488356706e-07,3.376631175071197e-06,2.1515156887731266e-06,1.692140801920513e-05,1.0725683484164197e-05,7.592745310453458e-05
14,9.20851559027265e-07,9.878640594544699e-07,7.558542634328984e-07,8.349805834862624e-07,4.7350215769663774e-07,7.215323031327475e-07,5.628126358962898e-06,6.79913200705504e-06,2.2673965969065273e-06,1.1026911145392188e-06,9.96259905075767e-07,3.310328068022043e-06,2.3507805861642123e-06,1.6807119396065676e-05,1.0960114221259418e-05,7.493067986414744e-05
15,9.399608551879931e-07,1.0177216087065289e-06,7.778504583277922e-07,8.284442987311575e-07,4.920794706572074e-07,7.584609825577171e-07,5.715691580415443e-06,7.196076184223751e-06,2.3030406943623783e-06,1.1041152656437043e-06,1.0318740309620349e-06,3.2163568386537592e-06,2.5571499840773317e-06,1.6592879564619065e-05,1.1133193336765822e-05,7.340380007701355e-05
16,9.553702247135437e-07,1.0448649551362207e-06,7.993747583749099e-07,8.175120388756366e-07,5.086168980385622e-07,7.944114937740196e-07,5.773837532268563e-06,7.597965476156597e-06,2.3291368198581025e-06,1.1001095721771958e-06,1.0649464047937666e-06,3.10064269017243e-06,2.7696857551689124e-06,1.6298308796295235e-05,1.1247771027478902e-05,7.144634089636017e-05
17,9.672843610513786e-07,1.0692789000418087e-06,8.209641076785133e-07,8.030818378603516e-07,5.23167100132835e-07,8.293822654568069e-07,5.805186845437011e-06,8.00132370754155e-06,2.346670016088464e-06,1.0916424984670386e-06,1.0957493277622592e-06,2.968668805756389e-06,2.9869554609624456e-06,1.5942305521821252e-05,1.1310058876572708e-05,6.914492708516409e-05
18,9.75845171340202e-07,1.090936894758043e-06,8.431461681724698e-07,7.860083118061349e-07,5.359128956387666e-07,8.633328369075075e-07,5.813166225743225e-06,8.403119258824942e-06,2.3566840711861877e-06,1.0798003596623518e-06,1.1245766667493303e-06,2.8255794158270083e-06,3.207040718352461e-06,1.5541436275167162e-05,1.1327975439191373e-05,6.657473460347477e-05
19,9.811024054229263e-07,1.1099290242557364e-06,8.663464994680071e-07,7.671009725404566e-07,5.471678299006402e-07,8.961717851325355e-07,5.8016873248171725e-06,8.800756792105546e-06,2.360232690477004e-06,1.0658325084706748e-06,1.1517204085603924e-06,2.676319486151415e-06,3.427680422997012e-06,1.5109237340693142e-05,1.1309029780898514e-05,6.380055225752925e-05
20,9.83126951500753e-07,1.1265160918011883e-06,8.908396355119031e-07,7.470859971414123e-07,5.573167153404093e-07,9.278509255819204e-07,5.774714139543716e-06,9.191728615663879e-06,2.358301074526352e-06,1.0510714552594041e-06,1.1774173475688047e-06,2.525907437122761e-06,3.6464918473975684e-06,1.4656292850607029e-05,1.125922776942114e-05,6.087759776342392e-05
21,9.821430913250447e-07,1.1410305304884383e-06,9.167296931955308e-07,7.265970175866554e-07,5.667378293773375e-07,9.584410659790003e-07,5.7357560858563664e-06,9.573004279846778e-06,2.351796972291177e-06,1.036775235185472e-06,1.2017755646464066e-06,2.3798108653494045e-06,3.861143364416657e-06,1.4190448588985082e-05,1.1182839600766904e-05,5.785222856966531e-05
22,9.785294851270363e-07,1.153722484478892e-06,9.43955878926404e-07,7.062137626549933e-07,5.757672298303916e-07,9.880914404074658e-07,5.6874058258208785e-06,9.940459948863726e-06,2.3415473303674623e-06,1.024040660930931e-06,1.2247344884362642e-06,2.244127877466111e-06,4.069348039828966e-06,1.3716808514628607e-05,1.1082463604772898e-05,5.476286781393933e-05
23,9.727247963085955e-07,1.1646908250204483e-06,9.723332461595434e-07,6.864920630620427e-07,5.846961338080415e-07,1.0169211761616652e-06,5.631052554295941e-06,1.0288744570225816e-05,2.3281695977774095e-06,1.0138048147034308e-06,1.2460688266218778e-06,2.125380846583543e-06,4.26864737034959e-06,1.3237970498957913e-05,1.0959411079030373e-05,5.1641341252169124e-05
24,9.65172752711124e-07,1.1739022186678824e-06,1.0015865786250894e-06,6.679558066786951e-07,5.937533768394671e-07,1.044945103031012e-06,5.566856372333709e-06,1.0611814854891862e-05,2.311969807255399e-06,1.0068456542003824e-06,1.2654029082693588e-06,2.030125768972402e-06,4.456250056025289e-06,1.2754986660271514e-05,1.081443156109674e-05,4.851440845941711e-05
25,9.563082560334613e-07,1.181206859662076e-06,1.0313556848303605e-06,6.510883462268695e-07,6.030793614935208e-07,1.0720627004330567e-06,5.494008726277044e-06,1.090402794672078e-05,2.293074892180508e-06,1.0037734206384464e-06,1.2822146932939552e-06,1.964700937096757e-06,4.629349923519486e-06,1.2268753249181057e-05,1.0648200627570911e-05,4.5405027228844054e-05
26,9.465278421971036e-07,1.1863530621282482e-06,1.0612237486170195e-06,6.363322481073661e-07,6.1272578738007e-07,1.0980917032920769e-06,5.411197234751849e-06,1.1161362352000337e-05,2.2717142896572402e-06,1.0050448058997e-06,1.2958427792083233e-06,1.935196841090718e-06,4.785992678888422e-06,1.1780890547915405e-05,1.046142568853884e-05,4.233312552470636e-05
27,9.361898595994622e-07,1.1890689940511321e-06,1.090782284679295e-06,6.240710834314971e-07,6.226783233634795e-07,1.1227981491473433e-06,5.317097447870381e-06,1.138223270105184e-05,2.2484038078721414e-06,1.010974191475596e-06,1.3055988159377704e-06,1.9475444846209908e-06,4.926032174049275e-06,1.129344470736744e-05,1.0255159779152371e-05,3.931612108718525e-05
28,9.256570245510175e-07,1.189173346787947e-06,1.1196674422808563e-06,6.146029428315873e-07,6.328775916799569e-07,1.1458747011086272e-06,5.210755395435677e-06,1.1567538154900025e-05,2.2239609109003317e-06,1.0217193430969508e-06,1.3110453028740997e-06,2.0075966959362903e-06,5.051536195665572e-06,1.0807944869165123e-05,1.0031154010905353e-05,3.63695301439605e-05
29,9.152995681629103e-07,1.1866371822206222e-06,1.147536793852799e-06,6.081212583229074e-07,6.432358483024196e-07,1.1669236824628937e-06,5.091857470094245e-06,1.1719857136567849e-05,2.1994135999967265e-06,1.0372552738380365e-06,1.3122354658579206e-06,2.121102602429608e-06,5.166291619921529e-06,1.032500765841188e-05,9.792103530520307e-06,3.350765460137579e-05
30,9.054688628948359e-07,1.181602231076916e-06,1.1740528451088643e-06,6.047002796706493e-07,6.536905154915291e-07,1.1855404497731213e-06,4.96092803749976e-06,1.1842020779978691e-05,2.175861030592274e-06,1.057352362016405e-06,1.309672583837768e-06,2.293615561624896e-06,5.2746906033339194e-06,9.84477169995701e-06,9.542359404892769e-06,3.074407944643428e-05
31,8.965036010349504e-07,1.1743597897998889e-06,1.198952751623198e-06,6.04288048887762e-07,6.642916259879368e-07,1.2014924527316029e-06,4.819411617398618e-06,1.1935780517180147e-05,2.1544751623361054e-06,1.0815720463283705e-06,1.3040494682755638e-06,2.530513002035095e-06,5.380729465441355e-06,9.367472336215525e-06,9.288324908958477e-06,2.809181014850864e-05
32,8.887242512583835e-07,1.1652651863979397e-06,1.2221647795105931e-06,6.067105702789254e-07,6.752173936650457e-07,1.2148982609294112e-06,4.669554047111349e-06,1.2001357006561962e-05,2.13672374637073e-06,1.1092812251600243e-06,1.2960170445577794e-06,2.8371542289653077e-06,5.487535556128111e-06,8.893718740398149e-06,9.037364833890312e-06,2.5563104037220908e-05
33,8.823989024212285e-07,1.154658824279409e-06,1.2438349759088685e-06,6.116969984317162e-07,6.866774649997419e-07,1.226282532515393e-06,4.514073682485449e-06,1.2037891105460358e-05,2.1244779543132074e-06,1.1396839277040492e-06,1.2861185238416573e-06,3.2189618377688395e-06,5.597217093614903e-06,8.424597630506302e-06,8.796195390691953e-06,2.3169202457283626e-05
34,8.777427890989587e-07,1.1428978402614785e-06,1.2642133934733045e-06,6.189166477638896e-07,6.988133562300406e-07,1.2364432009065774e-06,4.355706390737158e-06,1.2044173807166496e-05,2.119775699786412e-06,1.1718868929551828e-06,1.2748265887853238e-06,3.6812714291177603e-06,5.710791349053207e-06,7.961752094809354e-06,8.570106229090206e-06,2.092016011943217e-05
35,8.749324303573636e-07,1.1304462075064154e-06,1.283487795434431e-06,6.279929428735768e-07,7.11683853003371e-07,1.2462146944392043e-06,4.196772054490279e-06,1.2019193225851597e-05,2.1245282966864735e-06,1.2050023468846873e-06,1.262552523429656e-06,4.229030793995608e-06,5.828255717401857e-06,7.507393859249522e-06,8.36293150880978e-06,1.8824790900205636e-05
36,8.740775466750543e-07,1.1178942010160326e-06,1.3016692102046028e-06,6.385075570790436e-07,7.252993463409433e-07,1.2562978959016156e-06,4.038923331862425e-06,1.1962426116827308e-05,2.1404405376778833e-06,1.238264137746863e-06,1.249589794537754e-06,4.866551093640126e-06,5.948892115922462e-06,7.064233905848154e-06,8.177369212181232e-06,1.6890593421343036e-05
37,8.751671245428036e-07,1.1058770155589808e-06,1.3185904851177703e-06,6.500180454783894e-07,7.396319144489615e-07,1.2672208092997636e-06,3.883147036093562e-06,1.1873968024672173e-05,2.1690189690988894e-06,1.2711061758212669e-06,1.2360614306372015e-06,5.597412682872388e-06,6.07168832396256e-06,6.6354048429293176e-06,8.01541506424023e-06,1.512358173412915e-05
38,8.780375154892643e-07,1.0949481354679407e-06,1.3340160424583632e-06,6.620604058376002e-07,7.545822035259318e-07,1.2793550861608826e-06,3.7299787333752565e-06,1.175461747113482e-05,2.2115312915147928e-06,1.3031292575707848e-06,1.2219426271876894e-06,6.424405284147246e-06,6.195673881088077e-06,6.224289643857067e-06,7.878558239337555e-06,1.3528127333367974e-05
39,8.823986471564074e-07,1.0854822575342558e-06,1.3477703369368015e-06,6.74167292116422e-07,7.699436731028021e-07,1.2929652933025288e-06,3.579831278200776e-06,1.1605979238656193e-05,2.2689938232472366e-06,1.333957689938319e-06,1.2071624925656058e-06,7.349333969427885e-06,6.320158667113549e-06,5.83411515742217e-06,7.76757066009117e-06,1.2106933845891976e-05
40,8.879118205111626e-07,1.0776626302574845e-06,1.3597788289644651e-06,6.859838351327719e-07,7.854217847153663e-07,1.3082907431505004e-06,3.4332573881287446e-06,1.143054466368137e-05,2.3421947640151613e-06,1.3631163322372811e-06,1.1917355907997203e-06,8.372714199288462e-06,6.445058191463584e-06,5.467577511092567e-06,7.6821617229071e-06,1.0861068826146601e-05
41,8.942470150140839e-07,1.0715426779431692e-06,1.3700005354609114e-06,6.974242941885173e-07,8.007274804799698e-07,1.3255485693883222e-06,3.2909398874416668e-06,1.123164180855272e-05,2.4316499387691748e-06,1.3900485081943441e-06,1.1758698069197846e-06,9.493483315820719e-06,6.571297549190974e-06,5.126939634115573e-06,7.620977221919662e-06,9.789865028130386e-06
42,9.010675795640931e-07,1.067123778384817e-06,1.3783391222398374e-06,7.086997067708437e-07,8.156976302467399e-07,1.3448249087363285e-06,3.1534544214226564e-06,1.1013213344125313e-05,2.537555736421593e-06,1.4142030787546772e-06,1.1600006592734598e-06,1.0708780479425105e-05,6.7008909973130514e-06,4.8144559196317435e-06,7.5820173198377675e-06,8.890704922425702e-06
43,9.079955117381247e-07,1.0644163508173658e-06,1.3846408415850828e-06,7.201700587837835e-07,8.303594104498502e-07,1.365978973701216e-06,3.0211852269226416e-06,1.0779471882039956e-05,2.6598672880272716e-06,1.4350378011636466e-06,1.1447131973889064e-06,1.2013938013903439e-05,6.836400270026917e-06,4.532527896565525e-06,7.5630209279761416e-06,8.158971088227977e-06
44,9.146320711205665e-07,1.0634686488095806e-06,1.3887414760533464e-06,7.321618084512928e-07,8.448824563150244e-07,1.3886241593628422e-06,2.8946121900633095e-06,1.0534466552685204e-05,2.798427805371689e-06,1.4520009936272234e-06,1.13058735711743e-06,1.3402948908623093e-05,6.980197827309257e-06,4.283379270721316e-06,7.56144372826393e-06,7.588356840267118e-06
45,9.206114686095157e-07,1.0643338624620517e-06,1.390446827667946e-06,7.448861816777475e-07,8.594467468339226e-07,1.412151112818829e-06,2.774694167812653e-06,1.028153322302483e-05,2.95299653868786e-06,1.4645996988416347e-06,1.1180847098555582e-06,1.4869284494517218e-05,7.134222850976867e-06,4.068602127311526e-06,7.574094082495286e-06,7.171379655787177e-06
46,9.256119749030544e-07,1.0670049753460465e-06,1.3895141141941922e-06,7.584407150666386e-07,8.741303766939075e-07,1.4357629869548544e-06,2.6630012714355725e-06,1.002266253113876e-05,3.123144907453694e-06,1.4724181354906238e-06,1.1075539708599202e-06,1.6406424249386603e-05,7.300194990812123e-06,3.8889186327527175e-06,7.59670263383591e-06,6.899810958241155e-06
47,9.293073331079322e-07,1.0713815985413004e-06,1.3857828742361029e-06,7.728132565673552e-07,8.888864778114903e-07,1.4585300812036228e-06,2.5615348191059064e-06,9.758023142247511e-06,3.3081821892662564e-06,1.4750165936983994e-06,1.0992984703654229e-06,1.8007617523624977e-05,7.479747841788473e-06,3.744163032045931e-06,7.623632892264348e-06,6.764924802776384e-06
48,9.313254927566691e-07,1.0772491048396422e-06,1.3793777024195668e-06,7.878742383522934e-07,9.035670500972784e-07,1.4794859432131689e-06,2.4723637389005474e-06,9.485957036355316e-06,3.5073267573904723e-06,1.4719178691963577e-06,1.0936012325918857e-06,1.9664977392009175e-05,7.67429345038448e-06,3.633382114879711e-06,7.647849533015756e-06,6.7576617267668214e-06
49,9.312924489851687e-07,1.0842404113972816e-06,1.370769410153243e-06,8.033782064626308e-07,9.179325610797872e-07,1.4977268435640424e-06,2.397289379919958e-06,9.203553737799083e-06,3.7200677073471412e-06,1.4627834315662474e-06,1.090686197284173e-06,2.136828584481243e-05,7.884748831592621e-06,3.5550196504935964e-06,7.661269714467101e-06,6.868814156652191e-06
50,9.289487724470114e-07,1.09182834364394e-06,1.3606304563793548e-06,8.189618340545061e-07,9.316812150209056e-07,1.512459525741004e-06,2.3377131896161563e-06,8.907666671992072e-06,3.946384663691289e-06,1.4475849670378341e-06,1.09068165542101e-06,2.3104018656308043e-05,8.111166332005756e-06,3.5071360506700128e-06,7.655650803668945e-06,7.089205946936898e-06
51,9.24248556947148e-07,1.099377299247904e-06,1.3496050330247066e-06,8.341223939762452e-07,9.445337591378346e-07,1.5230365437894976e-06,2.2946683504790424e-06,8.596112575697876e-06,4.186569938227893e-06,1.4265922984566626e-06,1.0936151863506062e-06,2.485541323555377e-05,8.352270517391352e-06,3.4875932004416487e-06,7.623996633590897e-06,7.409717671836825e-06
52,9.173726578503005e-07,1.1061958613509224e-06,1.3381571257815727e-06,8.481949748867764e-07,9.562977297049783e-07,1.5290204083901343e-06,2.2688363671190108e-06,8.268676812325947e-06,4.440729262457255e-06,1.4002131463462004e-06,1.0993851380135052e-06,2.6604087379429506e-05,8.60509079334629e-06,3.494171029434389e-06,7.561826520173316e-06,7.821066268108568e-06
53,9.086469470367601e-07,1.1115462998716297e-06,1.3265681079768744e-06,8.603686088761964e-07,9.668544527523882e-07,1.5302289697636473e-06,2.26049045460479e-06,7.927533338555293e-06,4.708282818685297e-06,1.3688230146806117e-06,1.1077026613148087e-06,2.8332641795959052e-05,8.8649971316868e-06,3.5246097270044646e-06,7.467399828742467e-06,8.313396220038024e-06
54,8.984142207989482e-07,1.1147125262840195e-06,1.3150277837475781e-06,8.69787822761804e-07,9.761202685264603e-07,1.5267334712756365e-06,2.2694499744051063e-06,7.576922706615903e-06,4.987701983529182e-06,1.3327353181756145e-06,1.1180730775361333e-06,3.0027079172351413e-05,9.126134383868742e-06,3.576570876116439e-06,7.341445721731447e-06,8.875790123774004e-06
55,8.869320702337481e-07,1.1152180920807562e-06,1.3037244131379044e-06,8.757391766039245e-07,9.840109457151665e-07,1.5188277463391918e-06,2.2950841092296316e-06,7.222216562035849e-06,5.276434384638429e-06,1.2923626440342196e-06,1.1298583319622452e-06,3.1677846050241545e-05,9.381772682252573e-06,3.6475409318792072e-06,7.187831809980966e-06,9.49586909984946e-06
56,8.743295895950612e-07,1.1130319199826891e-06,1.2928905036059986e-06,8.778268034840986e-07,9.903969455715758e-07,1.5069449212554204e-06,2.33633144737136e-06,6.868805155913675e-06,5.570890388594451e-06,1.2484099282092485e-06,1.1423986541512401e-06,3.3278432747393396e-05,9.624386814038712e-06,3.7347338548658826e-06,7.01449872010429e-06,1.0159697377055372e-05
57,8.606408389939656e-07,1.1085414206184774e-06,1.2827986613908362e-06,8.760358317264004e-07,9.951034135152957e-07,1.4915333694541033e-06,2.391712492030482e-06,6.521546957985055e-06,5.866606332168187e-06,1.2018958237425077e-06,1.1551227571733582e-06,3.482195634669723e-05,9.846086427838619e-06,3.8350281922837166e-06,6.8327700747798375e-06,1.0851899969396932e-05
58,8.459169966895543e-07,1.1023519128397161e-06,1.273709820730773e-06,8.706877833720673e-07,9.979926538569504e-07,1.4729932494223828e-06,2.459311350818535e-06,6.185056367166212e-06,6.158764354227995e-06,1.1539858674979793e-06,1.1676029746802228e-06,3.629889239931567e-05,1.0039768031383871e-05,3.9449601074286425e-06,6.655300815693682e-06,1.1555815269827763e-05
59,8.303239967834045e-07,1.0951318610710285e-06,1.2658083377631865e-06,8.623517602341268e-07,9.990475557829923e-07,1.4516898116600915e-06,2.5367370498851924e-06,5.864212515035737e-06,6.442872737640874e-06,1.1057844013285432e-06,1.1795665446746273e-06,3.769875765585093e-05,1.0200365607496211e-05,4.060762728535774e-06,6.4943413675719815e-06,1.2254239555795761e-05
60,8.141213005977688e-07,1.0875492785564098e-06,1.2591751818144175e-06,8.517389619433951e-07,9.98387589989069e-07,1.4279694969163982e-06,2.6211610904658877e-06,5.564340443677009e-06,6.715163716212585e-06,1.0582160897491933e-06,1.1908633052803396e-06,3.901425724732299e-05,1.0325413965208451e-05,4.178353975197552e-06,6.360948469135691e-06,1.2931414085830697e-05
61,7.975638653498666e-07,1.0802160018335435e-06,1.2538034543870464e-06,8.395837896529261e-07,9.962376274375144e-07,1.402186928459777e-06,2.7094813767738115e-06,5.291040515943474e-06,6.972500322362602e-06,1.012008534060542e-06,1.2014005771480134e-06,4.024418287723638e-05,1.0414537006044374e-05,4.293239348075829e-06,6.264832579274423e-06,1.357555569261327e-05
62,7.808444935477044e-07,1.0736368150686143e-06,1.2496174463904719e-06,8.265554763612584e-07,9.928735350808352e-07,1.3747842068213702e-06,2.798564446679678e-06,5.0497430314948265e-06,7.211975628960599e-06,9.677305982695779e-07,1.2110985857363564e-06,4.1393104769838396e-05,1.0468053726062084e-05,4.400635485430073e-06,6.214510949874105e-06,1.4180196964853593e-05
63,7.640974964661646e-07,1.0681856513717602e-06,1.2464637545238796e-06,8.132348684493419e-07,9.885603035513867e-07,1.3463818731038189e-06,2.885583760668557e-06,4.845186299978474e-06,7.430529790466998e-06,9.258493471711095e-07,1.2198710751902376e-06,4.246826883304738e-05,1.0485794239474972e-05,4.496186411930735e-06,6.217505575702122e-06,1.4743135243353996e-05
64,7.474034177408981e-07,1.0641140042398273e-06,1.2440797342694618e-06,8.001152136165268e-07,9.835219233951896e-07,1.317800946095809e-06,2.9684688545921285e-06,4.681099338595292e-06,7.6247211855158635e-06,8.867707432017555e-07,1.2275725314634785e-06,4.347542303846921e-05,1.0466946377319941e-05,4.576966666323701e-06,6.2803929490372e-06,1.5263707989966972e-05
65,7.307886433505307e-07,1.0616129696314686e-06,1.2420971611741492e-06,7.876010575763707e-07,9.779763586743627e-07,1.2899706623140311e-06,3.0462261559060655e-06,4.560137213351134e-06,7.790644078124749e-06,8.508510650375387e-07,1.2339092010348181e-06,4.4415334666776246e-05,1.0410294342402935e-05,4.641900093602442e-06,6.408684141897076e-06,1.5740481631685108e-05
66,7.14280901584982e-07,1.060890525725197e-06,1.2401185750880717e-06,7.760271205574935e-07,9.722066374144787e-07,1.263760595764213e-06,3.118780882341501e-06,4.483955420756943e-06,7.924095161160526e-06,8.183750086292584e-07,1.2383803937361347e-06,4.5281702622691415e-05,1.0314082199378267e-05,4.691187975308844e-06,6.606646337396415e-06,1.617053718124317e-05
67,6.980134518608773e-07,1.0621758352729622e-06,1.237780629904387e-06,7.656708438720042e-07,9.665749438532394e-07,1.2398507432008168e-06,3.186378399134814e-06,4.453344771515044e-06,8.021053627826111e-06,7.895192865509299e-07,1.2402716622633937e-06,4.60599820952056e-05,1.01758821713727e-05,4.725252300406116e-06,6.877218062571242e-06,1.655024296384192e-05
68,6.822616038380463e-07,1.065637126916886e-06,1.2347272000980214e-06,7.567235784540182e-07,9.614341880161332e-07,1.2187046376294355e-06,3.2490624962772553e-06,4.468393815884627e-06,8.07806252252141e-06,7.643848986757324e-07,1.2386511711431063e-06,4.672674715728866e-05,9.993252770973263e-06,4.7439824634808126e-06,7.22207118534345e-06,1.6876729891365103e-05
69,6.673607899268658e-07,1.0712935620240692e-06,1.2305951102514747e-06,7.492653655527044e-07,9.570212527641395e-07,1.20059272727833e-06,3.306568551251327e-06,4.528700431824402e-06,8.092145615834447e-06,7.43109224355496e-07,1.2323628059060586e-06,4.725078806244718e-05,9.765324556325602e-06,4.746549542090138e-06,7.641672104564608e-06,1.7148639038451532e-05
70,6.536144351378904e-07,1.0789969803764333e-06,1.2251048386793794e-06,7.433015959429897e-07,9.534308078769842e-07,1.1856168929817487e-06,3.3584171307189175e-06,4.633654711889799e-06,8.061182515916219e-06,7.259200583501985e-07,1.2200860813858724e-06,4.759742274476334e-05,9.4944351356968e-06,4.7315427325541145e-06,8.135160111906764e-06,1.736545815223087e-05
71,6.412795544775781e-07,1.0884780811529208e-06,1.2181442834757365e-06,7.388465557804766e-07,9.506705856820091e-07,1.1737673951133337e-06,3.403930401776537e-06,4.782733118572667e-06,7.985668996567962e-06,7.130588939668105e-07,1.2004752387649086e-06,4.77352696739489e-05,9.186464765391301e-06,4.69723428510298e-06,8.700056219555264e-06,1.7526100509191245e-05
72,6.305818829315862e-07,1.0993871197321933e-06,1.209721792605865e-06,7.359888821828157e-07,9.487546975295665e-07,1.1650029428467216e-06,3.4421755341422874e-06,4.9757286710095765e-06,7.870421353041273e-06,7.046837423068167e-07,1.1722799804413804e-06,4.76427249516517e-05,8.849447846093726e-06,4.641961240295932e-06,9.331978076075483e-06,1.7627615861663485e-05
73,6.21709416905257e-07,1.1112777310695554e-06,1.1998408936763263e-06,7.348993283239998e-07,9.477859865729238e-07,1.1592702978389887e-06,3.471971233781252e-06,5.212881033517882e-06,7.724155626620072e-06,7.008582409887792e-07,1.1343915489467456e-06,4.731103148743839e-05,8.491613484613144e-06,4.564577937374865e-06,1.002452874492861e-05,1.766503411543336e-05
74,6.148078990834829e-07,1.123566858033595e-06,1.1884309764795077e-06,7.357907994866287e-07,9.479699455129239e-07,1.1564701392189123e-06,3.492065092658848e-06,5.4948363912113515e-06,7.557268452548046e-06,7.015860859027887e-07,1.0858801325070024e-06,4.6741695895209986e-05,8.120248398497538e-06,4.464767533533617e-06,1.0769406689829545e-05,1.76328828609413e-05
75,6.099916231352234e-07,1.1355431717550555e-06,1.175390528654997e-06,7.388545542127815e-07,9.495437346714873e-07,1.1564609184018197e-06,3.5014513609634225e-06,5.822338734745462e-06,7.3797098186404345e-06,7.06815999035823e-07,1.0260880321463055e-06,4.593958141512804e-05,7.74152815358276e-06,4.342958417668427e-06,1.155658782027203e-05,1.752756264218904e-05
76,6.073440477581037e-07,1.1464297668927862e-06,1.1606968857194765e-06,7.441973869855317e-07,9.526725004491061e-07,1.1590945051355985e-06,3.4996612069002484e-06,6.1957827012095075e-06,7.199968605837895e-06,7.164351481161989e-07,9.547451728627834e-07,4.490802631732806e-05,7.360698881064608e-06,4.2000527685988375e-06,1.2374312260530252e-05,1.7349561524821693e-05
77,6.06912247152666e-07,1.1554553684796465e-06,1.1445106103838992e-06,7.518131541508152e-07,9.573967608607162e-07,1.1642167275508433e-06,3.4868699586992554e-06,6.615042425368499e-06,7.024908612538697e-06,7.302818358747778e-07,8.720118057379655e-07,4.365096119717103e-05,6.982282864957038e-06,4.037565647179682e-06,1.3208913577746691e-05,1.710522467061736e-05
78,6.087168149209095e-07,1.1619332287842167e-06,1.127216024701396e-06,7.616261854570351e-07,9.636641220437154e-07,1.1716454693258862e-06,3.4637836546145834e-06,7.079657835490627e-06,6.859950275073082e-06,7.48141439971515e-07,7.783787912731606e-07,4.217908439405134e-05,6.6102606972994466e-06,3.858089536314611e-06,1.404502955437162e-05,1.6807748063526885e-05
79,6.127493521285048e-07,1.1653670755207628e-06,1.1093526960241733e-06,7.735948413317744e-07,9.71374441945225e-07,1.1811781579141009e-06,3.431389627135512e-06,7.588860328400955e-06,6.70934739602368e-06,7.697041464581208e-07,6.744740681151546e-07,4.051370459471348e-05,6.24816962739269e-06,3.665266912063275e-06,1.486660328157455e-05,1.6476776665322204e-05
80,6.189343362225098e-07,1.165544863051198e-06,1.091463005062988e-06,7.877677302867342e-07,9.80364918930176e-07,1.1926331267211043e-06,3.3907401655990673e-06,8.141113136426036e-06,6.576436009547043e-06,7.945336491672411e-07,5.609132872613861e-07,3.8685136702193923e-05,5.899069446024738e-06,3.463122431851775e-06,1.56584774858507e-05,1.6136528695925075e-05
81,6.27091300557553e-07,1.1625645671760725e-06,1.0739799935928927e-06,8.042159808404147e-07,9.903794921692105e-07,1.2058802782829403e-06,3.342916716811432e-06,8.733479977982655e-06,6.463821778322243e-06,8.220938528543364e-07,4.382545254629594e-07,3.67270793376052e-05,5.565416633166577e-06,3.255469693606185e-06,1.6408005972746795e-05,1.581325486626913e-05
82,6.369301016832815e-07,1.1567949372188109e-06,1.057232217176059e-06,8.229192047555754e-07,1.0010983209776743e-06,1.220825878824975e-06,3.2891488185065196e-06,9.36124683663035e-06,6.373491231781601e-06,8.518041646161402e-07,3.070164446211555e-07,3.467182219461456e-05,5.2490040231498875e-06,3.045758139585789e-06,1.7105677793675393e-05,1.553299315070118e-05
83,6.480645516211892e-07,1.1488011384176857e-06,1.0414849825250313e-06,8.437154434038428e-07,1.0122140251330153e-06,1.2373852492100332e-06,3.230873365920971e-06,1.0017947853380744e-05,6.306809105463136e-06,8.830540515503896e-07,1.6773394073577343e-07,3.2549607537328445e-05,4.951072365860105e-06,2.837128559282364e-06,1.774405240079287e-05,1.532001447896181e-05
84,6.600220636668569e-07,1.1392331486199957e-06,1.0269291929684766e-06,8.663141330470006e-07,1.023478349775001e-06,1.2555088792346235e-06,3.169554990286455e-06,1.069573315144867e-05,6.264484876678482e-06,9.151655615639181e-07,2.10183960872117e-08,3.0389830040429517e-05,4.672451753000802e-06,2.6325164435270246e-06,1.83163895494148e-05,1.5195935443398384e-05
85,6.722670189157409e-07,1.1286835312432301e-06,1.0136603055426606e-06,8.903201629383609e-07,1.0346829029114295e-06,1.2752530040389354e-06,3.1063396168206355e-06,1.1385791728046357e-05,6.246587391541774e-06,9.47386763992738e-07,-1.3241640152895605e-07,2.822047340303205e-05,4.413534316368152e-06,2.4347977273310208e-06,1.8816948493085584e-05,1.5179356917305168e-05
86,6.842554650600802e-07,1.117580733263564e-06,1.001704013792843e-06,9.152595683001851e-07,1.0456458034855479e-06,1.2968004947453129e-06,3.0417659344513416e-06,1.2078372910432521e-05,6.252467879976282e-06,9.789958357810433e-07,-2.9173119759009194e-07,2.6066102430166705e-05,4.174143749903595e-06,2.24686271531827e-06,1.924215251736101e-05,1.5285748508301486e-05
87,6.954866142774774e-07,1.1061581632908492e-06,9.910363056473644e-07,9.405993722745363e-07,1.0562488763895327e-06,1.3203682503118978e-06,2.975662687128138e-06,1.276228271021717e-05,6.280561759384888e-06,1.0094431577489016e-06,-4.558976529604644e-07,2.3946991179121595e-05,3.953533653090698e-06,2.07152704326979e-06,1.9590666935048133e-05,1.552731705857317e-05
88,7.055178349845991e-07,1.09446602782104e-06,9.815559370256596e-07,9.657459520166285e-07,1.0664337746099941e-06,1.3460595624878147e-06,2.9072315616511857e-06,1.3424464843322646e-05,6.328298531669117e-06,1.038359253150923e-06,-6.236174328411078e-07,2.1880239011761657e-05,3.7505940787502705e-06,1.9114417193671823e-06,1.98625809056298e-05,1.5912828853328775e-05
89,7.139663409290645e-07,1.0824238853442172e-06,9.730644542981745e-07,9.900602185767072e-07,1.0761048092936885e-06,1.3737903564604726e-06,2.8353101824643173e-06,1.4050389263524576e-05,6.392139854037278e-06,1.065406894049698e-06,-7.932820806082814e-07,1.9881283195459272e-05,3.564150803721306e-06,1.769192674523088e-06,2.0058701832374433e-05,1.64474882948238e-05
90,7.20530176669961e-07,1.0699289346261296e-06,9.652731591880278e-07,1.0129077824096085e-06,1.0850147849022568e-06,1.4033269087141665e-06,2.758805895911773e-06,1.4625277891695618e-05,6.467533488669757e-06,1.0901593478401296e-06,-9.629535421785924e-07,1.7964230409510372e-05,3.393191450598555e-06,1.6474774689610706e-06,2.0179637309774528e-05,1.7132968065365207e-05
91,7.25004079435411e-07,1.056947806149251e-06,9.577862214991028e-07,1.033681631137505e-06,1.0927252443951818e-06,1.4343363292102566e-06,2.677190656378046e-06,1.5135800819761232e-05,6.548813050411008e-06,1.1121388563442478e-06,-1.130274123557915e-06,1.614106972985851e-05,3.2369118916301704e-06,1.5491519698684776e-06,2.0224280013562337e-05,1.796751489697122e-05
92,7.272402114802702e-07,1.043520907016007e-06,9.500569672912982e-07,1.0518120849992704e-06,1.0986843045699593e-06,1.4663865334096506e-06,2.5908417385985413e-06,1.5571882465803106e-05,6.6293582535689635e-06,1.1309153129115367e-06,-1.2923181504619162e-06,1.4420787449906817e-05,3.094610209530827e-06,1.477156720712593e-06,2.018894255848721e-05,1.8945890047477796e-05
93,7.270728346816639e-07,1.0297284023585304e-06,9.413680627635699e-07,1.066872624649051e-06,1.102382595661461e-06,1.4989525871941681e-06,2.501045633527222e-06,1.592796119174756e-05,6.702222931116163e-06,1.1461043020302273e-06,-1.4455055863008785e-06,1.2809190745671601e-05,2.965524818526425e-06,1.4344453880029058e-06,2.006842263702229e-05,2.0059096931158462e-05
94,7.242977145597494e-07,1.0156972636795506e-06,9.308901675869454e-07,1.0787352310740073e-06,1.1034502931274214e-06,1.5314681412207046e-06,2.409658659543024e-06,1.620276426951939e-05,6.761035066713422e-06,1.1573184392857823e-06,-1.5856015458359265e-06,1.1309464763018404e-05,2.848659276046591e-06,1.4239799042387657e-06,1.9858274312392126e-05,2.1294081086101798e-05
95,7.187575952438049e-07,1.0016426072325838e-06,9.178677130243752e-07,1.0875806569921025e-06,1.101609633412954e-06,1.5633751567601956e-06,2.318628507118834e-06,1.6397366036186495e-05,6.800679283760941e-06,1.1642139985566723e-06,-1.7076799944371967e-06,9.922996238765276e-06,2.7426059471903536e-06,1.4487863608280154e-06,1.9556630001395128e-05,2.2633535320307808e-05
96,7.104797948548332e-07,9.878800518902702e-07,9.018887265090312e-07,1.0937390369636098e-06,1.0966136593762917e-06,1.5941350467465219e-06,2.2296783551005457e-06,1.651300076139399e-05,6.817349225926036e-06,1.1666037596157472e-06,-1.8060317701414507e-06,8.650073574632837e-06,2.6454374148982493e-06,1.5119962892003399e-06,1.9164440668359863e-05,2.405593538412627e-05
97,6.99753247198555e-07,9.747682269312351e-07,8.830640133769937e-07,1.0975470173813421e-06,1.0883309390950628e-06,1.6232261803505068e-06,2.1442551068983694e-06,1.655067875186889e-05,6.807995233483744e-06,1.1645197989670525e-06,-1.874163251950164e-06,7.490288597209143e-06,2.5548286885802514e-06,1.6167821984673546e-06,1.8684028119698582e-05,2.5536103288389032e-05
98,6.870705002548606e-07,9.62611888156487e-07,8.619863015165378e-07,1.0993007327112988e-06,1.0768944377027772e-06,1.6501767723863814e-06,2.0635477068047023e-06,1.6512745309592116e-05,6.7699135699194235e-06,1.158168417847449e-06,-1.904898914277916e-06,6.442646766980261e-06,2.4685566276033287e-06,1.7662086063789496e-06,1.8117695961691092e-05,2.704659504102641e-05
99,6.729785255469257e-07,9.516042506553245e-07,8.395250964355874e-07,1.099214053079796e-06,1.0627398464143079e-06,1.674653573889087e-06,1.9884443047132734e-06,1.6404584097312937e-05,6.701369851985372e-06,1.1478214695486837e-06,-1.8904538285435598e-06,5.5055671011267986e-06,2.3852104655963415e-06,1.9631038641804798e-06,1.7468577337315202e-05,2.8559829229172163e-05
100,6.579566430281656e-07,9.418392159545468e-07,8.166081135137475e-07,1.0973617110516188e-06,1.0465041714022988e-06,1.6965475416151318e-06,1.9195350402733897e-06,1.6234798539134882e-05,6.602863312992699e-06,1.1337418494674226e-06,-1.8224485911346366e-06,4.676948994191725e-06,2.3046200005330286e-06,2.210003384448173e-06,1.6743126172706992e-05,3.0050465227469736e-05
101,6.423829608635278e-07,9.333591219670849e-07,7.941009783264782e-07,1.093662842545148e-06,1.0288607536759484e-06,1.7159426610295926e-06,1.8572468863709996e-06,1.601358852611389e-05,6.477449039809236e-06,1.1161721543976369e-06,-1.6919102675538167e-06,3.954274502711858e-06,2.227689865809875e-06,2.50913639341354e-06,1.5952484138267825e-05,3.1497521116736385e-05
102,6.265641226758382e-07,9.262040261900618e-07,7.727843104916185e-07,1.0879298490654642e-06,1.0103730369518915e-06,1.732945074848389e-06,1.8020305854883958e-06,1.575065741664615e-05,6.329569454320496e-06,1.0953946166455584e-06,-1.4892597140266814e-06,3.334606539016298e-06,2.1558397969134735e-06,2.8623828192220517e-06,1.511126308786834e-05,3.2885897220351117e-05
103,6.107727743634804e-07,9.204284977734492e-07,7.533450054658233e-07,1.079974469505272e-06,9.914339850441995e-07,1.7475133183103726e-06,1.754454090483374e-06,1.5454326426298462e-05,6.163762738503446e-06,1.071839094317371e-06,-1.2043011393738395e-06,2.8144815670158192e-06,2.0904770322968624e-06,3.2711529101193713e-06,1.4234791498934525e-05,3.420694427682272e-05
104,5.952530011193456e-07,9.160611485001737e-07,7.363525923839061e-07,1.0696970935266125e-06,9.723135100808517e-07,1.759398610177211e-06,1.7151257915040517e-06,1.5131919331310834e-05,5.98432153261276e-06,1.046103848469707e-06,-8.262294577328382e-07,2.3898394346829975e-06,2.0327437339755356e-06,3.7362405736651614e-06,1.3336987105422475e-05,3.545755706296319e-05
105,5.80199481088654e-07,9.130645723189154e-07,7.222661412400842e-07,1.0571018352427501e-06,9.532394670206838e-07,1.7681491267600496e-06,1.6845264260306578e-06,1.4790312613290105e-05,5.795288315593395e-06,1.018852823919627e-06,-3.436235949196087e-07,2.056071142181171e-06,1.9835110038249452e-06,4.2577463210989586e-06,1.2429900060312553e-05,3.663737934748969e-05
106,5.657396237921434e-07,9.113827593939242e-07,7.11472863184623e-07,1.0422882090016154e-06,9.344128825611348e-07,1.773168939052779e-06,1.662887109088218e-06,1.443598975180364e-05,5.6001147050908615e-06,9.907359997088704e-07,2.555434864062585e-07,1.8081051933270337e-06,1.943477549340771e-06,4.835092708951926e-06,1.152412831000559e-05,3.774473057710194e-05
107,5.519364027381054e-07,9.110492662572486e-07,7.042979532176934e-07,1.0254521080212466e-06,9.159979445813652e-07,1.773821676173857e-06,1.6501384737579884e-06,1.4074479749202432e-05,5.401269351902907e-06,9.623967899139227e-07,9.837690998449842e-07,1.6404438321469693e-06,1.9132412061974386e-06,5.467042965632861e-06,1.0629128339287547e-05,3.8773591097451045e-05
108,5.388059191106084e-07,9.122379116274404e-07,7.009711823190978e-07,1.0068448024680024e-06,8.98178185299043e-07,1.7694517829254461e-06,1.64588865450491e-06,1.3709434193309613e-05,5.2002384410632155e-06,9.34472807744916e-07,1.853750823165636e-06,1.547190541379657e-06,1.8932602520665973e-06,6.151649521292819e-06,9.753258281309004e-06,3.971391486299641e-05
109,5.263298076606875e-07,9.15193368411571e-07,7.015996865118668e-07,9.866924828774567e-07,8.812154627593953e-07,1.7593939183120584e-06,1.649423900065411e-06,1.3342119689015877e-05,4.998029253054794e-06,9.075444642038638e-07,2.8781146228101895e-06,1.5221467607202283e-06,1.883727752802041e-06,6.886130547504613e-06,8.90369709455639e-06,4.05548798722527e-05
110,5.14475442158825e-07,9.200969519210684e-07,7.061704446396695e-07,9.651790461810096e-07,8.654075867709224e-07,1.7431804907428435e-06,1.6597530972277004e-06,1.2971895707215165e-05,4.795864133702846e-06,8.820833986925044e-07,4.0692371934302644e-06,1.558939899387044e-06,1.8844698369290943e-06,7.666699392530516e-06,8.086404179644845e-06,4.12886708122917e-05
111,5.032288002348297e-07,9.269736334544398e-07,7.145630275119641e-07,9.42511753638813e-07,8.509847294035711e-07,1.7208229318044782e-06,1.6756767978111576e-06,1.2597407591393755e-05,4.595462775672778e-06,8.584220261862208e-07,5.439121130148253e-06,1.6510936978255105e-06,1.8949437645505968e-06,8.488554945136169e-06,7.306204898183531e-06,4.191281346487249e-05
112,4.925896021322627e-07,9.356850850697693e-07,7.26564750214477e-07,9.189460512977933e-07,8.380537628239219e-07,1.6928669748159642e-06,1.695810557757075e-06,1.2217900454346013e-05,4.398777026355643e-06,8.367356865905934e-07,6.999250713185493e-06,1.7920606943848627e-06,1.9143357718983664e-06,9.346228470231252e-06,6.566924289639385e-06,4.243066172464264e-05
113,4.825300511598485e-07,9.45961134146936e-07,7.418949319513629e-07,8.947183796428775e-07,8.266355596472917e-07,1.6601893746945052e-06,1.7186058348330204e-06,1.1834272187326625e-05,4.207772390984459e-06,8.170448574562418e-07,8.760456767105036e-06,1.9752752195294184e-06,1.9417293886290108e-06,1.0234045270334965e-05,5.871465368902121e-06,4.285082355670587e-05
114,4.7297610794072734e-07,9.57428278577138e-07,7.6021753124796e-07,8.699794368759313e-07,8.167475223881678e-07,1.62373193881978e-06,1.7424855796929678e-06,1.1449673565102155e-05,4.024521845358461e-06,7.992289742329498e-07,1.0732858143805456e-05,2.1943070112248996e-06,1.976232690533844e-06,1.1146364346966695e-05,5.221833563639042e-06,4.3186155431794845e-05
115,4.638286189477174e-07,9.696678024016237e-07,7.811171967150272e-07,8.448183372496739e-07,8.084400296306218e-07,1.5843230079264988e-06,1.7660248003549177e-06,1.1069535658584172e-05,3.851190094550793e-06,7.830498874075649e-07,1.2925830805992445e-05,2.443149187048899e-06,2.0169309910164667e-06,1.2077538282142228e-05,4.619191513159183e-06,4.345210363599596e-05
116,4.550217304825765e-07,9.823220642558741e-07,8.040741434589209e-07,8.193720157144733e-07,8.017483084571025e-07,1.5426172100352044e-06,1.7879971444330281e-06,1.0700984672874944e-05,3.689897357733914e-06,7.682212227042791e-07,1.534788818613694e-05,2.716353731140796e-06,2.0627466553816134e-06,1.302157033758834e-05,4.063966638496699e-06,4.366396735219813e-05
117,4.4659062916798366e-07,9.951934605339795e-07,8.285130387445701e-07,7.93918184838467e-07,7.96610232772219e-07,1.499152600187948e-06,1.8072607910617472e-06,1.0351817683659004e-05,3.542768204213765e-06,7.54521644799596e-07,1.800641150555529e-05,3.00882538973214e-06,2.1124029701726226e-06,1.3971403363384835e-05,3.5559519895060752e-06,4.383351657034853e-05
118,4.3867986969147133e-07,1.0082819629527072e-06,8.539513118405664e-07,7.688684619584664e-07,7.928229103263892e-07,1.454477135359269e-06,1.8226458129120166e-06,1.002941661454595e-05,3.4119343536192064e-06,7.418534669773046e-07,2.090720804408928e-05,3.315644421833712e-06,2.164599913173007e-06,1.4917962705254975e-05,3.0943844679179737e-06,4.396693502018835e-05
119,4.314899541438816e-07,1.021763888408346e-06,8.801602867458475e-07,7.44682589985853e-07,7.900654884932719e-07,1.4092077911148826e-06,1.8329905188382507e-06,9.739939553365282e-06,3.299297740253828e-06,7.301835735446267e-07,2.4053914041800668e-05,3.6321726094442067e-06,2.2183636266679026e-06,1.5849300473099378e-05,2.678008962708704e-06,4.406590961280551e-05
120,4.252306270001646e-07,1.0359414021570528e-06,9.071906677699575e-07,7.217687823360665e-07,7.879520430765174e-07,1.3639504469556052e-06,1.837223413649471e-06,9.487901727883049e-06,3.2063032927003702e-06,7.194724964114882e-07,2.744730395474752e-05,3.954137059268145e-06,2.273302921839417e-06,1.6750339631447614e-05,2.3051546429360764e-06,4.413056891689693e-05
121,4.200968575120607e-07,1.0511733519626525e-06,9.352241867308706e-07,7.004263895032135e-07,7.86057042205108e-07,1.319205860947842e-06,1.834315304775921e-06,9.27604131789944e-06,3.1338434356013312e-06,7.096986062579374e-07,3.108455434412082e-05,4.277435705803725e-06,2.3295568474675384e-06,1.760395653542907e-05,1.973929699712741e-06,4.416092851216272e-05
122,4.162406079642624e-07,1.0677796407485107e-06,9.643896791690413e-07,6.808504524458039e-07,7.839135285385763e-07,1.2753763442694453e-06,1.823248889034915e-06,9.105277778633286e-06,3.0822031264212198e-06,7.008991134161129e-07,3.495849633017576e-05,4.597817166874027e-06,2.3875520851146637e-06,1.8393682774609256e-05,1.6824937121386468e-06,4.415536894320071e-05
123,4.137455153035491e-07,1.0859341131389022e-06,9.946796976822972e-07,6.631730758287413e-07,7.810245804739423e-07,1.2327888804644912e-06,1.8032223736852322e-06,8.974650730900992e-06,3.051015596170013e-06,6.931292229947049e-07,3.905691813729526e-05,4.910701587157303e-06,2.4477498384894864e-06,1.910635777491168e-05,1.4291469772623698e-06,4.410759682029161e-05
124,4.126227930624597e-07,1.1055889762653493e-06,1.025978416315711e-06,6.47520045466986e-07,7.768828039012875e-07,1.1916564765548456e-06,1.7739241787329561e-06,8.881342719977696e-06,3.0392583497507425e-06,6.863870882134695e-07,4.336197069990834e-05,5.211243835429602e-06,2.510432239131043e-06,1.9732395294792298e-05,1.2121916899106145e-06,4.4004991692884753e-05
125,4.128318735417095e-07,1.1264577305061159e-06,1.058140917979295e-06,6.340556044881121e-07,7.709967740186416e-07,1.1520442286798438e-06,1.7356354268929624e-06,8.820991659913353e-06,3.0453265345049513e-06,6.805866351546681e-07,4.784959738956214e-05,5.494541842592553e-06,2.575637273260487e-06,2.026465141208761e-05,1.0298058449150839e-06,4.383095699367729e-05
126,4.1433342314721026e-07,1.1480446697044087e-06,1.091028641839739e-06,6.229708283751843e-07,7.629888891291125e-07,1.1138916408141054e-06,1.689186460317816e-06,8.78829886240149e-06,3.067193649586331e-06,6.75589792311459e-07,5.2488562422463646e-05,5.755857261469248e-06,2.6433659559609506e-06,2.0699169457346514e-05,8.800427197834467e-07,4.3571152894677184e-05
127,4.1714760657227097e-07,1.1696831519859023e-06,1.124457139568875e-06,6.144305447995919e-07,7.527533443611005e-07,1.0770598871218517e-06,1.6358802080798793e-06,8.777775838947377e-06,3.102583836783621e-06,6.712650042123974e-07,5.723906773348193e-05,5.9908289594218334e-06,2.7139274779195034e-06,2.1037555565107643e-05,7.608957792213066e-07,4.321936549058689e-05
128,4.2135695585844367e-07,1.190554578167065e-06,1.1581595138257142e-06,6.08537159831881e-07,7.405195520742906e-07,1.041381270966985e-06,1.5773971110565131e-06,8.784646015792277e-06,3.1490885863799984e-06,6.675423561064024e-07,6.205314063743167e-05,6.1956830259739045e-06,2.7881157096278036e-06,2.1287634577576546e-05,6.70409267595456e-07,4.277792344807329e-05
129,4.270763830251255e-07,1.2097278745832816e-06,1.1918549859211655e-06,6.053276743312446e-07,7.267403077486321e-07,1.0067286119457455e-06,1.5156362217663515e-06,8.806019546531667e-06,3.2042721666067958e-06,6.644482439241124e-07,6.687946324621296e-05,6.3672952745261434e-06,2.867062333165998e-06,2.1461556127019615e-05,6.068153121662708e-07,4.2252503972838195e-05
130,4.3445202531380137e-07,1.226283152801544e-06,1.2253212446519667e-06,6.047945845974e-07,7.119343616671168e-07,9.73106371844669e-07,1.4524951785575617e-06,8.842088428400527e-06,3.265788267674218e-06,6.620915738239281e-07,7.167093216645016e-05,6.502898330472877e-06,2.951878314909049e-06,2.1573432209934334e-05,5.685945594001965e-07,4.164711347333277e-05
131,4.436624780275169e-07,1.239468406766779e-06,1.2583519036063348e-06,6.069218089282168e-07,6.966123921041452e-07,9.406963816375001e-07,1.3896790989318542e-06,8.896680202922415e-06,3.331374846770183e-06,6.605999348317747e-07,7.63889585874519e-05,6.599599440011074e-06,3.0433257414838953e-06,2.163767988417031e-05,5.54414616867847e-07,4.0964545667242676e-05
132,4.5489279373600036e-07,1.248770781346557e-06,1.2906741241945977e-06,6.117262220367816e-07,6.812536394198284e-07,9.097931273483806e-07,1.3286253660576865e-06,8.976718046010409e-06,3.3986445266215764e-06,6.600551542568377e-07,8.10001667329501e-05,6.654333572124726e-06,3.141709786815515e-06,2.1667600969859012e-05,5.630373838611909e-07,4.0211231707382155e-05
133,4.683080317351289e-07,1.2538961779733113e-06,1.3219569389179896e-06,6.192911710546606e-07,6.662812160447706e-07,8.806951582657059e-07,1.270546761989381e-06,9.090784378384665e-06,3.4649118015566552e-06,6.604530020129462e-07,8.546823776905515e-05,6.66453123151085e-06,3.247006846087103e-06,2.167440256912026e-05,5.932651566902402e-07,3.9401739044470184e-05
134,4.840346471120727e-07,1.2547424380663416e-06,1.3518862935431627e-06,6.297552475023748e-07,6.520466259127369e-07,8.536490667753715e-07,1.216519135867256e-06,9.247424746300047e-06,3.5273521420609725e-06,6.61678847348034e-07,8.974916036777412e-05,6.629010833242257e-06,3.3590239564312283e-06,2.1667459015764178e-05,6.439140280072367e-07,3.8560279072018766e-05
135,5.021450150476628e-07,1.251390500968598e-06,1.3802005329200565e-06,6.432464737413423e-07,6.388453741340938e-07,8.288213439190858e-07,1.167516347783759e-06,9.453818861421632e-06,3.5834315684067753e-06,6.635149088858178e-07,9.379369844701079e-05,6.5485155452543445e-06,3.4773539385617725e-06,2.165499977160428e-05,7.138063264305374e-07,3.7719054800301235e-05
136,5.226571455498522e-07,1.2440662663195856e-06,1.4066486096017615e-06,6.598218585741728e-07,6.269635959187656e-07,8.062689900793629e-07,1.1243644089283003e-06,9.715091892999103e-06,3.631336311919547e-06,6.656982597509477e-07,9.755247354984322e-05,6.425750535749442e-06,3.601174865845294e-06,2.1643646082083357e-05,8.017769663527894e-07,3.691398293381032e-05
137,5.455408939799865e-07,1.2330436583244795e-06,1.4309218279126784e-06,6.794579669886108e-07,6.16699902797358e-07,7.859539070913061e-07,1.087689805325743e-06,1.0034149477520469e-05,3.6701504531499034e-06,6.680140136762546e-07,0.00010097897538546514,6.265056886122963e-06,3.729220962509528e-06,2.1636927462419965e-05,9.066806817243322e-07,3.617990635637655e-05
138,5.707048908287186e-07,1.2185251106838515e-06,1.4526680900334126e-06,7.020662814280027e-07,6.083241075604652e-07,7.67798223663683e-07,1.0579453019655006e-06,1.0411806304351273e-05,3.699598571631248e-06,6.703793847731748e-07,0.00010402992154840732,6.071841991947697e-06,3.860129131739059e-06,2.1634225053554582e-05,1.0274035387492182e-06,3.554817379603003e-05
139,5.97979042642939e-07,1.2005978111046992e-06,1.4716103395099366e-06,7.274967096716938e-07,6.020249074841059e-07,7.517104755289526e-07,1.0355042085425596e-06,1.0847037781630648e-05,3.7194991666385077e-06,6.728808986707434e-07,0.00010666265508501305,5.851822944694556e-06,3.992947931477544e-06,2.1630831674334857e-05,1.1628647000303064e-06,3.50462778509521e-05
140,6.271309353862075e-07,1.1793123930823507e-06,1.487617027739602e-06,7.555237304693662e-07,5.978912550065888e-07,7.375852023738052e-07,1.0207305403969585e-06,1.1337258541695792e-05,3.7294620426875987e-06,6.757472485909954e-07,0.00010882913367018316,5.610324335059375e-06,4.127392040249469e-06,2.1618377899845838e-05,1.3119959843544074e-06,3.4697013571135755e-05
141,6.579000140535084e-07,1.154805998218519e-06,1.5006250754442136e-06,7.8582872033857e-07,5.959066508030762e-07,7.253334032566868e-07,1.0139665319751475e-06,1.1878639013484724e-05,3.7291148526678165e-06,6.792606189142287e-07,0.0001104707039090887,5.352012703086549e-06,4.26361712818595e-06,2.1585013962795944e-05,1.4737454282278123e-06,3.451707654548387e-05
142,6.900045894875601e-07,1.1273965104155677e-06,1.5105362105022675e-06,8.180193259142748e-07,5.959404225545553e-07,7.149148923485668e-07,1.0154899954813285e-06,1.2466493850741243e-05,3.71842061979285e-06,6.836782919668797e-07,0.000111522654978808,5.081096561903812e-06,4.401668208853892e-06,2.1516489732570596e-05,1.6471215750357155e-06,3.4516426709446063e-05
143,7.231243734142706e-07,1.0976266440790218e-06,1.5172505706385708e-06,8.517168172690791e-07,5.977516033561443e-07,7.063157210410021e-07,1.0255208487012277e-06,1.3095679783631903e-05,3.6975996972690694e-06,6.892567723423798e-07,0.00011193138343660504,4.801620533106368e-06,4.541034839900223e-06,2.1398999142533673e-05,1.8312213980308399e-06,3.469822528604662e-05
144,7.568850141606897e-07,1.0662280572926235e-06,1.5208064344041365e-06,8.866400169483336e-07,6.010262581334694e-07,6.994920964585542e-07,1.0442846556623019e-06,1.3760899353761855e-05,3.6668691100118974e-06,6.963321141019286e-07,0.00011167350167525856,4.517577132848385e-06,4.6806079972131734e-06,2.1221391358780976e-05,2.0251848750309412e-06,3.505884224289067e-05
145,7.908682521800024e-07,1.0340181439219734e-06,1.5214484738364005e-06,9.225828579276429e-07,6.05458235862667e-07,6.943490326626453e-07,1.072085157949954e-06,1.4456867967375497e-05,3.6264400246291554e-06,7.053177930228193e-07,0.00011076243478421824,4.232844736204905e-06,4.818945792391554e-06,2.097443958716816e-05,2.2280694954772953e-06,3.55878128474056e-05
146,8.246498917320514e-07,1.001787638381403e-06,1.5195379262157975e-06,9.593269612560544e-07,6.1085637648265e-07,6.907834842332276e-07,1.1093185111676922e-06,1.5178370824022669e-05,3.5768953021419688e-06,7.166050070210838e-07,0.00010923733077393595,3.951106789206361e-06,4.954613960451173e-06,2.0650010587596576e-05,2.4387165302552217e-06,3.626768137921913e-05
147,8.578234802240252e-07,9.702113430539592e-07,1.5153802557584297e-06,9.965920316345555e-07,6.172348165851253e-07,6.887393046585104e-07,1.1563889504742633e-06,1.5920250920797967e-05,3.5196786276439047e-06,7.304716538845393e-07,0.00010714313144914546,3.6758880054234985e-06,5.08639227630857e-06,2.0243457636904174e-05,2.655690993098203e-06,3.707439592408093e-05
148,8.90010810548648e-07,9.398086687058966e-07,1.5091154602968728e-06,1.0340076283921029e-06,6.248375152174641e-07,6.882215140138634e-07,1.2135803073850747e-06,1.6677321709467957e-05,3.457130729386864e-06,7.470515776016011e-07,0.0001045186960739929,3.4106297623475526e-06,5.213157563173505e-06,1.9756737851966167e-05,2.8773178057230465e-06,3.797879200542426e-05
149,9.209180744573027e-07,9.109675837297486e-07,1.500756985768847e-06,1.0710596741034223e-06,6.340777269425584e-07,6.892757163586186e-07,1.2809780776079427e-06,1.7444128875006923e-05,3.392014289031239e-06,7.663355734250222e-07,0.00010140015473471225,3.1586253241308087e-06,5.333530026039444e-06,1.9198314404564447e-05,3.101733225899144e-06,3.894831282909755e-05
150,9.504220455354013e-07,8.839810590754975e-07,1.4903177968077233e-06,1.1070432250028563e-06,6.454265231638261e-07,6.919450829442116e-07,1.3584498659462679e-06,1.8214455653494457e-05,3.327123744504929e-06,7.881778698928525e-07,9.783049686884482e-05,2.9229062335596966e-06,5.445708197357897e-06,1.8580001368155807e-05,3.3268009542042014e-06,3.9947329820024274e-05
151,9.785881957002257e-07,8.590600416041759e-07,1.4779001621786526e-06,1.1410729130409497e-06,6.593152725667453e-07,6.962238349123999e-07,1.445645738226519e-06,1.8980462395050253e-05,3.2652006671493443e-06,8.123068828537338e-07,9.386561918664886e-05,2.706303859397757e-06,5.5475912404298595e-06,1.7913700366955084e-05,3.5499026223287183e-06,4.093590599953347e-05
152,1.0055728358683426e-06,8.363573730939693e-07,1.4636995070805665e-06,1.1721980240110203e-06,6.761040931216955e-07,7.020367926071116e-07,1.5420633520763044e-06,1.9731631141381624e-05,3.20886255384639e-06,8.383511204352328e-07,8.957470921605019e-05,2.511580069634929e-06,5.636769913151434e-06,1.7210302358375695e-05,3.7677874459571072e-06,4.1870185284635735e-05
153,1.031474433761191e-06,8.159987850015487e-07,1.4479592158268345e-06,1.1996211821308095e-06,6.961067430282936e-07,7.092312827387964e-07,1.6472211424251776e-06,2.0454374814567676e-05,3.160478135414493e-06,8.65874327692349e-07,8.50357245970882e-05,2.3413840571152492e-06,5.710363466590542e-06,1.6480292473414026e-05,3.97668528316475e-06,4.270736396338293e-05
154,1.0562265569183134e-06,7.980649289695977e-07,1.430944338467428e-06,1.2228898117949846e-06,7.196054606122987e-07,7.175518519273e-07,1.7608179243817384e-06,2.1133087614983386e-05,3.1221933437163743e-06,8.943830842750924e-07,8.032819265347014e-05,2.198120800438891e-06,5.765189560384148e-06,1.573425882012236e-05,4.1728290375973415e-06,4.34130619067142e-05
155,1.0795480225645923e-06,7.825346257385776e-07,1.412960259959103e-06,1.241914545545796e-06,7.468318127093576e-07,7.266145487318127e-07,1.8827177891086742e-06,2.175216160488909e-05,3.0960795699952394e-06,9.232899863057455e-07,7.552691160872873e-05,2.083948905260543e-06,5.798344291668609e-06,1.4982806195375523e-05,4.353237491042151e-06,4.3966459344223356e-05
156,1.1009255830248707e-06,7.692470230706083e-07,1.3943502776789931e-06,1.256848562633153e-06,7.77956664313376e-07,7.359083185908382e-07,2.0127815622457355e-06,2.2297834669635966e-05,3.084168173731106e-06,9.518841377174116e-07,7.06986217282769e-05,2.0008756688489125e-06,5.807743173813452e-06,1.4236345916864703e-05,4.516289441211862e-06,4.4360992182812e-05
157,1.119649283492229e-06,7.57905284562181e-07,1.3754129485189567e-06,1.267977480449448e-06,8.130923009684134e-07,7.448313008853354e-07,2.15069842759127e-06,2.27592694027854e-05,3.088299989038225e-06,9.79396294109e-07,6.590077897917307e-05,1.9508120766027976e-06,5.792157575317858e-06,1.3504686961658846e-05,4.661719387841412e-06,4.460083847904412e-05
158,1.1349358568287167e-06,7.481338360223403e-07,1.3563240646828853e-06,1.2756585817687022e-06,8.522701522772486e-07,7.527854292523191e-07,2.2959072866762464e-06,2.312894379047917e-05,3.1099033430588637e-06,1.005166737533958e-06,6.118048296810844e-05,1.9356280700290055e-06,5.7506954527478165e-06,1.2796209664917271e-05,4.79003368197756e-06,4.469468698491815e-05
159,1.1461188501180947e-06,7.395911968707268e-07,1.337145734477962e-06,1.2802430039279785e-06,8.954240842642871e-07,7.593133885996777e-07,2.447571514113742e-06,2.3402721691426455e-05,3.149846575303028e-06,1.0288024783970485e-06,5.65735070321606e-05,1.957337307107837e-06,5.682383057109249e-06,1.2117242939861644e-05,4.901676619454441e-06,4.4650201613835776e-05
160,1.1528281605065211e-06,7.320832550830697e-07,1.3178382225186955e-06,1.282012644465642e-06,9.42419153395678e-07,7.641648901832819e-07,2.6045304592599077e-06,2.357976295515219e-05,3.208419616766906e-06,1.0502041571611383e-06,5.2105042258375906e-05,2.0183305608200843e-06,5.586506583185723e-06,1.1472314691768628e-05,4.996413758889905e-06,4.4473306425987855e-05
161,1.1550736510689483e-06,7.256017996200617e-07,1.298211201090472e-06,1.281215991996411e-06,9.93069147830977e-07,7.672318911400865e-07,2.7652335339397744e-06,2.3661979547371834e-05,3.285355103102973e-06,1.0694458277196434e-06,4.779220293183783e-05,2.1214037403201477e-06,5.463435874934984e-06,1.086489225045343e-05,5.073101835375342e-06,4.417259138825027e-05
162,1.1531849800629534e-06,7.202657568389309e-07,1.2778934240762556e-06,1.2781405949135172e-06,1.0470893509372951e-06,7.684607075340729e-07,2.927783360191881e-06,2.365265172432709e-05,3.3798391898684667e-06,1.0866118942707798e-06,4.3646576632909975e-05,2.2695670404541767e-06,5.315189594527895e-06,1.0297784986416868e-05,5.129624335572217e-06,4.376491187408562e-05
163,1.1476384846630094e-06,7.162166502761131e-07,1.2563985839607948e-06,1.2730959576354566e-06,1.1040312557349437e-06,7.678733499395894e-07,3.0901618969869487e-06,2.3554347995980114e-05,3.490624931928451e-06,1.1017158397130854e-06,3.967605354622055e-05,2.4658506585750286e-06,5.145376442327532e-06,9.772918011530165e-06,5.1628760169680074e-06,4.327889686996365e-05
164,1.138890385372353e-06,7.135650573157363e-07,1.2332814326945762e-06,1.2663033659322746e-06,1.163262595233576e-06,7.656692203064736e-07,3.2505154438452494e-06,2.3367242496082542e-05,3.6163235766332727e-06,1.1147418895870575e-06,3.5886439913958114e-05,2.713148321569857e-06,4.9586215106246535e-06,9.290871136332667e-06,5.168997632149145e-06,4.275540773325108e-05
165,1.127319476026383e-06,7.124197455991879e-07,1.2082834015305274e-06,1.25778738256781e-06,1.22400698573059e-06,7.622636901574696e-07,3.4073442225387672e-06,2.308921687124875e-05,3.7557745346844177e-06,1.1257763239692927e-06,3.228315622679766e-05,3.014087449338577e-06,4.759829443894416e-06,8.850690982649864e-06,5.14422341992933e-06,4.224488966881321e-05
166,1.1132532340196818e-06,7.129096842453793e-07,1.1813336427307454e-06,1.2473314181364913e-06,1.2854200497424523e-06,7.5820409871703e-07,3.559582337749601e-06,2.2717683327337273e-05,3.9083145397277655e-06,1.1351138854528564e-06,2.887256452421501e-05,3.3711471268613794e-06,4.553569387039708e-06,8.449920927048543e-06,5.0863513419993935e-06,4.180250316792739e-05
167,1.0969910828860755e-06,7.151414254334532e-07,1.1524379639413117e-06,1.2345063776819237e-06,1.3466595339566062e-06,7.540332139870385e-07,3.7066221884362463e-06,2.225165661742117e-05,4.073738452718924e-06,1.1432298289038501e-06,2.5661939098901745e-05,3.7871489492147624e-06,4.343737521157354e-06,8.08461572553333e-06,4.995988892398618e-06,4.148284118634426e-05
168,1.0787990289512563e-06,7.191577307696072e-07,1.1216365037456848e-06,1.2187844327393684e-06,1.4069215284456187e-06,7.501866486803072e-07,3.848321209458973e-06,2.16932257731482e-05,4.2519209101641285e-06,1.1506736067982346e-06,2.2657757502162877e-05,4.265792170659007e-06,4.133596622237602e-06,7.74958957160356e-06,4.876602835917729e-06,4.133572332299322e-05
169,1.0589221847220373e-06,7.249467596276355e-07,1.089068715800806e-06,1.1997270781948782e-06,1.4654202720297815e-06,7.469554432383414e-07,3.985013930510532e-06,2.1048465994413608e-05,4.442527472544121e-06,1.1580258586878456e-06,1.98638423604425e-05,4.811729079960076e-06,3.926068216861594e-06,7.4391530771471785e-06,4.733406250546089e-06,4.140348449517485e-05
170,1.0376390963253684e-06,7.324567653051792e-07,1.055004239352219e-06,1.17717763025597e-06,1.52130430493614e-06,7.445116745684114e-07,4.117514954005416e-06,2.0327676454058452e-05,4.645193708949119e-06,1.1659342641408098e-06,1.7281084285551418e-05,5.430042014611029e-06,3.723944933843421e-06,7.147998910022388e-06,4.572030694609967e-06,4.171943797475203e-05
171,1.0152808322570611e-06,7.415795611521354e-07,1.0197876383783518e-06,1.1513665724055172e-06,1.573602901245023e-06,7.429800067866129e-07,4.247012715568507e-06,1.954481816722029e-05,4.859869679885399e-06,1.1751133294166516e-06,1.4908291121208683e-05,6.125493698796025e-06,3.5298284624493126e-06,6.871589739480515e-06,4.397740585523474e-06,4.230717689196251e-05
172,9.921826843481507e-07,7.521454841905378e-07,9.838222080825799e-07,1.1228719218048666e-06,1.6213110172357721e-06,7.424979060627133e-07,4.3747673229085604e-06,1.871634191462981e-05,5.086861939323023e-06,1.186262609671141e-06,1.2742693608986618e-05,6.902039683669246e-06,3.345884743847081e-06,6.605847439526233e-06,4.2151189458095645e-06,4.3180519977796365e-05
173,9.68667275906925e-07,7.639677981512796e-07,9.476305322139493e-07,1.092454442407406e-06,1.663534826168646e-06,7.432141407650863e-07,4.50178306396866e-06,1.7859688709242135e-05,5.326514469773022e-06,1.199973219413228e-06,1.0779839738782983e-05,7.762767748866688e-06,3.1736389620922127e-06,6.346900232264084e-06,4.027957082975849e-06,4.4343754138640863e-05
174,9.450834920823465e-07,7.768814793058095e-07,9.118416095418612e-07,1.0608694954835354e-06,1.6995181664884702e-06,7.452512795923068e-07,4.628755163845742e-06,1.6991772560258876e-05,5.578742348893382e-06,1.2166578611798283e-06,9.013443291582324e-06,8.710038817608529e-06,3.013923329772484e-06,6.091791093522404e-06,3.83935491136792e-06,4.5791752560412895e-05
175,9.218015959166769e-07,7.907162816990353e-07,8.770667743603074e-07,1.0287584817062117e-06,1.7285149400072087e-06,7.486755024460484e-07,4.756235802660222e-06,1.6127751233170346e-05,5.842797396299316e-06,1.2364987740538945e-06,7.435453331645365e-06,9.745486734602448e-06,2.866907271891411e-06,5.83975606061018e-06,3.651928908752916e-06,4.750974949356817e-05
176,8.991347116612758e-07,8.052595390697449e-07,8.438076815331506e-07,9.966212228915363e-07,1.7496640896449553e-06,7.534771394657167e-07,4.88470082451834e-06,1.528019580642117e-05,6.117494009943232e-06,1.2594253957080828e-06,6.036448823333379e-06,1.0869786397261197e-05,2.732173498255569e-06,5.59279017247454e-06,3.46787179940893e-06,4.947277817728119e-05
177,8.772812092725474e-07,8.202870119258838e-07,8.124522292716008e-07,9.648156413725862e-07,1.7620588589052805e-06,7.595835584775302e-07,5.014472946918397e-06,1.4458605202262658e-05,6.401614885065524e-06,1.2851099947321065e-06,4.806452974866501e-06,1.2082389915272908e-05,2.6089109138343188e-06,5.3549647946405165e-06,3.2888392168798e-06,5.164494280822546e-05
178,8.563658201553072e-07,8.356211431426431e-07,7.832905879606782e-07,9.335703593759328e-07,1.7650185455324124e-06,7.66930915850081e-07,5.1457140552359025e-06,1.3669328354204206e-05,6.694126209073703e-06,1.312971782155496e-06,3.7358044623865432e-06,1.3381361086930561e-05,2.496193277035634e-06,5.131097198221191e-06,3.1158997133588584e-06,5.397876989429699e-05
179,8.365375183234134e-07,8.511342579403629e-07,7.565282847570261e-07,9.030241613281598e-07,1.758355811636944e-06,7.755363248715148e-07,5.278579743650626e-06,1.2916047006064388e-05,6.994142163516298e-06,1.3422284472149742e-06,2.81555798328888e-06,1.4763212586853866e-05,2.393182686419116e-06,4.925630005317615e-06,2.94972728860569e-06,5.641487844022575e-05
180,8.180288838220905e-07,8.667052944619572e-07,7.323101650358795e-07,8.733194110009835e-07,1.7424597898415107e-06,7.854890847815934e-07,5.413429549365865e-06,1.2200676438549378e-05,7.300649168232848e-06,1.372017328510259e-06,2.037414323753235e-06,1.622267582415091e-05,2.2991459873575464e-06,4.742066572429905e-06,2.7909194015477824e-06,5.888239079062462e-05
181,8.011336893939537e-07,8.821872883912027e-07,7.107324357657844e-07,8.44707571105525e-07,1.7181997329646244e-06,7.968693289883807e-07,5.5509113340107365e-06,1.1524214518611896e-05,7.6120006131217505e-06,1.401538813196364e-06,1.3935607018619604e-06,1.7752489771503358e-05,2.213322436175837e-06,4.5828174442462585e-06,2.6401519992597937e-06,6.13009701648672e-05
182,7.86133265921977e-07,8.974028909683067e-07,6.918495248510861e-07,8.17543394735034e-07,1.6867407503468529e-06,8.096647706007571e-07,5.691810369373257e-06,1.0887168383393592e-05,7.92542396055084e-06,1.4301573893169515e-06,8.766390247146403e-07,1.9343263269803413e-05,2.1347945566412595e-06,4.449233968141054e-06,2.498083915488313e-06,6.35855879149494e-05
183,7.732431678874821e-07,9.121631732657532e-07,6.757021531338263e-07,7.921750487063693e-07,1.6493310052718029e-06,8.237332002057173e-07,5.836743949326062e-06,1.0289544089940703e-05,8.236807529306443e-06,1.4574285850680179e-06,4.7973665615136e-07,2.0983286733277e-05,2.062494572990644e-06,4.341739518848708e-06,2.3652034170899695e-06,6.565432180203662e-05
184,7.626108938451428e-07,9.262869630057121e-07,6.623449121617292e-07,7.688643999309902e-07,1.6071113732214761e-06,8.388001581077515e-07,5.985884993888871e-06,9.730613532743373e-06,8.540717723262e-06,1.4830410080546452e-06,1.962712220039245e-07,2.2658098638816037e-05,1.99534312921165e-06,4.2600832857523934e-06,2.2417717334858697e-06,6.743758312959578e-05
185,7.543196961400684e-07,9.395992846328728e-07,6.518604748667088e-07,7.477958095531551e-07,1.5610447628469852e-06,8.544661775622943e-07,6.138761269229089e-06,9.20868810336476e-06,8.830563085047543e-06,1.506687768861714e-06,1.9880891733126533e-08,2.4349783353937354e-05,1.932409657621986e-06,4.203669097180541e-06,2.1278359173849675e-06,6.888540787790708e-05
186,7.483787671211482e-07,9.519462582564503e-07,6.443608876089084e-07,7.291288791531624e-07,1.5119912848317965e-06,8.702364095093871e-07,6.2940443977654825e-06,8.721087795691373e-06,9.099047008600107e-06,1.5279255841807023e-06,-5.5569193094483354e-08,2.6036178537161566e-05,1.8729939870794104e-06,4.171747225311398e-06,2.0232572121930773e-06,6.996942269907163e-05
187,7.447245257178221e-07,9.63228297114128e-07,6.399686985662557e-07,7.130115694532269e-07,1.4607996480370946e-06,8.855773347389218e-07,6.4494003011588455e-06,8.264451635225773e-06,9.338935477341794e-06,1.5461460605683588e-06,-3.596027899826675e-08,2.7690210961449987e-05,1.8165740799786422e-06,4.1633261377200685e-06,1.9277363419066685e-06,7.067793267789259e-05
188,7.432313204233284e-07,9.733781204333312e-07,6.388114460991263e-07,6.995318520369006e-07,1.4083118685614086e-06,8.999473413565472e-07,6.601636959860442e-06,7.835391224482962e-06,9.54383895480884e-06,1.5607597851072082e-06,7.306239451291327e-08,2.928009235950299e-05,1.7626295637130976e-06,4.176948068669313e-06,1.8408084056421176e-06,7.100583021253675e-05
189,7.437514004605822e-07,9.822783511418565e-07,6.41035320210265e-07,6.886807283398597e-07,1.3553199175487792e-06,9.127759972264331e-07,6.747177715377283e-06,7.431281508817544e-06,9.708681971703577e-06,1.5714162253296648e-06,2.660824187006794e-07,3.077212131602139e-05,1.7104977177836823e-06,4.2107169654391356e-06,1.7618104373610561e-06,7.094547456136295e-05
190,7.461925465101978e-07,9.897069543768086e-07,6.467779702488883e-07,6.803803762247234e-07,1.3025376095508734e-06,9.234564655775229e-07,6.88258590091498e-06,7.050876944681509e-06,9.82979080261177e-06,1.5779757637523641e-06,5.379645797045611e-07,3.2136922109470024e-05,1.6594608517012289e-06,4.262867080773808e-06,1.6898631620152128e-06,7.048589750127694e-05
191,7.505418680603258e-07,9.95391049214868e-07,6.561081150515694e-07,6.745473432816916e-07,1.250607337245356e-06,9.313995932520807e-07,7.004839436918408e-06,6.694494856427305e-06,9.904636790517605e-06,1.5803647293267474e-06,8.839398099519567e-07,3.33562979855117e-05,1.6090468175366755e-06,4.332608096715889e-06,1.6238985276791856e-06,6.962080699109668e-05
192,7.567873344171836e-07,9.991563931554202e-07,6.689946446883908e-07,6.711244022754221e-07,1.2001534409353646e-06,9.360880340790773e-07,7.111174422036725e-06,6.363685509194107e-06,9.931140481414808e-06,1.5786041678783937e-06,1.2995748929236685e-06,3.4425927724607636e-05,1.5593030121155837e-06,4.420543284796507e-06,1.5627798997054714e-06,6.835796269126852e-05
193,7.64828745427979e-07,1.001026359320722e-06,6.853058331885436e-07,6.700643697434771e-07,1.1518646495814006e-06,9.370561391245064e-07,7.1986075149494426e-06,6.060556871943212e-06,9.906715534413253e-06,1.5729070522203888e-06,1.780564015729788e-06,3.5351931429866565e-05,1.5108529671143278e-06,4.5282526313627225e-06,1.5055107888219116e-06,6.672350473130543e-05
194,7.744557958974523e-07,1.0011438267691305e-06,7.048206303677297e-07,6.713041270596572e-07,1.1065148323014755e-06,9.338670554470227e-07,7.2638212394234465e-06,5.787102669741027e-06,9.828001149650916e-06,1.563648278497135e-06,2.322510768274056e-06,3.6143953584680975e-05,1.464748956260499e-06,4.657395643023665e-06,1.4513731800163546e-06,6.476107558878313e-05
195,7.853562952221236e-07,9.996150960949097e-07,7.272572550252809e-07,6.747441908384647e-07,1.0648626138911926e-06,9.262164268960949e-07,7.3040469248304305e-06,5.5448387689289096e-06,9.692024485825036e-06,1.5512766551054283e-06,2.92082633989474e-06,3.680996199285121e-05,1.4222296893996366e-06,4.80904108501875e-06,1.399855816166029e-06,6.252874007860918e-05
196,7.97097595346069e-07,9.964731956444603e-07,7.523023103657868e-07,6.802297795152656e-07,1.0275161798334642e-06,9.141184445924833e-07,7.318438922927982e-06,5.334780327980459e-06,9.49816366902252e-06,1.5362400774102458e-06,3.5706905237900408e-06,3.735608549240565e-05,1.3844775299983642e-06,4.983471352026109e-06,1.3504660992846528e-06,6.009547259482324e-05
197,8.091047074886703e-07,9.917814212965217e-07,7.7960703143874e-07,6.875562343922882e-07,9.948737912337018e-07,8.979885133339035e-07,7.308723063155747e-06,5.157480946074476e-06,9.249672244973513e-06,1.518869511677555e-06,4.26703014780835e-06,3.778997356722113e-05,1.352454199721971e-06,5.180160451670727e-06,1.3026636733250954e-06,5.7536565327213366e-05
198,8.20699309830841e-07,9.857267611965361e-07,8.087461083039902e-07,6.965230758734075e-07,9.671363748585471e-07,8.785315825756263e-07,7.27857404929446e-06,5.012915302242014e-06,8.95396251883191e-06,1.499253855030679e-06,5.004491994081952e-06,3.812395632264841e-05,1.3268595370844522e-06,5.397774182395967e-06,1.2560058826901858e-06,5.49274168654351e-05
199,8.312176696021651e-07,9.785997385871647e-07,8.391715038912896e-07,7.070099115415765e-07,9.443339586155189e-07,8.5654156457322e-07,7.232234286268007e-06,4.9004441646118714e-06,8.621396667839513e-06,1.4772529802401863e-06,5.777308760729294e-06,3.8375995744256496e-05,1.3082149426955399e-06,5.634358996180978e-06,1.2103398966664252e-06,5.233813318079115e-05
200,8.40163333835426e-07,9.707147455597523e-07,8.701936000422589e-07,7.190092971617708e-07,9.263346348720717e-07,8.327710500691586e-07,7.173246264213828e-06,4.819134452913949e-06,8.263224780220748e-06,1.4527023596977375e-06,6.579000575256889e-06,3.856830019576831e-05,1.2970006049277909e-06,5.887644468043911e-06,1.1658769926752232e-06,4.983220910542576e-05
201,8.473116510499999e-07,9.623770044701953e-07,9.010051808347185e-07,7.325927576810346e-07,9.128553610642026e-07,8.079036541040679e-07,7.103755991810372e-06,4.768204447422473e-06,7.890086637254031e-06,1.4256660793556652e-06,7.402060765020998e-06,3.872402029264381e-05,1.2937087950660658e-06,6.155098983170731e-06,1.1231369732319518e-06,4.746864647356239e-05
202,8.526872770321749e-07,9.539147595624023e-07,9.307670710259394e-07,7.478446280588035e-07,9.035168306378049e-07,7.825760512477371e-07,7.024346749832215e-06,4.747274405300339e-06,7.5117583557945724e-06,1.3965095024998103e-06,8.237897354754972e-06,3.8863343283881854e-05,1.2987920777822444e-06,6.433643263581497e-06,1.0827965003257136e-06,4.5303825352219644e-05
203,8.564419223168155e-07,9.457111183603445e-07,9.587367353915892e-07,7.648061431927957e-07,8.979119548131576e-07,7.574169253304908e-07,6.934262991179227e-06,4.756445520430091e-06,7.137429630541231e-06,1.3657355924621156e-06,9.077099507796017e-06,3.900184517364079e-05,1.3126189156868718e-06,6.719309490791077e-06,1.0455140236177629e-06,4.3390950774649565e-05
204,8.587818618954455e-07,9.38177900616367e-07,9.843439541538536e-07,7.834539166157744e-07,8.956221453567969e-07,7.330705191954415e-07,6.831910197467151e-06,4.796363519277642e-06,6.77575325642735e-06,1.333811403498312e-06,9.909716743046243e-06,3.915231593701194e-05,1.335459443433194e-06,7.007128012006596e-06,1.011823227856731e-06,4.177773673255823e-05
205,8.600055645296502e-07,9.316767606485594e-07,1.0071535216202593e-06,8.037008775358984e-07,8.962559739174023e-07,7.101761288502968e-07,6.715417734738938e-06,4.868332878566336e-06,6.434693813133817e-06,1.3011668315355243e-06,1.0725164871164721e-05,3.932678095154836e-05,1.3674409841713449e-06,7.291315588040755e-06,9.821089232930693e-07,4.050459634663838e-05
206,8.605277943649868e-07,9.264450996450025e-07,1.0267926119721842e-06,8.253856742031066e-07,8.996302860121903e-07,6.89319612616721e-07,6.583053827326349e-06,4.974433561014641e-06,6.1214195656249605e-06,1.2682705106907763e-06,1.1511708970022669e-05,3.953557276979436e-05,1.408491276694786e-06,7.565746705900558e-06,9.566221599942258e-07,3.96045739574299e-05
207,8.608066422510492e-07,9.225786733292424e-07,1.0429377856397739e-06,8.482637898582079e-07,9.060075479777622e-07,6.709967418676736e-07,6.4334901739675515e-06,5.1175181461497555e-06,5.842260286448062e-06,1.2356448552127555e-06,1.2255791113513446e-05,3.9785510223929776e-05,1.4583513556049316e-06,7.82464935321471e-06,9.355028200735446e-07,3.910360655969491e-05
208,8.612435358886789e-07,9.200655206588979e-07,1.0553210069619836e-06,8.720506037901391e-07,9.16187187888645e-07,6.556111792798451e-07,6.266073104029833e-06,5.300954427700749e-06,5.60264986278351e-06,1.2038047906545505e-06,1.2941605549568216e-05,4.0080727022230106e-05,1.5166894418661602e-06,8.063305221113795e-06,9.188280894433531e-07,3.901977087391858e-05
209,8.621308901364273e-07,9.188327325151912e-07,1.0636838034757345e-06,8.964988307160375e-07,9.313762535476346e-07,6.434988884514443e-07,6.081189498117215e-06,5.528127736488142e-06,5.407041389923812e-06,1.1731735367507678e-06,1.3551562669538106e-05,4.042544463320498e-05,1.5832395429351638e-06,8.278325105908707e-06,9.066939520005288e-07,3.9362267641366474e-05
210,8.636433405332528e-07,9.187879096410197e-07,1.0677536885184698e-06,9.214192462431499e-07,9.529457101117407e-07,6.349621156498153e-07,5.880617497176939e-06,5.8020596799727e-06,5.2588243737065895e-06,1.1440494737310163e-06,1.4068245900706262e-05,4.082540282921535e-05,1.6578533128119887e-06,8.467236694220368e-06,8.992529030119157e-07,4.013102830838788e-05
211,8.658639128599859e-07,9.198573980849394e-07,1.0673320624578592e-06,9.466061514254694e-07,9.822371067492921e-07,6.30303882656385e-07,5.667616658084525e-06,6.125485260377654e-06,5.160268117711564e-06,1.1166776731104159e-06,1.4477447138468137e-05,4.128652007735695e-05,1.7404288289468071e-06,8.62803860490765e-06,8.966658363255761e-07,4.13167484486954e-05
212,8.688517708678556e-07,9.220174994512841e-07,1.0624244675386917e-06,9.717430021386164e-07,1.0204659374626672e-06,6.298404101950522e-07,5.446583121621209e-06,6.501120971610157e-06,5.11250672986481e-06,1.0913892134334987e-06,1.4770557041931764e-05,4.181169278880126e-05,1.8307700467350294e-06,8.759946717151173e-06,8.990475965556267e-07,4.290109898758472e-05
213,8.726946441171367e-07,9.253024438122376e-07,1.0533117950499299e-06,9.963842718991315e-07,1.0686724245278747e-06,6.3386786131297e-07,5.22235436322073e-06,6.931569850467271e-06,5.115538820476865e-06,1.0686502385680895e-06,1.4944386584786567e-05,4.2397394556853715e-05,1.9284795445798103e-06,8.865167471552584e-06,9.064653771660168e-07,4.485730691803841e-05
214,8.774716271489352e-07,9.297696611187959e-07,1.0405485548777754e-06,1.0200469731174509e-06,1.1277089275597148e-06,6.426007001448332e-07,4.999466439263553e-06,7.418786374489951e-06,5.168220643326878e-06,1.0489603346262328e-06,1.4998484859013734e-05,4.303146626647518e-05,2.03296620227111e-06,8.949780044220923e-06,9.189487487807496e-07,4.715120605192706e-05
215,8.831760623261708e-07,9.354227920474611e-07,1.0248943759327065e-06,1.0423660011908132e-06,1.1982468063044357e-06,6.561234659781707e-07,4.781669973106782e-06,7.963504623285025e-06,5.26825566266225e-06,1.032755094465022e-06,1.4932925267586997e-05,4.369280894075544e-05,2.1435449438859134e-06,9.022579996460269e-06,9.364969823205437e-07,4.974234276754282e-05
216,8.897192662062078e-07,9.421348925161136e-07,1.0071887126367881e-06,1.0631967653209097e-06,1.2807560288874136e-06,6.743732552957612e-07,4.571833734681966e-06,8.564975800424194e-06,5.41218558866157e-06,1.0203842050896807e-06,1.4748873710266537e-05,4.435282082714289e-05,2.259497858458545e-06,9.092920723462504e-06,9.591065272596028e-07,5.2584575766079924e-05
217,8.970348854229425e-07,9.496346648227741e-07,9.882476249951977e-07,1.0825932264475479e-06,1.3754872219123929e-06,6.971390502401877e-07,4.37212913392519e-06,9.220997370217961e-06,5.595442543387698e-06,1.0120725747330103e-06,1.4450633760948198e-05,4.4977330969541134e-05,2.3800395124807296e-06,9.169210779831553e-06,9.867711892277947e-07,5.562679336542176e-05
218,9.051919049680448e-07,9.575827601873172e-07,9.68849200466869e-07,1.1007109575292945e-06,1.4825292390762773e-06,7.24063415579766e-07,4.1842719667956655e-06,9.92793416921134e-06,5.812531129387391e-06,1.0078673882497176e-06,1.404699162415933e-05,4.5527229536942574e-05,2.504299188199635e-06,9.258660668930193e-06,1.019436985168901e-06,5.8815942911430635e-05
219,9.144185333162066e-07,9.656904334071648e-07,9.497393784309418e-07,1.1177120308288822e-06,1.6019246353458446e-06,7.546472322249671e-07,4.009659288898299e-06,1.068057071379733e-05,6.057358891999147e-06,1.0076661657436855e-06,1.3551237919825035e-05,4.5957904412895866e-05,2.6313310933074913e-06,9.367900853034398e-06,1.0570056830098239e-06,6.210353817126234e-05
220,9.250127564789053e-07,9.737799751202636e-07,9.315837226262686e-07,1.1337094045031645e-06,1.7337463273606806e-06,7.8826045570164e-07,3.849349672976692e-06,1.1472222264710285e-05,6.323730904234834e-06,1.0113001194822047e-06,1.2980018133531798e-05,4.622104836408712e-05,2.76001012326443e-06,9.503808730649889e-06,1.099434760929188e-06,6.5452994264566e-05
221,9.372166876826006e-07,9.817333950123321e-07,9.149143103855531e-07,1.1487663717783894e-06,1.8780870152435979e-06,8.241709006461339e-07,3.703936058390673e-06,1.2295548434103133e-05,6.6059914934267076e-06,1.0185510467344247e-06,1.235143664026391e-05,4.62715835666891e-05,2.888869842630474e-06,9.673778140692767e-06,1.1468214916463091e-06,6.884274993286994e-05
222,9.511552141251053e-07,9.89381988007426e-07,9.001175914751076e-07,1.1629282472023909e-06,2.035001351559163e-06,8.616121582307128e-07,3.573429955021862e-06,1.314359072478036e-05,6.899690700364623e-06,1.0290863453132414e-06,1.1683122449262418e-05,4.607679852023224e-05,3.0161060385359418e-06,9.885055015759581e-06,1.1993506402046563e-06,7.226196649173525e-05
223,9.668576736967836e-07,9.964179086137972e-07,8.874289539238862e-07,1.1762252745442014e-06,2.2044510101677314e-06,8.998707766185736e-07,3.4572375766189368e-06,1.4010203984662152e-05,7.202060547030793e-06,1.0424089726486e-06,1.099088174188608e-05,4.5621811888986246e-05,3.1397523646184725e-06,1.0143763682493605e-05,1.2571956448677057e-06,7.570099974132252e-05
224,9.843175044448086e-07,1.0023692932732876e-06,8.769169149930623e-07,1.188615958681825e-06,2.3862750306827414e-06,9.383464481447404e-07,3.3542220445443948e-06,1.4889721443050075e-05,7.511996304042866e-06,1.0578894729677464e-06,1.0288114801379488e-05,4.490788245172991e-05,3.2577885062943892e-06,1.0454387047486223e-05,1.3204992925525847e-06,7.914439265382978e-05
225,1.0035390817237484e-06,1.006660322903983e-06,8.684842308528385e-07,1.1999163171027893e-06,2.580205875085745e-06,9.765935160324622e-07,3.2628202329009733e-06,1.5776131091293758e-05,7.82935673303076e-06,1.0748790838771987e-06,9.585835848313058e-06,4.39448986255671e-05,3.368034083112896e-06,1.0819574556133737e-05,1.3893600279302418e-06,8.257229131218421e-05
226,1.0245307056553805e-06,1.0087554744962265e-06,8.618994173050448e-07,1.209801628323293e-06,2.78592659831554e-06,1.014381277468041e-06,3.181192870050288e-06,1.6662026803971725e-05,8.154045720331342e-06,1.09285726332969e-06,8.893061134406793e-06,4.274414615461659e-05,3.468030124091752e-06,1.1239932897484288e-05,1.4638031034147387e-06,8.596754846028794e-05
227,1.0472361653286968e-06,1.008334368211911e-06,8.568395600293043e-07,1.2178887761248048e-06,3.003109498932144e-06,1.0517368140751066e-06,3.1073989912167955e-06,1.7537932377150267e-05,8.485721691841483e-06,1.1115502544613262e-06,8.217252821305003e-06,4.1317386003110976e-05,3.555344682511435e-06,1.1713877685303438e-05,1.5438602524675577e-06,8.932232932789305e-05
228,1.0714496344954536e-06,1.0053889643081668e-06,8.529133049831232e-07,1.2237937441636743e-06,3.2313686928355663e-06,1.0888827454750346e-06,3.039605636136419e-06,1.8392816128618106e-05,8.824213197463407e-06,1.1309795465036724e-06,7.564562428424107e-06,3.9681388924768274e-05,3.6284213643771027e-06,1.2237624780180853e-05,1.6297159527733014e-06,9.26415507588498e-05
229,1.0967842577737745e-06,1.0001632419870233e-06,8.496737821704747e-07,1.2271190952160493e-06,3.4701079796007216e-06,1.1260780869390997e-06,2.9763239196661637e-06,1.9215774333548455e-05,9.169877053210063e-06,1.151419131523198e-06,6.939909440634018e-06,3.786175069410271e-05,3.6873709833036867e-06,1.2805279576087204e-05,1.7217272193260295e-06,9.594275081965644e-05
230,1.122728629429608e-06,9.930150330874209e-07,8.466864211592568e-07,1.2274531013159428e-06,3.7183624836924e-06,1.1634742256084949e-06,2.9165943985988353e-06,1.9997963738859284e-05,9.523368175669431e-06,1.1732665360282335e-06,6.347089046043006e-06,3.589235861292458e-05,3.73394586510112e-06,1.3409047463027066e-05,1.820286220359572e-06,9.925197293127952e-05
231,1.1487462956989843e-06,9.84343201092892e-07,8.436588086991074e-07,1.2244266118618075e-06,3.974868569393263e-06,1.2010412197941825e-06,2.8600236286060736e-06,2.0734054291303758e-05,9.884970567434758e-06,1.196893592414518e-06,5.788948417633126e-06,3.381177995756648e-05,3.7707155778386886e-06,1.4039385137921379e-05,1.9256920842565313e-06,0.0001025963315487787
232,1.1743315627862169e-06,9.745588167699405e-07,8.40529656636672e-07,1.21777746321443e-06,4.238442622763252e-06,1.2385489768010317e-06,2.806657988713237e-06,2.1423014474634922e-05,1.025390741245118e-05,1.2225468366600502e-06,5.267471493030916e-06,3.165925168348535e-05,3.800227524027984e-06,1.4684771337173885e-05,2.0380976680180126e-06,0.00010599571169099036
233,1.1989872572991326e-06,9.640111734916755e-07,8.374478143229875e-07,1.2073764966965e-06,4.5083540569636085e-06,1.2756267268297565e-06,2.7567906228858225e-06,2.2068178059206434e-05,1.0627832961485385e-05,1.2502978157081127e-06,4.783682869135965e-06,2.94717414906491e-05,3.824668984976211e-06,1.5331292972252387e-05,2.1574296136471294e-06,0.00010945600355477566
234,1.2221856750355709e-06,9.529156489685169e-07,8.346904455275054e-07,1.1932286681146924e-06,4.784327612232292e-06,1.3118957444958443e-06,2.71080457771695e-06,2.2676527353652877e-05,1.1002461234979078e-05,1.2800333720913762e-06,4.3375252680197386e-06,2.7282113636480716e-05,3.845784588664256e-06,1.5962432679199822e-05,2.2832819389770103e-06,0.00011296428992831195
235,1.2433995941955306e-06,9.413656260038352e-07,8.325941534545713e-07,1.1754873706874415e-06,5.0661717149672265e-06,1.347057070256786e-06,2.6690426033423536e-06,2.3257213997747997e-05,1.1371408971357083e-05,1.3114938652437182e-06,3.927904599138953e-06,2.511801744785935e-05,3.864775239684055e-06,1.6559086116023775e-05,2.414862322379025e-06,0.00011648530878786844
236,1.2622050071490081e-06,9.293869502365461e-07,8.315125861067631e-07,1.1544896917015698e-06,5.353294484285138e-06,1.3808389260265436e-06,2.6316449610363062e-06,2.3819473955294116e-05,1.1726504128556326e-05,1.3443354689483653e-06,3.5529424151885276e-06,2.3001686558661375e-05,3.882354097842619e-06,1.7100375142429737e-05,2.5509681312498734e-06,0.00011996011806735007
237,1.278355977093518e-06,9.169469666024855e-07,8.317704912332477e-07,1.130771835145224e-06,5.644324517926352e-06,1.4128510993097208e-06,2.5984327918721013e-06,2.4370318682154425e-05,1.2058570243705538e-05,1.3781715733816937e-06,3.21038150554748e-06,2.0950788316829425e-05,3.899113451304662e-06,1.756605220696933e-05,2.68995799641747e-06,0.00012330955640526365
238,1.2917395849148331e-06,9.03943965619568e-07,8.336012829615624e-07,1.1050151397170326e-06,5.936919183638158e-06,1.4424802939448417e-06,2.568968999446096e-06,2.4912718782734438e-05,1.2358357349448891e-05,1.4125549812254462e-06,2.898020927819636e-06,1.8979562709090504e-05,3.915941417036236e-06,1.793968992668927e-05,2.829712087463773e-06,0.00012644282860695128
239,1.3022283183155662e-06,8.902581245232957e-07,8.370971014134367e-07,1.0779284699636784e-06,6.227866560683051e-06,1.4689404011364483e-06,2.5427419573529555e-06,2.5444995536305308e-05,1.2617359496583245e-05,1.4469144068367676e-06,2.6139950167991163e-06,1.7099492896666235e-05,3.934069706026567e-06,1.8210693454033176e-05,2.9675741255752428e-06,0.00012926688989963362
240,1.309540944119488e-06,8.75832475314443e-07,8.422061661565715e-07,1.0501500604429464e-06,6.513661593860871e-06,1.4914693890617301e-06,2.5193067086827737e-06,2.596147942155242e-05,1.282848215482819e-05,1.4805077971445151e-06,2.356793643764899e-06,1.531952335564402e-05,3.9547480435433e-06,1.8373841015568678e-05,3.100347030631631e-06,0.00013169114845764694
241,1.313225102404241e-06,8.60692867768455e-07,8.4876668151193e-07,1.0222393452149696e-06,6.791512822855523e-06,1.50954238860053e-06,2.49831743304059e-06,2.6453833793861282e-05,1.298639761836874e-05,1.512397998076628e-06,2.1251027227336014e-06,1.364611210838968e-05,3.979014424432802e-06,1.842684252059584e-05,3.224480181701824e-06,0.00013362646609475095
242,1.312786639736393e-06,8.448906679277057e-07,8.56525607414829e-07,9.9471319078887e-07,7.060260306926467e-06,1.523006264867233e-06,2.479495797248792e-06,2.691242891641148e-05,1.308710335495438e-05,1.541441230871681e-06,1.9176417396835234e-06,1.2083321179302956e-05,4.007807615468664e-06,1.8368635159151878e-05,3.336530144166422e-06,0.00013498371814280743
243,1.3078734296994466e-06,8.284222417841474e-07,8.651187930895086e-07,9.680408527589498e-07,7.3205407440901845e-06,1.5321562826337479e-06,2.4626267853333198e-06,2.7327528650729554e-05,1.3126903495829317e-05,1.5663818513662908e-06,1.7330961982540209e-06,1.0633064218845844e-05,4.042189291546007e-06,1.8200618442243954e-05,3.4337740013314386e-06,0.00013567943931656486
244,1.2983817215929936e-06,8.112045842919978e-07,8.740579168770418e-07,9.425983650564004e-07,7.574028763482014e-06,1.5377721973169457e-06,2.4476541501507157e-06,2.7690433204854924e-05,1.3102746244773941e-05,1.5861109058525042e-06,1.5701103115922857e-06,9.295505513445902e-06,4.08352743299823e-06,1.792908090992199e-05,3.514603503364714e-06,0.00013564910739626652
245,1.2844336301301089e-06,7.93142448428719e-07,8.827841855885362e-07,9.186282542781787e-07,7.82236605858307e-06,1.5410452297384128e-06,2.43483023437939e-06,2.7994881491903203e-05,1.30148760569617e-05,1.5999276767904907e-06,1.4273092440116602e-06,8.069546887424937e-06,4.133713278740748e-06,1.7565560916181638e-05,3.578368317328129e-06,0.0001348557465782513
246,1.2662954986970567e-06,7.742299054398864e-07,8.907758339484504e-07,8.962285899094588e-07,8.066736394437103e-06,1.543357307289683e-06,2.424731730906257e-06,2.823859993472647e-05,1.2869245509859052e-05,1.607558225399197e-06,1.3033697893731687e-06,6.9533329955661555e-06,4.195337933907483e-06,1.7124580896828355e-05,3.624881735055305e-06,0.00013328217281641125
247,1.2443399801509392e-06,7.546191527488837e-07,8.976317655962533e-07,8.753984474966265e-07,8.308334032278882e-06,1.5460250445442868e-06,2.418034839666497e-06,2.8424195202301796e-05,1.2677119982340336e-05,1.6089303532136122e-06,1.1970974228296524e-06,5.9446560948645345e-06,4.271631072644889e-06,1.662069325373319e-05,3.6542288669667445e-06,0.000130917058048648
248,1.2190535647185078e-06,7.346364636039399e-07,9.031043039357793e-07,8.561331636531671e-07,8.549000288021423e-06,1.5501516542485618e-06,2.415252903814294e-06,2.8558776069589844e-05,1.2452587850512724e-05,1.6040226558394136e-06,1.1074249390325275e-06,5.041145225062043e-06,4.366141562593614e-06,1.606691278995076e-05,3.6670842097134713e-06,0.00012775575838984418
249,1.190995983375221e-06,7.147320139623597e-07,9.071347838265822e-07,8.384749669740627e-07,8.791367187203294e-06,1.5565847324519735e-06,2.416631158768575e-06,2.8652750295190058e-05,1.2210031702181543e-05,1.592994512326286e-06,1.033333471941478e-06,4.240251205667437e-06,4.4823836174161175e-06,1.547463763702451e-05,3.6651151691061054e-06,0.0001238164644817786
250,1.1606960495956068e-06,6.95370892491834e-07,9.098952056726958e-07,8.224620163335365e-07,9.038397676875561e-06,1.565907034620991e-06,2.4220988538101388e-06,2.8718579987667317e-05,1.1962617265101239e-05,1.5763647257916193e-06,9.737915685932433e-07,3.539150395856203e-06,4.623644402495987e-06,1.4853604906152971e-05,3.651080789329771e-06,0.00011915420042240666
251,1.1285996814832106e-06,6.769295909507198e-07,9.117503382863383e-07,8.080719004441608e-07,9.292597884281235e-06,1.5784339922135091e-06,2.431247677009417e-06,2.876944672108591e-05,1.1721725496963329e-05,1.5549290587536165e-06,9.277616591064143e-07,2.9346548205109163e-06,4.792891699010289e-06,1.4211810061485706e-05,3.628534585569918e-06,0.00011386231785462431
252,1.095127706833525e-06,6.59655632217735e-07,9.131312457582755e-07,7.952631776889488e-07,9.555594717241657e-06,1.5942039216223817e-06,2.4434680963293902e-06,2.8817322082568463e-05,1.1496772276134121e-05,1.5294866544888295e-06,8.942143797044537e-07,2.4231760527727116e-06,4.992617188379457e-06,1.3556449864101408e-05,3.6012644107750047e-06,0.00010806353783247097
253,1.060743568579794e-06,6.436828336176253e-07,9.144352432471754e-07,7.840736176720805e-07,9.828324081703449e-06,1.612963546279536e-06,2.458196805889938e-06,2.8870973745488674e-05,1.1295039664807293e-05,1.5006775269829812e-06,8.72109110222347e-07,2.0008558292694077e-06,5.224582443279355e-06,1.2895440904223717e-05,3.57284291837668e-06,0.00010189564784905752
254,1.0259303726759387e-06,6.290770165512615e-07,9.160040313920461e-07,7.746694740041184e-07,1.0111132930776443e-05,1.6341667989637206e-06,2.475080417413313e-06,2.8935500418583812e-05,1.1121731101186483e-05,1.469049970547169e-06,8.603604043875866e-07,1.6638696980139649e-06,5.489573276408071e-06,1.2238110352460722e-05,3.5465881411908574e-06,9.549622860575258e-05
255,9.91112332420437e-07,6.158847903672484e-07,9.181098468168921e-07,7.672974642447707e-07,1.0403619068945856e-05,1.6569737142729103e-06,2.493940445692081e-06,2.9013846561515392e-05,1.0980640847933003e-05,1.4352130292871418e-06,8.577990770042103e-07,1.4086435268612052e-06,5.787279842106799e-06,1.159456235122852e-05,3.525774267835172e-06,8.899136186367381e-05
256,9.566028321854212e-07,6.041435865940075e-07,9.2090608326545e-07,7.621830123187953e-07,1.070473023119583e-05,1.6802675253984929e-06,2.5145787901083037e-06,2.9108669377439182e-05,1.0875314446054944e-05,1.399877918613044e-06,8.631325889608249e-07,1.2317877137443063e-06,6.116341781931817e-06,1.0974317316778797e-05,3.513717961337996e-06,8.249141162572513e-05
257,9.225815087871518e-07,5.938646164685358e-07,9.243761653402903e-07,7.594660173575868e-07,1.1012850272631971e-05,1.7027569032688797e-06,2.5365759572333727e-06,2.9222652305802854e-05,1.0810105200561327e-05,1.3637495878788862e-06,8.749236630940189e-07,1.1298991896429314e-06,6.474557937630202e-06,1.0385288382477378e-05,3.5136506611884818e-06,7.609114687295777e-05
258,8.890883460784302e-07,5.850395574557018e-07,9.283165511818063e-07,7.591959706820777e-07,1.1325427086782563e-05,1.7231814020078011e-06,2.5591909440609925e-06,2.935688734949708e-05,1.0790466480936693e-05,1.3274333482230768e-06,8.916102772088143e-07,1.0994809791176547e-06,6.85923334083362e-06,9.833737664848124e-06,3.5285671458180887e-06,6.986962225269481e-05
259,8.560823713379076e-07,5.7765633699192e-07,9.323594747928391e-07,7.613368914766712e-07,1.1638681350135814e-05,1.7405477226145506e-06,2.581316999314087e-06,2.950889140479696e-05,1.0822210621889095e-05,1.2914674886150165e-06,9.115856576296808e-07,1.1370750366450638e-06,7.267554027652474e-06,9.324938531033493e-06,3.5611447405579505e-06,6.388926792236051e-05
260,8.235695441754497e-07,5.716841147218444e-07,9.360314724157824e-07,7.657969260099648e-07,1.1947850552432047e-05,1.7542823324650786e-06,2.601415098893779e-06,2.9671908367553252e-05,1.0910205095291211e-05,1.2563603032490942e-06,9.333239510425568e-07,1.2395649218837957e-06,7.696866593443668e-06,8.863883483229545e-06,3.6137036175707796e-06,5.819595978975032e-05
261,7.916956075063387e-07,5.670473543741708e-07,9.388330441812017e-07,7.725227044717562e-07,1.2247565016518278e-05,1.7642439071858413e-06,2.6175044508631136e-06,2.9835026444924668e-05,1.1057320206144973e-05,1.2225382826650772e-06,9.555199183684452e-07,1.4044950625018195e-06,8.144827268895855e-06,8.455674852228075e-06,3.688303168030057e-06,5.2820540388493263e-05
262,7.607179594816649e-07,5.636302552052216e-07,9.402852496797452e-07,7.815784988379124e-07,1.253182674929205e-05,1.7706443693648532e-06,2.6273774287465125e-06,2.9983379255959947e-05,1.1263989547286184e-05,1.1902817231805679e-06,9.772316615205019e-07,1.6302176229487144e-06,8.6094427631068e-06,8.105611452209638e-06,3.7869880206806804e-06,4.778109951402445e-05
263,7.30923207375771e-07,5.613139065976277e-07,9.399173141393477e-07,7.931110236423837e-07,1.2793515528561847e-05,1.7739679584425575e-06,2.6290574804419054e-06,3.0099754551471676e-05,1.152824041310999e-05,1.1597228419332205e-06,9.979870124952376e-07,1.9157490796623543e-06,9.08898580361616e-06,7.819112228974765e-06,3.911889076732646e-06,4.308547127328862e-05
264,7.026016616617186e-07,5.600071594321347e-07,9.373080416562438e-07,8.07247598985149e-07,1.3024072477482536e-05,1.7749350829431243e-06,2.621306945787196e-06,3.0168468808823074e-05,1.1846069130998882e-05,1.1309231457701576e-06,1.0177534812715765e-06,2.260382523523203e-06,9.581672499348974e-06,7.601547044133874e-06,4.064999186582233e-06,3.873383901807946e-05
265,6.76054287456782e-07,5.596546406179131e-07,9.322568537648497e-07,8.240286715605753e-07,1.3214250305218744e-05,1.7744752813819938e-06,2.603926615250929e-06,3.0179678882547953e-05,1.2212043804288438e-05,1.103992371006874e-06,1.036744168683389e-06,2.663291217445661e-06,1.0085048021144606e-05,7.4579621096418495e-06,4.247853210028681e-06,3.472140283248286e-05
266,6.515541083372734e-07,5.602526812753904e-07,9.249197821496419e-07,8.433789285025182e-07,1.3355827991437554e-05,1.7736320443733529e-06,2.5777179788719536e-06,3.0131801013533806e-05,1.2619775586583532e-05,1.0791478823273315e-06,1.0551954840608883e-06,3.1232914891070202e-06,1.0595398561529181e-05,7.392721256116661e-06,4.461395326053128e-06,3.104083890328378e-05
267,6.292808613651284e-07,5.618641758198952e-07,9.157550998611144e-07,8.650800424919814e-07,1.3443250708599302e-05,1.773395128257426e-06,2.5441894570551833e-06,3.0031181178109083e-05,1.3061964614837875e-05,1.0566650088476035e-06,1.0732449435245555e-06,3.638706878996709e-06,1.1107702584369215e-05,7.409170870232252e-06,4.706016947716616e-06,2.7684220995372844e-05
268,6.092920751637303e-07,5.645927643202947e-07,9.053663797059613e-07,8.887601766143429e-07,1.3474415361877988e-05,1.7745618753289277e-06,2.5052082434679723e-06,2.988934617362051e-05,1.3530139701191485e-05,1.0368016826525547e-06,1.090885168389629e-06,4.207258957586844e-06,1.1616173119537316e-05,7.5094280314706125e-06,4.981571130252797e-06,2.4644378936247564e-05
269,5.915549723432028e-07,5.685487280308343e-07,8.943931248764949e-07,9.13931640387821e-07,1.3450558092961705e-05,1.777714590363176e-06,2.4627726932623196e-06,2.9718963894526732e-05,1.4014344248564962e-05,1.0197742470908407e-06,1.107943789295149e-06,4.8260579318275345e-06,1.211492793679788e-05,7.694251166211052e-06,5.287258540756491e-06,2.1915988007435993e-05
270,5.76026654194179e-07,5.738415457184393e-07,8.834767372287815e-07,9.400793370729553e-07,1.3375545083483768e-05,1.7832861327838058e-06,2.418946615177668e-06,2.9529982605826513e-05,1.4502770521150708e-05,1.0057311900330832e-06,1.1241093582151163e-06,5.491830087360126e-06,1.2598384242189946e-05,7.962940160195122e-06,5.62142895379794e-06,1.9496556566235883e-05
271,5.627308827159259e-07,5.805629127438556e-07,8.732393932379382e-07,9.667823629400136e-07,1.3254710260742102e-05,1.791624687446926e-06,2.3758250996432985e-06,2.9326992155435323e-05,1.4981453216676485e-05,9.946807499858186e-07,1.1390006176738605e-06,6.20132386449522e-06,1.3061334354139606e-05,8.313463857578885e-06,5.981496877971442e-06,1.738703881824723e-05
272,5.517657901747316e-07,5.887512248926848e-07,8.642358817328495e-07,9.93832706235055e-07,1.3093385086472252e-05,1.8030050387839385e-06,2.3354056893319835e-06,2.910817202363049e-05,1.5434611873389363e-05,9.864315782962392e-07,1.1522464642717355e-06,6.951501767196373e-06,1.3498930712165128e-05,8.742921905142536e-06,6.364297257406206e-06,1.5591664353800787e-05
273,5.432391261482121e-07,5.983733755203742e-07,8.569212443550905e-07,1.0212864846869102e-06,1.2895856312736852e-05,1.8175740945168477e-06,2.2994807305314614e-06,2.8865635062334906e-05,1.5845898515282832e-05,9.806013615353286e-07,1.1635854487567294e-06,7.739186904438439e-06,1.3906811947470901e-05,9.247886126699996e-06,6.767021425767438e-06,1.4116895352374598e-05
274,5.372029896942173e-07,6.093438495899675e-07,8.516616279477915e-07,1.049396928107434e-06,1.266534714568398e-05,1.8352516551471526e-06,2.269677516207457e-06,2.858669466183046e-05,1.6199874556312787e-05,9.767155380016002e-07,1.1729686702377692e-06,8.560500259126939e-06,1.4281386141636604e-05,9.82414921670228e-06,7.188242429515465e-06,1.296978227063383e-05
275,5.33654024566042e-07,6.215732403944711e-07,8.487297407267397e-07,1.0784872341687137e-06,1.2404422561827733e-05,1.8556794753869713e-06,2.2475179355124647e-06,2.8255849220392608e-05,1.6483064440235155e-05,9.743774671320379e-07,1.180578127763679e-06,9.410784629570529e-06,1.462009527286401e-05,1.0466084875886577e-05,7.628079571037715e-06,1.2156319938944272e-05
276,5.325732675017591e-07,6.350090445019328e-07,8.48263270057132e-07,1.1088729841714339e-06,1.2115072778870177e-05,1.8783003847543246e-06,2.234396161463254e-06,2.785756343455969e-05,1.6684646081573263e-05,9.733939214745565e-07,1.1867166989183023e-06,1.0285069813407085e-05,1.4921286810660193e-05,1.1166184101426552e-05,8.087290745751184e-06,1.1680557971736716e-05
277,5.339264610364842e-07,6.496450206127674e-07,8.5023350841947e-07,1.1408256970089738e-06,1.1798665170716504e-05,1.9025204330659435e-06,2.2315268831199944e-06,2.7379552142418795e-05,1.679692452421868e-05,9.737481134459826e-07,1.1916562336355704e-06,1.1178308211612049e-05,1.5183399139465803e-05,1.1914958390843569e-05,8.566338205538994e-06,1.154462754514914e-05
278,5.376225414899819e-07,6.655009976237892e-07,8.544506679776866e-07,1.1745202694483704e-06,1.1456192895803905e-05,1.9278612503869696e-06,2.2398869748701225e-06,2.6815717488323267e-05,1.681534177223136e-05,9.754689554919065e-07,1.195550357690832e-06,1.2084925592040365e-05,1.540416999726023e-05,1.270090450403844e-05,9.065066159836417e-06,1.174914373170776e-05
279,5.434827621583265e-07,6.825719832679644e-07,8.606191315299648e-07,1.2099847184626224e-06,1.1088862838257251e-05,1.9540636927245427e-06,2.2601586904246907e-06,2.6167800652808327e-05,1.673768061866679e-05,9.785242420404963e-07,1.1984121984405198e-06,1.2998613293287477e-05,1.5581281959276957e-05,1.3510379697397624e-05,9.582444706627572e-06,1.229362097430426e-05
280,5.512271863517e-07,7.007698770623928e-07,8.684358000860154e-07,1.2470628499826907e-06,1.0698804977265363e-05,1.981128340509949e-06,2.292689955394279e-06,2.5445058110322372e-05,1.6562548117964714e-05,9.827717815852296e-07,1.200117413839417e-06,1.3913246101820179e-05,1.571443653716212e-05,1.432765686426461e-05,1.0116275922342359e-05,1.3176923618573523e-05
281,5.604734068253993e-07,7.199057147782771e-07,8.776523902077003e-07,1.285383922608887e-06,1.0289618181858885e-05,2.0092864710549548e-06,2.3374490813714374e-06,2.46616945914387e-05,1.6288288626564818e-05,9.879340933350172e-07,1.20045446131662e-06,1.4823844083222016e-05,1.5807045124599176e-05,1.5135166027456874e-05,1.0663182175109058e-05,1.4397623366360768e-05
282,5.707568370927219e-07,7.39748822725608e-07,8.880344739505345e-07,1.324381609697099e-06,9.866534163420881e-06,2.038907282843973e-06,2.3939811895690517e-06,2.3832920330154166e-05,1.5914085665776648e-05,9.936267948272381e-07,1.1992511304551572e-06,1.572603950949556e-05,1.586619590512225e-05,1.5913497858233485e-05,1.1218613548535242e-05,1.5953860069767858e-05
283,5.815818744319787e-07,7.601425415091782e-07,8.992875926479164e-07,1.3633979942911367e-06,9.43607048760435e-06,2.070344822872905e-06,2.461434403306701e-06,2.2971966225751695e-05,1.544321934321095e-05,9.99466360607806e-07,1.1965085368647746e-06,1.661433512164302e-05,1.5901213223797535e-05,1.6641191734583606e-05,1.1777048240117158e-05,1.7842434257204387e-05
284,5.925221868170427e-07,7.810639402251517e-07,9.110439100689943e-07,1.4018430903298712e-06,9.005162198628126e-06,2.1037499241931884e-06,2.5386743404874044e-06,2.208968678776372e-05,1.4885831767695182e-05,1.0051529080456978e-06,1.1924404531775717e-06,1.7480614304284543e-05,1.5921761652059092e-05,1.729522915526653e-05,1.2332722888064602e-05,2.0057405484188196e-05
285,6.03327595967993e-07,8.025515390364666e-07,9.228750674743726e-07,1.4393126651104845e-06,8.580043781788466e-06,2.1389154469373727e-06,2.6243710029592604e-06,2.1195741401506512e-05,1.4258735873243298e-05,1.0104489740037658e-06,1.1874173511127574e-06,1.8313511808518586e-05,1.593614779955557e-05,1.7853219836345647e-05,1.2879936562417245e-05,2.2588880653116103e-05
286,6.13932370032978e-07,8.245828689520255e-07,9.342851250663351e-07,1.4755689107963524e-06,8.16544202085285e-06,2.1752083513717486e-06,2.7169545195405644e-06,2.029957057262727e-05,1.358245463533141e-05,1.0151635433194678e-06,1.181891145491145e-06,1.9098228507115843e-05,1.595032872419864e-05,1.829673389212931e-05,1.3412117163342838e-05,2.5422541627164033e-05
287,6.243700227507746e-07,8.470016283557108e-07,9.447235287762124e-07,1.5104177372347412e-06,7.764576643771596e-06,2.2115794883746167e-06,2.814569921289105e-06,1.9410701889842754e-05,1.2877692474446612e-05,1.0192152843937914e-06,1.1763405224172534e-06,1.981689663992645e-05,1.5967982660440785e-05,1.8613010565004708e-05,1.3920512964093515e-05,2.8539878242583515e-05
288,6.34712231906203e-07,8.695056356751882e-07,9.536574548001961e-07,1.5436387291866464e-06,7.379934947518304e-06,2.246619215985379e-06,2.9151992810266975e-06,1.853874358990195e-05,1.2163192894326204e-05,1.0226567206863157e-06,1.1712074631925738e-06,2.0450084263871992e-05,1.5991267211258156e-05,1.8793518200769734e-05,1.439368331028138e-05,3.1918383479787504e-05
289,6.450550568268935e-07,8.916963650887427e-07,9.60678192318181e-07,1.5750563326057221e-06,7.014141956076428e-06,2.278658159895071e-06,3.0168229849527922e-06,1.769341642103488e-05,1.1455216579013519e-05,1.0256201464625412e-06,1.1668226731090375e-06,2.0979150000359485e-05,1.6021435467853903e-05,1.8833065492085937e-05,1.481807822910594e-05,3.553099259179783e-05
290,6.554806526573839e-07,9.131638566561567e-07,9.655696077139157e-07,1.6046500830409868e-06,6.6701464468374446e-06,2.305952214165698e-06,3.1173811309203152e-06,1.688474322518361e-05,1.0767675420515748e-05,1.028291194344847e-06,1.1633921085809339e-06,2.1388244854595074e-05,1.605901089508827e-05,1.8732551334753343e-05,1.5179525702317315e-05,3.9345502166731283e-05
291,6.659950727016383e-07,9.335240416851129e-07,9.682746033565323e-07,1.632534198565117e-06,6.350658516598183e-06,2.3269636120959714e-06,3.2145644284701823e-06,1.612319696667656e-05,1.0112233754226537e-05,1.0309031689546409e-06,1.1610535324503968e-06,2.16645219112557e-05,1.6103826497389098e-05,1.8501229649016503e-05,1.546523645173863e-05,4.3325924887966184e-05
292,6.765114008233055e-07,9.524117615784558e-07,9.687756698695196e-07,1.6587854527603934e-06,6.057559717604133e-06,2.340609220567376e-06,3.305743882254823e-06,1.5419474203085754e-05,9.498452691687497e-06,1.033670252418362e-06,1.1599077744794987e-06,2.179636540239422e-05,1.6155108004551795e-05,1.815438545623747e-05,1.566561444189079e-05,4.743634239748635e-05
293,6.86900765841583e-07,9.695302615800492e-07,9.670088972405017e-07,1.6832773522347995e-06,5.791845298624095e-06,2.3462543009771356e-06,3.388249857809873e-06,1.4783791332743408e-05,8.934152660848208e-06,1.036703111189628e-06,1.1600000663729816e-06,2.177240699890754e-05,1.6211400247700225e-05,1.7709087261969924e-05,1.5774972532898765e-05,5.164514183778766e-05
294,6.970500299135863e-07,9.847390011177623e-07,9.629131811528483e-07,1.7056646817274655e-06,5.553925158233926e-06,2.3434341216519683e-06,3.4598373725595177e-06,1.4224977263741645e-05,8.425851045224664e-06,1.0400238797534565e-06,1.1613139527928934e-06,2.158413604387207e-05,1.627017397738286e-05,1.71819368685201e-05,1.5790561448463672e-05,5.592678111709386e-05
295,7.068683374199457e-07,9.980437017693605e-07,9.565686611732926e-07,1.725495006707806e-06,5.343934583612473e-06,2.3316421479711673e-06,3.519046779842708e-06,1.3749786835887129e-05,7.979064497796187e-06,1.0436763342280719e-06,1.1637786492777727e-06,2.1230517009225055e-05,1.6327215037039937e-05,1.658871382492233e-05,1.5710858137815117e-05,6.025970417968202e-05
296,7.162770038883938e-07,1.0094927753666113e-06,9.482975071979675e-07,1.7423248145859294e-06,5.162001029915678e-06,2.31049574111271e-06,3.565338326515743e-06,1.336265366625792e-05,7.598399638552309e-06,1.0477805145980726e-06,1.1672885170040524e-06,2.072069888827861e-05,1.6375938706665094e-05,1.5944216175479005e-05,1.5535609595397553e-05,6.462111053292189e-05
297,7.252148276346013e-07,1.019136092320683e-06,9.38653368447514e-07,1.7557666538923459e-06,5.008522997208386e-06,2.2801335620783713e-06,3.59901291995009e-06,1.306577551192029e-05,7.287464613854123e-06,1.0524697550238274e-06,1.1717739799128382e-06,2.0073014101981033e-05,1.6406930405423165e-05,1.526198641696328e-05,1.526838082188398e-05,6.898159392654455e-05
298,7.33634743689794e-07,1.0270831259667445e-06,9.283135621502157e-07,1.7654836189548786e-06,4.884431226214455e-06,2.241444919513978e-06,3.6209414336594378e-06,1.2859281334258146e-05,7.0486847035645e-06,1.057819850258706e-06,1.1772506802839913e-06,1.93111903874356e-05,1.6408578855212938e-05,1.4554040322138752e-05,1.491896970572345e-05,7.330380606147864e-05
299,7.415082887649005e-07,1.0335221327773045e-06,9.179433456217609e-07,1.7711781549325166e-06,4.79133634407323e-06,2.1959425080606485e-06,3.632142733066118e-06,1.2741283194888344e-05,6.883139397620272e-06,1.063834220350223e-06,1.1837698628941358e-06,1.8459935132690708e-05,1.6369511574421217e-05,1.3830674088567546e-05,1.4503247246880001e-05,7.754639467479615e-05
300,7.488376651353894e-07,1.0386358483995403e-06,9.080990069040154e-07,1.7725977803542048e-06,4.731494143023601e-06,2.145417941748359e-06,3.6333920538409827e-06,1.2707712542994262e-05,6.7905497322341496e-06,1.0704787981014529e-06,1.191358635693039e-06,1.754178369861407e-05,1.628200303814929e-05,1.3100560736503518e-05,1.4040857573066292e-05,8.167027822692218e-05
301,7.556246273623769e-07,1.042529543748643e-06,8.9919274408913e-07,1.769551450150023e-06,4.707604151974271e-06,2.091631485394311e-06,3.625076627908477e-06,1.2752013438803561e-05,6.769386512488636e-06,1.0778051517097243e-06,1.2000020729046334e-06,1.6575963269234376e-05,1.6144302467782134e-05,1.2370615436311607e-05,1.3552550224887752e-05,8.564401908755366e-05
302,7.618360567816615e-07,1.0452620818099951e-06,8.914969732552956e-07,1.761919160135586e-06,4.722518553166677e-06,2.0361425161049774e-06,3.6072746332743603e-06,1.2865045116133947e-05,6.816978991057477e-06,1.0860926777831168e-06,1.2096150430699508e-06,1.5578817202349148e-05,1.596044783420964e-05,1.164540297464707e-05,1.3058251219554763e-05,8.944664355335558e-05
303,7.674396467739714e-07,1.046900422144982e-06,8.851473577893128e-07,1.7496464634687794e-06,4.77894546032127e-06,1.9802462789611597e-06,3.579880978620783e-06,1.3035546588916133e-05,6.929629220082561e-06,1.095830949275075e-06,1.2200333090358168e-06,1.4564749907356628e-05,1.573779452030609e-05,1.0926963350274545e-05,1.2575952420576515e-05,9.30666546407099e-05
304,7.724592506078756e-07,1.0474917730367168e-06,8.801292647730978e-07,1.7327171102533179e-06,4.879180550938726e-06,1.9249979111800995e-06,3.5427027774880652e-06,1.32511222817205e-05,7.102669259152894e-06,1.1075793262596054e-06,1.2310674054820485e-06,1.3547005371859856e-05,1.5483845926530258e-05,1.0215758636084065e-05,1.212111926720799e-05,9.649665782590003e-05
305,7.769659523721938e-07,1.0469882453250471e-06,8.762730240783965e-07,1.7110796409035443e-06,5.024871132088935e-06,1.8712992196860876e-06,3.4955581226956533e-06,1.349945293092248e-05,7.3303575108308355e-06,1.1218695455008785e-06,1.2425428055828191e-06,1.2538163567934412e-05,1.5204338887013716e-05,9.512593461090134e-06,1.1706483794459251e-05,9.972478658972885e-05
306,7.810332857355124e-07,1.0452322078316644e-06,8.733072819348121e-07,1.6845547204127577e-06,5.216925623941377e-06,1.8199678416592232e-06,3.4384392112101023e-06,1.3769452015342516e-05,7.605717194204198e-06,1.1391326604092238e-06,1.2542531698174428e-06,1.1550391501992332e-05,1.4903274428828918e-05,8.820548264203333e-06,1.1342139031646589e-05,0.0001027257323732312
307,7.847308275103362e-07,1.0420318687401348e-06,8.709850574662579e-07,1.6528471979883677e-06,5.4557120608576796e-06,1.7717285850578176e-06,3.3717436788131348e-06,1.4052065199895396e-05,7.920472588662857e-06,1.1596107706471126e-06,1.2658824484888237e-06,1.0595467395868829e-05,1.458384657645446e-05,8.14570918392679e-06,1.1035732294532949e-05,0.00010545466365985237
308,7.881407525978734e-07,1.0372658819935993e-06,8.691900136723404e-07,1.6157325899929685e-06,5.7413552494271625e-06,1.727137084921852e-06,3.296488614832808e-06,1.4340385124077026e-05,8.265283616868856e-06,1.1833250785192398e-06,1.2769962538361516e-06,9.684674790171886e-06,1.424917967022329e-05,7.496349819371386e-06,1.0792634044514145e-05,0.00010784660874042929
309,7.913374023732461e-07,1.0309464649293488e-06,8.679153893601383e-07,1.5733258615473543e-06,6.073713381103275e-06,1.6865123641678265e-06,3.214407507307664e-06,1.4628864476361619e-05,8.630471818137107e-06,1.210111929947518e-06,1.2871176049549204e-06,8.828747859589644e-06,1.3902686128937352e-05,6.8813377036089216e-06,1.0616119835235027e-05,0.00010982275975147169
310,7.943539395070401e-07,1.0232230198546829e-06,8.671627853122624e-07,1.526285424550627e-06,6.45203213850673e-06,1.6499661832536014e-06,3.1278577185718848e-06,1.4911850004326484e-05,9.007033386809805e-06,1.2396950673773038e-06,1.2958368359458576e-06,8.037971653208328e-06,1.3548132623703682e-05,6.308782959568017e-06,1.0507574963951613e-05,0.00011130431038649204
311,7.972120867878456e-07,1.0143512985098502e-06,8.668939175243251e-07,1.4758342669667785e-06,6.87472229805793e-06,1.617526384182362e-06,3.0395063141382787e-06,1.5182478233318999e-05,9.387416658158184e-06,1.2717637617181757e-06,1.3029176804777122e-06,7.3223345914349345e-06,1.3189474587209316e-05,5.785408085053916e-06,1.0466620854363044e-05,0.0001122320456333593
312,7.999993222693578e-07,1.0046339891086627e-06,8.670505888094061e-07,1.423556066041892e-06,7.339459481970891e-06,1.5892448165191627e-06,2.9519153414214515e-06,1.5433012671896853e-05,9.76568556131644e-06,1.3059858994180256e-06,1.3083645355940647e-06,6.691525510812845e-06,1.2830559373683348e-05,5.316532092700867e-06,1.0491092811864031e-05,0.00011258406579424579
313,8.028851010147727e-07,9.943262363669262e-07,8.67554087180025e-07,1.3710843428491084e-06,7.843375460947373e-06,1.5651844029381367e-06,2.8673027038447813e-06,1.565634745737024e-05,1.0137050512052492e-05,1.3419860991434e-06,1.3123880574284082e-06,6.154693040750411e-06,1.2474803963967244e-05,4.9063074964286216e-06,1.0576931219662432e-05,0.0001123800938121511
314,8.060452424675981e-07,9.835460485212308e-07,8.682721270878944e-07,1.3198788197567875e-06,8.383128574738846e-06,1.5453117936013669e-06,2.7875941711975682e-06,1.5847450578496527e-05,1.0497032698877915e-05,1.3793714317323291e-06,1.3152665150214413e-06,5.720104037773437e-06,1.2124956545393884e-05,4.557891651702403e-06,1.0718094607627128e-05,0.00011166724272197556
315,8.095951269574921e-07,9.722503171255098e-07,8.690295997900503e-07,1.27115887943539e-06,8.954848146319282e-06,1.5294222872328587e-06,2.7145823059108013e-06,1.6004010910050005e-05,1.0840544937719111e-05,1.4177231817849259e-06,1.3172500475360361e-06,5.394913298267192e-06,1.1783071034023246e-05,4.2734615655167935e-06,1.0906536174162293e-05,0.00011049657318539996
316,8.136105400492648e-07,9.602974206501064e-07,8.696789274430452e-07,1.2259236703207175e-06,9.554030712645289e-06,1.5171326494832476e-06,2.650017883268684e-06,1.6126264824435084e-05,1.1161099500595536e-05,1.456486362990516e-06,1.3185916803713624e-06,5.18514296184503e-06,1.1450741484350406e-05,4.054190836659265e-06,1.1132177686462186e-05,0.00010890640918087587
317,8.182010295191227e-07,9.475767988727541e-07,8.701661762187854e-07,1.1849697477937793e-06,1.017545729753116e-05,1.5078745465826456e-06,2.595643769832025e-06,1.6216165879991877e-05,1.1450553612202827e-05,1.4948765625476235e-06,1.3195631019265502e-06,5.0958121881759755e-06,1.1129436461941744e-05,3.900348300131912e-06,1.1382785730757761e-05,0.00010691803963164803
318,8.235677740229015e-07,9.341457975257297e-07,8.705451862070935e-07,1.1488792043575217e-06,1.0813157217734807e-05,1.5008742970363624e-06,2.5532335250308052e-06,1.6276031206260023e-05,1.169983482898218e-05,1.531922714228495e-06,1.3203540339393971e-06,5.131053503644847e-06,1.0820659498938997e-05,3.811596655861086e-06,1.1643845376149444e-05,0.00010453818694021685
319,8.300161215978952e-07,9.202777584520485e-07,8.709319163647658e-07,1.118018428206131e-06,1.1460420313968824e-05,1.495160281690201e-06,2.5246514472318133e-06,1.6307020318141075e-05,1.19005223627208e-05,1.566603003414565e-06,1.3209522686338746e-06,5.2941025664095625e-06,1.0525728445407393e-05,3.7873792087452623e-06,1.1898827963279748e-05,0.00010176499744372872
320,8.379176444620183e-07,9.063757048708673e-07,8.714134429411217e-07,1.0925683655031344e-06,1.2109857565872456e-05,1.4896502366575295e-06,2.5118946330328555e-06,1.6308428691770617e-05,1.2046712734442886e-05,1.5979591753738022e-06,1.3211221992821957e-06,5.587290482724759e-06,1.0245192757945879e-05,3.827116418412664e-06,1.2130289301972146e-05,9.859855528229225e-05
321,8.476379134338013e-07,8.928312100087344e-07,8.719595273435918e-07,1.0725443658308027e-06,1.2753462105601825e-05,1.4833413171758602e-06,2.5170602747203334e-06,1.6278687193974633e-05,1.2136485682586437e-05,1.625185870682378e-06,1.3204624346879203e-06,6.012233288571627e-06,9.978342155380304e-06,3.9301044803276264e-06,1.2321737132201806e-05,9.505374334970828e-05
322,8.594664810195232e-07,8.799335794600888e-07,8.724094098134609e-07,1.0577882121634262e-06,1.338256910939851e-05,1.4755370186163058e-06,2.5422359703268643e-06,1.6217618857282376e-05,1.2171951516716153e-05,1.6477370038945113e-06,1.3184577709699644e-06,6.570134868193887e-06,9.723387868024408e-06,4.0953292692113565e-06,1.2459497513953134e-05,9.11697998353941e-05
323,8.735754800218144e-07,8.678387612398305e-07,8.725665915004929e-07,1.047959660918939e-06,1.3987649202470223e-05,1.4660268892269352e-06,2.5893680058525887e-06,1.6128646996402185e-05,1.2157564706968963e-05,1.665333317491402e-06,1.3145813921734306e-06,7.261964726832528e-06,9.478197471375511e-06,4.321400746887297e-06,1.2533667923100563e-05,8.701171724715292e-05
324,8.900162609667475e-07,8.565760890000083e-07,8.723314306092895e-07,1.0425379324864404e-06,1.4557926214428386e-05,1.4551747302290494e-06,2.6601412467128744e-06,1.6020080388866854e-05,1.209837451661541e-05,1.6777988486624235e-06,1.3085100415059514e-06,8.088393271745782e-06,9.240843502729383e-06,4.606578892317711e-06,1.2537714113699393e-05,8.266261372802145e-05
325,9.087450869712275e-07,8.460881458343175e-07,8.717414886682229e-07,1.0408470322699689e-06,1.5080873325126205e-05,1.4438792810340837e-06,2.7558588815686102e-06,1.5905156104948583e-05,1.1999354924051102e-05,1.6849700481461515e-06,1.3002622018343483e-06,9.049497014886947e-06,9.009644435926444e-06,4.948785591362066e-06,1.2466962944685387e-05,7.821113912584108e-05
326,9.296346275594513e-07,8.362936141614101e-07,8.708845413140453e-07,1.0421335936025182e-06,1.5542032638563836e-05,1.43339872672671e-06,2.8773239695705453e-06,1.580069067784741e-05,1.1864853752422291e-05,1.6868566204416797e-06,1.2900969831524718e-06,1.0144342439555382e-05,8.783069385358177e-06,5.345627798640125e-06,1.2317314659523234e-05,7.373999183859545e-05
327,9.524403666865749e-07,8.271899029187194e-07,8.697903743882464e-07,1.045696780363534e-06,1.5925954862297173e-05,1.42509193225643e-06,3.024745541574229e-06,1.5724597538596332e-05,1.1698361476880445e-05,1.6838227892356395e-06,1.2783429730771453e-06,1.1370613643370616e-05,8.559837335778257e-06,5.794526935111207e-06,1.2085794430502719e-05,6.931901813476316e-05
328,9.767661828174963e-07,8.18958493212959e-07,8.683823409329257e-07,1.0510313890241358e-06,1.621830994700292e-05,1.4201774762686503e-06,3.197674288847745e-06,1.5693292593602806e-05,1.1503943632013506e-05,1.6765543319533928e-06,1.2653472685769168e-06,1.2724390088942597e-05,8.339109672959683e-06,6.292894363345318e-06,1.1772717769359726e-05,6.500249506501829e-05
329,1.002103641918806e-06,8.119504850967167e-07,8.664779681550846e-07,1.057900183533626e-06,1.6408140477981223e-05,1.4195922530425358e-06,3.3949883156401415e-06,1.5720074286166904e-05,1.1288172429934146e-05,1.6658747818007344e-06,1.2514720724877499e-06,1.4200036009738629e-05,8.120621702289468e-06,6.8381561091567646e-06,1.1383440682657105e-05,6.082878408300795e-05
330,1.0279687831006295e-06,8.065471107587634e-07,8.63830949541463e-07,1.0662603263914327e-06,1.6489399697951756e-05,1.4239478716248475e-06,3.6149911566187993e-06,1.5814700356374882e-05,1.106011945042278e-05,1.6525795551507032e-06,1.2370493513176875e-06,1.5790021503528545e-05,7.9048097936417e-06,7.427469355297017e-06,1.0928263526416991e-05,5.6821443040410325e-05
