,EMG1,EMG2,EMG3,EMG4,EMG5,EMG6,EMG7,EMG8,EMG9,EMG10,EMG11,EMG12,EMG13,EMG14,EMG15,EMG16
0,1.5625243654082747e-07,1.0363654784356918e-07,-3.453493577533852e-08,3.4432901524371905e-08,6.244987153945883e-06,5.121316831115761e-07,1.0278665624436103e-07,6.874249854031358e-06,-4.970642645557885e-08,9.715470673530125e-08,4.558777037507355e-07,-6.455562790911798e-08,2.5040538878747174e-06,3.052063891255523e-06,4.833604809560985e-07,-1.1047102256823785e-06
1,2.443690816974923e-07,1.668938660212696e-07,4.0664819877128166e-08,1.638601388287034e-07,6.664329280428208e-06,6.012227686871245e-07,1.4998722730437015e-07,7.2533814321499005e-06,4.410569269079822e-09,1.4323264240381043e-07,5.431254699092501e-07,1.5775550007052432e-07,3.382433528343945e-06,4.634714936398661e-06,5.246247353414772e-07,-1.0588591174215153e-06
2,3.300796070336833e-07,2.291845278218572e-07,1.1460725988288792e-07,2.8992454367952684e-07,7.093263090814059e-06,6.937933705685787e-07,2.0138117337315657e-07,7.658019143368948e-06,5.970190980600562e-08,1.8932929226765282e-07,6.305848116079274e-07,3.7611790683362726e-07,4.278010701748539e-06,6.188647221372276e-06,5.673989746517025e-07,-9.852665662989528e-07
3,4.118799649920204e-07,2.8968211387683276e-07,1.8681000537048941e-07,4.1114700253425455e-07,7.516701563769444e-06,7.887188973207617e-07,2.573530715827295e-07,8.088737879271123e-06,1.149058306002153e-07,2.34693436490675e-07,7.173207424725681e-07,5.866300277333602e-07,5.184334718378112e-06,7.696833320873498e-06,6.112344203363765e-07,-8.809374447317785e-07
4,4.884304738714387e-07,3.4762128858830276e-07,2.568397141115508e-07,5.263712101164965e-07,7.923215051853043e-06,8.849114334902668e-07,3.182608244873825e-07,8.544713986015384e-06,1.6918724303504297e-07,2.785929072840931e-07,8.023075449056185e-07,7.862682551080789e-07,6.09538970058907e-06,9.143647910675317e-06,6.557016665449472e-07,-7.415637183286577e-07
5,5.586586640224834e-07,4.023638490822814e-07,3.2434871181001665e-07,6.347660666128795e-07,8.305648439725664e-06,9.815083083898663e-07,3.8442065715104334e-07,9.023738124988628e-06,2.2236041764268142e-07,3.2037570165436343e-07,8.844665602721112e-07,9.731559105269204e-07,7.005853941938893e-06,1.0514253667407468e-05,7.003751702806737e-07,-5.612106922838844e-07
6,6.218569512521417e-07,4.534661677356523e-07,3.890909976114575e-07,7.357485811086907e-07,8.660358678709141e-06,1.0781169430465147e-06,4.561315621801371e-07,9.522224982282756e-06,2.7489529722824334e-07,3.59558584477184e-07,9.628145429222928e-07,1.146617871050142e-06,7.910927611105802e-06,1.1794957226411799e-05,7.448224510843822e-07,-3.323467113094106e-07
7,6.777333644207709e-07,5.006604992554662e-07,4.5089762245126146e-07,8.28912802808503e-07,8.986010604965541e-06,1.174914224893131e-06,5.3376051803643e-07,1.003494851923665e-05,3.2769680898660663e-07,3.9584356006663336e-07,1.0366800390427179e-06,1.3070308961947343e-06,8.806016952527776e-06,1.2974741937365679e-05,7.886112440294674e-07,-4.633219064754568e-08
8,7.263890929047288e-07,5.437506184663251e-07,5.096386647289144e-07,9.140140068945136e-07,9.28245188482501e-06,1.2724882315379763e-06,6.178581249477202e-07,1.0554687310277618e-05,3.8186074054631893e-07,4.290539915615937e-07,1.1057802281243308e-06,1.4555142188552466e-06,9.68664187184102e-06,1.4046592788100495e-05,8.313624330550415e-07,3.0606657396136074e-07
9,7.682372071214843e-07,5.825204836514599e-07,5.652191216665913e-07,9.910009506458183e-07,9.549644772641279e-06,1.371560948072984e-06,7.092163213021533e-07,1.1072076717010354e-05,4.3854767699799185e-07,4.5907996509721666e-07,1.1700719793407047e-06,1.5935635865923656e-06,1.0548511013610463e-05,1.5007615295131305e-05,8.728006654706462e-07,7.34452082876139e-07
10,8.038927477014112e-07,6.167363207825166e-07,6.17616297881478e-07,1.0600472695460667e-06,9.786749804403634e-06,1.4727995117160276e-06,8.088071781391359e-07,1.1576013723750959e-05,4.989447019453491e-07,4.858570486444438e-07,1.2295814291067604e-06,1.722804489709347e-06,1.1387425606160435e-05,1.5858165390690245e-05,9.127111852029723e-07,1.2487097827638043e-06
11,8.340493124527486e-07,6.46247376883761e-07,6.668971791354645e-07,1.1215264926923132e-06,9.991869682612995e-06,1.5767565428886273e-06,9.176451844262901e-07,1.205521310717723e-05,5.642616629405252e-07,5.093615403746896e-07,1.2843884851069707e-06,1.8448940369035109e-06,1.2198931441003255e-05,1.6600792594197827e-05,9.508315839425152e-07,1.8588828800177725e-06
12,8.593676121393156e-07,6.711111818605561e-07,7.131675144413399e-07,1.1759138913142566e-06,1.0162579699125691e-05,1.683887544996417e-06,1.0366688250357802e-06,1.2501151018789968e-05,6.357282294108815e-07,5.296123453780192e-07,1.3346581543329254e-06,1.961463093873074e-06,1.2978052133120239e-05,1.723973567629488e-05,9.867902072155156e-07,2.575023144374354e-06
13,8.804269962008155e-07,6.916387073492127e-07,7.564969071405747e-07,1.2236545676971503e-06,1.0296333159318658e-05,1.7945654257330712e-06,1.1666795824593227e-06,1.291154357640301e-05,7.145601134464776e-07,5.466634897861713e-07,1.3805620668470431e-06,2.074065899720583e-06,1.3719386622218309e-05,1.778113655479489e-05,1.0201333267860326e-06,3.40702918030006e-06
14,8.977475896267985e-07,7.083198449844929e-07,7.968862290944512e-07,1.2650896797866178e-06,1.0390326789700788e-05,1.9090139580359035e-06,1.3083281259691115e-06,1.3292675084501007e-05,8.019080900644684e-07,5.606113824836068e-07,1.4221798257215566e-06,2.1841193872600214e-06,1.4417447775990616e-05,1.82333190021051e-05,1.050405339630326e-06,4.364452766819255e-06
15,9.118236362740147e-07,7.216921393867518e-07,8.343039444804658e-07,1.3004938209953892e-06,1.044184832569719e-05,2.0272206898448284e-06,1.4621254924722155e-06,1.365914520948229e-05,8.98808687342076e-07,5.716230467639176e-07,1.4595305482328382e-06,2.29281584023144e-06,1.5066938517198037e-05,1.8606218672652944e-05,1.0772299168508858e-06,5.456268794346482e-06
16,9.231295659737349e-07,7.322634551896881e-07,8.687705823829943e-07,1.3301334515726524e-06,1.0449656109188888e-05,2.148923372784479e-06,1.6284266318640086e-06,1.4031004385100754e-05,1.006134190611156e-06,5.799549181800561e-07,1.4926931608068299e-06,2.401050421804774e-06,1.5662842148505516e-05,1.890975918280552e-05,1.1003617032614344e-06,6.690651237022278e-06
17,9.321100084014939e-07,7.405188859878536e-07,9.003961635490398e-07,1.3542282607285247e-06,1.0415444945080384e-05,2.2736420586951888e-06,1.8073833171073536e-06,1.4430035218121184e-05,1.124558060159462e-06,5.859615428440473e-07,1.5219148067391196e-06,2.509372336103954e-06,1.6200454268154913e-05,1.915199249899927e-05,1.1197151667535087e-06,8.074960959039726e-06
18,9.391531010737762e-07,7.4692406741547e-07,9.293060822598106e-07,1.3728533784441084e-06,1.034443375690564e-05,2.4007172826978526e-06,1.998944713083027e-06,1.4877530867200795e-05,1.254572126104071e-06,5.900737758431279e-07,1.5476591364498467e-06,2.61795535935729e-06,1.6675589070826157e-05,1.933815205551482e-05,1.1353707618940487e-06,9.616023233002073e-06
19,9.445368549461524e-07,7.518734215802523e-07,9.555329782902913e-07,1.3859232231284902e-06,1.0244980005441322e-05,2.5293230121659614e-06,2.20292377907357e-06,1.5393949816507986e-05,1.3965820689691025e-06,5.927467669453543e-07,1.5705514982253638e-06,2.726590353724248e-06,1.7085041149356332e-05,1.9471078358358983e-05,1.1475306955577416e-06,1.1320298868201085e-05
20,9.483761634165214e-07,7.556432773864753e-07,9.789814421112833e-07,1.3933038651950232e-06,1.0127545267457562e-05,2.6583931482628203e-06,2.4190414927961464e-06,1.599873868618116e-05,1.5510383579985326e-06,5.944278954909379e-07,1.5912160557279776e-06,2.8346772623293273e-06,1.742699263623232e-05,1.955237525121119e-05,1.15642930220547e-06,1.3193520128237825e-05
21,9.506060251920177e-07,7.584127453973438e-07,9.994958359984625e-07,1.3949366851222126e-06,1.000348807373321e-05,2.7865243291858454e-06,2.6468843691754057e-06,1.6709699809904638e-05,1.7185141321810444e-06,5.955327008003305e-07,1.610090190078321e-06,2.941222704045977e-06,1.770070196171793e-05,1.9583200398142876e-05,1.162246570851938e-06,1.523996512120309e-05
22,9.510111724812126e-07,7.603511304295852e-07,1.0169846498040616e-06,1.3908346560146452e-06,9.884222967736372e-06,2.9120345983628695e-06,2.88581158952076e-06,1.7542800953951555e-05,1.8996881859512966e-06,5.964072926850096e-07,1.6273509859380827e-06,3.0448768870100606e-06,1.79052436627485e-05,1.956435195297872e-05,1.1650615534087667e-06,1.746193018983255e-05
23,9.492997992588563e-07,7.617167126802013e-07,1.0315035349936617e-06,1.380984979526624e-06,9.781000569523658e-06,3.033208757024365e-06,3.1348753147008802e-06,1.8512337958214163e-05,2.0952358382729725e-06,5.973079916915582e-07,1.6430119746347851e-06,3.1440395604479523e-06,1.8038453501298687e-05,1.9496324652324952e-05,1.1648536602961487e-06,1.9859573935650193e-05
24,9.452002278615077e-07,7.628826242223633e-07,1.0432714934586227e-06,1.3653200039613567e-06,9.705070521276725e-06,3.1485422669810774e-06,3.3927451736519198e-06,1.9630496572254013e-05,2.305704974454233e-06,5.984145327453833e-07,1.6570950677125177e-06,3.237016993252351e-06,1.8097413788693935e-05,1.9379781612618427e-05,1.1615427078855067e-06,2.24307567200224e-05
25,9.385517415323673e-07,7.64268930010283e-07,1.0526740238553913e-06,1.343799974675089e-06,9.667778343414925e-06,3.2567967624036186e-06,3.6576103578478077e-06,2.090632729053182e-05,2.5315284727486172e-06,5.998771907501145e-07,1.6697279830001116e-06,3.3221132202041345e-06,1.8079856609064237e-05,1.9215873378987145e-05,1.1550444582290975e-06,2.517057376794338e-05
26,9.293623123025103e-07,7.662658837066289e-07,1.0602283470630998e-06,1.3165142407049245e-06,9.680372874075743e-06,3.356877124465476e-06,3.92719055105889e-06,2.234498972239797e-05,2.7731703282967223e-06,6.018713401281423e-07,1.6811152841943687e-06,3.397592537497479e-06,1.7985010777968173e-05,1.9005681266031034e-05,1.1452965205657188e-06,2.807071263770173e-05
27,9.177940217595315e-07,7.691996663243441e-07,1.0664654341533304e-06,1.283774882631572e-06,9.753602522017874e-06,3.447702671882669e-06,4.199037587732654e-06,2.3947580652598485e-05,3.0311775637671784e-06,6.045929086654713e-07,1.691437904053767e-06,3.4616444786268584e-06,1.781398671601362e-05,1.8748878872607436e-05,1.1322279087619167e-06,3.111880217919813e-05
28,9.040746361833978e-07,7.733021595885313e-07,1.071804075991548e-06,1.2462232498352911e-06,9.897222700342456e-06,3.5282067874917332e-06,4.47097780028051e-06,2.571100712852604e-05,3.3059962487157082e-06,6.081980435988685e-07,1.7007395060332346e-06,3.5124007797614957e-06,1.7570587443123852e-05,1.8442504602900894e-05,1.115759654791445e-06,3.4297639288653136e-05
29,8.884274997908981e-07,7.786832222243085e-07,1.0764898195714787e-06,1.2048618826287419e-06,1.0119445266795451e-05,3.5974440294957083e-06,4.741233928716324e-06,2.7627628943625033e-05,3.597680956971876e-06,6.127748959197449e-07,1.7088197069801981e-06,3.547846342794762e-06,1.7262058838723785e-05,1.8080858244095048e-05,1.0959593198787934e-06,3.7584200877689955e-05
30,8.711077061457007e-07,7.853381207666705e-07,1.0805687378737071e-06,1.1609176425676298e-06,1.0426511807782612e-05,3.654704855610283e-06,5.008093868129144e-06,2.9685165574983264e-05,3.9056749329505106e-06,6.183509922682242e-07,1.7151537993391403e-06,3.565713340632485e-06,1.6898452233011753e-05,1.7656789566787546e-05,1.0732689357180682e-06,4.094861938867898e-05
31,8.524828762967338e-07,7.931659580649846e-07,1.083883491171625e-06,1.1156113261770644e-06,1.0822864028124774e-05,3.699563395408481e-06,5.269653291312849e-06,3.186687522477087e-05,4.228690342800266e-06,6.248714046730458e-07,1.718882014632789e-06,3.563692987770123e-06,1.6490621590437165e-05,1.7163838199839223e-05,1.0485643509432867e-06,4.43533693277325e-05
32,8.330394073115174e-07,8.019761759593625e-07,1.0861300331558984e-06,1.0699934452128363e-06,1.1312113703593525e-05,3.7318152955410432e-06,5.524054256444692e-06,3.41515912280867e-05,4.564701668964431e-06,6.321695686971533e-07,1.718930600486119e-06,3.5400001163988424e-06,1.604814806747367e-05,1.659859395886203e-05,1.0229711338565364e-06,4.775259985935453e-05
33,8.133250268341272e-07,8.115259354017386e-07,1.0869676290762176e-06,1.0249176227256348e-06,1.1898167101038148e-05,3.7512687051108434e-06,5.769957387344287e-06,3.651462566871978e-05,4.911115218710151e-06,6.399879837821537e-07,1.7142948636369232e-06,3.4940084878277374e-06,1.5578123137445626e-05,1.596274100533882e-05,9.97613329144186e-07,5.1091533445117156e-05
34,7.939098012978336e-07,8.216110823991618e-07,1.0861267920260387e-06,9.810996923260354e-07,1.258553547350044e-05,3.7574397068625257e-06,6.006880520890665e-06,3.893055524542141e-05,5.2650458421746985e-06,6.480476112241771e-07,1.704368221305807e-06,3.4265731449781426e-06,1.5085114958752628e-05,1.526409482960637e-05,9.73460133758279e-07,5.4307219963305695e-05
35,7.753672599263839e-07,8.321310861733271e-07,1.0834873161635845e-06,9.391598343909741e-07,1.3378540009514894e-05,3.7494025406404826e-06,6.235277114288897e-06,4.137643700661314e-05,5.623530658317122e-06,6.561167864863024e-07,1.6890586792595228e-06,3.339773783489949e-06,1.4572188063098277e-05,1.4515992577442826e-05,9.512751883072881e-07,5.733269160440846e-05
36,7.582334165473571e-07,8.430666282316807e-07,1.0791307342414072e-06,8.996160384049924e-07,1.427997353142701e-05,3.726030882437102e-06,6.456262335517827e-06,4.3833398246138905e-05,5.983623924816625e-06,6.640252118710928e-07,1.6686175051810843e-06,3.2363834746745203e-06,1.4042239363843191e-05,1.3735079916611343e-05,9.316160175859927e-07,6.010395658776541e-05
37,7.429597670577927e-07,8.544498705685832e-07,1.0733544870189021e-06,8.628743393880438e-07,1.5289990444725952e-05,3.6865224809411557e-06,6.6710660448394745e-06,4.628623584553698e-05,6.34239921269019e-06,6.716547158012827e-07,1.6434910618582867e-06,3.1196342301984687e-06,1.3498966721634535e-05,1.2938510362914525e-05,9.148691169353e-07,6.25662279650096e-05
38,7.299046192246119e-07,8.66379095597928e-07,1.0666279268944587e-06,8.292386046320671e-07,1.640555245520759e-05,3.630873801668518e-06,6.880553322714861e-06,4.872169578585687e-05,6.696825161305404e-06,6.789858723734504e-07,1.6144084607295765e-06,2.9931952459299545e-06,1.2947286551765026e-05,1.2141833399115275e-05,9.013363626956871e-07,6.467663266200055e-05
39,7.193493835823537e-07,8.790169364712676e-07,1.0594980435885627e-06,7.98925626991924e-07,1.762032179310705e-05,3.560074091389683e-06,7.085075832295391e-06,5.112597552647657e-05,7.043471348207989e-06,6.861627053506353e-07,1.5824524360788583e-06,2.8609104537472844e-06,1.2393180327246726e-05,1.1358159511979526e-05,8.913391644436186e-07,6.640436324097037e-05
40,7.11489496413696e-07,8.925770112451198e-07,1.0524731588045148e-06,7.720620316620014e-07,1.8924703971826267e-05,3.4759980134070304e-06,7.284566921619691e-06,5.3481571543689646e-05,7.378244325820943e-06,6.934718525308214e-07,1.5488867754733198e-06,2.726391100006964e-06,1.1843070071910891e-05,1.0598377778404705e-05,8.852434804256832e-07,6.773093179206717e-05
41,7.064007595172032e-07,9.07315552339796e-07,1.0459225923601713e-06,7.486648307286338e-07,2.0305658446207554e-05,3.3811261123704664e-06,7.4785554812428855e-06,5.576376065116381e-05,7.696595735351995e-06,7.012368351899595e-07,1.5149022956041508e-06,2.5928040446506177e-06,1.1303002193014149e-05,9.871762497006843e-06,8.833791203149367e-07,6.86498452997212e-05
42,7.040228489551331e-07,9.234642619304572e-07,1.0400219606113533e-06,7.286435592934004e-07,2.174629639600694e-05,3.2782423718844175e-06,7.665903399916728e-06,5.793801256715358e-05,7.994300577746593e-06,7.097266099110249e-07,1.4814790581188804e-06,2.462852110135968e-06,1.0777884959638878e-05,9.186302553540516e-06,8.859378862251435e-07,6.916218741150915e-05
43,7.041686182960326e-07,9.411269757634746e-07,1.0347446714954437e-06,7.118382465849612e-07,2.322568936019515e-05,3.1701531707713767e-06,7.84452080907386e-06,5.9960025043665345e-05,8.268279091518204e-06,7.19132074719785e-07,1.449352351660168e-06,2.3388178507568346e-06,1.0271063576399008e-05,8.548551733014375e-06,8.929234340307579e-07,6.926989605113671e-05
44,7.065418957723469e-07,9.602357665433916e-07,1.0299070128095247e-06,6.980633119762973e-07,2.4718813050454754e-05,3.059425661977402e-06,8.011548153700893e-06,6.177885127784745e-05,8.516952225829484e-06,7.295690611506524e-07,1.419017760390888e-06,2.222604137426566e-06,9.784524902801239e-06,7.963314392428784e-06,9.041580882039636e-07,6.897426419744068e-05
45,7.107661050570382e-07,9.805644035654838e-07,1.0252801997844794e-06,6.871268768939199e-07,2.619616620273186e-05,2.948259146330634e-06,8.164056948911143e-06,6.334230651555982e-05,8.740194301512016e-06,7.410938500634715e-07,1.3907621550489733e-06,2.11573201301256e-06,9.319449020470955e-06,7.433500395428347e-06,9.193233754547305e-07,6.828183348401213e-05
46,7.16429198299374e-07,1.0017295442996937e-06,1.0207205383792937e-06,6.788366442688113e-07,2.7623228100287952e-05,2.838539087070877e-06,8.299766981812554e-06,6.460360412115748e-05,8.939020316549253e-06,7.5375747234519e-07,1.3647396855267964e-06,2.0193279964324342e-06,8.876352661550866e-06,6.9601629788924416e-06,9.380080443420615e-07,6.721225373530003e-05
47,7.231126522158449e-07,1.023168655659632e-06,1.0162303981651605e-06,6.730278296205117e-07,2.8960854637038087e-05,2.7318850376104485e-06,8.417353113139719e-06,6.552798398252809e-05,9.115047905841695e-06,7.676437279957571e-07,1.341089455003019e-06,1.9341472132534245e-06,8.454619549566888e-06,6.5426314172089e-06,9.597496923498131e-07,6.580360221705208e-05
48,7.303774670972308e-07,1.0441642529962975e-06,1.011908392468433e-06,6.696109291163327e-07,3.0168613527179635e-05,2.629638464813675e-06,8.516370089430006e-06,6.609725308111641e-05,9.270445176238296e-06,7.828236913871341e-07,1.3200356533503753e-06,1.8606621722051243e-06,8.052096388748066e-06,6.178841050036441e-06,9.840715467600375e-07,6.411382271372461e-05
49,7.37767964771117e-07,1.0639503901687247e-06,1.0078351199940016e-06,6.685841669645053e-07,3.121197003128862e-05,2.532930297493463e-06,8.597062033050808e-06,6.630933530588898e-05,9.408528560185483e-06,7.99281987431094e-07,1.3019122664899135e-06,1.7992367571903002e-06,7.665542175047795e-06,5.866021072138052e-06,1.0105130445065522e-06,6.221766534963234e-05
50,7.449047813078945e-07,1.081811859972699e-06,1.0040191608448483e-06,6.699725431237101e-07,3.20701505414873e-05,2.442747203428009e-06,8.66024258232527e-06,6.617141104106437e-05,9.53357963875722e-06,8.169024365125665e-07,1.28709414311943e-06,1.7502819039636854e-06,7.2919773625967056e-06,5.601495035925933e-06,1.0386511784759347e-06,6.0199702577098466e-05
51,7.515947424830285e-07,1.0970748441003144e-06,1.0004635431760897e-06,6.737405231353787e-07,3.273950759888725e-05,2.3598520141982682e-06,8.707258006768676e-06,6.569072994225995e-05,9.649480062271697e-06,8.354931229165011e-07,1.2758694412020808e-06,1.7142313400785907e-06,6.930151287687753e-06,5.382976162834505e-06,1.0681157493946784e-06,5.814561786534939e-05
52,7.578211898894918e-07,1.1090475351377183e-06,9.97240694100505e-07,6.797468565284503e-07,3.323022359799316e-05,2.284660507356235e-06,8.739950416426333e-06,6.487109977596017e-05,9.758616770028171e-06,8.54778093507503e-07,1.2683386988244406e-06,1.6913623063886065e-06,6.581232494911302e-06,5.20825957792277e-06,1.0985813950981992e-06,5.6134538870526124e-05
53,7.636250646235171e-07,1.1170583294907935e-06,9.944622646053673e-07,6.877535341543498e-07,3.3558739832919855e-05,2.217197559376026e-06,8.760549992101608e-06,6.371768684539008e-05,9.861810624976018e-06,8.743607778113232e-07,1.2644084654286796e-06,1.6816375253913777e-06,6.2484684463635665e-06,5.074915166066135e-06,1.1297113521537895e-06,5.4234632099643714e-05
54,7.69005391199439e-07,1.1206044833105542e-06,9.921961244519648e-07,6.974569220074366e-07,3.374096377192251e-05,2.1571507640854508e-06,8.771511892967492e-06,6.2244539808525e-05,9.958709143363455e-06,8.937202863116109e-07,1.263886829304905e-06,1.6846605301932183e-06,5.936228762402188e-06,4.980251593584993e-06,1.1610933956020376e-06,5.250231623020198e-05
55,7.738828191419112e-07,1.1194755191296687e-06,9.90435096412281e-07,7.085019539192299e-07,3.3789880116796694e-05,2.1040146391850445e-06,8.775366104412892e-06,6.0479174847133504e-05,1.0048045298089868e-05,9.122567684010512e-07,1.26660800478934e-06,1.6997321377414298e-06,5.648970353547242e-06,4.921286248093023e-06,1.1922433527407603e-06,5.0983261774340285e-05
56,7.780756381999558e-07,1.1137528745344566e-06,9.891125548150873e-07,7.205004166288637e-07,3.371682589810925e-05,2.0572099440320175e-06,8.774555336129595e-06,5.846302172975063e-05,1.0127692038426867e-05,9.293657234455538e-07,1.2724531236911242e-06,1.725961662744969e-06,5.390441132548999e-06,4.894619394017415e-06,1.2226789289727527e-06,4.9712928315123984e-05
57,7.8128830437933e-07,1.1037246911967005e-06,9.88099490704974e-07,7.330820343408313e-07,3.3533298570223225e-05,2.0160485864063074e-06,8.771083425637065e-06,5.62484680823949e-05,1.019471539691317e-05,9.445393162529554e-07,1.2812464791162212e-06,1.7623303559088843e-06,5.163272529114426e-06,4.896295801657078e-06,1.2519855399818126e-06,4.871596597433211e-05
58,7.831518359244036e-07,1.089826480679072e-06,9.871922487654318e-07,7.459214308073268e-07,3.32508899016297e-05,1.9796310176050685e-06,8.765988681324987e-06,5.389367714152119e-05,1.024554696591054e-05,9.574735093955018e-07,1.2926627613279161e-06,1.8076612151935776e-06,4.96894650904394e-06,4.921710530635089e-06,1.2797927297908545e-06,4.800544307075253e-05
59,7.833068638757866e-07,1.072649554051517e-06,9.86155710058732e-07,7.58740922613746e-07,3.2879047989612665e-05,1.9468707475496086e-06,8.759222225500167e-06,5.1456920496400386e-05,1.027621408435032e-05,9.680946031375055e-07,1.3061933276407956e-06,1.8605817217227477e-06,4.8079216955151e-06,4.965696432155996e-06,1.3056898548159126e-06,4.758305646133182e-05
60,7.814927756227026e-07,1.0529377711992855e-06,9.84824207039456e-07,7.713721699522122e-07,3.2422765629021454e-05,1.9166831178579125e-06,8.750398615902777e-06,4.899195888410254e-05,1.0282511734766733e-05,9.764553860321744e-07,1.3211310838824524e-06,1.9195256298869004e-06,4.679771537445991e-06,5.022925622482345e-06,1.3292080872994576e-06,4.744051544986963e-05
61,7.77613239896468e-07,1.0314984138349196e-06,9.831695726035172e-07,7.83849545901756e-07,3.1882010127055015e-05,1.8882302598704826e-06,8.739874316798364e-06,4.654491811457336e-05,1.0260142282229362e-05,9.825848668003744e-07,1.33665882662321e-06,1.9827518041651295e-06,4.583412495301863e-06,5.088584709852351e-06,1.3499074670083194e-06,4.7561254550269664e-05
62,7.717567599100039e-07,1.0090774323806463e-06,9.812591903666882e-07,7.964422007464001e-07,3.125282973155178e-05,1.8611564667738943e-06,8.729184921741762e-06,4.415264492920451e-05,1.0204772163393209e-05,9.864148647657836e-07,1.3520898405795098e-06,2.0484053177180225e-06,4.517479818974389e-06,5.159124054915423e-06,1.3674642242148332e-06,4.79212356419526e-05
63,7.641664871627469e-07,9.862844045498158e-07,9.791622068241537e-07,8.096111086984688e-07,3.053048816408015e-05,1.8357770082115597e-06,8.720542194564222e-06,4.184316771587439e-05,1.0111896585516203e-05,9.878125660773878e-07,1.3670837060847583e-06,2.1146197675537544e-06,4.480762430809034e-06,5.232788830049888e-06,1.381657741939957e-06,4.8488413154629046e-05
64,7.551657485696226e-07,9.635598293274054e-07,9.76908222069108e-07,8.239270088645603e-07,2.9714243445842587e-05,1.8130984189180281e-06,8.71590601314045e-06,3.963861595924653e-05,9.977249762476051e-06,9.86638727910568e-07,1.3816595892555597e-06,2.179543817161142e-06,4.4725565411074054e-06,5.3096846027412834e-06,1.392317932286925e-06,4.922228067958857e-05
65,7.450751572316601e-07,9.411602823811745e-07,9.744862303023128e-07,8.39984481731167e-07,2.88105758235628e-05,1.7945755974602392e-06,8.716377332844575e-06,3.755923343994818e-05,9.79855494804073e-06,9.82770019189955e-07,1.3960263032282712e-06,2.2412127604205772e-06,4.492791136678233e-06,5.391318559472964e-06,1.3993872313189486e-06,5.00753364632575e-05
66,7.341830976717742e-07,9.192095227232302e-07,9.71840231503537e-07,8.583370606686573e-07,2.7832618614974395e-05,1.7817333802956263e-06,8.722236426244393e-06,3.562631924979248e-05,9.57737953911054e-06,9.761495029607544e-07,1.410370903838634e-06,2.2973818915892066e-06,4.541812168991595e-06,5.4798125817416005e-06,1.4030564370921178e-06,5.099582082015645e-05
67,7.227698050208736e-07,8.97825772101969e-07,9.689019936521543e-07,8.794562083608096e-07,2.6797030392623464e-05,1.7759157247683316e-06,8.733379832791777e-06,3.3862785231760035e-05,9.3191104054152e-06,9.66914749995141e-07,1.4247303314978088e-06,2.3455055330559833e-06,4.619885227609703e-06,5.5773300132753444e-06,1.403768225672012e-06,5.1928842102444655e-05
68,7.111158793930165e-07,8.772208695255828e-07,9.656911382456872e-07,9.03703346249278e-07,2.5720453828899585e-05,1.7782365118350273e-06,8.749721694193146e-06,3.229126343356776e-05,9.031133782744238e-06,9.55505964792851e-07,1.4389460149256594e-06,2.3829711720128083e-06,4.726703945297153e-06,5.68630917879106e-06,1.402069075579284e-06,5.281473191489244e-05
69,6.994722658877548e-07,8.576798914820326e-07,9.62414652059209e-07,9.313082823950305e-07,2.46166948726125e-05,1.789574831655252e-06,8.771316125618461e-06,3.093104224323103e-05,8.72088221986464e-06,9.426390104037507e-07,1.4526288160150096e-06,2.4075464920310513e-06,4.861149041884912e-06,5.810421749341186e-06,1.3984862707929378e-06,5.358795782577563e-05
70,6.880300424464475e-07,8.394541423364485e-07,9.59460217443554e-07,9.62349554423689e-07,2.349527629963521e-05,1.8105418104046928e-06,8.79822830884282e-06,2.979609658978214e-05,8.394798997676004e-06,9.291494722884506e-07,1.4651557141308599e-06,2.417728946712267e-06,5.021366728785065e-06,5.955506979514274e-06,1.3935108943788478e-06,5.418109574096889e-05
71,6.76911731498722e-07,8.22662175200134e-07,9.572754925468084e-07,9.967327222591136e-07,2.2361842980001855e-05,1.8414670946959332e-06,8.830349864095303e-06,2.889541760351295e-05,8.058092995997824e-06,9.158161838727682e-07,1.4757712998187044e-06,2.412694352743985e-06,5.205189984262071e-06,6.129835661599505e-06,1.3876136565544238e-06,5.453386610244513e-05
72,6.661759702044139e-07,8.072532898949257e-07,9.56253962665047e-07,1.0341797205979164e-06,2.1220121465130522e-05,1.8823978781211601e-06,8.867373354951749e-06,2.8234613441504578e-05,7.714800338096763e-06,9.032612397864817e-07,1.4837680531712046e-06,2.3920408499760687e-06,5.410758491460581e-06,6.343510358321221e-06,1.3812288656556808e-06,5.460288836032316e-05
73,6.558184007290457e-07,7.930410130021176e-07,9.56694207557314e-07,1.074242110890994e-06,2.007434670402893e-05,1.9331418895192786e-06,8.90899307944044e-06,2.781722459634034e-05,7.367865184839802e-06,8.919353255325415e-07,1.488668339709414e-06,2.3557963598428897e-06,5.637005701739547e-06,6.607251150359519e-06,1.3747049987220349e-06,5.436736963855887e-05
74,6.457543706852378e-07,7.79793199630011e-07,9.587682787279324e-07,1.116313218949441e-06,1.8930963681638588e-05,1.9934039244269763e-06,8.955150812030944e-06,2.7644948198410195e-05,7.019140564246426e-06,8.821702830846648e-07,1.4903562072368791e-06,2.304700709808491e-06,5.8837895264147165e-06,6.93117918591026e-06,1.3682637657348272e-06,5.3827763535024436e-05
75,6.357945418170408e-07,7.673358765954855e-07,9.624778829415308e-07,1.1596244370580674e-06,1.7798854011033527e-05,2.062899133765718e-06,9.00595514100264e-06,2.7716668113935175e-05,6.669482295870473e-06,8.742690426737758e-07,1.4890955387608827e-06,2.2404025958210735e-06,6.1516357335341665e-06,7.3240735518786774e-06,1.3620649302231893e-06,5.299748540617068e-05
76,6.256540803212916e-07,7.556150036866134e-07,9.676535115393142e-07,1.2032929951064393e-06,1.6688068965071796e-05,2.1413388985663703e-06,9.061156202509669e-06,2.8027303917743515e-05,6.319225046651157e-06,8.685454594527509e-07,1.4854108038269514e-06,2.1654779146270996e-06,6.441151791893902e-06,7.793063959203586e-06,1.3563825356022168e-06,5.189214167783723e-05
77,6.150289393042708e-07,7.446960322781597e-07,9.740072431764419e-07,1.2464902222363929e-06,1.5607859334932607e-05,2.2284060471145774e-06,9.11981140973757e-06,2.85678719801708e-05,5.968870068164471e-06,8.652713449337291e-07,1.4799132603112345e-06,2.0833593700135936e-06,6.752283546552805e-06,8.343522877489852e-06,1.351714039732337e-06,5.0523680471980254e-05
78,6.037237469629122e-07,7.347173803191174e-07,9.812157258108282e-07,1.288650526722761e-06,1.4565282548430615e-05,2.323859326620932e-06,9.18080149934787e-06,2.9326559235970036e-05,5.619456106692872e-06,8.646041904320365e-07,1.4731500632763978e-06,1.998137897492416e-06,7.083772108109355e-06,8.979061219188229e-06,1.3487090535838342e-06,4.8902713640515504e-05
79,5.91757359572801e-07,7.25816249202331e-07,9.890095073175595e-07,1.3295396451996004e-06,1.356513551782771e-05,2.427700929986139e-06,9.24374351388912e-06,3.028917257373411e-05,5.272458944477617e-06,8.665707577801319e-07,1.4654833612299452e-06,1.9142231308930515e-06,7.433167988469237e-06,9.701604044855912e-06,1.3480127411046291e-06,4.704465210819911e-05
80,5.793596411010398e-07,7.180479152297871e-07,9.97219073098365e-07,1.369117046154313e-06,1.2610738717662095e-05,2.5402151329403435e-06,9.309340364692363e-06,3.1438105433780385e-05,4.929562786910984e-06,8.710975481603782e-07,1.4570110309567961e-06,1.8360070672183714e-06,7.797377170688292e-06,1.0511490636052368e-05,1.350177878941693e-06,4.4974527658536256e-05
81,5.668589252412303e-07,7.113306569162562e-07,1.0057498794522514e-06,1.407315702321623e-06,1.170470460474593e-05,2.6617902604245968e-06,9.378881276109861e-06,3.275076691841111e-05,4.59255401372545e-06,8.78038865536725e-07,1.4475722270379272e-06,1.7677143338058771e-06,8.173295930335268e-06,1.1407556715262864e-05,1.3557038633167928e-06,4.2729059168393665e-05
82,5.545687103081956e-07,7.054365684185168e-07,1.014532494460673e-06,1.4438978807219514e-06,1.0849385478499285e-05,2.7926234948848107e-06,9.453252061295104e-06,3.419887532952681e-05,4.263194660852068e-06,8.871856855714262e-07,1.4368798107189397e-06,1.7134276095577615e-06,8.558149843046154e-06,1.2387175077045748e-05,1.3651029504249359e-06,4.0355661546545065e-05
83,5.427433793325774e-07,7.000211055614052e-07,1.0234992110919474e-06,1.4784321962434157e-06,1.0047119457925247e-05,2.932469785616171e-06,9.531956654222235e-06,3.574858101643804e-05,3.94302678105338e-06,8.982921541314565e-07,1.4247271648663016e-06,1.6770873464239811e-06,8.949537400613925e-06,1.3446185123945619e-05,1.3788598955425061e-06,3.790843641044622e-05
84,5.315602579796812e-07,6.946601518518544e-07,1.0325782218966277e-06,1.5103254514730648e-06,9.300423893949715e-06,3.080513214094119e-06,9.612512420741966e-06,3.7360342529986134e-05,3.6333706035423247e-06,9.111501884868686e-07,1.411131019843073e-06,1.6624402271028693e-06,9.345344464928574e-06,1.4578700599774452e-05,1.397308052727178e-06,3.544267980368808e-05
85,5.210979510841975e-07,6.888775001325933e-07,1.0416748256877907e-06,1.5388466334929194e-06,8.61216183389706e-06,3.235343150701367e-06,9.69030452004269e-06,3.898878646108447e-05,3.3355040642078615e-06,9.256584106986682e-07,1.3963675323467838e-06,1.6730873064048032e-06,9.74352713454482e-06,1.5776953975385384e-05,1.4205621287179473e-06,3.3010134201008146e-05
86,5.113303502763098e-07,6.822109773728727e-07,1.0506344689322477e-06,1.5631748395553332e-06,7.985513060422594e-06,3.3949711817755595e-06,9.758867277322606e-06,4.0584284075654794e-05,3.0506905317052053e-06,9.418054535982862e-07,1.380938273109937e-06,1.712613460281944e-06,1.0141611022467762e-05,1.703113154475282e-05,1.4485601164795322e-06,3.0656204611613886e-05
87,5.021359214920872e-07,6.743505689171488e-07,1.0592279444210144e-06,1.5825125643435813e-06,7.423548620537514e-06,3.5568254563739362e-06,9.810640516533122e-06,4.209674922336362e-05,2.780055795277283e-06,9.596019475716806e-07,1.3654668636277046e-06,1.7846473260081963e-06,1.05360120525286e-05,1.8329040599190063e-05,1.4811107094653386e-06,2.84189618446345e-05
88,4.933225368450776e-07,6.6526915971607e-07,1.0672211928831724e-06,1.5961631265601098e-06,6.928553385251147e-06,3.7177635652203968e-06,9.838156706081066e-06,4.348003458635372e-05,2.5245912574934135e-06,9.790438764775144e-07,1.3505863320572717e-06,1.8927953065699742e-06,1.0921662839127453e-05,1.9656291607470395e-05,1.5178621895469115e-06,2.6329151772431176e-05
89,4.846903564881449e-07,6.552478786844656e-07,1.0744746292734506e-06,1.6034679739871809e-06,6.50153654795364e-06,3.874265234555421e-06,9.835347014319493e-06,4.469545376503893e-05,2.285278692068308e-06,1.000082032311397e-06,1.3369018838463481e-06,2.040494669696878e-06,1.1292219887104118e-05,2.0997641892623143e-05,1.5582700030112316e-06,2.4410585834345134e-05
90,4.761226377948386e-07,6.447837943714042e-07,1.0809288308894747e-06,1.6037684217786942e-06,6.142086727836547e-06,4.022869262129409e-06,9.798487679753187e-06,4.571425801554876e-05,2.0631110920298336e-06,1.0225646787006967e-06,1.3249785052590505e-06,2.2308550390510407e-06,1.164065535683372e-05,2.2338447421935847e-05,1.6016425221047218e-06,2.268062818108295e-05
91,4.676430897709268e-07,6.344411741259617e-07,1.0865101739041808e-06,1.596579324910022e-06,5.848377589264974e-06,4.160678114345116e-06,9.726335721566537e-06,4.6518930408261046e-05,1.8589562018608552e-06,1.0462264296615476e-06,1.3152996795019307e-06,2.466554020654514e-06,1.1960015555583511e-05,2.366487094047431e-05,1.647184152036097e-06,2.1150697051937803e-05
92,4.5939270112020646e-07,6.247453143897088e-07,1.0910901797658303e-06,1.5818063852269165e-06,5.617261112973281e-06,4.285660069866851e-06,9.619273183560521e-06,4.71022980750164e-05,1.6734313265458279e-06,1.0707569986630098e-06,1.3082401581411305e-06,2.7498302105433755e-06,1.2244252084486682e-05,2.4962993515431125e-05,1.693938177010919e-06,1.982681873880798e-05
93,4.515609574371063e-07,6.161685679805237e-07,1.0945096915170083e-06,1.5597619907660526e-06,5.444539322333809e-06,4.396619943033596e-06,9.477992660490401e-06,4.746348684526158e-05,1.5069076495542842e-06,1.0958641669362473e-06,1.3040484077774643e-06,3.082540945195124e-06,1.248899098754943e-05,2.6217810227357242e-05,1.7406889065844217e-06,1.87102128136084e-05
94,4.443548386672551e-07,6.091496004149455e-07,1.0966552820814623e-06,1.5310172656728748e-06,5.325430182967795e-06,4.492953303785344e-06,9.302880600202787e-06,4.7601761288811796e-05,1.3595666158101186e-06,1.1212896915287433e-06,1.3028016019137705e-06,3.4661717651635463e-06,1.2692100801669632e-05,2.741310677468871e-05,1.785971516182765e-06,1.7797684096515396e-05
95,4.3801448188946024e-07,6.040832755171108e-07,1.0975543295486551e-06,1.496241157854252e-06,5.2552226076363255e-06,4.574408302071658e-06,9.094494242290997e-06,4.751214234931488e-05,1.2314285881854843e-06,1.1468158271673588e-06,1.3043687832714386e-06,3.901720969092226e-06,1.2853968813522032e-05,2.853299559787354e-05,1.8282547512848125e-06,1.708174097569479e-05
96,4.3280418556496907e-07,6.012951448348097e-07,1.097374617180776e-06,1.456069882234663e-06,5.23009206390727e-06,4.640943914906844e-06,8.854242486507411e-06,4.718634987490031e-05,1.1223651428840991e-06,1.172260625791514e-06,1.3084425310609218e-06,4.38951328233349e-06,1.2977420876824809e-05,2.9564723258123822e-05,1.8661955871381932e-06,1.6550758157017797e-05
97,4.2896629965651086e-07,6.010258381970876e-07,1.0963086722735776e-06,1.4110282344630884e-06,5.2478664127766165e-06,4.6925815154065976e-06,8.58457246846876e-06,4.6618110227656904e-05,1.0321291758067407e-06,1.1974786835819824e-06,1.3146327520200337e-06,4.9290303426384815e-06,1.3067235349420298e-05,3.0500430583153503e-05,1.8987752593946954e-06,1.6189495634509414e-05
98,4.2668800523648163e-07,6.034286270159443e-07,1.0944691985835372e-06,1.3615827927703282e-06,5.30840660269384e-06,4.729129272492009e-06,8.288818543702661e-06,4.580866487844794e-05,9.605041694425145e-07,1.2223924506154877e-06,1.3225314972080313e-06,5.5187656819311475e-06,1.3129268872997643e-05,3.133577738846512e-05,1.9252496369507897e-06,1.5979933192672954e-05
99,4.2608905355605784e-07,6.085926531911079e-07,1.0919009165454916e-06,1.3083134982354873e-06,5.413436872180848e-06,4.749864103555944e-06,7.970954598813343e-06,4.4769553923795515e-05,9.076217699743598e-07,1.2469788235717956e-06,1.3316746143871605e-06,6.156137914338693e-06,1.316937593948231e-05,3.2067280688747517e-05,1.9450752569383938e-06,1.59022411376622e-05
100,4.272160502178494e-07,6.165857633818057e-07,1.088680584367436e-06,1.2520268585236174e-06,5.565967483149584e-06,4.753451340553408e-06,7.63531559481842e-06,4.352235084589247e-05,8.742421238433253e-07,1.271178345687726e-06,1.3414411538883805e-06,6.837549967503736e-06,1.3192382463955985e-05,3.269222624582218e-05,1.9579736167697104e-06,1.5935845112743355e-05
101,4.300539736821359e-07,6.274663076161651e-07,1.0849733734371633e-06,1.1936816107983384e-06,5.76958428413553e-06,4.7382444456247435e-06,7.2864337477431706e-06,4.209638708192531e-05,8.617367344847174e-07,1.2948418024783956e-06,1.3509726311849727e-06,7.55852937435706e-06,1.3201245512180475e-05,3.321067767525116e-05,1.964017248315405e-06,1.6060622718589254e-05
102,4.345499773117688e-07,6.412520997384928e-07,1.080972853463949e-06,1.1342174507593158e-06,6.0277983506257975e-06,4.702815763138237e-06,6.929131649618914e-06,4.052579682278787e-05,8.718053211591269e-07,1.3177782468922268e-06,1.3591528791855132e-06,8.313735550071338e-06,1.3196510275433217e-05,3.3625541051416124e-05,1.9635291649559756e-06,1.625813171592312e-05
103,4.406225057614773e-07,6.578942982600013e-07,1.0768174388693111e-06,1.074461168285106e-06,6.343538215899581e-06,4.646498244212039e-06,6.568707380386169e-06,3.884694814001598e-05,9.061934845797019e-07,1.3398284762987051e-06,1.3647097989945446e-06,9.096737128195984e-06,1.3176304330021713e-05,3.3939790400952874e-05,1.9569127551770647e-06,1.6512502297541374e-05
104,4.481718823897317e-07,6.772729994420807e-07,1.072572945885685e-06,1.0151392019683503e-06,6.7188143895271725e-06,4.569749171473434e-06,6.210798417013705e-06,3.7096709635741735e-05,9.665745637105329e-07,1.3609316858698436e-06,1.3665044500001497e-06,9.899681478111825e-06,1.3136941241026185e-05,3.415387711386276e-05,1.944668218623362e-06,1.6810452189191957e-05
105,4.571227291498264e-07,6.992099865827817e-07,1.0682419927894396e-06,9.568979636422968e-07,7.154518435035987e-06,4.474171099323057e-06,5.8607951723234435e-06,3.531140086503244e-05,1.0545471455980324e-06,1.3811795478349566e-06,1.3639010594153463e-06,1.0713090245539934e-05,1.3073874647960405e-05,3.426542746395193e-05,1.9275246982845787e-06,1.7140064804954617e-05
106,4.674580557354543e-07,7.23492800759453e-07,1.0637705912088042e-06,9.00277249199756e-07,7.650276131619514e-06,4.362203380888318e-06,5.523191210869518e-06,3.352604850961511e-05,1.1716562350990684e-06,1.400778360296324e-06,1.3569542719089078e-06,1.1525971779839259e-05,1.2982675676112898e-05,3.4270319980192444e-05,1.9064347585015635e-06,1.748897421509977e-05
107,4.791921146162453e-07,7.498776093824064e-07,1.059066057133475e-06,8.456744369909873e-07,8.204432679920553e-06,4.236717543363912e-06,5.201247123181027e-06,3.177359790878482e-05,1.3194453259081667e-06,1.4199733313538502e-06,1.3462838886440817e-06,1.2326180258719962e-05,1.285979435977137e-05,3.416355250929773e-05,1.882364971811736e-06,1.7843894619791027e-05
108,4.923038482343878e-07,7.780816731627823e-07,1.0540025964438744e-06,7.933559172641085e-07,8.814366340751085e-06,4.1007263308375114e-06,4.896946570276657e-06,3.0083734004542097e-05,1.4995590950040445e-06,1.4390602935592833e-06,1.3327753530050903e-06,1.3100674472323358e-05,1.2703017817330973e-05,3.394016456504843e-05,1.8560462019087629e-06,1.8192468191539294e-05
109,5.0668481658955e-07,8.078023595482432e-07,1.0483919757879515e-06,7.435369807314435e-07,9.477046208561445e-06,3.957197980797513e-06,4.611108939292226e-06,2.8481584595926335e-05,1.7137635679232129e-06,1.4583814856251924e-06,1.317325951118768e-06,1.3835372612889796e-05,1.251169138496304e-05,3.3597558927530015e-05,1.827907203425663e-06,1.8525505852081624e-05
110,5.221186466043054e-07,8.387270544663328e-07,1.041946553198122e-06,6.96522209997559e-07,1.018945249562984e-05,3.8088435156760478e-06,4.343620657306326e-06,2.6987911293661704e-05,1.9637851860573136e-06,1.47819649876085e-06,1.3007213637967319e-06,1.4514658044795792e-05,1.2286725534038097e-05,3.3138541916646e-05,1.7982374083662784e-06,1.8837079845904756e-05
111,5.382834408958909e-07,8.704932635032933e-07,1.034296161649364e-06,6.528618468078692e-07,1.0948597001993608e-05,3.6578527860011645e-06,4.0937293301490445e-06,2.562166414345067e-05,2.2511252955548234e-06,1.4985694660726895e-06,1.2835944977754806e-06,1.5121230642085637e-05,1.2030344295259064e-05,3.2571749665518116e-05,1.7673872244095451e-06,1.9122519044940587e-05
112,5.547904781582468e-07,9.026312779268673e-07,1.0250923446094916e-06,6.134140516720668e-07,1.1751169219212432e-05,3.505741189348265e-06,3.860308572715925e-06,2.4402810378440088e-05,2.577011388369367e-06,1.5194178889011993e-06,1.2664456459535865e-06,1.5637379008202087e-05,1.1745646346087783e-05,3.1908115547136055e-05,1.7358201770171628e-06,1.9377038009850537e-05
113,5.712745841591112e-07,9.345506188697245e-07,1.014121237485341e-06,5.792445185445172e-07,1.2593003465311052e-05,3.353438924378499e-06,3.6420833510512587e-06,2.3353011144467237e-05,2.942413189824697e-06,1.5406476065367424e-06,1.2497203062508976e-06,1.6047881532041307e-05,1.1436109456973135e-05,3.115741780941409e-05,1.7040717384870966e-06,1.959720172146394e-05
114,5.87491981172525e-07,9.655946951998816e-07,1.0013010024803883e-06,5.514731628544453e-07,1.3468576537764284e-05,3.20154526177356e-06,3.437882511482399e-06,2.24943910187988e-05,3.3479730012954664e-06,1.562189725330232e-06,1.2338475213144312e-06,1.6343157293232685e-05,1.1105013991783882e-05,3.0328835506424857e-05,1.6727901508531303e-06,1.978386184545254e-05
115,6.033462099136331e-07,9.951138106106406e-07,9.86593923269318e-07,5.312166588235655e-07,1.4370597046333066e-05,3.050583680423544e-06,3.246909372131579e-06,2.184779100859548e-05,3.7938176283199383e-06,1.5838885405683338e-06,1.2191942788994883e-06,1.652068488918628e-05,1.0754744550336919e-05,2.9433729181490336e-05,1.642851159306082e-06,1.9943337956993132e-05
116,6.188239223295911e-07,1.0224874924517507e-06,9.699858049705562e-07,5.196488758478929e-07,1.5289574229536136e-05,2.901142754675201e-06,3.068918320850395e-06,2.1431114845211864e-05,4.279342732142412e-06,1.605372508617246e-06,1.20604829411533e-06,1.6583629738491534e-05,1.0386356752248382e-05,2.8486934027618485e-05,1.6153516147332892e-06,2.0085536819907552e-05
117,6.339193210321994e-07,1.047137894350502e-06,9.515561342335034e-07,5.181124897174395e-07,1.6213296233946138e-05,2.753885242041751e-06,2.9042223581009495e-06,2.125807922574359e-05,4.803096234239259e-06,1.6260561539744638e-06,1.1946656887709254e-06,1.6537590484253715e-05,1.0000083270541024e-05,2.7505425593237076e-05,1.5914198962434916e-06,2.022057710083678e-05
118,6.486248570985567e-07,1.0686408561074057e-06,9.31516311368101e-07,5.281769020645326e-07,1.712650091098518e-05,2.6095317609725444e-06,2.7535505445863314e-06,2.1337671439617924e-05,5.362860190921639e-06,1.6453171232461312e-06,1.1852668356999908e-06,1.6388235601308312e-05,9.596790584684826e-06,2.6505347214515628e-05,1.5720366270094986e-06,2.0356657666244502e-05
119,6.62959209355625e-07,1.0868606470535829e-06,9.101563498959609e-07,5.515945361882807e-07,1.8011437037254802e-05,2.468921870410393e-06,2.617814890904088e-06,2.1674086677230615e-05,5.955954570264703e-06,1.6627422824414901e-06,1.177947288911788e-06,1.614189883672818e-05,9.179412807381478e-06,2.5499539149023696e-05,1.558001771968003e-06,2.0500199635275084e-05
120,6.769641476842027e-07,1.1019089050525889e-06,8.877685009856502e-07,5.90210414144987e-07,1.884985422311552e-05,2.333090081062267e-06,2.49787710920425e-06,2.2266692246185274e-05,6.579595727001834e-06,1.6782308171475709e-06,1.172605277821212e-06,1.5808078362783864e-05,8.753416242458516e-06,2.4497636414670186e-05,1.5499432124439291e-06,2.0656843164257425e-05
121,6.906732656436851e-07,1.113943684131613e-06,8.64626953972452e-07,6.458744205672062e-07,1.9625960804134756e-05,2.2032085838407597e-06,2.394433655529815e-06,2.3109984403635523e-05,7.230952665366349e-06,1.6918583262757425e-06,1.168939527742576e-06,1.540123797472362e-05,8.326283000244371e-06,2.350871099135796e-05,1.548268512649249e-06,2.083199748794601e-05
122,7.040860206045458e-07,1.123006138047177e-06,8.41000282108747e-07,7.203674115569239e-07,2.032889638768007e-05,2.0804012414073354e-06,2.308069766589353e-06,2.4193796920247752e-05,7.906738944968529e-06,1.7036355532683235e-06,1.1665106156604719e-06,1.4940604478628442e-05,7.906630020033724e-06,2.254410045449655e-05,1.553116169563798e-06,2.1030894967603587e-05
123,7.171424640625079e-07,1.1289975487223407e-06,8.171234227878774e-07,8.153476891447549e-07,2.0953421424963313e-05,1.9656069857972737e-06,2.239390249954059e-06,2.55038444292186e-05,8.602715440052257e-06,1.7133470477037733e-06,1.164899390908083e-06,1.4448425988384973e-05,7.503377026460774e-06,2.1618026478723797e-05,1.5643751078396451e-06,2.1258202415267665e-05
124,7.296908703609214e-07,1.1317680878818454e-06,7.931499754897678e-07,9.323186783329229e-07,2.1498725789829204e-05,1.8595785700653638e-06,2.189069903115493e-06,2.7022357089541425e-05,9.313572805363002e-06,1.7205374356164761e-06,1.1639292896673e-06,1.3947892922284947e-05,7.12498902828448e-06,2.074574945197051e-05,1.5817327220161029e-06,2.1517205959745397e-05
125,7.414864189199383e-07,1.1312152484130274e-06,7.691493869338174e-07,1.072631428180745e-06,2.196607784934877e-05,1.7629008391968183e-06,2.1577472276880974e-06,2.872843968457739e-05,1.0033133699597714e-05,1.7246236974087896e-06,1.163759275756488e-06,1.34615845075581e-05,6.778887149870921e-06,1.9940879831905474e-05,1.6046609035330065e-06,2.1809059602186024e-05
126,7.522805726466082e-07,1.1272902334405505e-06,7.451403252225362e-07,1.2375540472187086e-06,2.2356177691931177e-05,1.6759451357894125e-06,2.1458317190504593e-06,3.059789942193153e-05,1.075453213078322e-05,1.7250654813048777e-06,1.1647401794740905e-06,1.3010555079779476e-05,6.4712497134556014e-06,1.9213571938236e-05,1.6323518411918141e-06,2.2132656288092502e-05
127,7.619782009423573e-07,1.1199515970417997e-06,7.2114468442417e-07,1.428422511825563e-06,2.266758902422078e-05,1.5988336468257088e-06,2.153356962230933e-06,3.2602508349459936e-05,1.1470218493939979e-05,1.7214475760767212e-06,1.1672079698318827e-06,1.2613777833658676e-05,6.2071836853216706e-06,1.8570194635248067e-05,1.66372225143504e-06,2.248501202231335e-05
128,7.707157156776506e-07,1.1092215239155612e-06,6.97259839166193e-07,1.6468369224250421e-06,2.2897430492355543e-05,1.5314701931876884e-06,2.179935022768422e-06,3.470893114383249e-05,1.2171792523702471e-05,1.713391401689738e-06,1.1713918436327671e-06,1.2287730957974654e-05,5.991061823037228e-06,1.801397869210159e-05,1.6975199340556233e-06,2.2861457534047677e-05
129,7.787637447954548e-07,1.0953669632801295e-06,6.736874872481045e-07,1.894824149495612e-06,2.3043599254522072e-05,1.4736106035165535e-06,2.22480217328594e-06,3.6877651655141143e-05,1.2849721155209329e-05,1.7004659358325168e-06,1.1773873928099176e-06,1.204611261444981e-05,5.826914741193143e-06,1.754587149476988e-05,1.7324113831097537e-06,2.3255105344440755e-05
130,7.863602253034491e-07,1.0790113957553972e-06,6.506808312961381e-07,2.1748970579811855e-06,2.3106648252247816e-05,1.4249645952274155e-06,2.286936714967441e-06,3.906208820506314e-05,1.3493157155477602e-05,1.6822545004517473e-06,1.1851268863712152e-06,1.1899735861555386e-05,5.71879037413729e-06,1.7165057144855074e-05,1.7670084032565526e-06,2.365578838857117e-05
131,7.936285582697058e-07,1.0610289252831511e-06,6.284808129656917e-07,2.490001141954504e-06,2.3090360352101465e-05,1.3853151074584548e-06,2.365170741634564e-06,4.120843108692925e-05,1.4090211088692594e-05,1.6584547656810945e-06,1.194385623570683e-06,1.1856543752369285e-05,5.670907570917264e-06,1.6868817892800997e-05,1.7999820994764131e-06,2.4049426374733175e-05
132,8.00587565882928e-07,1.0423138125990055e-06,6.07295433097305e-07,2.8433932886424935e-06,2.3001298787104632e-05,1.3545779955655142e-06,2.45820652464483e-06,4.3257733136156e-05,1.462877004680942e-05,1.6289129785398175e-06,1.2048425703114273e-06,1.1921623222749308e-05,5.687517263009844e-06,1.6651871174064596e-05,1.8303029382068388e-06,2.441885594986345e-05
133,8.071963347562865e-07,1.0236175337870565e-06,5.872951932220781e-07,3.2384902220367713e-06,2.2848036860065675e-05,1.33273749635669e-06,2.5645629687959225e-06,4.515161601843786e-05,1.5097398539453116e-05,1.5936856921179414e-06,1.2161280322214762e-06,1.2097207106089165e-05,5.77257152576842e-06,1.650604386165765e-05,1.8574093098927213e-06,2.474602294634437e-05
134,8.134231902915215e-07,1.005516745792089e-06,5.686302327375692e-07,3.6786638288333243e-06,2.2640601526863462e-05,1.3197034347540541e-06,2.682540384067598e-06,4.684076153692422e-05,1.5485615265551677e-05,1.553160711815634e-06,1.2277843569566626e-06,1.2382685190937396e-05,5.9293523178089614e-06,1.642125790844533e-05,1.8811758723753794e-06,2.5014227454976388e-05
135,8.193004290495505e-07,9.88432564848563e-07,5.514875125431357e-07,4.166961901641276e-06,2.2390314369923462e-05,1.3152330287513696e-06,2.8102350918400904e-06,4.82930841350195e-05,1.5783438922379834e-05,1.5081131303033947e-06,1.239184752929475e-06,1.2774572576623862e-05,6.160241600044906e-06,1.638771709382007e-05,1.9017454608728474e-06,2.5209436115735026e-05
136,8.249047318199943e-07,9.726425404816314e-07,5.361270248319444e-07,4.705871690792494e-06,2.2109840724406367e-05,1.3189802675305659e-06,2.945620223960254e-06,4.949780224080894e-05,1.5981597175357577e-05,1.4595841903540081e-06,1.2495276452087806e-06,1.3266451529311927e-05,6.466766521470174e-06,1.6397925459226444e-05,1.9193257226029065e-06,2.5320814153213703e-05
137,8.30285779913268e-07,9.583033190499693e-07,5.22844523134723e-07,5.29729984397321e-06,2.1812900056087763e-05,1.3305489549981027e-06,3.086761446053434e-06,5.046263398451403e-05,1.6073920679235094e-05,1.4086332642097983e-06,1.257959903303422e-06,1.384896530494465e-05,6.849725077449745e-06,1.6447205782832676e-05,1.9340692464924263e-06,2.5340800496302675e-05
138,8.354194174261937e-07,9.454822075379529e-07,5.119087701657953e-07,5.942750591514475e-06,2.1513050153174842e-05,1.349430671028611e-06,3.232153041749767e-06,5.1204770500782764e-05,1.6060184983364105e-05,1.356137165701957e-06,1.2637483154289287e-06,1.4509962836606923e-05,7.3090541943730635e-06,1.6532576934531216e-05,1.9461015355180077e-06,2.526429211408878e-05
139,8.402062190626495e-07,9.341773250290488e-07,5.035356206457498e-07,6.643497019806564e-06,2.122182361161337e-05,1.3748968471423096e-06,3.380970802751145e-06,5.174136398036441e-05,1.5945827940886166e-05,1.3027671198726363e-06,1.2663426206715043e-06,1.5235043786112052e-05,7.843463713271877e-06,1.665083649787204e-05,1.955577413361624e-06,2.508657189073255e-05
140,8.44464261535631e-07,9.243298023580307e-07,4.978913331275481e-07,7.400572170377199e-06,2.094774513276854e-05,1.4059918790005601e-06,3.5330808823005023e-06,5.208596899496097e-05,1.5738844675958827e-05,1.2491192126267396e-06,1.2653769299467658e-06,1.6008527622126738e-05,8.450107534862163e-06,1.6796836394658966e-05,1.9626614783881436e-06,2.4801271903504942e-05
141,8.478952060422635e-07,9.158214198513846e-07,4.950997830925538e-07,8.214573600893403e-06,2.0697205955853285e-05,1.4416669080695235e-06,3.688889329447828e-06,5.225146083342618e-05,1.5447605749939585e-05,1.1958456832384892e-06,1.2607634904545738e-06,1.6814262113915772e-05,9.124395623549191e-06,1.6962683069522407e-05,1.9674728731300847e-06,2.4400590174277904e-05
142,8.500922863868355e-07,9.084744612921282e-07,4.952491933954214e-07,9.085407398400409e-06,2.047610750289249e-05,1.4809707107897044e-06,3.849183788639941e-06,5.2255148147181074e-05,1.5080911038074651e-05,1.143656255224606e-06,1.2527336607001424e-06,1.76357374897928e-05,9.859952826277185e-06,1.7138147017876542e-05,1.970020232128515e-06,2.3878087334727538e-05
143,8.506407478831752e-07,9.020873846946664e-07,4.983862675468075e-07,1.0012086956170178e-05,2.0290660364727474e-05,1.5231796168475154e-06,4.014999854462091e-06,5.2122581480360464e-05,1.464821798157074e-05,1.093220413192207e-06,1.2416658876507548e-06,1.845567899536849e-05,1.0648795166236596e-05,1.7311904628711662e-05,1.970144052968544e-06,2.323215776616231e-05
144,8.492539063924204e-07,8.964830495471507e-07,5.044910760232465e-07,1.0992599646739182e-05,2.0146874700638746e-05,1.5677732029850591e-06,4.1874771192122654e-06,5.18890085525536e-05,1.4158691899283441e-05,1.0451191845414153e-06,1.2279000389459338e-06,1.9255721361920993e-05,1.1481755280963181e-05,1.747301764797821e-05,1.967517587324024e-06,2.2468360592967926e-05
145,8.458573722853198e-07,8.915373748692588e-07,5.134562613014535e-07,1.2023785663786128e-05,2.004920109854331e-05,1.6142688501551837e-06,4.367670550411729e-06,5.1598420176248466e-05,1.3620167946425364e-05,9.998883803283641e-07,1.2117295321059005e-06,2.0016637594442063e-05,1.2349058805052888e-05,1.7612377573112543e-05,1.961698268037338e-06,2.1599797894391303e-05
146,8.405757125127334e-07,8.871803992388486e-07,5.250869880338906e-07,1.3101181333311236e-05,1.999907526245323e-05,1.6620538538030579e-06,4.556322363610486e-06,5.1300146347424e-05,1.3039401366119475e-05,9.580317849522963e-07,1.1934609416038603e-06,2.071914811773083e-05,1.3240713757482223e-05,1.7723857833962833e-05,1.952229454443859e-06,2.064536853299774e-05
147,8.336300534770292e-07,8.833591781389427e-07,5.391048130901727e-07,1.4218821317941995e-05,1.9993998490691956e-05,1.7102914888652577e-06,4.75365907098564e-06,5.104352787129721e-05,1.2423343966000035e-05,9.199736272549319e-07,1.1733872309676239e-06,2.1345001228550407e-05,1.4146261195828815e-05,1.7804699355027947e-05,1.9388408699078028e-06,1.9626523907727102e-05
148,8.252357729774326e-07,8.799993103955724e-07,5.551463404930721e-07,1.536901793278352e-05,2.002753515298396e-05,1.7578694722023637e-06,4.95924448837654e-06,5.087255247716439e-05,1.178027071482505e-05,8.86037646637173e-07,1.1517099125220083e-06,2.1878013756029684e-05,1.5054085560572635e-05,1.7854939983386316e-05,1.9216398619021596e-06,1.8563911146844322e-05
149,8.155796817557828e-07,8.77030182677012e-07,5.727741085485918e-07,1.654214527066682e-05,2.009052175206538e-05,1.803432224490948e-06,5.1718400539078276e-06,5.082276885051989e-05,1.1119974712182323e-05,8.564584655782168e-07,1.1285406440474276e-06,2.2304721968468965e-05,1.595133958054403e-05,1.7876234920011273e-05,1.901069463343039e-06,1.7475309063405048e-05
150,8.048383401112693e-07,8.744396693243267e-07,5.91507222088173e-07,1.7726426257376224e-05,2.0173460444616915e-05,1.845560284023177e-06,5.3892994564183e-06,5.092122478077649e-05,1.0452894437538823e-05,8.31391763574393e-07,1.1040348187130078e-06,2.261398590381305e-05,1.6825034369271042e-05,1.787044269259574e-05,1.877662017017217e-06,1.6375294350278443e-05
151,7.931902769697275e-07,8.722584251028717e-07,6.108619048505949e-07,1.8907565655714492e-05,2.0269146223822207e-05,1.883032536740786e-06,5.608655924076819e-06,5.11879598243876e-05,9.788733156465048e-06,8.10930627275014e-07,1.0785661244352107e-06,2.2795277275285693e-05,1.7663548332621645e-05,1.7838166911943567e-05,1.8518489416894124e-06,1.5275925446732893e-05
152,7.808431970470583e-07,8.70474818557579e-07,6.30393219773294e-07,2.0068249818304598e-05,2.037393187659396e-05,1.915059926167208e-06,5.8264562843070844e-06,5.163664112908577e-05,9.135525189471109e-06,7.951438197826392e-07,1.0527698840268435e-06,2.283719776233174e-05,1.845763061561883e-05,1.777785885789137e-05,1.823904323039618e-06,1.418757991855446e-05
153,7.680633245137476e-07,8.689656015341565e-07,6.497119379432963e-07,2.1188422316720258e-05,2.0486744383152025e-05,1.941424827340673e-06,6.039166918708557e-06,5.22732459380905e-05,8.49952309788896e-06,7.841167297247941e-07,1.0273934051353387e-06,2.2728639076537102e-05,1.9200579973755818e-05,1.768627766713984e-05,1.79391382784207e-06,1.3119618475373477e-05
154,7.551487094577105e-07,8.674805132464611e-07,6.684550121119616e-07,2.2247366857393607e-05,2.0606540940260645e-05,1.9624794064893804e-06,6.243452007564566e-06,5.3094205084697966e-05,7.885472027274118e-06,7.779339095817645e-07,1.0030954785761712e-06,2.246265962645119e-05,1.9887463465900397e-05,1.7559982654563e-05,1.7617755234430887e-06,1.2080927467507054e-05
155,7.423473054797545e-07,8.656889016122917e-07,6.862651345369249e-07,2.3227083734777904e-05,2.0729960652286947e-05,1.978983111882476e-06,6.436286454838472e-06,5.4085752124053815e-05,7.296872750317773e-06,7.765999241573818e-07,9.803595179106296e-07,2.2040465755563233e-05,2.0513433407713735e-05,1.7396558424954533e-05,1.7272945846610427e-06,1.1080543090505778e-05
156,7.29788988665749e-07,8.63279982867288e-07,7.028218959334086e-07,2.4115155353398093e-05,2.0850683385576655e-05,1.9918319575125887e-06,6.6150105584507526e-06,5.5224300422882004e-05,6.736230523454088e-06,7.799868286687458e-07,9.595434731154524e-07,2.1472979123119077e-05,2.1072225758649138e-05,1.7194945302825117e-05,1.6903119755730888e-06,1.0128424573223276e-05
157,7.174865399377842e-07,8.600229644922182e-07,7.178615802296921e-07,2.4905546526666767e-05,2.0960722368666314e-05,2.0018196944990453e-06,6.777467732193628e-06,5.647751027767516e-05,6.205361880266292e-06,7.878789942901495e-07,9.40976167141958e-07,2.0779214997060715e-05,2.155669140082551e-05,1.6955378512030993e-05,1.6507974873077845e-06,9.23606277338786e-06
158,7.054063009207369e-07,8.557165574601884e-07,7.311862579983122e-07,2.559687044704655e-05,2.1052721596672356e-05,2.0096263234922774e-06,6.922263044680321e-06,5.7806972854680714e-05,5.705727400637111e-06,8.000837937528178e-07,9.249918001643132e-07,1.9982406254948288e-05,2.1961694333145458e-05,1.667955907118994e-05,1.6089279620783547e-06,8.416488904760855e-06
159,6.935601623634548e-07,8.501226498073477e-07,7.427264526262003e-07,2.6188968941423177e-05,2.1121882247005737e-05,2.0160723443376562e-06,7.04900610004487e-06,5.9172866862054925e-05,5.238639794215009e-06,8.165054042355976e-07,9.118921970649677e-07,1.910582077199589e-05,2.2286947720567483e-05,1.6370955340278817e-05,1.5651172036619805e-06,7.683586157221379e-06
160,6.820518589005353e-07,8.430083529733019e-07,7.525770123727286e-07,2.6679905739870403e-05,2.1166052491754836e-05,2.022349940700421e-06,7.15834432119913e-06,6.053935500363422e-05,4.805214002112299e-06,8.371200404323573e-07,9.018988389418894e-07,1.8169938846805896e-05,2.2536835450410657e-05,1.603448550538806e-05,1.5199109836130263e-06,7.051067928072779e-06
161,6.710535865724813e-07,8.342679767589031e-07,7.609136714232356e-07,2.7065444788341862e-05,2.1183784559044457e-05,2.029942061379431e-06,7.251742877269791e-06,6.187888658626551e-05,4.406164371251575e-06,8.618852149087038e-07,8.951124583943944e-07,1.7191536244741105e-05,2.271731628453671e-05,1.5675136662674844e-05,1.4738539965278468e-06,6.531704610376058e-06
162,6.607415165402071e-07,8.240017081556372e-07,7.678842578195982e-07,2.7340958676181404e-05,2.1172775974520137e-05,2.0403407691220724e-06,7.331158748853323e-06,6.317361784438561e-05,4.04168908714338e-06,8.906566686097153e-07,8.914813849159861e-07,1.618423558431076e-05,2.2833362853613207e-05,1.5296262482824888e-05,1.4275087086879444e-06,6.137114756191072e-06
163,6.51234470031726e-07,8.124860920024191e-07,7.735957509137761e-07,2.750377789357995e-05,2.1130526810339963e-05,2.054862102105439e-06,7.3987591242327195e-06,6.441219280290262e-05,3.7115221829862358e-06,9.23162868848258e-07,8.907865094100599e-07,1.5159610427342281e-05,2.2889146655826457e-05,1.4898794232016474e-05,1.3815280847285094e-06,5.877902651340273e-06
164,6.425840558761093e-07,8.000695565764271e-07,7.781862303151387e-07,2.755446906511086e-05,2.1055195559903992e-05,2.0746100386783216e-06,7.456657097732412e-06,6.558295315715972e-05,3.4150917594560214e-06,9.59024849430455e-07,8.926506220489096e-07,1.4128067810786204e-05,2.288935279621738e-05,1.4481789879272975e-05,1.3365968570299e-06,5.7637576765500505e-06
165,6.348236842159931e-07,7.870711393286619e-07,7.819132617263293e-07,2.7496871569423196e-05,2.0944809880013193e-05,2.1004490564305933e-06,7.506530585614027e-06,6.667040423957193e-05,3.151744525722527e-06,9.977541489949549e-07,8.966177322436543e-07,1.3099260914190042e-05,2.283959636631572e-05,1.4043961872261634e-05,1.293316879089374e-06,5.803378540374124e-06
166,6.280083057107814e-07,7.737440483472191e-07,7.852050671752379e-07,2.7337205011113496e-05,2.079673339155034e-05,2.1329303292035363e-06,7.5491234919909956e-06,6.765965721927619e-05,2.9209870799947e-06,1.0387050737569141e-06,9.022961252152329e-07,1.2082169123971872e-05,2.2745980320586813e-05,1.3585357180952363e-05,1.2521858514441738e-06,6.004293939794091e-06
167,6.221892071331314e-07,7.60290090653733e-07,7.886361315972161e-07,2.7082538152844765e-05,2.0609017325853987e-05,2.172227765734347e-06,7.583874484330996e-06,6.854384214440003e-05,2.722639620385968e-06,1.0810418451680348e-06,9.094299370977178e-07,1.108502478210642e-05,2.2614735947100862e-05,1.3107925080012859e-05,1.2136564254506183e-06,6.372710918350628e-06
168,6.173646562458046e-07,7.468705959106873e-07,7.928323144659643e-07,2.673883829702399e-05,2.0382074807458055e-05,2.218139495848638e-06,7.608987338404101e-06,6.932817072912e-05,2.556792881282637e-06,1.1237513301161354e-06,9.178270443282092e-07,1.0115149974071592e-05,2.2452486290981947e-05,1.2614741951982918e-05,1.1782063421788435e-06,6.91348386728075e-06
169,6.13487744312247e-07,7.336257619068172e-07,7.983607283743684e-07,2.6309312689201848e-05,2.0118899590758608e-05,2.2701601225446586e-06,7.621990426403655e-06,7.002996539205657e-05,2.4235499223033413e-06,1.1656772633374826e-06,9.272781441413076e-07,9.178797860050781e-06,2.22667072155846e-05,1.210958625105589e-05,1.146351621048965e-06,7.630150704075477e-06
170,6.105429705408817e-07,7.207183739740721e-07,8.056566971599194e-07,2.5794672714664793e-05,1.982384014526145e-05,2.327584981107495e-06,7.620459604205841e-06,7.067570044363045e-05,2.3227189471897663e-06,1.2055958326282757e-06,9.375888296687145e-07,8.281158856355363e-06,2.2065290593393573e-05,1.1597599706301868e-05,1.118571294838443e-06,8.52488542558032e-06
171,6.086113266490899e-07,7.083353123861517e-07,8.149943544684256e-07,2.519591381318174e-05,1.950063835900291e-05,2.3895919174816426e-06,7.602488126447277e-06,7.12957644990228e-05,2.2536905377213104e-06,1.2423931245605914e-06,9.48661303499684e-07,7.426522929313983e-06,2.1854885367775484e-05,1.1085309392245454e-05,1.095246337890062e-06,9.598311154025011e-06
172,6.078530859581811e-07,6.96621654590827e-07,8.264754789387404e-07,2.4517484258704387e-05,1.915058827681813e-05,2.4552596064013367e-06,7.566738444278422e-06,7.191789902382981e-05,2.2155612621530744e-06,1.2753266224546239e-06,9.605144192020596e-07,6.618437357407508e-06,2.1639375523565755e-05,1.0579252604693766e-05,1.0766899427854076e-06,1.0849290156504704e-05
173,6.084393840307475e-07,6.856330508405618e-07,8.400234782592537e-07,2.3768187157464944e-05,1.8771939696716094e-05,2.52350553349287e-06,7.51225301398436e-06,7.256072828309923e-05,2.207398537458052e-06,1.3041792249495828e-06,9.732186183624154e-07,5.859783953761055e-06,2.1419951024223256e-05,1.0084732219434152e-05,1.063177797736638e-06,1.227483058626966e-05
174,6.105070269947669e-07,6.753714028742674e-07,8.553909759812073e-07,2.295919588398172e-05,1.836112733775654e-05,2.592968215978083e-06,7.438356080865098e-06,7.322986955823935e-05,2.2284988705355017e-06,1.3291191725252246e-06,9.868266555249961e-07,5.1528264645010635e-06,2.1196554291924156e-05,9.605740622740921e-06,1.0549214906211522e-06,1.3870065366139723e-05
175,6.141409359994863e-07,6.658531286655644e-07,8.721815733726005e-07,2.210079936093246e-05,1.791512857521638e-05,2.6619513795943414e-06,7.344828580707618e-06,7.39186250421583e-05,2.278465257138373e-06,1.3503961794753913e-06,1.0013794407760675e-06,4.499276277992424e-06,2.0969689144249857e-05,9.145636400392973e-06,1.0520543411671013e-06,1.5628133256673854e-05
176,6.193446210835107e-07,6.57127234693197e-07,8.898733242618879e-07,2.120059259992087e-05,1.743369358483655e-05,2.72857799420326e-06,7.232256392125339e-06,7.461239650199532e-05,2.35708761436541e-06,1.3681464830206185e-06,1.0169493991850222e-06,3.90032965695518e-06,2.0741829448499624e-05,8.707879983756272e-06,1.0546527076086528e-06,1.7539939618351434e-05
177,6.260041191559713e-07,6.492639105096728e-07,9.078362657561533e-07,2.0264386505552296e-05,1.6920563561264564e-05,2.791115083913308e-06,7.102308753787385e-06,7.529392050923523e-05,2.4643156727832733e-06,1.382368967441178e-06,1.0336461198429639e-06,3.356615321420551e-06,2.0517694082368078e-05,8.296225946726274e-06,1.062741276869602e-06,1.9593938426235767e-05
178,6.338835532495734e-07,6.423854720106935e-07,9.25368901144642e-07,1.9298411494459676e-05,1.6383348787961263e-05,2.848213654078987e-06,6.957766887025914e-06,7.59466484639135e-05,2.6004787078480984e-06,1.3930149706676461e-06,1.0515617428859456e-06,2.868097038244077e-06,2.0303083908180383e-05,7.914142185600114e-06,1.0762598928562863e-06,2.1775986618216064e-05
179,6.426822277529254e-07,6.367122968211779e-07,9.418117033295932e-07,1.8310912324402625e-05,1.583221516648314e-05,2.8988714042534144e-06,6.802283236499817e-06,7.655534178074654e-05,2.766487454282392e-06,1.400128123430198e-06,1.0706766114310107e-06,2.434028876882325e-06,2.0103060539343226e-05,7.564067520615527e-06,1.0950175466754641e-06,2.4069181727611515e-05
180,6.521458358451333e-07,6.325470548806374e-07,9.567158334016616e-07,1.731257246567495e-05,1.52778766464528e-05,2.9422150281601145e-06,6.6399868321320775e-06,7.710535673774884e-05,2.9637906861600255e-06,1.403933352553876e-06,1.0907858470777187e-06,2.0530025189876354e-06,1.9920787507113745e-05,7.247140596917876e-06,1.1186695658678145e-06,2.6453636221140274e-05
181,6.62151579118172e-07,6.301970239164868e-07,9.69923766073202e-07,1.631598377917552e-05,1.4729806639178173e-05,2.977390006326252e-06,6.475076428818891e-06,7.758299145305199e-05,3.194163620413838e-06,1.4048266716423861e-06,1.1115051511493086e-06,1.7230626206439392e-06,1.9757744758421045e-05,6.963386961121611e-06,1.146744062522232e-06,2.8906202045214442e-05
182,6.726827250030136e-07,6.298962876060526e-07,9.814857913997416e-07,1.533446629653929e-05,1.419574474289796e-05,3.003740180192571e-06,6.311450028132465e-06,7.797726747828494e-05,3.4594935990784368e-06,1.4033063281748988e-06,1.1323525610715187e-06,1.4418369881718048e-06,1.961498363873544e-05,6.71217752765324e-06,1.1787319804423951e-06,3.14001393174388e-05
183,6.837167168187526e-07,6.317780580639845e-07,9.914962705618022e-07,1.438058410783302e-05,1.3682554410697815e-05,3.0211716536636295e-06,6.152340878674798e-06,7.828052765861209e-05,3.7616448790494493e-06,1.399897361198408e-06,1.1528370520261046e-06,1.2066544514860812e-06,1.9494482945956643e-05,6.492609301139008e-06,1.2141746659902472e-06,3.390481298953735e-05
184,6.951260592062052e-07,6.358887716294977e-07,9.9996163025943e-07,1.3464816129099506e-05,1.3197066475623999e-05,3.030406622546312e-06,6.000037229833984e-06,7.848497635723558e-05,4.102367861840113e-06,1.3950828355936626e-06,1.1724823206225695e-06,1.014704255968983e-06,1.9399777976977106e-05,6.303413633384755e-06,1.2526401295872258e-06,3.638552809209554e-05
185,7.066526640649182e-07,6.421988645965178e-07,1.0067596278322849e-06,1.2594847183723852e-05,1.2745787562314339e-05,3.032897157506479e-06,5.855890643030089e-06,7.857692154616478e-05,4.483191492279297e-06,1.3892530217642322e-06,1.1908343660137584e-06,8.632209049565839e-07,1.9335737805675286e-05,6.142605381270668e-06,1.2936413143666572e-06,3.880310007851145e-05
186,7.179576744869576e-07,6.506028041807825e-07,1.0116823248426165e-06,1.177560017544439e-05,1.2333978112485019e-05,3.030408050249726e-06,5.720628052358142e-06,7.853503582430092e-05,4.905289238058923e-06,1.3827110172599914e-06,1.2075760923399243e-06,7.495342337040933e-07,1.9308091664693172e-05,6.007455140334239e-06,1.3366257293703373e-06,4.1112943122165605e-05
187,7.287275181700574e-07,6.609262620340687e-07,1.0145006289538128e-06,1.1009722648538673e-05,1.1965081520929292e-05,3.0244998337727792e-06,5.594704043432162e-06,7.83353896119742e-05,5.3692857884649585e-06,1.3757097265893807e-06,1.2226961644204392e-06,6.709775593461476e-07,1.93232885149794e-05,5.894943994424628e-06,1.3810119595403652e-06,4.326573703461598e-05
188,7.387897515753535e-07,6.72926453895504e-07,1.0150280414264402e-06,1.0298248118375237e-05,1.1640562711403898e-05,3.01616898355702e-06,5.4784703720387406e-06,7.79588905345789e-05,5.874969598257081e-06,1.3684597233810482e-06,1.2365027212645e-06,6.248272429893825e-07,1.938852975382294e-05,5.802342626881574e-06,1.4261976786062008e-06,4.5212360435080125e-05
189,7.481627078817264e-07,6.862913805012124e-07,1.013197753588386e-06,9.641299659596912e-06,1.1360125677977314e-05,3.0057144957788676e-06,5.372117623628912e-06,7.739633613266635e-05,6.4209925698021085e-06,1.3611195218427194e-06,1.2494419534390069e-06,6.083234598541124e-07,1.9511292650429257e-05,5.727477648078962e-06,1.4715876979113028e-06,4.691186966511298e-05
190,7.569979406066939e-07,7.00676929869079e-07,1.0091055042381095e-06,9.03862072133182e-06,1.1122633734680721e-05,2.992754378879274e-06,5.275463841348173e-06,7.664998590372401e-05,7.0046658400069395e-06,1.3537627658466967e-06,1.2619073850945873e-06,6.187253863932901e-07,1.969800267994213e-05,5.668503899534605e-06,1.5167364140143381e-06,4.8338008785920624e-05
191,7.654697624827759e-07,7.157737739861536e-07,1.0029630777851686e-06,8.489673302956615e-06,1.0927393160328177e-05,2.976374847770419e-06,5.1878188026003735e-06,7.573214759696968e-05,7.621885865995838e-06,1.3462941361615726e-06,1.2741621502634045e-06,6.533887150237775e-07,1.9952412856354055e-05,5.623456573897e-06,1.561522355164882e-06,4.948085753145562e-05
192,7.737024053780411e-07,7.313553988147954e-07,9.950286695643363e-07,7.993264425027496e-06,1.0775027054817197e-05,2.9554420470475646e-06,5.108181557822225e-06,7.466143298539506e-05,8.267179451788968e-06,1.3383883613271032e-06,1.2863174368087363e-06,7.09827227953493e-07,2.0274795481079848e-05,5.590117370073495e-06,1.6061363896911318e-06,5.034305247630533e-05
193,7.817647300689886e-07,7.472651347808769e-07,9.856142749981695e-07,7.546975268230706e-06,1.0667603295030042e-05,2.928996835961611e-06,5.035746449380685e-06,7.345758223401827e-05,8.933750537851204e-06,1.329564698443172e-06,1.2983136236951395e-06,7.857158394735141e-07,2.0662358638557416e-05,5.566351180054732e-06,1.65085031074896e-06,5.0932358386356764e-05
194,7.897034831963231e-07,7.633372625152168e-07,9.75110286501683e-07,7.146786474560201e-06,1.0608117595095636e-05,2.89656881139951e-06,4.970386753820639e-06,7.213566845151419e-05,9.613351869762537e-06,1.3193725835164978e-06,1.3099217773223855e-06,8.78849529214382e-07,2.1110096561788977e-05,5.5505693595150614e-06,1.6957620679333937e-06,5.125459786644615e-05
195,7.975629121742036e-07,7.793099024567014e-07,9.639129472303617e-07,6.787115572096465e-06,1.059964043073529e-05,2.8583136345736072e-06,4.912840896961626e-06,7.070099501111622e-05,1.0295987317811206e-05,1.307529941498555e-06,1.3207770698016278e-06,9.871064030208138e-07,2.1611184864896835e-05,5.541923131554303e-06,1.7406966552147912e-06,5.1311458412726755e-05
196,8.053766060517224e-07,7.947978380418812e-07,9.523054831388745e-07,6.461243505354166e-06,1.064440442277914e-05,2.8149788191609423e-06,4.8646143590463e-06,6.914785069889708e-05,1.0969745388146344e-05,1.2939373497567764e-06,1.3304799839595313e-06,1.10849191743112e-06,2.2156816414091153e-05,5.540017106033616e-06,1.7853117266491936e-06,5.110389367307246e-05
197,8.131804445092993e-07,8.093393031349081e-07,9.404027200001874e-07,6.162043170440828e-06,1.0742980251130473e-05,2.7677373029410165e-06,4.827722710151891e-06,6.746420455624587e-05,1.162123289682856e-05,1.2786501285217165e-06,1.3387852552652714e-06,1.2412730216864054e-06,2.2735945679325516e-05,5.544330598140067e-06,1.8293314700844988e-06,5.063744035850186e-05
198,8.210430755326535e-07,8.224907004136195e-07,9.281603380975333e-07,5.88289815916088e-06,1.0893713010673902e-05,2.7179581893781662e-06,4.8043235601973864e-06,6.563973294502097e-05,1.2236789804314326e-05,1.2618466667496517e-06,1.3457301511630834e-06,1.3840662667286047e-06,2.3335436500873908e-05,5.553976785245509e-06,1.8727290887518971e-06,4.992591154424399e-05
199,8.290546898001655e-07,8.339327458402007e-07,9.1542350540778e-07,5.618551468080188e-06,1.1092599570737773e-05,2.6670173116383434e-06,4.796316690679134e-06,6.367298837346702e-05,1.2803980523016085e-05,1.2437438250039704e-06,1.3515596726466943e-06,1.5357981944955316e-06,2.3940685570692943e-05,5.568128778426136e-06,1.9157384475100514e-06,4.8992315857957656e-05
200,8.373058822600055e-07,8.435392855562623e-07,9.020278964398286e-07,5.365546526958303e-06,1.133373344929404e-05,2.6162058518228732e-06,4.805123504819087e-06,6.15754129538955e-05,1.331257292636695e-05,1.2245323003821124e-06,1.3566093956779253e-06,1.6956356343951123e-06,2.4536491146519803e-05,5.586627800073278e-06,1.9587757994547455e-06,4.786727061260064e-05
201,8.459349748220412e-07,8.513533182108391e-07,8.879114201057413e-07,5.1221154630370496e-06,1.1610428925234624e-05,2.56671901482293e-06,4.831779741766481e-06,5.937131115285072e-05,1.3754625916568427e-05,1.2044289425674952e-06,1.361307164011854e-06,1.8629737522339849e-06,2.51080789795948e-05,5.610168764526278e-06,2.0024046382994797e-06,4.6586027130921374e-05
202,8.552012269287503e-07,8.574802831901707e-07,8.731356903510497e-07,4.887656165520154e-06,1.1916862478717123e-05,2.5196966832377636e-06,4.877190876073313e-06,5.709427725640261e-05,1.4123844063846645e-05,1.1837246970135497e-06,1.3661418893426955e-06,2.0374254953126615e-06,2.564231599502581e-05,5.6400683659154325e-06,2.0473028773939085e-06,4.518544510631852e-05
203,8.65464645285876e-07,8.620212509576827e-07,8.578083964875872e-07,4.662030498394611e-06,1.2249482288543482e-05,2.476293414442729e-06,4.942292850084935e-06,5.478194850096289e-05,1.4414691271720353e-05,1.1627021258118693e-06,1.3715032636375604e-06,2.2187266641328416e-06,2.612896210528426e-05,5.678039660328184e-06,2.094143126860767e-06,4.3701414881388136e-05
204,8.770622314896415e-07,8.651095734168779e-07,8.420360936908305e-07,4.444899668769548e-06,1.2607238974030724e-05,2.437705592499683e-06,5.0280282390991075e-06,5.247064261301932e-05,1.4621750944122978e-05,1.1415012592007652e-06,1.3775275868684312e-06,2.406570617452079e-06,2.656156740447815e-05,5.726184166661157e-06,2.143528581774045e-06,4.216629660230112e-05
205,8.901865739493273e-07,8.669395551006874e-07,8.259742265692755e-07,4.235393655926508e-06,1.2990364521721013e-05,2.4050786494777956e-06,5.13516987790076e-06,5.0190882294510725e-05,1.473925256964545e-05,1.120048615442091e-06,1.3840364768414857e-06,2.600433199041516e-06,2.6937540506208628e-05,5.786899864239396e-06,2.196146742344255e-06,4.0606259360936486e-05
206,9.048377024143919e-07,8.677296770900745e-07,8.098759518619825e-07,4.032287828090995e-06,1.3398555623567247e-05,2.379361530879044e-06,5.264024695755593e-06,4.796605124573355e-05,1.4760519846492356e-05,1.0980961060466296e-06,1.3905514137235105e-06,2.799431132147689e-06,2.7257179754133453e-05,5.862425011463434e-06,2.2529974867714376e-06,3.90396132331737e-05
207,9.208419892410809e-07,8.677109996653131e-07,7.940763612349448e-07,3.834464004157698e-06,1.3829954914899184e-05,2.361276855537027e-06,5.414114064087714e-06,4.581571849031848e-05,1.4678391261971048e-05,1.07536140981586e-06,1.396380637342886e-06,3.0023175402252643e-06,2.752211408508079e-05,5.954348629111297e-06,2.3154609377985257e-06,3.747724651295606e-05
208,9.37912416632124e-07,8.67157884593755e-07,7.789611337903677e-07,3.6413190239688116e-06,1.4281450762488963e-05,2.3513965674174695e-06,5.583969106347743e-06,4.376078660785304e-05,1.4487990957291914e-05,1.051683573205938e-06,1.4007723807615095e-06,3.2076747182956655e-06,2.773411171071958e-05,6.0635069656746315e-06,2.3851297331382625e-06,3.5924904196925175e-05
209,9.557076162793272e-07,8.6637415989848e-07,7.649358866712148e-07,3.4529540853379365e-06,1.4749559822750715e-05,2.350130937703409e-06,5.771045099017673e-06,4.1825859457836565e-05,1.4190639875665997e-05,1.0271191944447546e-06,1.4030466216335474e-06,3.414093003278456e-06,2.789487338743726e-05,6.190130419207529e-06,2.4634831143976245e-06,3.438628847473233e-05
210,9.73836126371201e-07,8.656190971529018e-07,7.523808021101914e-07,3.270050834804407e-06,1.5231104016705494e-05,2.3575841443612182e-06,5.9716916347246586e-06,4.003719859610153e-05,1.37957736033621e-05,1.001989921815664e-06,1.4026021606971476e-06,3.620100963455497e-06,2.800640964464857e-05,6.333946860001912e-06,2.551605530221814e-06,3.286598208252959e-05
211,9.918032214591917e-07,8.650387389885012e-07,7.416220861499626e-07,3.093470099845301e-06,1.5723456516394625e-05,2.373423336286514e-06,6.181314963885121e-06,3.841819377841136e-05,1.3319378453385557e-05,9.76867029946407e-07,1.398863308358504e-06,3.8240193744867275e-06,2.8070996927611065e-05,6.494195888526484e-06,2.65013402836106e-06,3.137110465599333e-05
212,1.0089541424925805e-06,8.6463015719677e-07,7.329286305125078e-07,2.9238848744609986e-06,1.6224322351005405e-05,2.3968483734930605e-06,6.3948939782955615e-06,3.698564302370232e-05,1.2780333115965303e-05,9.524531067855973e-07,1.3913404940384255e-06,4.0240162215289935e-06,2.8090112837742273e-05,6.669604081793419e-06,2.7594130465446887e-06,2.9911088113842495e-05
213,1.0244722259796947e-06,8.642325652249612e-07,7.264975008854638e-07,2.761699053629199e-06,1.6731135291825407e-05,2.4266340633459035e-06,6.607640629883512e-06,3.574844118067612e-05,1.2197048501521017e-05,9.294289857887335e-07,1.379776320353759e-06,4.218190545532345e-06,2.8062670376773187e-05,6.858341721868155e-06,2.879645470373132e-06,2.8496209600610163e-05
214,1.0374736850529596e-06,8.635778367220134e-07,7.224520234831008e-07,2.6070851097280664e-06,1.7240300458273002e-05,2.4612814345424507e-06,6.815440855930176e-06,3.470808309022159e-05,1.1585692152192596e-05,9.083648210694574e-07,1.364156680313948e-06,4.404474152985463e-06,2.7983835369271698e-05,7.0579502138151715e-06,3.010855240729857e-06,2.7136171373954597e-05
215,1.0471903413781821e-06,8.62402713807153e-07,7.208984144514066e-07,2.459923936311112e-06,1.7746474350875673e-05,2.4993149210830136e-06,7.0150198060313765e-06,3.38602598508066e-05,1.0959853600009046e-05,8.896874738630572e-07,1.3445771444860227e-06,4.580651956417297e-06,2.784600841398299e-05,7.265273755488207e-06,3.1526849721493904e-06,2.5839357020570715e-05
216,1.0531524661477355e-06,8.605287246196415e-07,7.219977195742148e-07,2.3197805503137526e-06,1.8241973455651533e-05,2.539534500449335e-06,7.204037212911927e-06,3.319663652118341e-05,1.0330966401464601e-05,8.736664912443037e-07,1.3212023015299054e-06,4.744749172431883e-06,2.764203644163998e-05,7.476599762937443e-06,3.304187251490572e-06,2.4612260919261817e-05
217,1.055267470599615e-06,8.578515439766916e-07,7.259726765728922e-07,2.186106336311199e-06,1.8716259627418544e-05,2.580999892329864e-06,7.381235738976182e-06,3.2705513330587096e-05,9.708899385810287e-06,8.604216558190322e-07,1.29438540241649e-06,4.895461572678191e-06,2.7368546191500014e-05,7.688302317226334e-06,3.4637053493520584e-06,2.3458638648608097e-05
218,1.0537419940652375e-06,8.543168589480239e-07,7.330374000114231e-07,2.0586028502071487e-06,1.9155572332735975e-05,2.622775783794622e-06,7.546534406349635e-06,3.237196707961366e-05,9.102367528120664e-06,8.499502087664152e-07,1.2647464712829347e-06,5.032233258303558e-06,2.7027103244086244e-05,7.89794064955026e-06,3.628835454895583e-06,2.237957858803189e-05
219,1.0488893156610894e-06,8.499621277032268e-07,7.433151867626419e-07,1.9375466724876656e-06,1.9543663733368457e-05,2.6636238746478356e-06,7.700886654732283e-06,3.2179364790238155e-05,8.519092838886355e-06,8.421513538313331e-07,1.2330866730614719e-06,5.154990496953648e-06,2.662274078589254e-05,8.10514653566266e-06,3.7964414642054375e-06,2.137573840643277e-05
220,1.0409729571905633e-06,8.449676665476816e-07,7.568061172338126e-07,1.823884575703484e-06,1.986475769270654e-05,2.701810549906033e-06,7.845903658382994e-06,3.21113700513795e-05,7.965850892531603e-06,8.368231532867003e-07,1.2002555629677063e-06,5.263804179284895e-06,2.6161286489622555e-05,8.311585835301176e-06,3.96268997586457e-06,2.0450382979231752e-05
221,1.0301934189453268e-06,8.396180337082122e-07,7.73396372977624e-07,1.7190213511375417e-06,2.0107907977688057e-05,2.7351082671166376e-06,7.983465390642132e-06,3.215151876778852e-05,7.448501174299494e-06,8.336364630113165e-07,1.1670891676633767e-06,5.358731435142601e-06,2.5647405448270647e-05,8.519980481760468e-06,4.123144246019503e-06,1.961112239869596e-05
222,1.0167639238077705e-06,8.341983837043157e-07,7.928760781010782e-07,1.6244531711802672e-06,2.027005310874904e-05,2.7609834103356077e-06,8.115485265367514e-06,3.228068422427536e-05,6.971976676578987e-06,8.321380261780385e-07,1.1343747432894156e-06,5.439870730596217e-06,2.508431285997065e-05,8.7328188084034e-06,4.273110703280197e-06,1.8870237883761928e-05
223,1.0009950140044096e-06,8.289392389221344e-07,8.149665338811184e-07,1.541512732849124e-06,2.035558102739766e-05,2.776929624526116e-06,8.243685595525293e-06,3.247627720981444e-05,6.540223697046911e-06,8.318215254667371e-07,1.1027778680671384e-06,5.507435783081972e-06,2.447479407477801e-05,8.951538070822239e-06,4.408305769399012e-06,1.8244353446823235e-05
224,9.833601190867186e-07,8.240438139705803e-07,8.393462785766352e-07,1.4713610146473462e-06,2.0372772402474707e-05,2.7808880341045877e-06,8.369155580433487e-06,3.2715199339483154e-05,6.156152570311413e-06,8.322187840039474e-07,1.0727664617038273e-06,5.561630011643109e-06,2.3822550262542688e-05,9.176570450845381e-06,4.525532551893472e-06,1.775342259423666e-05
225,9.645005339723538e-07,8.197162590738583e-07,8.65634875254672e-07,1.4151575503603439e-06,2.033009190523676e-05,2.771654365497317e-06,8.491824947479367e-06,3.2978492230258054e-05,5.82165154269614e-06,8.329382312618793e-07,1.0445835890222757e-06,5.602289748846683e-06,2.3133110223704235e-05,9.40789192166805e-06,4.623019337017841e-06,1.7418754126185636e-05
226,9.451424916910542e-07,8.1612111493316e-07,8.933524191587e-07,1.3742421508523186e-06,2.0235104871544342e-05,2.7491051197468888e-06,8.610230514902697e-06,3.3254916880462406e-05,5.537677757099883e-06,8.336704641037985e-07,1.0182724322525795e-06,5.6284681070133365e-06,2.2414085946064446e-05,9.645404156307198e-06,4.700372361039353e-06,1.726062266982423e-05
227,9.259862817781108e-07,8.133054695710427e-07,9.219221105036199e-07,1.350219012917344e-06,2.0095768760222188e-05,2.714090786331296e-06,8.721635459175883e-06,3.3542487043684414e-05,5.304416513997344e-06,8.342255158944117e-07,9.937476801032851e-07,5.6381638291355e-06,2.1674855287385748e-05,9.888865997440959e-06,4.758205310131672e-06,1.729666094605004e-05
228,9.07661597604006e-07,8.111523586786441e-07,9.507231882031166e-07,1.3449497966667621e-06,1.9921975850953505e-05,2.6680438563975947e-06,8.822227604065995e-06,3.384776246725157e-05,5.121447251651841e-06,8.345859730853259e-07,9.709129207214319e-07,5.628361843029659e-06,2.092579885108556e-05,1.013759588701765e-05,4.797514026546105e-06,1.7541687211063713e-05
229,8.907515979634746e-07,8.093831043366742e-07,9.791528513312388e-07,1.3604894913861914e-06,1.9726167231159e-05,2.6125676903711818e-06,8.907267281415385e-06,3.418263268588788e-05,4.987809456700262e-06,8.348996252109986e-07,9.497949240818582e-07,5.595592927762457e-06,2.0177304101642505e-05,1.039043533332186e-05,4.819130898564384e-06,1.8008474335837394e-05
230,8.757985347772865e-07,8.076084732955894e-07,1.006682636433176e-06,1.3989841807591902e-06,1.9523049138458597e-05,2.549259191271268e-06,8.971347323814467e-06,3.455948559629663e-05,4.901917859405877e-06,8.354103857147159e-07,9.30627342731381e-07,5.537013364147958e-06,1.943883667817295e-05,1.0646326639134033e-05,4.823675771243159e-06,1.870857668418568e-05
231,8.632509721992344e-07,8.054486020426601e-07,1.0329078857900151e-06,1.462581607427856e-06,1.932859256950279e-05,2.479779423911135e-06,9.008997620602778e-06,3.4987715825715084e-05,4.861396174977653e-06,8.364061016898972e-07,9.138352102569574e-07,5.451482906841102e-06,1.87182141738102e-05,1.090524031889777e-05,4.811921337379863e-06,1.965269925372699e-05
232,8.534082318772417e-07,8.026867553394047e-07,1.0575538624200576e-06,1.5533864751824032e-06,1.915849274217276e-05,2.4059597250615376e-06,9.0156683452902e-06,3.5473428102916876e-05,4.862944234101028e-06,8.381968218405531e-07,8.999383699450982e-07,5.3399889394145035e-06,1.802099867324058e-05,1.1168683268864013e-05,4.785117395329903e-06,2.08504637012013e-05
233,8.464053181901023e-07,7.993452591789575e-07,1.0803999207028283e-06,1.6734154768933739e-06,1.9026465739983916e-05,2.329733940875675e-06,8.988780628897367e-06,3.602030014358666e-05,4.90227441079863e-06,8.410968971102097e-07,8.894478764626646e-07,5.2052804807888505e-06,1.734990121076352e-05,1.1439379989716427e-05,4.7450398986581116e-06,2.2309683775483963e-05
234,8.422209500846759e-07,7.956169342147308e-07,1.1011654977045356e-06,1.824542480029278e-06,1.8942875849943128e-05,2.2529298844254503e-06,8.928336451342377e-06,3.662912818098974e-05,4.974072923731057e-06,8.454198468688983e-07,8.828370410339022e-07,5.0511043497424254e-06,1.6704307274070423e-05,1.1720576805635407e-05,4.69382759045578e-06,2.403540872140858e-05
235,8.407148095576866e-07,7.917164754274242e-07,1.1194679411159913e-06,2.0084861963176664e-06,1.8914051844994076e-05,2.1771498084337814e-06,8.836760019059133e-06,3.729642844955041e-05,5.0719754357746724e-06,8.514708357871297e-07,8.805676891408875e-07,4.881511594190241e-06,1.6080445562181265e-05,1.201563836343413e-05,4.63373244114497e-06,2.602895503469837e-05
236,8.417067478149681e-07,7.877833465196713e-07,1.134894355597867e-06,2.226799234631941e-06,1.894220629476389e-05,2.1038189801942555e-06,8.718091004627842e-06,3.80135735392574e-05,5.188624159379256e-06,8.595384030227833e-07,8.830719011415718e-07,4.700432095018232e-06,1.5472543308977662e-05,1.232794363243907e-05,4.566912823814873e-06,2.828700294674999e-05
237,8.45031190531413e-07,7.839060592022981e-07,1.1471126129739602e-06,2.480777337290949e-06,1.9025535687575134e-05,2.034240668302557e-06,8.57695986722902e-06,3.876700590583239e-05,5.315868061383807e-06,8.699036915885193e-07,8.906869991206795e-07,4.511412209514803e-06,1.4874376695284974e-05,1.2660513724973066e-05,4.4953261093809045e-06,3.0800758347159486e-05
238,8.505114580172434e-07,7.802174519255009e-07,1.1559323686699566e-06,2.7713259830369454e-06,1.9158290522645185e-05,1.9695921809233982e-06,8.417657489622255e-06,3.953922212059849e-05,5.445110848874519e-06,8.82827954562251e-07,9.036150975871503e-07,4.317387015421291e-06,1.428039985589036e-05,1.301509941803183e-05,4.4206030523071055e-06,3.3555391660622486e-05
239,8.579164789060699e-07,7.769524224361937e-07,1.1612946503712288e-06,3.098843211803157e-06,1.9331044842858835e-05,1.9109931703160627e-06,8.24341476444285e-06,4.031016237475749e-05,5.567832176188312e-06,8.985225572279043e-07,9.219126545147314e-07,4.120590104458345e-06,1.3686381169287815e-05,1.339113830139627e-05,4.343829016745391e-06,3.653003435509515e-05
240,8.669761604926418e-07,7.74409155968048e-07,1.1632250092838942e-06,3.463127989807367e-06,1.95316435580751e-05,1.8596869117383824e-06,8.056087443273568e-06,4.10589874440987e-05,5.676323727130481e-06,9.171564159119068e-07,9.454912711825967e-07,3.9227037316921155e-06,1.3089888192631998e-05,1.3785072528673601e-05,4.265391995283898e-06,3.969797874852593e-05
241,8.774190221489047e-07,7.728483887800323e-07,1.1617928739442343e-06,3.863337156125709e-06,1.9747117404833186e-05,1.8171723621005295e-06,7.85632692918175e-06,4.1766223825813155e-05,5.76446383798583e-06,9.388733394810397e-07,9.7414463753528e-07,3.725104922826858e-06,1.2490671569560473e-05,1.4190073626880923e-05,4.1850031859933915e-06,4.3026169242041264e-05
242,8.889545305380554e-07,7.724088612406131e-07,1.1570765043988843e-06,4.29796845660291e-06,1.9966067697728294e-05,1.7851381297533676e-06,7.6439691179024e-06,4.241583036008898e-05,5.828026445541157e-06,9.637873537784247e-07,1.0076022729481863e-06,3.5290468251316013e-06,1.1890689163623148e-05,1.4596055050655409e-05,4.101878966262166e-06,4.6473760501718126e-05
243,9.012203857303161e-07,7.730759262038716e-07,1.1491056034884903e-06,4.764791035410029e-06,2.0180269763974993e-05,1.765247468982577e-06,7.418453695065902e-06,4.299658209190922e-05,5.864159989522647e-06,9.919990354706286e-07,1.0455841630997576e-06,3.3357259105591454e-06,1.1293709003092507e-05,1.4990101423475157e-05,4.01518585401992e-06,4.999130145953279e-05
244,9.137697972585415e-07,7.746873979767249e-07,1.137818017353675e-06,5.260712789594283e-06,2.038451676314731e-05,1.758941406440322e-06,7.1793620717895105e-06,4.350225769929564e-05,5.8704944191611854e-06,1.0236123972269991e-06,1.0878242244964473e-06,3.146212800768561e-06,1.0704816538433954e-05,1.5357758962382635e-05,3.924619826800965e-06,5.352341295272442e-05
245,9.261087463988552e-07,7.769829110508973e-07,1.1231187477117286e-06,5.781639714000349e-06,2.057490022761443e-05,1.7673576826286505e-06,6.927099821934096e-06,4.3929742352939746e-05,5.844849380425463e-06,1.0586922497109398e-06,1.1340383308808588e-06,2.961343156682976e-06,1.0130111224390315e-05,1.568549659097601e-05,3.830623411452364e-06,5.7016308774987855e-05
246,9.377635041087465e-07,7.797200719038854e-07,1.1050331040934949e-06,6.3223379725255735e-06,2.0746687902597696e-05,1.7913336338185534e-06,6.663506572639661e-06,4.4275070308330276e-05,5.785867102598013e-06,1.0972074878467903e-06,1.183888024246071e-06,2.7817349034983913e-06,9.57650602314208e-06,1.596359427855262e-05,3.7340449759628037e-06,6.0426479897400715e-05
247,9.483796838309205e-07,7.827961631143115e-07,1.0838247000459294e-06,6.876294184342366e-06,2.089283362855152e-05,1.8314060477326633e-06,6.392049620339374e-06,4.453075169607108e-05,5.693994725572462e-06,1.139008058135367e-06,1.237025151597877e-06,2.6079173789590965e-06,9.051370029957665e-06,1.6187773661941483e-05,3.6355760725754577e-06,6.372355138676799e-05
248,9.578133074795198e-07,7.862614942162111e-07,1.059986717359854e-06,7.435706982743079e-06,2.1003258520022547e-05,1.8877662193000565e-06,6.117435348984452e-06,4.4687665075713985e-05,5.572004980595698e-06,1.1838059550207467e-06,1.2931613425161149e-06,2.4404227901439294e-06,8.56188539592721e-06,1.6358664105808392e-05,3.5353803638138387e-06,6.688472804917443e-05
249,9.661376828580764e-07,7.902120284812006e-07,1.034154796059407e-06,7.991811378524845e-06,2.1064886253969948e-05,1.960208699150475e-06,5.844815461519779e-06,4.4739727903604043e-05,5.4245185538870605e-06,1.2311614429300297e-06,1.352026967404319e-06,2.2797964739626546e-06,8.114278495711503e-06,1.6479885943656127e-05,3.4330974607616612e-06,6.988528122703096e-05
250,9.735614039291335e-07,7.946668005852841e-07,1.0070356566959886e-06,8.535537682814298e-06,2.1063024685981356e-05,2.0481219002647585e-06,5.578978060032025e-06,4.468743746701659e-05,5.256821096510906e-06,1.28052621163254e-06,1.4132346767635617e-06,2.1265796463051637e-06,7.713362792440877e-06,1.655600489770144e-05,3.3281469905862357e-06,7.26909884880393e-05
251,9.803441333667884e-07,7.995088894899527e-07,9.7935514796154e-07,9.05829793754668e-06,2.0984287762597867e-05,2.1505076064900766e-06,5.323944634357273e-06,4.453845536173071e-05,5.073939082705495e-06,1.3313236696569461e-06,1.4761881405954336e-06,1.9812666022957303e-06,7.362626082649395e-06,1.6590814007784797e-05,3.2201152869676124e-06,7.525631824598237e-05
252,9.867706276582514e-07,8.044769681497767e-07,9.517797473466166e-07,9.552713204815531e-06,2.0820050850159218e-05,2.2659825410494613e-06,5.083073553753508e-06,4.4304713717536184e-05,4.880339061302177e-06,1.382971294515696e-06,1.540089153155212e-06,1.8442393320739712e-06,7.064586616636998e-06,1.6586072445930697e-05,3.109033356937744e-06,7.752942018294326e-05
253,9.931364612117526e-07,8.09174889594678e-07,9.248279844617122e-07,1.0013198067568857e-05,2.056891909875222e-05,2.3927565143997142e-06,4.8593196468326195e-06,4.3997301220737846e-05,4.679816167052038e-06,1.4349017943348037e-06,1.6039947998119597e-06,1.7157712293717355e-06,6.821097128308223e-06,1.6541341348387083e-05,2.9954876017423437e-06,7.946115501933047e-05
254,9.996860454354376e-07,8.131029640101221e-07,8.988271610137837e-07,1.0436282903608073e-05,2.0237028673511092e-05,2.528652708924445e-06,4.65533966732942e-06,4.36237451879889e-05,4.475362151324129e-06,1.486702078968445e-06,1.6669279644237997e-06,1.5960879404697024e-06,6.633436873497298e-06,1.64552023125958e-05,2.8806368232368616e-06,8.10133177607086e-05
255,1.006549302806108e-06,8.157696775836006e-07,8.739439851893102e-07,1.0820415418679827e-05,1.9836013059519887e-05,2.671209553781571e-06,4.4734105065406425e-06,4.3190911297840315e-05,4.269154922080369e-06,1.5382493931498516e-06,1.728002632912999e-06,1.4853521298673616e-06,6.502122931397447e-06,1.6326879058329857e-05,2.766206016396764e-06,8.216255826097457e-05
256,1.0137339415921814e-06,8.16906264327391e-07,8.502754137118288e-07,1.1165016351425118e-05,1.9379659016491252e-05,2.817800254028675e-06,4.315211817607168e-06,4.271021089771853e-05,4.062741934555476e-06,1.5897007354174346e-06,1.7863999468359243e-06,1.3836337645630576e-06,6.426708149507057e-06,1.6157172597897872e-05,2.6543975415046544e-06,8.289904771765281e-05
257,1.0211259424685392e-06,8.166384157535877e-07,8.279440144192673e-07,1.1469122015103789e-05,1.888072556767669e-05,2.965718397010986e-06,4.181590839800375e-06,4.2199678133566994e-05,3.85729904377073e-06,1.641391974559142e-06,1.8411777815325699e-06,1.2909742194102773e-06,6.405901024754939e-06,1.5948694143321026e-05,2.5476533531702924e-06,8.322027369231163e-05
258,1.0284624493164532e-06,8.154580493567412e-07,8.071499596738698e-07,1.1730669111378664e-05,1.8349042765867253e-05,3.1122714943997157e-06,4.072442276182295e-06,4.16814569594012e-05,3.6537228311189215e-06,1.693716866830236e-06,1.8911225908780403e-06,1.2074412590829706e-06,6.437887820885635e-06,1.5706033664378104e-05,2.44837237936104e-06,8.312236379254819e-05
259,1.035335362056341e-06,8.140477158049669e-07,7.881767467255493e-07,1.1947034671602943e-05,1.7791270710810576e-05,3.2549144840573344e-06,3.9867072977688814e-06,4.1177043585063715e-05,3.45265095681257e-06,1.746986037232128e-06,1.9348321998469526e-06,1.1331763401944306e-06,6.5205971320368485e-06,1.5436193665028807e-05,2.358718856357322e-06,8.259639924966221e-05
260,1.0412584241443599e-06,8.131196483177448e-07,7.713538616571995e-07,1.2116172327986883e-05,1.721197009892956e-05,3.3913820067305773e-06,3.922437873818862e-06,4.070345308009583e-05,3.254753532000548e-06,1.8012875083105896e-06,1.9710050907269862e-06,1.0685350551744704e-06,6.651931964181805e-06,1.5148724186767431e-05,2.2805108111023135e-06,8.163551750673835e-05
261,1.0457264423420912e-06,8.133360103101818e-07,7.569827864186846e-07,1.2237485072130603e-05,1.6615389072043134e-05,3.5197784125931354e-06,3.876961341492681e-06,4.027170905975475e-05,3.061168639756557e-06,1.8564127900871738e-06,1.9986713735176035e-06,1.0141658656185114e-06,6.8300813818872265e-06,1.4854764566574933e-05,2.215141106436886e-06,8.024676546483926e-05
262,1.0482173491792401e-06,8.15266816532484e-07,7.452736534481731e-07,1.2312191446496541e-05,1.600740437980588e-05,3.6386343922776553e-06,3.847195101467905e-06,3.9886721003788504e-05,2.8736279516496456e-06,1.911874076044205e-06,2.017146228404073e-06,9.708791020093471e-07,7.053887794219145e-06,1.4565588660574667e-05,2.163534436669191e-06,7.845670029874049e-05
263,1.0482365103886747e-06,8.193496529537543e-07,7.363460718749794e-07,1.2343193873512673e-05,1.539694205264854e-05,3.746939196817569e-06,3.830026340787707e-06,3.954697567227839e-05,2.694139786406619e-06,1.9669811398472623e-06,2.0258633410714797e-06,9.394641198226487e-07,7.32313785381764e-06,1.4292195411636147e-05,2.126136157322986e-06,7.630675444799603e-05
264,1.0454685348769616e-06,8.258679504894458e-07,7.302796653197302e-07,1.2334569515216329e-05,1.4796287643663798e-05,3.844111218618872e-06,3.822612879124432e-06,3.924387483705429e-05,2.5245180720760323e-06,2.02095950298779e-06,2.0244241588640962e-06,9.20624204706101e-07,7.638597796321036e-06,1.4045942653968306e-05,2.1029387174592744e-06,7.38422901382847e-05
265,1.039886117486449e-06,8.349645336695617e-07,7.271435370691799e-07,1.2290956917228192e-05,1.4220175509841343e-05,3.929845664913154e-06,3.822516502606006e-06,3.896220983899797e-05,2.3660976181529777e-06,2.073072286961233e-06,2.012862068152081e-06,9.150066730133015e-07,8.001697792072064e-06,1.3838809941363227e-05,2.093569145998356e-06,7.110351251601036e-05
266,1.0316832247339567e-06,8.466645261233281e-07,7.269807926117914e-07,1.221701905258199e-05,1.3684034426417454e-05,4.00381379022382e-06,3.827591916696732e-06,3.868288027103501e-05,2.219679998502736e-06,2.1226824794908286e-06,1.9917941238867394e-06,9.232620983768447e-07,8.413995921375944e-06,1.3682824496783014e-05,2.0973991920328154e-06,6.812415394641417e-05
267,1.0211292887069555e-06,8.608698643339274e-07,7.297842606507797e-07,1.2116874923388429e-05,1.3202180538559463e-05,4.065332072616016e-06,3.835654832019153e-06,3.8387213059058565e-05,2.085568211014062e-06,2.169275122857289e-06,1.962326100905885e-06,9.461592938150711e-07,8.876631355782167e-06,1.3589234971877884e-05,2.113591870539641e-06,6.493593260355607e-05
268,1.0085046106501231e-06,8.773442926893203e-07,7.354725047244756e-07,1.1993432529438449e-05,1.2786929538783001e-05,4.1132616129169345e-06,3.844231318396315e-06,3.806150865198074e-05,1.9636298044510893e-06,2.2124671704963098e-06,1.9258939523157846e-06,9.8479709812744e-07,9.389796613412479e-06,1.356780307976254e-05,2.1410774749029726e-06,6.157346653590698e-05
269,9.941373535714972e-07,8.957250065267256e-07,7.438614774764666e-07,1.1848177232024084e-05,1.2448900289487903e-05,4.14623204421326e-06,3.8506787481682765e-06,3.7700770918267064e-05,1.853371293889107e-06,2.2519522164557237e-06,1.8841753259297464e-06,1.0407702606612676e-06,9.952238327041743e-06,1.3626495383569489e-05,2.1785704426337817e-06,5.807750383599782e-05
270,9.784399925227356e-07,9.155392710067112e-07,7.546574651704856e-07,1.1682049402132949e-05,1.219778119074252e-05,4.1629811357657835e-06,3.852528502915148e-06,3.731105598396163e-05,1.7539935263662597e-06,2.2874211743112925e-06,1.838984372135207e-06,1.1161071079424504e-06,1.0561033752594086e-05,1.3771970461799841e-05,2.224699523686961e-06,5.449580261976377e-05
271,9.618693335178606e-07,9.362089654361406e-07,7.674875835142759e-07,1.1496952001891254e-05,1.204284682246741e-05,4.162657655437018e-06,3.8477242611575865e-06,3.6910276541718694e-05,1.6644241253178487e-06,2.3185769581163592e-06,1.7920691565704637e-06,1.2130834318819729e-06,1.1211775647068528e-05,1.4010425712719808e-05,2.278152121974702e-06,5.088014275213373e-05
272,9.448576141927696e-07,9.570714601292118e-07,7.819350396286117e-07,1.1296728596614708e-05,1.199310348471551e-05,4.145174040458849e-06,3.834713069022809e-06,3.6527293374816646e-05,1.583324126529731e-06,2.345194740764089e-06,1.7449113391556791e-06,1.3341384003247006e-06,1.1898826933427934e-05,1.4347606505411186e-05,2.3376665771184816e-06,4.7280203593844327e-05
273,9.277986064469046e-07,9.774136471389026e-07,7.975465382363899e-07,1.1087054135861466e-05,1.2057162341770347e-05,4.111624157514942e-06,3.8125307888830007e-06,3.6199104902638236e-05,1.5091058781845588e-06,2.3671127234838128e-06,1.6986307913716246e-06,1.4818708303101327e-06,1.261524642374507e-05,1.4787678935868354e-05,2.4018713968644567e-06,4.3738721411884115e-05
274,9.110627576244029e-07,9.96505869416757e-07,8.138663004454078e-07,1.0874546405569363e-05,1.2242965990480307e-05,4.064506970762582e-06,3.780900494323407e-06,3.59666149252982e-05,1.4400442076397345e-06,2.3841619410553857e-06,1.6539775273904907e-06,1.658952346504921e-06,1.3352427479236974e-05,1.53319708325478e-05,2.469202775972403e-06,4.0290805927947244e-05
275,8.949729474579383e-07,1.0136829757807627e-06,8.305376587892115e-07,1.06656695849267e-05,1.255753670337774e-05,4.007510810126029e-06,3.7402095658153896e-06,3.587015718222324e-05,1.3744977935693614e-06,2.396068607419662e-06,1.611392784283969e-06,1.8679731498809128e-06,1.4099874675297987e-05,1.5978416070842444e-05,2.538009334130328e-06,3.6965566035492555e-05
276,8.797601693902133e-07,1.028457466200014e-06,8.473732565432675e-07,1.0465777741407725e-05,1.3006829099778524e-05,3.944962834900264e-06,3.691281379673892e-06,3.594576259016377e-05,1.3111817728327467e-06,2.402392302416715e-06,1.5711064807463558e-06,2.111359476596004e-06,1.4845584187645247e-05,1.672151894515239e-05,2.6066058945129764e-06,3.3787588348188216e-05
277,8.655460002876456e-07,1.04052816817762e-06,8.643195230858542e-07,1.0278479981964012e-05,1.3595598666863488e-05,3.881243105858883e-06,3.635035467233831e-06,3.6222624134903434e-05,1.2493978127858985e-06,2.402621393889575e-06,1.5331720778801124e-06,2.3913470544013417e-06,1.557719648952202e-05,1.7552453301869135e-05,2.673165755619588e-06,3.077804134035363e-05
278,8.523525883312889e-07,1.04964965307405e-06,8.813953036244189e-07,1.0105518486301511e-05,1.4327142440420819e-05,3.82033191334012e-06,3.5722021728627684e-06,3.672206503538366e-05,1.189092153685849e-06,2.396387748529566e-06,1.4974187237008788e-06,2.7098949981896045e-06,1.628357378008868e-05,1.8459483782975693e-05,2.7357425948339667e-06,2.795576838978418e-05
279,8.40106824240002e-07,1.055525235527419e-06,8.986793813253156e-07,9.947160005284394e-06,1.5202879787679027e-05,3.765528023833526e-06,3.503150248851222e-06,3.7458029333288626e-05,1.1306761961935782e-06,2.383616759563491e-06,1.4634321605520698e-06,3.0685771968031194e-06,1.6956186417544072e-05,1.942888311068927e-05,2.792625444673332e-06,2.5338268048521754e-05
280,8.286205039681761e-07,1.057857730280787e-06,9.162965957702408e-07,9.802831212820904e-06,1.622189022629934e-05,3.719337384869277e-06,3.4277873358724477e-06,3.843843642613619e-05,1.0747350672957054e-06,2.364544770948649e-06,1.4306372762062231e-06,3.468527103800875e-06,1.759000239559608e-05,2.0445850034417026e-05,2.8427950403963038e-06,2.2942265248924033e-05
281,8.17607391593929e-07,1.0564941646727222e-06,9.343508939219526e-07,9.671740331228884e-06,1.7380576308316034e-05,3.6834567117130355e-06,3.3455991458834244e-06,3.966644742736655e-05,1.0218245177177937e-06,2.33967307899263e-06,1.3984266116641699e-06,3.910362552963856e-06,1.8183880359465237e-05,2.149476605827981e-05,2.8860665862607734e-06,2.0783662070696387e-05
282,8.068081535536517e-07,1.0515154880773708e-06,9.528727935999942e-07,9.553341990952213e-06,1.867252056015207e-05,3.65875526434038e-06,3.255964737318249e-06,4.1141096301712405e-05,9.724024439137167e-07,2.309708857382655e-06,1.3662709591211367e-06,4.39405241445289e-06,1.8740192112094337e-05,2.2558789398554346e-05,2.922765047054415e-06,1.8876931380897384e-05
283,7.96158236171134e-07,1.0432143594311412e-06,9.71838959917355e-07,9.447553222509342e-06,2.008842579686512e-05,3.6452688238504246e-06,3.1586132733742826e-06,4.2857376544427034e-05,9.268065514555596e-07,2.275492682716183e-06,1.3338179581871455e-06,4.918852413726705e-06,1.9263183852404328e-05,2.3619725413661803e-05,2.953238302108488e-06,1.7234243492834133e-05
284,7.85846297492468e-07,1.0320216701644951e-06,9.911919502027663e-07,9.354722705820507e-06,2.1615906355206828e-05,3.6423132641101644e-06,3.0538678101278325e-06,4.4806220709321964e-05,8.852520418335851e-07,2.2379438875664904e-06,1.3009713470624272e-06,5.483396689860517e-06,1.9756565526205467e-05,2.4659413007695733e-05,2.9776289860261437e-06,1.5864835057217723e-05
285,7.762148706106138e-07,1.0184635871378008e-06,1.0108056270298038e-06,9.27544158999693e-06,2.3238946568500377e-05,3.6487731886257285e-06,2.9425879930450837e-06,4.69745932285971e-05,8.478938004223326e-07,2.198057378570278e-06,1.2678966448171073e-06,6.085851863565173e-06,2.022212143777507e-05,2.566249208949425e-05,2.9959984092389017e-06,1.4775319163043062e-05
286,7.676031429849539e-07,1.003149905721305e-06,1.0304486088519303e-06,9.21025901421694e-06,2.4937190824046684e-05,3.6634831464284833e-06,2.826055251191808e-06,4.934540181109894e-05,8.149352439502925e-07,2.156883366567069e-06,1.2349329535059186e-06,6.723984067013523e-06,2.0660285550384982e-05,2.6618062858090862e-05,3.0086545121748207e-06,1.3971043191896712e-05
287,7.60249957188665e-07,9.86730013461004e-07,1.049768220824074e-06,9.15929657185171e-06,2.6685629438400486e-05,3.685558192109449e-06,2.7059290589707654e-06,5.189675506494177e-05,7.867104230913126e-07,2.11540186840704e-06,1.202456488042063e-06,7.395040747580527e-06,2.1071577407479243e-05,2.751825744033452e-05,3.0164997527574124e-06,1.3457505135624554e-05
288,7.54274649255824e-07,9.69809728844998e-07,1.0682566212165866e-06,9.121769753116092e-06,2.8454949726211268e-05,3.7145921279212312e-06,2.584123250786695e-06,5.4600553872130606e-05,7.636776963875147e-07,2.0743366885791553e-06,1.1707769890390746e-06,8.095429669085809e-06,2.145763822437237e-05,2.835625977871633e-05,3.0211541104120258e-06,1.3240766051757637e-05
289,7.496823841035992e-07,9.528847933973224e-07,1.0852171783967221e-06,9.095508529895622e-06,3.0212125404155235e-05,3.750716977926127e-06,2.4625530528267333e-06,5.742105476248614e-05,7.463179559044512e-07,2.0340299943734976e-06,1.140132160936389e-06,8.820281881835218e-06,2.1821652959758765e-05,2.9127465991017018e-05,3.0246932836301293e-06,1.3326710106279206e-05
290,7.463865205772241e-07,9.362999988413718e-07,1.0998010985129898e-06,9.076597449418786e-06,3.192100097914775e-05,3.794528559518111e-06,2.342969759579195e-06,6.031414737179314e-05,7.350213122435911e-07,1.9944421354363973e-06,1.1107384195694475e-06,9.56303019542936e-06,2.2168250769500155e-05,2.9832456319172747e-05,3.029195299423815e-06,1.371981699458576e-05
291,7.442655406444107e-07,9.202172928678574e-07,1.111138756848561e-06,9.059276627472374e-06,3.3543504553618775e-05,3.846861168638434e-06,2.2269527356395253e-06,6.322752883030653e-05,7.30048763076248e-07,1.955257221358045e-06,1.0827880778016628e-06,1.031509985781786e-05,2.2502898692400116e-05,3.047824075811104e-05,3.036466600763391e-06,1.4422345254553329e-05
292,7.432083854743719e-07,9.046214258079614e-07,1.1185089552253251e-06,9.036344566048457e-06,3.5042287226130955e-05,3.908420883911316e-06,2.115879415424482e-06,6.610146534006776e-05,7.315472081840293e-07,1.9160269336459144e-06,1.0563889193827751e-06,1.1065827639800173e-05,2.283093039352541e-05,3.107752185370215e-05,3.048009156019582e-06,1.5434134588135814e-05
293,7.430976918515514e-07,8.893791656359271e-07,1.1214376394881667e-06,9.000177001141578e-06,3.6384649563966826e-05,3.979384874777147e-06,2.0108600538443118e-06,6.887017054215272e-05,7.395554954807218e-07,1.8762961132404173e-06,1.0315616657564078e-06,1.1802835566414861e-05,2.3156482628192012e-05,3.164761655894272e-05,3.0649863112650403e-06,1.6752463992461072e-05
294,7.437530486480194e-07,8.743189787802367e-07,1.1196610925308196e-06,8.944006735156864e-06,3.754644198976573e-05,4.0591268558549065e-06,1.912761974890834e-06,7.14648394947598e-05,7.539913786209599e-07,1.8356904673515956e-06,1.0083678531383869e-06,1.251290631242393e-05,2.3481470032255015e-05,3.2209283946278656e-05,3.088077046596902e-06,1.8371881388574695e-05
295,7.448949445571626e-07,8.593019373417307e-07,1.1130229981135564e-06,8.862883455817668e-06,3.851414934437619e-05,4.146145819941062e-06,1.822254427484389e-06,7.381968688727885e-05,7.746396266161088e-07,1.7939963972305944e-06,9.870561361018648e-07,1.3182872552913281e-05,2.380463475593282e-05,3.27845446355726e-05,3.1173234035435504e-06,2.0284521466445336e-05
296,7.461629643529696e-07,8.442782272232125e-07,1.1014491058585675e-06,8.75406522156481e-06,3.928382520108731e-05,4.238191783918487e-06,1.7397530012323938e-06,7.588049506888474e-05,8.011581095300086e-07,1.7512914778566243e-06,9.68048336903894e-07,1.3799877571745598e-05,2.4121268828693127e-05,3.339344871418509e-05,3.1520609173473257e-06,2.2480769030452205e-05
297,7.471493860561384e-07,8.293348708857324e-07,1.085045999468939e-06,8.61700362164679e-06,3.985664243781635e-05,4.332580105652226e-06,1.6653289569563222e-06,7.761209894133237e-05,8.330959107871484e-07,1.7080534505866666e-06,9.518078319341774e-07,1.4350805420662974e-05,2.4424474163577067e-05,3.4051013113577e-05,3.1909385018896447e-06,2.4949499928019275e-05
298,7.473884154657689e-07,8.147279319530948e-07,1.0641957370319429e-06,8.453107566838717e-06,4.023302762123235e-05,4.426644196651803e-06,1.5987060015619129e-06,7.899998500774766e-05,8.699157359449396e-07,1.6650572408993561e-06,9.38745675493111e-07,1.4821480198932708e-05,2.4707597918895428e-05,3.4765345422238925e-05,3.231995361983184e-06,2.7677638481090646e-05
299,7.463440801563129e-07,8.008561257279398e-07,1.0395062345126577e-06,8.265221043196042e-06,4.040971785469926e-05,4.518197219855438e-06,1.5393577167419043e-06,8.004337320944786e-05,9.110440891969291e-07,1.62309811209274e-06,9.291765451727518e-07,1.5197064877120647e-05,2.4966331360053645e-05,3.5537055438236814e-05,3.272717467477493e-06,3.064934078094672e-05
300,7.435059183961348e-07,7.881649843108515e-07,1.0116875987894388e-06,8.056693097734078e-06,4.038185412657178e-05,4.6058223744615144e-06,1.4866093776931407e-06,8.074326782466943e-05,9.559390651593904e-07,1.582826365354017e-06,9.233064246990116e-07,1.546450298881673e-05,2.5199528626753367e-05,3.6359616151473046e-05,3.3100441898840455e-06,3.3844963460819124e-05
301,7.385827610165559e-07,7.77054910011389e-07,9.815092036410814e-07,7.830310803491524e-06,4.0146677226107636e-05,4.688805796078573e-06,1.439659776552763e-06,8.109487234948112e-05,1.0041578413973687e-06,1.5447631651265174e-06,9.212605669256975e-07,1.5615739526147536e-05,2.5408831415469533e-05,3.7219995901773535e-05,3.340494266589473e-06,3.7239758341633596e-05
302,7.316374555047451e-07,7.678406850619044e-07,9.498210110429609e-07,7.587742085575138e-06,3.9705224416887505e-05,4.766683220258766e-06,1.3976163595092217e-06,8.108950784249574e-05,1.0554648420170724e-06,1.5092968197237404e-06,9.231121265946957e-07,1.5649404998191344e-05,2.5597281606646736e-05,3.809875779439651e-05,3.360599501981089e-06,4.080241614558294e-05
303,7.230368731039896e-07,7.607405572582114e-07,9.175480174747385e-07,7.329801572998812e-06,3.9062723459475784e-05,4.83871388043786e-06,1.3596872735149443e-06,8.072105500714003e-05,1.1099176661789119e-06,1.4766201337560066e-06,9.28889233697913e-07,1.556972932791841e-05,2.5767085688403102e-05,3.896961216162996e-05,3.3675141395496313e-06,4.4493742954653524e-05
304,7.132689618484318e-07,7.558865263875537e-07,8.856383948105934e-07,7.0572010184879715e-06,3.822928697897813e-05,4.9037744687734255e-06,1.325455495974594e-06,7.999069250794468e-05,1.1677963065661094e-06,1.4467668425902912e-06,9.385753159451108e-07,1.5383498141047846e-05,2.5917610659852616e-05,3.97995386271165e-05,3.3593748682054896e-06,4.826558928448358e-05
305,7.027983046129301e-07,7.53342617287636e-07,8.549778069311689e-07,6.7713376783333985e-06,3.722058726493308e-05,4.960790255373601e-06,1.2950185536112469e-06,7.890887378591738e-05,1.2294686280247985e-06,1.41975575782952e-06,9.52111218442334e-07,1.509753775021268e-05,2.6045128440122025e-05,4.0551227181477364e-05,3.3351250389244188e-06,5.205995362971523e-05
306,6.920475266136477e-07,7.530943083168034e-07,8.263109169061264e-07,6.474910341933231e-06,3.605776265810556e-05,5.009273452368256e-06,1.2688830908415835e-06,7.749593602671092e-05,1.2953913591420053e-06,1.395665421331799e-06,9.693916896133296e-07,1.4718707966667614e-05,2.6144383467716523e-05,4.118895176988236e-05,3.2941355185674234e-06,5.580823443292627e-05
307,6.814235703647928e-07,7.550221071254252e-07,8.002191618636897e-07,6.172249895573442e-06,3.476646450296409e-05,5.049549454838543e-06,1.2477337724123664e-06,7.578235967168037e-05,1.3662287585681642e-06,1.3745446185902958e-06,9.90240694206106e-07,1.4255726381376682e-05,2.6210708987874772e-05,4.168620271818482e-05,3.236279989372651e-06,5.943138034181026e-05
308,6.713011314167148e-07,7.589035935793779e-07,7.771506322005833e-07,5.869317397387503e-06,3.3375136374928994e-05,5.082626860922617e-06,1.2322722898589136e-06,7.380852201315405e-05,1.4429358394696242e-06,1.356277060877464e-06,1.014384035236395e-06,1.3720567286643292e-05,2.6241775118500555e-05,4.203053905746732e-05,3.162443398698703e-06,6.284290201604266e-05
309,6.619988703919554e-07,7.644324882548737e-07,7.574557803245122e-07,5.573453382970878e-06,3.1912745305836004e-05,5.109862786784761e-06,1.2231339505813868e-06,7.162341147320822e-05,1.5267194245174415e-06,1.340590061441951e-06,1.0414388976708563e-06,1.3128155079988512e-05,2.6238673065968203e-05,4.222226592644102e-05,3.0747516129065336e-06,6.595615894395116e-05
310,6.537902832288365e-07,7.712184154478351e-07,7.413903845161859e-07,5.293035820195633e-06,3.0406379311722934e-05,5.132606028454379e-06,1.220804091615216e-06,6.928236257653579e-05,1.6188929852409209e-06,1.3272178596238439e-06,1.0708900201054448e-06,1.2494723666167612e-05,2.6206050895376668e-05,4.2268040596676495e-05,2.976186308804863e-06,6.86945843865863e-05
311,6.469031261462619e-07,7.787804148884419e-07,7.290996118072477e-07,5.037160086796177e-06,2.8879108647753225e-05,5.151960629986422e-06,1.225565427345648e-06,6.684410819937006e-05,1.7207258963149421e-06,1.3160167371223025e-06,1.1020551148077033e-06,1.1835954367951049e-05,2.6151178648512214e-05,4.217368216775716e-05,2.869930807044341e-06,7.100112981041359e-05
312,6.414861033546798e-07,7.865531781772805e-07,7.206196384833621e-07,4.815325529977669e-06,2.734868187166083e-05,5.168678879497095e-06,1.237536192634729e-06,6.436727156381373e-05,1.8333720163442607e-06,1.3068954705719196e-06,1.1340818777095943e-06,1.1165733088059914e-05,2.6082324799980076e-05,4.194068477535431e-05,2.7588647361598346e-06,7.284255675108528e-05
313,6.37583027029494e-07,7.939066799118179e-07,7.158876075108176e-07,4.637030622522121e-06,2.5827641294682653e-05,5.1830786981340345e-06,1.2567855361228435e-06,6.190641807849613e-05,1.957833488442352e-06,1.2996633045744039e-06,1.1659844650591265e-06,1.049565890750782e-05,2.6007055557487122e-05,4.1568687945561234e-05,2.645343667663363e-06,7.42053236424077e-05
314,6.351247117976522e-07,8.002080244172789e-07,7.147450586876393e-07,4.511312761824375e-06,2.432463572523462e-05,5.194887090624185e-06,1.2834290323114e-06,5.950812336424352e-05,2.0948729330799366e-06,1.2939775404438201e-06,1.1967163716105863e-06,9.834993617852074e-06,2.5930714570481888e-05,4.1061728152158265e-05,2.5312456824721424e-06,7.508446288391334e-05
315,6.33929963252092e-07,8.049367067979301e-07,7.169633974567467e-07,4.446430830413768e-06,2.2846002174950833e-05,5.203070968158216e-06,1.3176050328768885e-06,5.720832947716151e-05,2.2449054410757366e-06,1.2894627724568523e-06,1.225239437788951e-06,9.19079950444048e-06,2.5855044846258186e-05,4.043291764849649e-05,2.4182048515059903e-06,7.547395009931927e-05
316,6.33736350346118e-07,8.078065391994876e-07,7.222946323652826e-07,4.449744364497715e-06,2.13969250460637e-05,5.205925227879967e-06,1.3593547671039148e-06,5.5032548166159645e-05,2.4079695916611507e-06,1.2859192610376836e-06,1.2505538603525316e-06,8.568261642253585e-06,2.5777406364635305e-05,3.970382425593239e-05,2.307810050735419e-06,7.536711976194876e-05
317,6.342722349681275e-07,8.08830382791116e-07,7.304986617547942e-07,4.52766467628988e-06,1.998198349456105e-05,5.201562374469983e-06,1.4085336231594908e-06,5.2998694936754724e-05,2.583790767075955e-06,1.2834563561867747e-06,1.271807945353023e-06,7.97119646022081e-06,2.569147288651681e-05,3.889926444956415e-05,2.201571429528249e-06,7.476597853421825e-05
318,6.353347266995792e-07,8.082691007770961e-07,7.413333186100386e-07,4.685654441455354e-06,1.860517825496758e-05,5.1885347448703935e-06,1.4648187668748544e-06,5.1120203452011584e-05,2.771852798405428e-06,1.2824496471282963e-06,1.288566601668026e-06,7.402442132927652e-06,2.5589420247921245e-05,3.804115778339974e-05,2.100747455113639e-06,7.369153062160026e-05
319,6.368216961211938e-07,8.064700234763465e-07,7.545466347620741e-07,4.928318424472417e-06,1.726976689839759e-05,5.166241123301248e-06,1.5277360824258261e-06,4.94073564408671e-05,2.9713876672100814e-06,1.2833562070864418e-06,1.301038999274868e-06,6.8638591750829706e-06,2.5464417977404372e-05,3.714487421465981e-05,2.00623631532956e-06,7.218897988858911e-05
320,6.38699605739246e-07,8.037014842759687e-07,7.698884053606974e-07,5.259498638815547e-06,1.5978366391103023e-05,5.135053886052483e-06,1.5966256619612768e-06,4.786659935870317e-05,3.1812813693742628e-06,1.2865132846795913e-06,1.3100246696489977e-06,6.356290337612252e-06,2.5312300967297597e-05,3.621905087289224e-05,1.918575501844471e-06,7.032558157576796e-05
321,6.409387000874751e-07,8.000755448110685e-07,7.871156285041569e-07,5.6822363403605376e-06,1.4733588678109927e-05,5.096253958872262e-06,1.6705916673308594e-06,4.649891076752346e-05,3.4000318102870553e-06,1.2920390779396503e-06,1.316616171440127e-06,5.879882511314512e-06,2.5132166482826463e-05,3.5267344657749565e-05,1.837982022572193e-06,6.818248354749853e-05
322,6.434704212176732e-07,7.955579700253449e-07,8.059679969159103e-07,6.198580364636263e-06,1.3538981676283868e-05,5.051807126652078e-06,1.7485233646893763e-06,4.529871225726758e-05,3.6259086342890738e-06,1.299839940197059e-06,1.3219317242236992e-06,5.434502415008721e-06,2.4926111202920263e-05,3.4289714362490375e-05,1.7643634338371131e-06,6.584455189706946e-05
323,6.462046419508146e-07,7.90040424939137e-07,8.26123813908154e-07,6.809344238304654e-06,1.239961695652996e-05,5.003996653451308e-06,1.8291519496112883e-06,4.425444898144823e-05,3.857248239341075e-06,1.3096397465325386e-06,1.3270187215775536e-06,5.0199296956843194e-06,2.469837714355253e-05,3.3282150671909124e-05,1.6973041832235376e-06,6.339186913722344e-05
324,6.4910065692625e-07,7.834519669483497e-07,8.471780456346543e-07,7.513940663018573e-06,1.1321765104885408e-05,4.955015836875752e-06,1.911045852066263e-06,4.3350975957561955e-05,4.092635726949506e-06,1.321008957937014e-06,1.332810012234542e-06,4.635929181565038e-06,2.4454301915533478e-05,3.2236736805831775e-05,1.6361012374177956e-06,6.0894251279088666e-05
325,6.522292473649747e-07,7.758536816285885e-07,8.686715067192179e-07,8.31034114506518e-06,1.0311783764181272e-05,4.906701403824637e-06,1.9926110781329087e-06,4.257276515590881e-05,4.33083924719215e-06,1.3334359169461738e-06,1.3400782413160456e-06,4.2823045221535744e-06,2.4199544195962744e-05,3.1144500119019574e-05,1.5798866162084729e-06,5.840841094479237e-05
326,6.557549974102922e-07,7.674567671610515e-07,8.901440718992573e-07,9.195065599594043e-06,9.375093593677389e-06,4.860509841598925e-06,2.0722526507084406e-06,4.190645543583058e-05,4.570592307927909e-06,1.3464498769069593e-06,1.349447235702973e-06,3.958902081108432e-06,2.3939781851782307e-05,3.000000990563731e-05,1.5277910019050419e-06,5.5977193179218725e-05
327,6.598572453690179e-07,7.585677968994128e-07,9.111585044572284e-07,1.0163070762296167e-05,8.516100410906706e-06,4.8175865363920785e-06,2.148673442721045e-06,4.13415915371618e-05,4.810419316112837e-06,1.359766475067037e-06,1.3614136406943476e-06,3.6655681620676835e-06,2.3680594653904833e-05,2.880434891100173e-05,1.4790321076369688e-06,5.363083719289841e-05
328,6.646604959920934e-07,7.495193445640561e-07,9.312852629553155e-07,1.1207546449763892e-05,7.738904266978043e-06,4.778663857787232e-06,2.2211382276527546e-06,4.0869111771954544e-05,5.048598840595108e-06,1.3733761802363354e-06,1.3763178827220153e-06,3.40208265903725e-06,2.342694886326966e-05,2.7564386659608627e-05,1.4328751238390155e-06,5.139023824462868e-05
329,6.701966620791721e-07,7.406146946716736e-07,9.50083575089587e-07,1.2319735849808604e-05,7.047842665240071e-06,4.74381463059349e-06,2.289553129902975e-06,4.047808801654845e-05,5.283115861239926e-06,1.3874983364834222e-06,1.3943103363755904e-06,3.1680634986552098e-06,2.3181933398362058e-05,2.6289074843200626e-05,1.3885844229480227e-06,4.9271174291354715e-05
330,6.764122655550748e-07,7.320730957704606e-07,9.670881749866993e-07,1.34888365379842e-05,6.447340415719831e-06,4.712345930219179e-06,2.354304530050407e-06,4.015228770477271e-05,5.511489673466682e-06,1.402466692917505e-06,1.4153371271813272e-06,2.962850044503711e-06,2.294519140119727e-05,2.4986105278799765e-05,1.3454649463215354e-06,4.7287558772910066e-05
331,6.832353574292044e-07,7.239852300209852e-07,9.818025826059302e-07,1.4701944316980157e-05,5.9413377225044755e-06,4.682943672718684e-06,2.41595281370414e-06,3.9868652519196226e-05,5.730803615312894e-06,1.418683079325473e-06,1.4391220022941952e-06,2.7853874138181403e-06,2.2712248232925835e-05,2.3661690375392476e-05,1.3029486469324235e-06,4.545254345482554e-05
