,EMG1,EMG2,EMG3,EMG4,EMG5,EMG6,EMG7,EMG8,EMG9,EMG10,EMG11,EMG12,EMG13,EMG14,EMG15,EMG16
0,5.739588967438362e-07,2.1325761316107034e-07,8.702714874276107e-08,5.226495956869268e-06,4.179801876385153e-06,9.820200356657512e-08,3.7356050071125905e-07,2.76076279726571e-07,3.7703415034305075e-06,6.613887065214121e-07,3.567801868789893e-08,5.266798000901209e-07,3.5547975782966353e-06,1.0532652343310756e-06,1.1067498334162216e-06,4.717129749388323e-07
1,7.146307161259057e-07,3.8108144294451285e-07,1.7880010627548725e-07,6.555678719114608e-06,7.74585525964049e-06,2.5012828506017984e-07,6.405590196527446e-07,3.2670531834069555e-07,4.0955314989858935e-06,8.557904415055515e-07,1.409835959808126e-07,6.575961941199115e-07,4.604122256041393e-06,1.5326509190503014e-06,1.410908328429098e-06,9.952832146408451e-07
2,8.558256238236502e-07,5.495460544130398e-07,2.6913969816263663e-07,7.93020320056771e-06,1.1250077907071997e-05,4.0001318534147917e-07,8.957208366597565e-07,3.7908659672979107e-07,4.458940312338225e-06,1.05375763156728e-06,2.436862970746791e-07,7.848256215327929e-07,5.679361596415774e-06,1.9973586629042004e-06,1.7140040457563915e-06,1.5067412721653316e-06
3,9.96261090086614e-07,7.169611386017034e-07,3.56230479227784e-07,9.336204774557147e-06,1.468353986608541e-05,5.47348582907306e-07,1.1378677179852478e-06,4.331316308015259e-07,4.861516912425038e-06,1.2507639633507394e-06,3.4256970264690215e-07,9.075244617121364e-07,6.774073814832675e-06,2.4380320029610567e-06,2.011682439577956e-06,2.000290386775684e-06
4,1.1346165229883622e-06,8.820015373237623e-07,4.38602052554964e-07,1.0761987207517818e-05,1.8035061169489347e-05,6.91591122366636e-07,1.3657493127915346e-06,4.88814702926977e-07,5.3032043971566715e-06,1.4439244668073224e-06,4.365657463784012e-07,1.024924920077305e-06,7.880856034794276e-06,2.845406793849069e-06,2.300181177256185e-06,2.4703574930134767e-06
5,1.2695219282213572e-06,1.0437269412052897e-06,5.151668732242232e-07,1.2198620561555848e-05,2.129039046646449e-05,8.321690694948595e-07,1.5779846542598705e-06,5.461213649715808e-07,5.782866448051358e-06,1.6321268039264418e-06,5.247858719259873e-07,1.1362088816315411e-06,8.991139009127233e-06,3.2108037335165894e-06,2.5765170121952514e-06,2.91161730151668e-06
6,1.3996307528741713e-06,1.2014886600459687e-06,5.852555627244486e-07,1.3639285930306751e-05,2.4431340418912027e-05,9.684823070012591e-07,1.7730271152738974e-06,6.050230544632636e-07,6.298302088935729e-06,1.8156352807445683e-06,6.065298746968108e-07,1.2404002056481871e-06,1.0095246269918852e-05,3.527052643898455e-06,2.838539409517751e-06,3.3193442990130896e-06
7,1.52372030644124e-06,1.3547591054210403e-06,6.486344951066187e-07,1.5077537677911351e-05,2.743529549476658e-05,1.099868568283526e-06,1.949243097603042e-06,6.654826545518686e-07,6.8462326991861074e-06,1.995383766503007e-06,6.813447681913566e-07,1.3364123851069593e-06,1.1182700514660214e-05,3.789636750003826e-06,3.084889535168569e-06,3.690147141133589e-06
8,1.640736405137091e-06,1.5029498653403732e-06,7.054147359432299e-07,1.650551755976215e-05,3.0276031068898135e-05,1.2255810561517583e-06,2.1051409805034543e-06,7.274422691540789e-07,7.422190919068551e-06,2.172340663863532e-06,7.490866931585959e-07,1.423286519019307e-06,1.224237355277435e-05,3.997460559606649e-06,3.3148722013991093e-06,4.022563914768106e-06
9,1.7497635695290348e-06,1.6453235051753083e-06,7.558639266339381e-07,1.79130673576806e-05,3.292649953466017e-05,1.344859909972408e-06,2.239702706924866e-06,7.90794611134578e-07,8.02035446703057e-06,2.3471997209706265e-06,8.099160924205561e-07,1.5004505618607201e-06,1.3262287182880384e-05,4.152611351395808e-06,3.52823893537437e-06,4.317014895355393e-06
10,1.8499561834925626e-06,1.7810462382566787e-06,8.00269089181986e-07,1.928752339273515e-05,3.5363216236467934e-05,1.4570941647196131e-06,2.3526878441013495e-06,8.55388220281328e-07,8.633399291450873e-06,2.5203002169474675e-06,8.642454193254034e-07,1.5677758995888598e-06,1.4229232368739382e-05,4.259148304673848e-06,3.7249345042899897e-06,4.575312899598495e-06
11,1.9404888185691877e-06,1.90932240346093e-06,8.389497162089195e-07,2.0613311472002406e-05,3.7570793748696905e-05,1.5619728729461653e-06,2.4447448842338805e-06,9.210787276788215e-07,9.252487425741512e-06,2.6916068090695522e-06,9.126571509187318e-07,1.6254262265811237e-06,1.5128659050951996e-05,4.321681835258769e-06,3.904877138970785e-06,4.800262506737721e-06
12,2.0205719843208105e-06,2.029537023710597e-06,8.723446369531634e-07,2.1871119706734804e-05,3.954490351931016e-05,1.659495474329036e-06,2.517263765907073e-06,9.877813153532642e-07,9.867643279379782e-06,2.860757850751664e-06,9.55803039890801e-07,1.6737189782610238e-06,1.5946094009823675e-05,4.344482293440242e-06,4.067803999086934e-06,4.995471272024727e-06
13,2.089542133538735e-06,2.1412996380523614e-06,9.010278623626168e-07,2.3037497153847685e-05,4.129278024507426e-05,1.7497989625327994e-06,2.572067229555603e-06,1.0554638742100114e-06,1.0468624895056467e-05,3.0271756309439546e-06,9.943428623524201e-07,1.71316068664356e-06,1.6670495277411922e-05,4.3313036189170814e-06,4.213164095958303e-06,5.165192652823066e-06
14,2.146994226018465e-06,2.2443014607310594e-06,9.25612826467527e-07,2.4086184680696435e-05,4.283156270365522e-05,1.832961790117321e-06,2.611095637169574e-06,1.1240712341302157e-06,1.1045966540057764e-05,3.1901045477306454e-06,1.0289569539511484e-06,1.7445136958767418e-06,1.729654265622988e-05,4.285651504525595e-06,4.340084239020172e-06,5.314223604268855e-06
15,2.1929035871554125e-06,2.33815783941654e-06,9.466272546847076e-07,2.4991660946245287e-05,4.418522135368185e-05,1.9089891462448663e-06,2.6361678203035237e-06,1.1934776632652626e-06,1.159174883795264e-05,3.3485584387914593e-06,1.0603601553042551e-06,1.768683900414441e-06,1.7823383174475268e-05,4.2111262233203235e-06,4.4476732959948106e-06,5.447995094279629e-06
16,2.227691264030108e-06,2.4224355131168735e-06,9.644464335309546e-07,2.5733640427839814e-05,4.538030238784906e-05,1.9779439056115308e-06,2.648888540733061e-06,1.2635520334779536e-06,1.2099870402255556e-05,3.5013208743834264e-06,1.0892453243792655e-06,1.7865450028463834e-06,1.825300963986115e-05,4.111662036344771e-06,4.535778288381212e-06,5.572695195138836e-06
17,2.2522149199048885e-06,2.4967027351198e-06,9.79297495462621e-07,2.630033781466927e-05,4.6440997066779654e-05,2.040014234643737e-06,2.650771489115235e-06,1.3342530409520104e-06,1.2565835814170727e-05,3.647000324520495e-06,1.1162022484810037e-06,1.7989197005323131e-06,1.859151838135543e-05,3.991632267905385e-06,4.605589164598768e-06,5.6950424802060455e-06
18,2.267699520232501e-06,2.5604170942457785e-06,9.913029291517215e-07,2.6688969037684665e-05,4.738606852945115e-05,2.095430884911697e-06,2.6434441666951365e-06,1.4056230136445909e-06,1.2986298653994593e-05,3.7840071995276715e-06,1.141683064859673e-06,1.8066506709563832e-06,1.885048019122435e-05,3.8557444245241995e-06,4.659458552218025e-06,5.821651281362426e-06
19,2.2756207626034576e-06,2.6128256148087815e-06,1.0005359504539349e-06,2.6903251395574537e-05,4.8229761413417486e-05,2.1443184517949574e-06,2.628658435596345e-06,1.4776795029499784e-06,1.3358650820943438e-05,3.910548117282532e-06,1.1660057209077162e-06,1.8105783208218113e-06,1.904526290608776e-05,3.7087005591856554e-06,4.700170857005898e-06,5.9584635048930425e-06
20,2.277527490471423e-06,2.6531158214524094e-06,1.0070754396911401e-06,2.694907246258745e-05,4.898488778135574e-05,2.1865688678034364e-06,2.6080669504173126e-06,1.5502917474262867e-06,1.3680702672016155e-05,4.024881166467396e-06,1.1893510067319978e-06,1.811436034868109e-06,1.919164803079019e-05,3.554820603805826e-06,4.730328345717712e-06,6.110642358313862e-06
21,2.274819673765918e-06,2.680751749469139e-06,1.011062421978973e-06,2.683088977545752e-05,4.966494681597855e-05,2.22179732036872e-06,2.583028123230436e-06,1.623087686945424e-06,1.3950171807120616e-05,4.125776482221139e-06,1.2117579202965668e-06,1.8097980452521494e-06,1.930349074361988e-05,3.3978500311015747e-06,4.752075853858039e-06,6.282695628182495e-06
22,2.2685543569207356e-06,2.6957219805589274e-06,1.0127480446745589e-06,2.655126503701219e-05,5.028460297411551e-05,2.249454047490559e-06,2.5545755661237165e-06,1.6953915012373061e-06,1.416380045578529e-05,4.212809572289313e-06,1.2331491884697185e-06,1.806097291284952e-06,1.939257220467707e-05,3.2409869213849217e-06,4.766971128634756e-06,6.478399616311535e-06
23,2.259330221522891e-06,2.698488037349005e-06,1.0124997627132035e-06,2.611338464587198e-05,5.085966411903558e-05,2.269062628580394e-06,2.5234119029115235e-06,1.7662292725163305e-06,1.4316629018904685e-05,4.286187851397619e-06,1.2533991977057172e-06,1.8006171681410104e-06,1.9469852050842055e-05,3.087086958795328e-06,4.7760314266367316e-06,6.70048820679374e-06
24,2.247248113223607e-06,2.6896660990441162e-06,1.0107728216020311e-06,2.552419867181869e-05,5.140735639123957e-05,2.280425729056162e-06,2.4899162016318373e-06,1.834443806791997e-06,1.440218611592349e-05,4.3462415256302905e-06,1.2724381428007453e-06,1.7934782585304927e-06,1.9546337479369075e-05,2.9389306644504786e-06,4.7800640005050045e-06,6.9503600764718465e-06
25,2.2319229802022496e-06,2.66978421509286e-06,1.0080995324769428e-06,2.4796198445149295e-05,5.194648468659269e-05,2.28370901125665e-06,2.4542792448521414e-06,1.8988536836766387e-06,1.4413577438106712e-05,4.393086179152544e-06,1.290336669604115e-06,1.7847404813031535e-06,1.963248921996123e-05,2.799322142399554e-06,4.779911495895809e-06,7.227988155309412e-06
26,2.2125365786695413e-06,2.6393951705801457e-06,1.0050792530544618e-06,2.3947322354342722e-05,5.249667411315859e-05,2.27945329780754e-06,2.4166414666684735e-06,1.958348767336458e-06,1.434500699799667e-05,4.426665780580445e-06,1.3072986563508863e-06,1.7745889997766538e-06,1.9736616552369525e-05,2.6709336225360125e-06,4.776273736245206e-06,7.532014023030914e-06
27,2.1879721181197937e-06,2.5993892119228784e-06,1.00230145351648e-06,2.2999363803808498e-05,5.3076746452748365e-05,2.2685593833369475e-06,2.377063435475112e-06,2.0119336816302173e-06,1.4193459156857759e-05,4.4468402188062275e-06,1.3235691529791201e-06,1.7634203558589693e-06,1.986346265870153e-05,2.556101254289232e-06,4.769468432142562e-06,7.859903317753803e-06
28,2.157065053303145e-06,2.5512110435507977e-06,1.0002342838693975e-06,2.1975689236250808e-05,5.3703214562941854e-05,2.2521954368774408e-06,2.3354312133138055e-06,2.058811031500442e-06,1.396009710686827e-05,4.4533627504107875e-06,1.3393675905844775e-06,1.7517272703872977e-06,2.0013621945592564e-05,2.4567496336667632e-06,4.759625606524026e-06,8.20809562958994e-06
29,2.1189008203497147e-06,2.4968663249362734e-06,9.99161274723851e-07,2.089920425519009e-05,5.438993149744731e-05,2.231589405480923e-06,2.291492186187118e-06,2.098474778749711e-06,1.365066915218518e-05,4.446034063156934e-06,1.3549650498094813e-06,1.7398958740267414e-06,2.0183590654345908e-05,2.3743896854801057e-06,4.747161719270597e-06,8.5721703207746e-06
30,2.073041111242587e-06,2.4387113479841983e-06,9.991720956519509e-07,1.979113952256959e-05,5.5149179252225486e-05,2.2078332913009953e-06,2.2450605379022402e-06,2.1306608022001163e-06,1.3274618891275949e-05,4.4251620030141005e-06,1.3708431070123712e-06,1.7281234036234517e-06,2.0366324062334938e-05,2.3101394851921275e-06,4.733009530893253e-06,8.947057865286536e-06
31,2.0196311295417096e-06,2.379112672224967e-06,1.0001977274368478e-06,1.867062667741245e-05,5.599351521684694e-05,2.1818585626395396e-06,2.196301985937408e-06,2.1551671093037695e-06,1.2843270290389338e-05,4.391989824377253e-06,1.3877125524031323e-06,1.7164986612990752e-06,2.055267670526059e-05,2.2648061577104185e-06,4.718371262985436e-06,9.32730300523439e-06
32,1.959405973660962e-06,2.3201600778980584e-06,1.0021200044941828e-06,1.7554755103740933e-05,5.6937218228536086e-05,2.1545238524378665e-06,2.1459810257390553e-06,2.171803463699176e-06,1.2367833147581816e-05,4.348668866473905e-06,1.4063292682419188e-06,1.7050776969959047e-06,2.073374500284721e-05,2.239016892743795e-06,4.704193409735221e-06,9.707311671636669e-06
33,1.8936025696805457e-06,2.2635433890516607e-06,1.004924830888552e-06,1.645885999988865e-05,5.799648942944869e-05,2.1266621141799e-06,2.095568691345204e-06,2.1805920992353733e-06,1.1858087699296463e-05,4.297777084493012e-06,1.4272790399834476e-06,1.6938583332092232e-06,2.0903115700968544e-05,2.2333120076664365e-06,4.690763376797795e-06,1.0081355701946629e-05
34,1.8237784693525156e-06,2.210534573377171e-06,1.00876495361314e-06,1.5396782355905472e-05,5.918828379607536e-05,2.0990870946267065e-06,2.0471653433070425e-06,2.1820180124205033e-06,1.132217892150312e-05,4.241790997529788e-06,1.4508654994607915e-06,1.6827845208274453e-06,2.10575693445958e-05,2.2481330170301683e-06,4.677686391830528e-06,1.0443124622083813e-05
35,1.7515917886894513e-06,2.1619859472369953e-06,1.0138802148418325e-06,1.4380772459380917e-05,6.052819630314486e-05,2.0726335324851537e-06,2.0032633651129547e-06,2.1771135591975883e-06,1.0767037969242146e-05,4.182818611434046e-06,1.4770926481918792e-06,1.6718448935759105e-06,2.119581083084869e-05,2.283762000163235e-06,4.6641281415131904e-06,1.0785089791457995e-05
36,1.6786403240982008e-06,2.118355966521918e-06,1.0205034300015947e-06,1.3420975087468609e-05,6.202796517619534e-05,2.048209522453952e-06,1.9664254391078845e-06,2.1673384492721017e-06,1.0198724605818101e-05,4.12250476501212e-06,1.505712407676709e-06,1.6611058963480584e-06,2.1317038264135363e-05,2.340280591872773e-06,4.649049769507975e-06,1.1098460409458376e-05
37,1.6064288723967355e-06,2.079795791518005e-06,1.0288288967429322e-06,1.2524940138968307e-05,6.369282969578449e-05,2.026775237313532e-06,1.9390067840371606e-06,2.1543166143132813e-06,9.622604076450223e-06,4.0619011728785845e-06,1.5363164250822352e-06,1.650643640028726e-06,2.1421359738404308e-05,2.417552606374894e-06,4.631386279916264e-06,1.1374192431050466e-05
38,1.536437602065364e-06,2.046255511195309e-06,1.0389850084738613e-06,1.1697613169718935e-05,6.55191414927845e-05,2.0092436942950064e-06,1.9230276592401556e-06,2.1395458566506334e-06,9.043593480294344e-06,4.001350167554143e-06,1.5684067711745527e-06,1.6405494441221104e-06,2.1510701604907614e-05,2.515218169118393e-06,4.610252529122264e-06,1.1604565675422634e-05
39,1.4701752804614723e-06,2.0175451083634533e-06,1.0510174014773038e-06,1.094172656925809e-05,6.74946176837863e-05,1.996423585593418e-06,1.920160373529884e-06,2.124218472814206e-06,8.46649363436219e-06,3.940550927553119e-06,1.6013945357433648e-06,1.6310233576714103e-06,2.1587623374026557e-05,2.6326272923661705e-06,4.58503754792601e-06,1.1784426738130892e-05
40,1.40912350222166e-06,1.9933130350727495e-06,1.0649232780196898e-06,1.0258258057979048e-05,6.960391095255845e-05,1.989096839055551e-06,1.931727036295919e-06,2.1092083833833786e-06,7.896247054373133e-06,3.878762157450351e-06,1.6345727940778806e-06,1.6223749675480014e-06,2.1652969791667082e-05,2.7687190381765963e-06,4.555189789482651e-06,1.1911643276075897e-05
41,1.3546046681641727e-06,1.972959013019356e-06,1.0806716378411363e-06,9.646779272802002e-06,7.183700891806356e-05,1.9881385678040607e-06,1.9586854156434885e-06,2.095126870445659e-06,7.338015021841134e-06,3.815004965116961e-06,1.6671477539881688e-06,1.6148942373752838e-06,2.170517423652879e-05,2.9219759589676745e-06,4.519866593047979e-06,1.1986906696028535e-05
42,1.307693952792085e-06,1.955599089951835e-06,1.0981631170100556e-06,9.105654513843116e-06,7.419401536820146e-05,1.9945030274577817e-06,2.00162005710434e-06,2.082324516775517e-06,6.797040297508743e-06,3.748301320562165e-06,1.6983538037252198e-06,1.6087150214918582e-06,2.174189249982522e-05,3.0904474267015122e-06,4.477840761977066e-06,1.2013102527062955e-05
43,1.2692616589178465e-06,1.94019325533538e-06,1.1171796713232302e-06,8.632127916500188e-06,7.668332856846726e-05,2.0090638003296414e-06,2.0607430025013515e-06,2.0708902328737696e-06,6.278302095604831e-06,3.677981486538527e-06,1.7275857469876247e-06,1.603723137271298e-06,2.1762644071415138e-05,3.2717121131985896e-06,4.427801490862e-06,1.1994259770782471e-05
44,1.2401280888366276e-06,1.9257893524316405e-06,1.1373583744641837e-06,8.222362102107855e-06,7.931550521036205e-05,2.032469978084774e-06,2.135944846230729e-06,2.060791461097495e-06,5.786072302098254e-06,3.603897237253157e-06,1.7544218896138147e-06,1.599521660933449e-06,2.1770555096342362e-05,3.4627629458004146e-06,4.3688566221936125e-06,1.1934199735904482e-05
45,1.2212036028710031e-06,1.9117655925705984e-06,1.1582145061203887e-06,7.871449822649628e-06,8.209682106543197e-05,2.0651068567787018e-06,2.226918245368351e-06,2.0521151841205347e-06,5.323567917112729e-06,3.526416634181353e-06,1.7784868328851355e-06,1.5955152223783092e-06,2.1771699294971354e-05,3.659915231561992e-06,4.300921023468102e-06,1.183544488140683e-05
46,1.2134930666334031e-06,1.8979948039587754e-06,1.1792447545036244e-06,7.573448920858472e-06,8.502600354326454e-05,2.1070825140428137e-06,2.333268036536574e-06,2.0451882515494438e-06,4.892823692250466e-06,3.4463038483074377e-06,1.799287583894634e-06,1.5911193821452428e-06,2.177245279229445e-05,3.8588220795752975e-06,4.224671464103984e-06,1.1699079048641247e-05
47,1.218027384891832e-06,1.8848758418012467e-06,1.2000410297926266e-06,7.321571932086325e-06,8.809568880422842e-05,2.158172546487299e-06,2.454490831965581e-06,2.04046093080813e-06,4.49474475606475e-06,3.3645912290664648e-06,1.8162145529560236e-06,1.5859733993051643e-06,2.1776973378097155e-05,4.054616122524956e-06,4.14107898070773e-06,1.1525663944106444e-05
48,1.2358474110177085e-06,1.873193286429947e-06,1.2202930407147522e-06,7.108651624455033e-06,9.129711859252857e-05,2.2177832023550144e-06,2.5898168040521642e-06,2.038263130305908e-06,4.1292505344555885e-06,3.2823817907863053e-06,1.8287027155451097e-06,1.5800058291654774e-06,2.1786005508488378e-05,4.242080579237153e-06,4.051129597734237e-06,1.1316621450661998e-05
49,1.2679864241688728e-06,1.863837194940224e-06,1.2396847906304052e-06,6.927882845953506e-06,9.462444476938601e-05,2.285013659055666e-06,2.7380307050613737e-06,2.0386283716689607e-06,3.7955021777773743e-06,3.200590249154363e-06,1.836355627057136e-06,1.5733202092587412e-06,2.179650310012825e-05,4.415789700691066e-06,3.956164483239175e-06,1.1075321572243173e-05
50,1.3153676214755793e-06,1.8575241773751396e-06,1.2578593547796066e-06,6.773677031847525e-06,9.807498671660996e-05,2.358785544763698e-06,2.8973958554890077e-06,2.041273854617725e-06,3.4922099743945066e-06,3.119842602047288e-06,1.8389190460606551e-06,1.5660094738295517e-06,2.1802015312959406e-05,4.570424876600844e-06,3.858386391023258e-06,1.0807295668276466e-05
51,1.3786886374236878e-06,1.854685886001436e-06,1.2745753267465534e-06,6.6423553696282e-06,0.00010164373116385399,2.43791524558841e-06,3.0657179948772153e-06,2.045688195600097e-06,3.217944687540752e-06,3.0405940178353587e-06,1.8362010444093647e-06,1.5580822901315905e-06,2.179442391001116e-05,4.7013447513679295e-06,3.760899129878717e-06,1.0519442676754825e-05
52,1.4583907442412424e-06,1.8555571739261543e-06,1.2899028693886256e-06,6.532450813186374e-06,0.00010531446228868226,2.521048931365651e-06,3.2404864852700215e-06,2.0512755810643804e-06,2.9713475424182455e-06,2.9631887154922e-06,1.8280719746157905e-06,1.5495955999023308e-06,2.176636568297698e-05,4.805069532221754e-06,3.66721865084368e-06,1.0218756484795197e-05
53,1.554752645462729e-06,1.8602973511078756e-06,1.3042220408915423e-06,6.44455564301831e-06,0.0001090528402665132,2.606504913166223e-06,3.4189404216494252e-06,2.057515881535844e-06,2.751133037849537e-06,2.8876918285725196e-06,1.8145475438307538e-06,1.5408373944488542e-06,2.1712919333496518e-05,4.879337017714195e-06,3.5806274975136956e-06,9.91138726198099e-06
54,1.6681081868678094e-06,1.86897013551719e-06,1.3180444999477395e-06,6.380777025915487e-06,0.00011280419266432557,2.6921327478416174e-06,3.5979926527826294e-06,2.064050130041761e-06,2.5558905701242816e-06,2.8136656285511585e-06,1.795875296145857e-06,1.5323264994593352e-06,2.163181670746917e-05,4.92268165937393e-06,3.5037501731644474e-06,9.602457720839777e-06
55,1.799101083651766e-06,1.8814751394867441e-06,1.3318630204101838e-06,6.343892589522652e-06,0.00011649682745178762,2.775297626245848e-06,3.7742357636945463e-06,2.0706428534721976e-06,2.3839168437835626e-06,2.7401198803307794e-06,1.7725758611319736e-06,1.5246236042796412e-06,2.1522306367877602e-05,4.933938130933476e-06,3.43843143521946e-06,9.296470356911467e-06
56,1.948837622054316e-06,1.8976110746076815e-06,1.3460855908416373e-06,6.336459907636872e-06,0.00012005222633609092,2.8530847939255983e-06,3.944243549157015e-06,2.077082658293142e-06,2.2332994989868353e-06,2.6657192733346404e-06,1.745419022182366e-06,1.5181680410955474e-06,2.1383819864016895e-05,4.912286506984796e-06,3.385757152188392e-06,8.99785001470076e-06
57,2.118872059319015e-06,1.917189014324781e-06,1.3609712388398916e-06,6.360381016749202e-06,0.00012339738450421663,2.922740497967875e-06,4.104996915569134e-06,2.08308593827317e-06,2.102186324089616e-06,2.589183194571031e-06,1.7153083702356585e-06,1.5132775353722766e-06,2.1216013082410658e-05,4.857840196849169e-06,3.346084314823838e-06,8.711166174194856e-06
58,2.311066287482559e-06,1.9400071228696257e-06,1.3765775108426924e-06,6.417101773973653e-06,0.00012646794116843218,2.9822098272405135e-06,4.254145308674922e-06,2.0882077893172443e-06,1.989041798617139e-06,2.5096698636968103e-06,1.6831264249999437e-06,1.5101948362444553e-06,2.1020259906733504e-05,4.772190353065444e-06,3.319054253530539e-06,8.440794282196925e-06
59,2.527385237688634e-06,1.965690515681593e-06,1.392776187713126e-06,6.507958980695842e-06,0.00012919879819912633,3.030512804491578e-06,4.390033492251064e-06,2.091817069974762e-06,1.8927806612965453e-06,2.426930026309796e-06,1.6496726389625328e-06,1.5090658320305686e-06,2.0800491729619284e-05,4.658556193540073e-06,3.303606217353574e-06,8.190187836341829e-06
60,2.769657563104171e-06,1.9935717417974825e-06,1.4092884823015246e-06,6.634222064895621e-06,0.00013151515282816762,3.0677537186170704e-06,4.511587202480611e-06,2.0932506617735782e-06,1.8127585275055275e-06,2.3412111604800677e-06,1.61570583130164e-06,1.5099343157627811e-06,2.0561808357102218e-05,4.521515419903373e-06,3.298014936387235e-06,7.96123157765488e-06
61,3.039377385288693e-06,2.0227570120490015e-06,1.425685716239599e-06,6.796879785571671e-06,0.0001333370278545614,3.0947910242211993e-06,4.618185096127641e-06,2.0920935451698556e-06,1.7486565138209856e-06,2.253030311360193e-06,1.5819552501825393e-06,1.51279960193806e-06,2.0308568036306007e-05,4.366354560958949e-06,3.2999861771685734e-06,7.754000513692778e-06
62,3.337701744310769e-06,2.052350646996779e-06,1.4414409490512701e-06,6.99639336141024e-06,0.00013459389674225875,3.112799738934759e-06,4.709578718597002e-06,2.088352527337023e-06,1.7003314957208022e-06,2.162936039409824e-06,1.5490295632718469e-06,1.5176632178830183e-06,2.0044333511158465e-05,4.198302841910924e-06,3.306902831592608e-06,7.566942028520181e-06
63,3.665709522392786e-06,2.0816881849064708e-06,1.4561190165045876e-06,7.232549635145193e-06,0.00013523878712397592,3.12295132521215e-06,4.785813656744046e-06,2.0824001129259986e-06,1.6676824937267651e-06,2.071450413951155e-06,1.51729757099465e-06,1.5245350278976646e-06,1.977311563053791e-05,4.0220669951934604e-06,3.3162870933074658e-06,7.397408984485898e-06
64,4.024767445604123e-06,2.1104527753006377e-06,1.4696179429406222e-06,7.504461588194772e-06,0.0001352569265465733,3.126285615981443e-06,4.847089332825312e-06,2.074763269524989e-06,1.6505188401997186e-06,1.979264111804782e-06,1.4868529702986053e-06,1.5333743453504332e-06,1.95002864356714e-05,3.84178165736487e-06,3.3263580460762826e-06,7.242342630405787e-06
65,4.416751716030285e-06,2.1386580304836825e-06,1.48231399685831e-06,7.810704025756987e-06,0.00013466803123819034,3.1236946816998897e-06,4.893549380219922e-06,2.0658833863537545e-06,1.648428464764466e-06,1.88739355051607e-06,1.4575861768568927e-06,1.5439684017996654e-06,1.9232860370323175e-05,3.661138394156148e-06,3.3363179485826723e-06,7.0986748628549535e-06
66,4.8439643299137396e-06,2.166554314036091e-06,1.495043740491237e-06,8.149523919084463e-06,0.00013352239637317046,3.115858889324182e-06,4.925004578500475e-06,2.0559653127051107e-06,1.6607062442740705e-06,1.7970936380991813e-06,1.429298055853917e-06,1.5558368178997608e-06,1.8979290003332914e-05,3.483439511090415e-06,3.3460874117910587e-06,6.963389228256269e-06
67,5.308736862298054e-06,2.1944897385614805e-06,1.5089246679544675e-06,8.518985174687435e-06,0.00013189233120041816,3.1030750495472735e-06,4.940665431855994e-06,2.0449919704355475e-06,1.6863655302520793e-06,1.7097277085388538e-06,1.4018077499213088e-06,1.568209721117623e-06,1.8748663403430234e-05,3.3114933592845354e-06,3.35586914239422e-06,6.833814166527007e-06
68,5.812863500966645e-06,2.222728388433771e-06,1.5251055257818574e-06,8.91686777778909e-06,0.00012986168250051893,3.0851203420255366e-06,4.939118425034777e-06,2.0328316649018804e-06,1.72423500687994e-06,1.6267532011539745e-06,1.3750111315596518e-06,1.5801018606672065e-06,1.8549296280086248e-05,3.1474715558244686e-06,3.3659895241779347e-06,6.708223636291794e-06
69,6.357087495113712e-06,2.251313076819969e-06,1.5446012958805222e-06,9.340293151136069e-06,0.00012751572497408093,3.061312752739694e-06,4.918671953901123e-06,2.0192916156425423e-06,1.7731365792341566e-06,1.5496968955243803e-06,1.3488540957087893e-06,1.590516292359909e-06,1.8387210527232575e-05,2.9929178540389215e-06,3.376785432023172e-06,6.586016700582427e-06
70,6.940778212935288e-06,2.2801410566374375e-06,1.5682455803354615e-06,9.78525048625219e-06,0.0001249313922103095,3.030783128360099e-06,4.877882928636198e-06,2.0041332809656904e-06,1.832036597421676e-06,1.4800272848277974e-06,1.3233059613367375e-06,1.5986537842053827e-06,1.8265313169577238e-05,2.8489251194037193e-06,3.38835929098279e-06,6.467341913370654e-06
71,7.561753045731364e-06,2.3092863204164234e-06,1.596669994131091e-06,1.024616901077708e-05,0.00012216806435161833,2.992886139300349e-06,4.8160184647230995e-06,1.9871876370781716e-06,1.9000703069817066e-06,1.4190284805766122e-06,1.2984318194500051e-06,1.6039206444706305e-06,1.8183311294926182e-05,2.7162851095322546e-06,3.4003804535321288e-06,6.352890170523137e-06
72,8.21614311127613e-06,2.339364255065203e-06,1.630302578143839e-06,1.0715539819227538e-05,0.00011926286073194951,2.94759361083862e-06,4.7333700498785175e-06,1.9685621524038226e-06,1.9764948001832584e-06,1.3677652935711927e-06,1.2744947447348585e-06,1.6057829887823828e-06,1.8137693584053895e-05,2.5954535021913562e-06,3.4120132947633925e-06,6.244218006389661e-06
73,8.898294098598226e-06,2.371703030404349e-06,1.6694007834561163e-06,1.1183637655011117e-05,0.00011623280483913695,2.895656736099758e-06,4.631424241311135e-06,1.9487485419024936e-06,2.060686039731182e-06,1.3270853441507369e-06,1.2519469051515183e-06,1.6036973521265723e-06,1.8121970515595526e-05,2.486420151804499e-06,3.421997622664925e-06,6.144131646151418e-06
74,9.600740523721917e-06,2.408259449585199e-06,1.7140538576977904e-06,1.1638555365902329e-05,0.00011307957985548376,2.8384638569426064e-06,4.512870431953864e-06,1.928491256914314e-06,2.152195738761916e-06,1.2975941907028952e-06,1.2312879120045333e-06,1.597177694556684e-06,1.812783054367823e-05,2.388675982410655e-06,3.428852083263261e-06,6.056504778222372e-06
75,1.0314244427649151e-05,2.4513543048623238e-06,1.764152946516356e-06,1.2066792523184954e-05,0.00010979265579494407,2.777743866129297e-06,4.381386280692166e-06,1.9085013695461895e-06,2.250743549627479e-06,1.2796294901434794e-06,1.212910512549757e-06,1.5859314833671461e-06,1.814686180311778e-05,2.3013701560736553e-06,3.431129071324522e-06,5.985493799883783e-06
76,1.1027909796203201e-05,2.503332424518304e-06,1.8193664508395777e-06,1.2454518030581449e-05,0.00010635212125997882,2.7153120743798414e-06,4.241197137315258e-06,1.889249545890702e-06,2.356059713086213e-06,1.2732823449735846e-06,1.1970286133519797e-06,1.5700324631704304e-06,1.8171980337999743e-05,2.223605910580921e-06,3.4277008835858636e-06,5.9346977499539136e-06
77,1.1729559796280261e-05,2.566257645756207e-06,1.8790964721356628e-06,1.2789382230946624e-05,0.00010273417225014235,2.652910014270853e-06,4.096534100099633e-06,1.8709660368724475e-06,2.4677535247428672e-06,1.278449891332374e-06,1.1836632793679374e-06,1.5500315185378777e-06,1.8197991707786294e-05,2.1546349928068276e-06,3.418008549596058e-06,5.906692683414427e-06
78,1.2406713891208114e-05,2.6417332473642704e-06,1.9424342660105975e-06,1.3062346226649059e-05,9.891949780285131e-05,2.5920730841074465e-06,3.951168414426476e-06,1.8537352058573516e-06,2.585439713019304e-06,1.2948681932692315e-06,1.1726526254020092e-06,1.5268642211160478e-06,1.8220948828741062e-05,2.0937839373013598e-06,3.4021867399658493e-06,5.902861204788602e-06
79,1.3048268611910895e-05,2.730876816847295e-06,2.0081616115593156e-06,1.3268709690061547e-05,9.490189261619268e-05,2.533985912236589e-06,3.8081409437874188e-06,1.83751457009705e-06,2.7090110693933118e-06,1.3221248210236997e-06,1.163718018907224e-06,1.5016323875116441e-06,1.8236579745375346e-05,2.0403593412399367e-06,3.3810158095206195e-06,5.923314085447261e-06
80,1.364633209312849e-05,2.8344347468247106e-06,2.074767036671605e-06,1.3407775440366033e-05,9.069380056088991e-05,2.4793575440253264e-06,3.669689141336645e-06,1.8220929372918441e-06,2.838713937695738e-06,1.3596717398661094e-06,1.1565893295780972e-06,1.4754992712303126e-06,1.823905787047964e-05,1.9938125778214065e-06,3.355655911572613e-06,5.96690660583423e-06
81,1.4197195118120054e-05,2.9529759544869675e-06,2.140422955938007e-06,1.3481246482640501e-05,8.632720261925849e-05,2.428395082608651e-06,3.537307755817926e-06,1.807114634768932e-06,2.97489841894532e-06,1.4068131124232977e-06,1.1510846845764576e-06,1.4496985039568383e-06,1.822129178460234e-05,1.9539784661424615e-06,3.327282921190614e-06,6.031499800473779e-06
82,1.4700652749803657e-05,3.0870077550069085e-06,2.2029371133520213e-06,1.3491095874083497e-05,8.185038892059195e-05,2.3809482715086126e-06,3.411895176026789e-06,1.792155343073381e-06,3.117661225959475e-06,1.4626436039844504e-06,1.1470939842246704e-06,1.4254556869574703e-06,1.81761371957905e-05,1.9210563868049194e-06,3.2969432246295926e-06,6.114545057120726e-06
83,1.5158010219011695e-05,3.2368822667727275e-06,2.2597772295945903e-06,1.343809043516205e-05,7.732193770228408e-05,2.3367820631110135e-06,3.293881428025167e-06,1.776713587308519e-06,3.26667610331909e-06,1.525976431542921e-06,1.1445732811936378e-06,1.4038323552963431e-06,1.8096976719751255e-05,1.8953574928473682e-06,3.265703434558706e-06,6.213748376929412e-06
84,1.557071329390585e-05,3.40260776717124e-06,2.3083079679155797e-06,1.3321884038523882e-05,7.280283315705253e-05,2.2958013983225225e-06,3.1832384367938714e-06,1.7601132105978894e-06,3.4213002923804067e-06,1.595351383461453e-06,1.1436058752609998e-06,1.3856397023597331e-06,1.79776370486051e-05,1.8771002027225734e-06,3.2348160932163176e-06,6.327467097617111e-06
85,1.5941383354479703e-05,3.583770851838333e-06,2.3462866033949377e-06,1.3142444508506237e-05,6.834823491173868e-05,2.2580628775410126e-06,3.079509056388111e-06,1.741489845318939e-06,3.5808283836389566e-06,1.669194714887902e-06,1.1444165368178364e-06,1.3714337566195635e-06,1.7813096467137664e-05,1.8663842232415125e-06,3.205729323081393e-06,6.454759194969384e-06
86,1.6276456637121888e-05,3.7795485227800996e-06,2.372435859140019e-06,1.2901697786626837e-05,6.400209524363796e-05,2.223596181515427e-06,2.9820182289507183e-06,1.7199786876781597e-06,3.7446622151352853e-06,1.7460595717451195e-06,1.1472653367274375e-06,1.361557879479363e-06,1.760148625305279e-05,1.8632678995743135e-06,3.179959564825306e-06,6.595145451379859e-06
87,1.6588084859193245e-05,3.98866495575451e-06,2.3867413137577987e-06,1.260451378751692e-05,5.97966153216545e-05,2.192285749800747e-06,2.8901437272684307e-06,1.6950183159343387e-06,3.912216075790332e-06,1.8247256549183459e-06,1.152326412212044e-06,1.3562001458453258e-06,1.734589022541519e-05,1.8679056634735048e-06,3.1588661126030263e-06,6.748121868638358e-06
88,1.6893969109073933e-05,4.209258668682473e-06,2.390223105999781e-06,1.2258886946767959e-05,5.5754583152175876e-05,2.163965093326164e-06,2.8034772356908363e-06,1.6665962564751493e-06,4.082653397435465e-06,1.9040777640985789e-06,1.1596477802385482e-06,1.3554121319579759e-06,1.705406218072165e-05,1.8806796203060834e-06,3.14345731476985e-06,6.912658079662038e-06
89,1.7215209753202333e-05,4.438746084048257e-06,2.384332500413949e-06,1.1875567586131073e-05,5.1891534171443144e-05,2.138543351277233e-06,2.7218948383026502e-06,1.6352901654173247e-06,4.2546959055156796e-06,1.9829432473549614e-06,1.1691456211658535e-06,1.3590978160203258e-06,1.67360149820583e-05,1.9021691663641322e-06,3.134345924806904e-06,7.087139967128926e-06
90,1.757323016075383e-05,4.6737985471065355e-06,2.370472630355993e-06,1.1467374599957486e-05,4.8216675065462054e-05,2.115993887785837e-06,2.6455961023012657e-06,1.6020526374849786e-06,4.42654552742565e-06,2.060033710081763e-06,1.180590445003016e-06,1.3669999383664171e-06,1.640164439868976e-05,1.9329809603895673e-06,3.1318938238951285e-06,7.269892136283436e-06
91,1.7987495934917125e-05,4.9104518876629205e-06,2.3499120443714792e-06,1.1048300792788834e-05,4.4732991786202946e-05,2.096253717976199e-06,2.57509308985183e-06,1.567878919531619e-06,4.595904505302345e-06,2.134019338413205e-06,1.1936050340813776e-06,1.3786898014105168e-06,1.6060423691229574e-05,1.97364192004385e-06,3.136494116587543e-06,7.459919840447686e-06
92,1.847493562963417e-05,5.144264388526564e-06,2.3238568776018055e-06,1.063250112145324e-05,4.143746966972464e-05,2.079091599898319e-06,2.511111628604389e-06,1.5335827603377673e-06,4.760055870991456e-06,2.2036653586941525e-06,1.2076584517389942e-06,1.3935577008828336e-06,1.572261398540629e-05,2.024592282632872e-06,3.148725014211995e-06,7.65746929335606e-06
93,1.905029081161348e-05,5.37049840581977e-06,2.2934296140408494e-06,1.023327727715131e-05,3.832238888921249e-05,2.0639823403894225e-06,2.454425692888952e-06,1.4997527031758905e-06,4.915826735013531e-06,2.2678396765538165e-06,1.2220589686998543e-06,1.410807855539745e-06,1.5399813844601343e-05,2.086200197845305e-06,3.1693193025573204e-06,7.864023577721406e-06
94,1.972642022186764e-05,5.5843917149279175e-06,2.259563416882594e-06,9.862245608813062e-06,3.537793218321318e-05,2.0501135659690964e-06,2.4057047779933634e-06,1.4668231822127947e-06,5.059582259817651e-06,2.325451385847206e-06,1.2360152881872318e-06,1.429524493192874e-06,1.5103847755653406e-05,2.1587905263541975e-06,3.1991382953043513e-06,8.081532887901407e-06
95,2.05143980332701e-05,5.781523340675784e-06,2.22291278618275e-06,9.528864440984437e-06,3.259519900169753e-05,2.0366380945204535e-06,2.36544613704724e-06,1.4351910164851287e-06,5.187569846166274e-06,2.375579313838629e-06,1.2487712934369216e-06,1.4488268789329366e-06,1.484490058729352e-05,2.2426341325559396e-06,3.239063911558235e-06,8.311457982094601e-06
96,2.1423510189139702e-05,5.958117082751995e-06,2.1838399753923275e-06,9.240299947955248e-06,2.996833946220147e-05,2.0230743811209087e-06,2.333994489670378e-06,1.4053003977169882e-06,5.296407509886616e-06,2.4176987834790925e-06,1.2596942967637646e-06,1.467966586249832e-06,1.4630299779811628e-05,2.3378888069341163e-06,3.289804275885208e-06,8.554361210632034e-06
97,2.2461172092945607e-05,6.1110276086962575e-06,2.142435514338729e-06,9.001516756746442e-06,2.749526346619057e-05,2.0095691004573397e-06,2.311600278933729e-06,1.3776387287656136e-06,5.383377667391499e-06,2.4517405164821716e-06,1.2682380870648922e-06,1.486239259300213e-06,1.4464425790699115e-05,2.4445559005958428e-06,3.3518138620074767e-06,8.810012298081384e-06
98,2.3632747821173225e-05,6.2373241071051065e-06,2.098550076587921e-06,8.815511517451884e-06,2.5177136609855463e-05,1.9968234056540507e-06,2.298481218520695e-06,1.3526790293297218e-06,5.446591255637762e-06,2.477963208915126e-06,1.2739068225340477e-06,1.5028198215300493e-06,1.4349122876428068e-05,2.5623930854851614e-06,3.4252921754898266e-06,9.077836433852371e-06
99,2.4941210523746467e-05,6.33390797709152e-06,2.0518985095203952e-06,8.68353277076973e-06,2.3017108947133802e-05,1.9857604943193286e-06,2.2948561693851543e-06,1.3308277903903797e-06,5.4850918193544e-06,2.496731989013205e-06,1.2763074890577572e-06,1.5167417501884886e-06,1.4283975832865812e-05,2.6907727644974426e-06,3.5102554972529104e-06,9.357724178335014e-06
100,2.638658066477089e-05,6.397850639505107e-06,2.0021996751381924e-06,8.605118099941339e-06,2.101893156874097e-05,1.977185354140467e-06,2.300886826552873e-06,1.312373321493214e-06,5.4986733273384675e-06,2.5082915378549598e-06,1.2751782268264287e-06,1.5270721819197507e-06,1.4266717183480284e-05,2.8285776958895265e-06,3.60676710469718e-06,9.650808697360346e-06
101,2.7965146291718642e-05,6.427464233070008e-06,1.9492716326274953e-06,8.577974972472271e-06,1.9186168445597096e-05,1.9716342907271443e-06,2.3165254410840024e-06,1.2974325038863907e-06,5.487331277648958e-06,2.512708880243946e-06,1.2703882030393962e-06,1.533145165434989e-06,1.4294013948831103e-05,2.974133393615996e-06,3.7150801048084646e-06,9.959577297262953e-06
102,2.9668611192432336e-05,6.423314329275708e-06,1.8931331058582242e-06,8.597880978272327e-06,1.7522149843249804e-05,1.9694058435637994e-06,2.3413872656392554e-06,1.2859225583298763e-06,5.450852299766906e-06,2.510059507861249e-06,1.2619739350093254e-06,1.5347178190025973e-06,1.4362006080318143e-05,3.1252139640793585e-06,3.8354020121869375e-06,1.0287119538277761e-05
103,3.148337585373314e-05,6.388508489277141e-06,1.8341457298371823e-06,8.658685894248061e-06,1.6030079764450366e-05,1.970601627263258e-06,2.3747072988661055e-06,1.277545669646743e-06,5.389149816798606e-06,2.500636427060216e-06,1.250119231454271e-06,1.5320266012783163e-06,1.4466109059723051e-05,3.2792575549093725e-06,3.967463757640286e-06,1.0635908986221063e-05
104,3.3389947546612315e-05,6.3282489030918165e-06,1.7730617244853993e-06,8.752418882146368e-06,1.4712612473335084e-05,1.9750758672271786e-06,2.4153212779874426e-06,1.2717762788222223e-06,5.303163438569099e-06,2.48495392577112e-06,1.2350489439333816e-06,1.5257600352476615e-06,1.4600456373853209e-05,3.433773733385558e-06,4.110233670533812e-06,1.1006755639818932e-05
105,3.5362252777410905e-05,6.248997420404608e-06,1.7108505644738034e-06,8.86961469108349e-06,1.3570853438085104e-05,1.9823952658733993e-06,2.461638796265226e-06,1.2679013250689648e-06,5.195464597015313e-06,2.4636055670493773e-06,1.2169663870738082e-06,1.5169154837994155e-06,1.4757526997745779e-05,3.586624414295139e-06,4.261814893062478e-06,1.1398281549925382e-05
106,3.736691099775406e-05,6.157591879206658e-06,1.6484202944220256e-06,8.999934477275056e-06,1.2603407066233744e-05,1.9919256220282286e-06,2.5116211600324375e-06,1.2651801318941104e-06,5.0699681623756295e-06,2.4371637126722183e-06,1.1961020225740954e-06,1.5065409683375118e-06,1.4927981362800376e-05,3.735927602411848e-06,4.419479477233577e-06,1.1806767949271633e-05
107,3.93631809994263e-05,6.060549385409064e-06,1.5865037930904558e-06,9.132950421413481e-06,1.1806060064093564e-05,2.0029584651859052e-06,2.5628258895672068e-06,1.263094299035559e-06,4.930981454256513e-06,2.4061821403577862e-06,1.1727873764297157e-06,1.495508488288037e-06,1.5100721983981548e-05,3.879936910591239e-06,4.5799038796786015e-06,1.2226130640141179e-05
108,4.1304557867452316e-05,5.963664551264701e-06,1.5258137491206925e-06,9.258959363483644e-06,1.117207979985193e-05,2.014733472092674e-06,2.6126202276246855e-06,1.2615065879651032e-06,4.782410289849866e-06,2.3712513967715783e-06,1.1474309531461608e-06,1.4844842272924398e-06,1.5264213575046867e-05,4.017384113887324e-06,4.739505855043428e-06,1.2648164704995912e-05
109,4.314254932592711e-05,5.871816101172966e-06,1.4672773819579385e-06,9.369808919292012e-06,1.0692650505608457e-05,2.0264446763422158e-06,2.658550535259204e-06,1.2605826537389972e-06,4.627560321781219e-06,2.333046454293712e-06,1.1203982424413352e-06,1.4740366252944722e-06,1.540977378117751e-05,4.1479481472252e-06,4.894588365366765e-06,1.3063194700494803e-05
110,4.4832072853262276e-05,5.788822794300176e-06,1.4120974837150706e-06,9.459664814616105e-06,1.0357023310753604e-05,2.037421557430736e-06,2.6987169446062614e-06,1.2605644869305798e-06,4.4691701175902865e-06,2.292283156127093e-06,1.0919279729679028e-06,1.4646686430298272e-06,1.5534900427298668e-05,4.27218091658861e-06,5.041346000297096e-06,1.3460607304730576e-05
111,4.6336648120756985e-05,5.717370673975085e-06,1.3615938931117713e-06,9.525455292868386e-06,1.0152353422884036e-05,2.047402315583899e-06,2.7320060025859344e-06,1.2616163610951649e-06,4.309372993420658e-06,2.2495571133534743e-06,1.0621710690193104e-06,1.4567279384062062e-06,1.5643552120202675e-05,4.3910889854481875e-06,5.176060012914293e-06,1.3828764126588664e-05
112,4.7631169876214554e-05,5.659123365788225e-06,1.3169834944286555e-06,9.566663579902557e-06,1.006361688014101e-05,2.0566184363873807e-06,2.7581252011586338e-06,1.2638199522140836e-06,4.149818386439054e-06,2.205241796136292e-06,1.0313093971688286e-06,1.4503282840722343e-06,1.5742941895088525e-05,4.505943597237221e-06,5.295314625685412e-06,1.4155146889101372e-05
113,4.8700923059254735e-05,5.614938484238816e-06,1.2792459292397457e-06,9.584357376718373e-06,1.0074056676533684e-05,2.0655954682709915e-06,2.7774494747480427e-06,1.267187570712674e-06,3.99208710747312e-06,2.1596101914047855e-06,9.996683979404005e-07,1.4453473026523537e-06,1.583967784177281e-05,4.618171491928396e-06,5.39601890492552e-06,1.4428023724487367e-05
114,4.95368824008387e-05,5.585018125251266e-06,1.2490854477769163e-06,9.579786557482228e-06,1.0166175598643836e-05,2.0748610500189543e-06,2.7906933041137075e-06,1.2716028077253534e-06,3.838130313594702e-06,2.1130499093350846e-06,9.677434542839476e-07,1.4414931046589373e-06,1.5937809874293625e-05,4.729084196960701e-06,5.475604103099182e-06,1.463910009221818e-05
115,5.012923062616756e-05,5.568970767612075e-06,1.226931485337493e-06,9.553286973202436e-06,1.0322811500477295e-05,2.084816276297466e-06,2.798497681548871e-06,1.2767730889057887e-06,3.690470785167077e-06,2.0661576778562016e-06,9.361027070522504e-07,1.4384596249728565e-06,1.6038615330184356e-05,4.839651350193471e-06,5.532380003992304e-06,1.4785257350689903e-05
116,5.0463225823608404e-05,5.565897065354199e-06,1.2129459712082035e-06,9.504050364149384e-06,1.0527823993770456e-05,2.0957997031665396e-06,2.8011638614443264e-06,1.282272258300619e-06,3.5521112360513157e-06,2.019706746683423e-06,9.052611234198013e-07,1.436107086749451e-06,1.6141235731016033e-05,4.950345787316158e-06,5.565420067349248e-06,1.4868366781845995e-05
117,5.0520617003046126e-05,5.574587410495943e-06,1.2070323609868606e-06,9.43057868736333e-06,1.0766310758115245e-05,2.1081506299907854e-06,2.7986719381745663e-06,1.2875975498875381e-06,3.4261836727278452e-06,1.9746154986848382e-06,8.756623338647381e-07,1.4344917994057254e-06,1.6244104821557615e-05,5.061010350709807e-06,5.574037672478084e-06,1.4893631155962625e-05
118,5.028513687943202e-05,5.593776523411943e-06,1.2088395737941549e-06,9.331306888007005e-06,1.102459292519648e-05,2.1221620250940973e-06,2.790843382279216e-06,1.2921559704999854e-06,3.315498148006915e-06,1.9319684994401264e-06,8.477404776490075e-07,1.43371491840226e-06,1.634638997828441e-05,5.170840743404889e-06,5.5576473475948745e-06,1.4867472342466362e-05
119,4.974814602150341e-05,5.6222710654010836e-06,1.217766880645962e-06,9.205179481754124e-06,1.1290275984758491e-05,2.1379971354260995e-06,2.777477950111946e-06,1.2952548635128562e-06,3.2222408382295887e-06,1.8930016090364749e-06,8.219319108111253e-07,1.433807680178516e-06,1.6447992631399044e-05,5.278424047282804e-06,5.516227404920277e-06,1.47956730207977e-05
120,4.891232688695296e-05,5.658800943925764e-06,1.2329930762502196e-06,9.05215878914343e-06,1.155262783816558e-05,2.1556537818376753e-06,2.758476596301478e-06,1.2961844914752833e-06,3.1479507479302572e-06,1.8589879391407594e-06,7.986209696324131e-07,1.4348267841289478e-06,1.6548424883115624e-05,5.381914866645132e-06,5.450655811716983e-06,1.4682138194572086e-05
121,4.779315526021547e-05,5.701683164811629e-06,1.253518218422469e-06,8.873568863430263e-06,1.1803345224483601e-05,2.1749653307990716e-06,2.7339880278088537e-06,1.2943363706371425e-06,3.093690053039199e-06,1.8310845718056568e-06,7.781034998174314e-07,1.4370312934213916e-06,1.6646298184327933e-05,5.479541637099038e-06,5.362351278727457e-06,1.4528807539079557e-05
122,4.6418004666129105e-05,5.748644942629103e-06,1.2781985720396323e-06,8.672180670036666e-06,1.2037459581062978e-05,2.1955744193173293e-06,2.7045106731051127e-06,1.289291136009942e-06,3.0601910886754336e-06,1.810199735069254e-06,7.60582396280402e-07,1.440889366724765e-06,1.6739509660883833e-05,5.570102597462871e-06,5.252756741950559e-06,1.4337109704021026e-05
123,4.4822912599219154e-05,5.797098277910563e-06,1.3058381014134185e-06,8.452069998123256e-06,1.2253871437326467e-05,2.216852031391995e-06,2.6708916988195966e-06,1.2808802630863478e-06,3.047857546860963e-06,1.7969104059584125e-06,7.461498654991398e-07,1.446910721382389e-06,1.6825156616795673e-05,5.652889791593274e-06,5.12351439813421e-06,1.4110427867680163e-05
124,4.30476898043516e-05,5.844765415972852e-06,1.335402350429575e-06,8.218337367326893e-06,1.2455060520794534e-05,2.2378351778832694e-06,2.634267867194908e-06,1.2692165229625977e-06,3.056702189978638e-06,1.7914690736807774e-06,7.347801448639717e-07,1.4554972139482913e-06,1.6900191957497343e-05,5.727083260466144e-06,4.977225598125826e-06,1.3856205922811552e-05
125,4.1130645812392314e-05,5.8902584437057185e-06,1.3662768813139905e-06,7.976675640073226e-06,1.2645858936430392e-05,2.25732325301623e-06,2.5959918163032346e-06,1.254673109515082e-06,3.086294075662293e-06,1.7938819305366839e-06,7.26379747701345e-07,1.4668689170646463e-06,1.6963766650974807e-05,5.791267144802758e-06,4.818001087317878e-06,1.3586346830528376e-05
126,3.91050008588387e-05,5.933275844602193e-06,1.3983823387089576e-06,7.73270985805319e-06,1.2831603450266603e-05,2.2741900344280394e-06,2.5575061153373575e-06,1.2378004436355464e-06,3.1356933874411434e-06,1.8040301323813963e-06,7.208580898093206e-07,1.4810141481544945e-06,1.7019003558681054e-05,5.843541308957261e-06,4.6513023899322825e-06,1.3315589142619347e-05
127,3.699864043364157e-05,5.9742823180387926e-06,1.4320316410234246e-06,7.4912382184303375e-06,1.301636672320274e-05,2.287785603456738e-06,2.520147969529397e-06,1.2191924674147006e-06,3.203414448274794e-06,1.8218829354452218e-06,7.181410913217413e-07,1.4976877924088127e-06,1.7072016489693527e-05,5.882018325869669e-06,4.4832112917672375e-06,1.3058942607861483e-05
128,3.4836279162819634e-05,6.013785526299024e-06,1.4676444923069054e-06,7.255758686212577e-06,1.320202886010792e-05,2.298181588481299e-06,2.4850026766496047e-06,1.1993805541049686e-06,3.2874589179774644e-06,1.8477535736744825e-06,7.18119784870341e-07,1.5164771884270762e-06,1.7129283866440856e-05,5.905299996902427e-06,4.31966652123939e-06,1.2829719210534146e-05
129,3.264156186195545e-05,6.0516140997224e-06,1.5055323735075862e-06,7.028521425235767e-06,1.3388381363810024e-05,2.3060702761559316e-06,2.4529434628442383e-06,1.1788266259810638e-06,3.3853494280682414e-06,1.8823779379239754e-06,7.206026229801243e-07,1.5368559338626647e-06,1.719543339918303e-05,5.912810145710463e-06,4.166081525301422e-06,1.2638724441497413e-05
130,3.0437833074297853e-05,6.086547403408072e-06,1.5458054035085633e-06,6.810952052707499e-06,1.3573786736504584e-05,2.3124362742097967e-06,2.4247967171758935e-06,1.1579537204584039e-06,3.4941446497055333e-06,1.9267462083630193e-06,7.253030292890389e-07,1.558167635017806e-06,1.7272174029886706e-05,5.904883205038022e-06,4.027266194851424e-06,1.2494049281917623e-05
131,2.8247885476109305e-05,6.116250062606598e-06,1.588337878914923e-06,6.604198123977098e-06,1.3755882459262464e-05,2.3183529462268514e-06,2.401450063302668e-06,1.137115411796121e-06,3.610554863192097e-06,1.9818673872066515e-06,7.318298577184515e-07,1.5796150310388512e-06,1.7358383553579856e-05,5.882447212913109e-06,3.907376522076145e-06,1.2400947716348564e-05
132,2.609345531755675e-05,6.137366412869834e-06,1.632789519323328e-06,6.409678835090765e-06,1.3932040200039344e-05,2.3249912757022483e-06,2.3838326056237783e-06,1.1165238698122825e-06,3.731244478448914e-06,2.0486159349248958e-06,7.396860021125793e-07,1.6003579973487495e-06,1.7451084206193545e-05,5.846605510759231e-06,3.809876827867177e-06,1.236180038522488e-05
133,2.3994912491160497e-05,6.145844375100392e-06,1.6787212629402142e-06,6.229516962035723e-06,1.4099375600051243e-05,2.3336014827249264e-06,2.37279575275315e-06,1.0962086423697144e-06,3.853270723516818e-06,2.127658132679092e-06,7.483240267089637e-07,1.6196929984417778e-06,1.7546673677906653e-05,5.798750920952477e-06,3.737580823794855e-06,1.23761831397309e-05
134,2.1971144942591136e-05,6.137595905139451e-06,1.7257624906157116e-06,6.066696177328067e-06,1.425437486597e-05,2.3453512692746244e-06,2.3689460831385452e-06,1.076017916355742e-06,3.974532657848482e-06,2.2193907995061755e-06,7.572535158558359e-07,1.6371699361659585e-06,1.764199479977087e-05,5.741111745838049e-06,3.692664189635218e-06,1.2440989471656885e-05
135,2.003950539066595e-05,6.1094146851930025e-06,1.7736993458898031e-06,5.924866387889562e-06,1.4392649788928556e-05,2.3611440866795586e-06,2.3725293577944185e-06,1.055646992595602e-06,4.094078197111228e-06,2.323860359774206e-06,7.661244348060654e-07,1.6525326581870418e-06,1.773520483623944e-05,5.676924022794706e-06,3.6766552640632367e-06,1.2550678547783283e-05
136,1.821578909616043e-05,6.059831036585673e-06,1.8224310833035295e-06,5.807866911502969e-06,1.4509491412819817e-05,2.3815359109519647e-06,2.3834137201753364e-06,1.0347163357792172e-06,4.212110248346569e-06,2.4407063666090876e-06,7.747259913097273e-07,1.6655527717793674e-06,1.782616104623055e-05,5.609898117087799e-06,3.6905475410900502e-06,1.2697748776559582e-05
137,1.6514247520099416e-05,5.9894634747499455e-06,1.8718802118384643e-06,5.7191451687114174e-06,1.460148983157177e-05,2.4067270191596505e-06,2.401138169716216e-06,1.0129187911835924e-06,4.329658385346979e-06,2.5691504232704874e-06,7.829126664390929e-07,1.6759764987658412e-06,1.7915850340425126e-05,5.543415728112404e-06,3.7349730075295924e-06,1.2873415799636135e-05
138,1.4947531039642574e-05,5.900660053847596e-06,1.921941569721009e-06,5.661301362203014e-06,1.4668679144366815e-05,2.436580451831149e-06,2.4250283947661e-06,9.901741205056774e-07,4.448112585496138e-06,2.7079659971954367e-06,7.905200578888508e-07,1.6836585870431486e-06,1.800496146950057e-05,5.480042805271381e-06,3.81024312037455e-06,1.3068286173263969e-05
139,1.3526377018986093e-05,5.796711249411668e-06,1.9724479667901908e-06,5.636023065066569e-06,1.4716063171373903e-05,2.4706636276007367e-06,2.454335457203989e-06,9.666756722618338e-07,4.56886486131113e-06,2.855428027665046e-06,7.973422973804558e-07,1.6887019582972642e-06,1.8092380015690196e-05,5.421569749728479e-06,3.916214942054395e-06,1.327262350406777e-05
140,1.2259099738706337e-05,5.6811225393745785e-06,2.0230896549059726e-06,5.644495242612837e-06,1.4753633308801513e-05,2.508257653057092e-06,2.488280494285006e-06,9.427869610639798e-07,4.693154494640198e-06,3.0093613935754106e-06,8.031915129057e-07,1.6914503905192922e-06,1.817436250361037e-05,5.3693140395706505e-06,4.052101594324037e-06,1.3475991480447252e-05
141,1.1151318308516622e-05,5.557143511956975e-06,2.073325844159224e-06,5.687976465075209e-06,1.4794961174264904e-05,2.5483403177088732e-06,2.526015557243169e-06,9.188907282970029e-07,4.8221259779601835e-06,3.1672763133185205e-06,8.079672399878215e-07,1.6923512053747926e-06,1.8244550049227723e-05,5.324255364652713e-06,4.216329812798473e-06,1.3666946801849955e-05
142,1.020621448671617e-05,5.427425840426918e-06,2.122374864907036e-06,5.768114785277438e-06,1.4855193946382618e-05,2.5896575787304317e-06,2.5666234185310915e-06,8.953402866646432e-07,4.957037722340173e-06,3.3264051494700503e-06,8.11671936123987e-07,1.6917549468253424e-06,1.8294223386445678e-05,5.286836846802768e-06,4.406453868083389e-06,1.383384343911421e-05
143,9.42506604173286e-06,5.29373906944366e-06,2.16927584420728e-06,5.886900247846584e-06,1.494921750329741e-05,2.6308406782619833e-06,2.60919881455387e-06,8.725279070102184e-07,5.0993813528006155e-06,3.483680668484846e-06,8.143862107529768e-07,1.6897508742505447e-06,1.831225240805579e-05,5.256719413012603e-06,4.619105304133951e-06,1.3966525047007236e-05
144,8.807672911366145e-06,5.156900720347357e-06,2.2129969308653385e-06,6.046502272079503e-06,1.509023914745397e-05,2.6704011152068173e-06,2.6529452895351155e-06,8.509365940747308e-07,5.250646911546717e-06,3.635922075996549e-06,8.162256411004895e-07,1.6861583356562648e-06,1.8285727601472618e-05,5.23282217350345e-06,4.850001184125812e-06,1.4057554687718557e-05
145,8.35256562415901e-06,5.0170210591397586e-06,2.2526095986731067e-06,6.249262205688279e-06,1.5288779249666845e-05,2.7066555725629055e-06,2.6972217768994833e-06,8.31084635278285e-07,5.4118154320578495e-06,3.7802156001580065e-06,8.173295132312876e-07,1.6806833184267374e-06,1.8202749281150227e-05,5.213613607583694e-06,5.094078470809937e-06,1.4102437634677171e-05
146,8.057060368883743e-06,4.873896680551029e-06,2.2875142361921038e-06,6.4978330653677375e-06,1.5552209034938792e-05,2.737852513698648e-06,2.7415197808641105e-06,8.134208354448669e-07,5.5830098794483884e-06,3.9142077823627e-06,8.179049415912606e-07,1.6731018847337552e-06,1.8056587813600923e-05,5.19750818953763e-06,5.345701249897777e-06,1.4099373019457694e-05
147,7.917243900592948e-06,4.727343039501362e-06,2.3176743578226243e-06,6.795224371073292e-06,1.5884929921062536e-05,2.762600808819491e-06,2.7853530625008843e-06,7.982722754758041e-07,5.7635300091053996e-06,4.036186709556742e-06,8.182202185202519e-07,1.6633523455760653e-06,1.7848461975608446e-05,5.183220319790584e-06,5.598735705143019e-06,1.404884862273471e-05
148,7.927935483659555e-06,4.577409803748272e-06,2.3437804028066627e-06,7.144587385162256e-06,1.6288858778442392e-05,2.780317245987073e-06,2.8280577279402804e-06,7.858768427495028e-07,5.952004853611362e-06,4.145009674297741e-06,8.185094436090493e-07,1.6515778600630999e-06,1.7586949020573915e-05,5.169814235721865e-06,5.846529734441949e-06,1.3952894359400391e-05
149,8.082634920517044e-06,4.424520041374236e-06,2.3672008538472112e-06,7.548832141915719e-06,1.6763750917529003e-05,2.791267534815803e-06,2.8686182607157806e-06,7.764580043867904e-07,6.14634357576569e-06,4.239956244725931e-06,8.189164693223296e-07,1.638167951579135e-06,1.728457476492359e-05,5.156372536217604e-06,6.082263546555313e-06,1.3814012453239107e-05
150,8.373455945954499e-06,4.269608300499944e-06,2.3896773510098953e-06,8.010256863779568e-06,1.730731239833679e-05,2.79614532477274e-06,2.905703854978849e-06,7.702602365986374e-07,6.343498194416334e-06,4.320582164730131e-06,8.195432371452878e-07,1.62371707829415e-06,1.6954153798703903e-05,5.141591934084381e-06,6.299915176957189e-06,1.3634035466572997e-05
151,8.791049150335583e-06,4.114289775201092e-06,2.4129324068747807e-06,8.530212544681548e-06,1.7915422286117485e-05,2.795694909351021e-06,2.937958752999737e-06,7.674982908527652e-07,6.539275149482715e-06,4.386564997217107e-06,8.205171811335644e-07,1.608918921426464e-06,1.6606984069223952e-05,5.123753878175146e-06,6.495346049348616e-06,1.3413151328651055e-05
152,9.324513647364077e-06,3.960942143052625e-06,2.4384102462688024e-06,9.108732473079289e-06,1.8582682807112737e-05,2.790746338232747e-06,2.964397293926344e-06,7.68283800094305e-07,6.728310095312537e-06,4.437438866054252e-06,8.219988339164575e-07,1.594569378427199e-06,1.6252615027065293e-05,5.101151705108917e-06,6.666850719013376e-06,1.3149729159446934e-05
153,9.961442789130845e-06,3.812507187008142e-06,2.467213026634442e-06,9.744233517392892e-06,1.9303328023452166e-05,2.782362344731106e-06,2.9846942341259077e-06,7.726298977469823e-07,6.904138391980035e-06,4.472267527207943e-06,8.24158833251157e-07,1.5816388843639193e-06,1.589881270260054e-05,5.072544660568463e-06,6.814923079926897e-06,1.2841508247020077e-05
154,1.0688548265253017e-05,3.672018756406732e-06,2.5001174853252986e-06,1.0433519206626814e-05,2.007263520415095e-05,2.7717472007574543e-06,2.9992098071370674e-06,7.805151229742822e-07,7.05951375057794e-06,4.489560285194631e-06,8.271703934103179e-07,1.5711915940186609e-06,1.55516790796464e-05,5.037285134262942e-06,6.94129680154542e-06,1.248749738828371e-05
155,1.149306398066166e-05,3.5421577644135776e-06,2.537596179343532e-06,1.117205064693242e-05,2.0888886981040242e-05,2.76002601049666e-06,3.0087155676760915e-06,7.91917673002209e-07,7.187272759576298e-06,4.487649770628623e-06,8.311940389444126e-07,1.5641674804940146e-06,1.5216639834299365e-05,4.995132469083621e-06,7.0476459461961505e-06,1.2089303595180529e-05
156,1.2364292251680512e-05,3.4250702807727797e-06,2.5798959092260154e-06,1.1954126548614526e-05,2.1755224292243152e-05,2.74810942694008e-06,3.0139718646765712e-06,8.068385173023915e-07,7.281623714098639e-06,4.465361053226699e-06,8.363320625186793e-07,1.5612388956889786e-06,1.4899730697073063e-05,4.945906086327356e-06,7.13463575410312e-06,1.1651295169953621e-05
157,1.3294414313047193e-05,3.3223303963125485e-06,2.62712306063568e-06,1.2772678671971614e-05,2.268018226219094e-05,2.736634879614519e-06,3.0154138571815883e-06,8.253544636474366e-07,7.339304600095818e-06,4.422580249300385e-06,8.425756428337538e-07,1.5628092616668552e-06,1.4607790045483804e-05,4.889332761122577e-06,7.201718571365859e-06,1.1179877654050664e-05
158,1.4278294483171763e-05,3.2348669954567663e-06,2.6792017602108796e-06,1.361871726432895e-05,2.3676153175392677e-05,2.725899327127063e-06,3.0131078734516796e-06,8.476203993870686e-07,7.359990076583451e-06,4.360418337417714e-06,8.497687754761676e-07,1.5690537306841087e-06,1.4347480108281254e-05,4.825297029367751e-06,7.247439317094678e-06,1.0682542507444233e-05
159,1.5312425644309294e-05,3.1628862397973214e-06,2.7358013171172575e-06,1.4480741006445073e-05,2.475631043332659e-05,2.715806341973511e-06,3.0069311147028793e-06,8.737770045292782e-07,7.345608713479474e-06,4.280928748676245e-06,8.5760232959468e-07,1.5799347536399114e-06,1.4124353939232253e-05,4.754037966076952e-06,7.2697985984464326e-06,1.016714359057273e-05
160,1.6393315407305963e-05,3.1058613921364256e-06,2.796442395076305e-06,1.5344478636383804e-05,2.593184867263042e-05,2.705899194483435e-06,2.9967971512718224e-06,9.038642972277518e-07,7.298926266675503e-06,4.186639821982263e-06,8.656597049498591e-07,1.5952070559231652e-06,1.3942441911358919e-05,4.675994710636884e-06,7.26641635546164e-06,9.641418071348024e-06
161,1.7516242859495602e-05,3.0625966466786805e-06,2.8607256633461574e-06,1.6192962323491347e-05,2.7211322674074415e-05,2.6955876709176675e-06,2.9827703896457463e-06,9.378169234019827e-07,7.2224227704742934e-06,4.080208241985592e-06,8.73530619026283e-07,1.614422866103164e-06,1.3804135549219215e-05,4.591705161404034e-06,7.234619991618918e-06,9.112624064368931e-06
162,1.8675568595752414e-05,3.0314028038610183e-06,2.9284699952408035e-06,1.7006557389590436e-05,2.8601879914983035e-05,2.6845766278639958e-06,2.9650208727811125e-06,9.755039747003673e-07,7.118192315348954e-06,3.964193161373838e-06,8.809194084252288e-07,1.6370017706081792e-06,1.3710288840186304e-05,4.501909256298736e-06,7.171932101004876e-06,8.587265668226678e-06
163,1.9866518629396057e-05,3.0104034479364647e-06,2.9997412741817613e-06,1.7763110124529544e-05,3.011051367373331e-05,2.6731639090446123e-06,2.943656995877337e-06,1.0167675306762274e-06,6.988535033345935e-06,3.840799267193532e-06,8.876226025525215e-07,1.6624202825394844e-06,1.3660184017460283e-05,4.407586604635091e-06,7.0771598878181e-06,8.070859595462362e-06
164,2.108703655005117e-05,2.9978695454536354e-06,3.0749059603579167e-06,1.843924690597609e-05,3.174393474058062e-05,2.6621030123815937e-06,2.9185063091848666e-06,1.0614563029724874e-06,6.8365114817266875e-06,3.7117033984059785e-06,8.934161390977242e-07,1.690343258661465e-06,1.3651558384418229e-05,4.309881539770013e-06,6.951396485782444e-06,7.567747577733812e-06
165,2.233849287254916e-05,2.9924258568194562e-06,3.1547298525036745e-06,1.9013305533504078e-05,3.350712687497394e-05,2.6522663826735198e-06,2.888956105125783e-06,1.109441182409312e-06,6.666168414379748e-06,3.5781368903188404e-06,8.980135417747704e-07,1.7205214966508793e-06,1.3681205936740146e-05,4.209948959043589e-06,6.797909673229737e-06,7.081233361058089e-06
166,2.3625053880332143e-05,2.9930496403261933e-06,3.2403956189121117e-06,1.9468724975924675e-05,3.540157332035062e-05,2.6445410631108082e-06,2.853972523217741e-06,1.160578404779299e-06,6.482443039258506e-06,3.4410992422935325e-06,9.011315028208881e-07,1.7526166470006671e-06,1.374537157009837e-05,4.108749086825026e-06,6.620977197353293e-06,6.61416345364416e-06
167,2.49522319077631e-05,2.9989221923712527e-06,3.333351412772879e-06,1.979606559007215e-05,3.742407518192358e-05,2.6399516787871888e-06,2.8123272244304484e-06,1.2146260512472406e-06,6.290717703168302e-06,3.301554853330077e-06,9.025618193412026e-07,1.7861484559250263e-06,1.3839346126006453e-05,4.007040740838158e-06,6.424947424697764e-06,6.169494313441939e-06
168,2.6325269245252612e-05,3.0092583279084414e-06,3.435028742291706e-06,1.9992732917878648e-05,3.956640123439862e-05,2.639715063459344e-06,2.7629621770516796e-06,1.2711861114642985e-06,6.096101680419567e-06,3.1605875255775814e-06,9.021518897951487e-07,1.820536978459067e-06,1.3957112723476555e-05,3.905653038343817e-06,6.214196128483929e-06,5.750332695066071e-06
169,2.774772262799444e-05,3.0231441569013248e-06,3.546516103848746e-06,2.0060713366073367e-05,4.1815648270237694e-05,2.645157602600934e-06,2.7053520431893764e-06,1.329714142198899e-06,5.90279182862363e-06,3.0194514555066047e-06,8.997108481833028e-07,1.8552282893805377e-06,1.4091398257133248e-05,3.80567150533275e-06,5.993285380516852e-06,5.359459100874739e-06
170,2.9220253285853806e-05,3.039375558247591e-06,3.6682841111385316e-06,2.0003382615346447e-05,4.415534185616786e-05,2.6576294077952265e-06,2.6397112496482436e-06,1.38956118106804e-06,5.713821650583899e-06,2.879535895387174e-06,8.949363656966463e-07,1.889861418500106e-06,1.4233551154353696e-05,3.7082651600438708e-06,5.7667353252419096e-06,4.998843904382108e-06
171,3.0739400859458466e-05,3.056448056770041e-06,3.8000624015455097e-06,1.9822955140811702e-05,4.656717317914719e-05,2.678438803751636e-06,2.5670113661423613e-06,1.450042759545922e-06,5.531203190084649e-06,2.7423474124987707e-06,8.874254819390461e-07,1.92426815054986e-06,1.43733410982338e-05,3.614332506274043e-06,5.538656241815041e-06,4.669694693216904e-06
172,3.229627800702842e-05,3.072818120461981e-06,3.940890438358847e-06,1.952003486352418e-05,4.903258363676143e-05,2.708717870146414e-06,2.4888854555945636e-06,1.510566386831962e-06,5.356380135316836e-06,2.6094584337583364e-06,8.767722765437797e-07,1.9582650207601923e-06,1.4499359591808727e-05,3.5242823645357838e-06,5.31258262402845e-06,4.373082163086835e-06
173,3.387574383821317e-05,3.087265385652208e-06,4.089265358654844e-06,1.909530237482399e-05,5.153272124754738e-05,2.7492154331302273e-06,2.4074513999061476e-06,1.5707509745249526e-06,5.190846334196287e-06,2.4823307224714414e-06,8.626701529089301e-07,1.9914619162230698e-06,1.4600112344948615e-05,3.438124988212707e-06,5.091454789687967e-06,4.1105965848415725e-06
174,3.5456813443135496e-05,3.0991378477332996e-06,4.24331343890386e-06,1.8552028666449156e-05,5.4046041939503015e-05,2.8001402120079014e-06,2.3250343580901553e-06,1.6304086789860516e-06,5.036532612446618e-06,2.362158757641192e-06,8.449738659879094e-07,2.0232271371108622e-06,1.4665286372762664e-05,3.3558141879932952e-06,4.877604249749593e-06,3.884375049352694e-06
175,3.70142580735731e-05,3.1084343767631495e-06,4.400931318938765e-06,1.7898098445546898e-05,5.654577341674722e-05,2.861173002954079e-06,2.2438692637080156e-06,1.6894288402711707e-06,4.8956282405545755e-06,2.2498830456744107e-06,8.238046769312324e-07,2.052724296122283e-06,1.468680152590224e-05,3.2775100030761444e-06,4.672927378169771e-06,3.6965497414414795e-06
176,3.852067630742484e-05,3.115711878645587e-06,4.5598076443898e-06,1.7146620282983395e-05,5.900039310169216e-05,2.9316256757608394e-06,2.1659194962092196e-06,1.7477621424564795e-06,4.770074699305103e-06,2.146260019781385e-06,7.996618290688372e-07,2.0789087664158237e-06,1.4659576442626029e-05,3.2035363268073484e-06,4.47936394441737e-06,3.548874124382755e-06
177,3.9948726819846995e-05,3.121792639906569e-06,4.717283263528468e-06,1.6314840696999158e-05,6.137655552755427e-05,3.0105655390709793e-06,2.0928060235767947e-06,1.8055352734987735e-06,4.661292211444661e-06,2.0518763117755526e-06,7.73369709794599e-07,2.1005566223781132e-06,1.458157343555684e-05,3.1341631730709053e-06,4.299218417626239e-06,3.4429182389100895e-06
178,4.1273849371798504e-05,3.127407853434898e-06,4.870118250191217e-06,1.5422158245405528e-05,6.364174256434035e-05,3.0967664451527928e-06,2.0257813421477806e-06,1.8631062445822263e-06,4.570237397873607e-06,1.9671491159336757e-06,7.458867600494686e-07,2.116438768029759e-06,1.4452606839215471e-05,3.069427612872313e-06,4.134959298229307e-06,3.380362788530796e-06
179,4.2477355506500465e-05,3.1330676671939873e-06,5.014274624101025e-06,1.4488314363789482e-05,6.576631793019094e-05,3.1886060694345073e-06,1.9657515551096874e-06,1.9209413514795696e-06,4.497428430171934e-06,1.8923150664124738e-06,7.181502767613539e-07,2.1255287219846293e-06,1.4272983226549859e-05,3.0091932985223694e-06,3.988922694421237e-06,3.36287858882444e-06
180,4.3548592633733534e-05,3.13923363691088e-06,5.144889674547459e-06,1.3532155429344317e-05,6.772629171465843e-05,3.284142605872904e-06,1.9133087258006403e-06,1.9793906951000853e-06,4.442869981872078e-06,1.8274042178238973e-06,6.910058725565185e-07,2.127092894346303e-06,1.4043731912426134e-05,2.9534978538031633e-06,3.863347890391315e-06,3.391785001102379e-06
181,4.448459639791989e-05,3.146539995644727e-06,5.256631976743388e-06,1.2570897298561377e-05,6.950650440658742e-05,3.3813841136661777e-06,1.8687205867777566e-06,2.0385156810072647e-06,4.406191407708474e-06,1.7722695937992964e-06,6.651816071249862e-07,2.1207057544562782e-06,1.376809671732925e-05,2.9027956114757736e-06,3.760464782253923e-06,3.4678768748859525e-06
182,4.528665103740348e-05,3.155881626763797e-06,5.344414418113322e-06,1.1619763913504363e-05,7.11017606548921e-05,3.4785076111792326e-06,1.8319341272114897e-06,2.09803848001161e-06,4.387046559355296e-06,1.7266626264471335e-06,6.412847291137908e-07,2.1062870295298165e-06,1.3452566474668721e-05,2.857764798095775e-06,3.682307451896073e-06,3.591390295505623e-06
183,4.595505415767249e-05,3.1683991383145246e-06,5.404208545908189e-06,1.0691834127994233e-05,7.251324561288417e-05,3.5738028484364944e-06,1.802648295301036e-06,2.157345065471069e-06,4.385399912083954e-06,1.6902716020413043e-06,6.19803262891423e-07,2.08416227111726e-06,1.3106775584216079e-05,2.818985020330297e-06,3.6303884428488945e-06,3.7619640872370714e-06
184,4.648553886594866e-05,3.185359221554595e-06,5.433674235938076e-06,9.797972926232512e-06,7.374092602374107e-05,3.665430549478234e-06,1.780399487906183e-06,2.215449327506894e-06,4.401397150912961e-06,1.6627145150345846e-06,6.011090282684372e-07,2.0550482118012126e-06,1.2742712339019317e-05,2.786814146071382e-06,3.605506128555744e-06,3.978602378066443e-06
185,4.687027562301328e-05,3.2078990997419166e-06,5.432403829050314e-06,8.946817518809649e-06,7.477777425723674e-05,3.751367542566576e-06,1.7646039785499828e-06,2.2709364623321064e-06,4.434927290921989e-06,1.6435165118276517e-06,5.854672133132413e-07,2.019888730065383e-06,1.2373718634115436e-05,2.7613418197965006e-06,3.607801519054275e-06,4.239747860612557e-06
186,4.710242131862765e-05,3.23675952407224e-06,5.401706102036393e-06,8.144828619859438e-06,7.561125111537264e-05,3.829710309535312e-06,1.7546119052838572e-06,2.322008959357315e-06,4.485233681780112e-06,1.6320781411053523e-06,5.730477634219772e-07,1.979683559581768e-06,1.2013437368548354e-05,2.7423217861386902e-06,3.6369657920184074e-06,4.543574383119535e-06
187,4.7180861870045885e-05,3.272168754685941e-06,5.3439927116878e-06,7.396449024574891e-06,7.623036436033732e-05,3.899083375708595e-06,1.7498608699564624e-06,2.3667428818194635e-06,4.550813512512911e-06,1.6276782805361025e-06,5.639376768076492e-07,1.9354885073056144e-06,1.1674736527854978e-05,2.7291247326602395e-06,3.6923807735453745e-06,4.888345035762151e-06
188,4.711312258680487e-05,3.3138445230915484e-06,5.261952181644517e-06,6.704360194028932e-06,7.66325040583857e-05,3.958818803527773e-06,1.7500920744417582e-06,2.4035180835467504e-06,4.629538939244529e-06,1.6295690271859667e-06,5.581562445058156e-07,1.8884516894452236e-06,1.1368787437534374e-05,2.7207123715440215e-06,3.7731517844538933e-06,5.272527213796292e-06
189,4.691618306078973e-05,3.36099680783671e-06,5.157816881574935e-06,6.069718491048375e-06,7.682673475632512e-05,4.008765458364246e-06,1.7554591775201532e-06,2.431426882061544e-06,4.718807873852454e-06,1.6370945508696787e-06,5.556699173508878e-07,1.8396773570770233e-06,1.11045095349942e-05,2.7157401169058305e-06,3.878210065873787e-06,5.6945736894727115e-06
190,4.661567860280126e-05,3.4123422458466795e-06,5.033050915618474e-06,5.49229486391641e-06,7.68336307955056e-05,4.0489328127300496e-06,1.7664101879475562e-06,2.4504460147073823e-06,4.815695734287225e-06,1.6496883438735292e-06,5.56390762234718e-07,1.7900330772247147e-06,1.0888372153566769e-05,2.712888529799243e-06,4.006435454567272e-06,6.152537866548217e-06
191,4.624414820761047e-05,3.466213416783524e-06,4.888528356246984e-06,4.970572147785753e-06,7.668295345967322e-05,4.079442422051705e-06,1.7834142433500644e-06,2.461291998690706e-06,4.917240435311823e-06,1.6667598585032906e-06,5.601549042520636e-07,1.740141122447844e-06,1.072440920096971e-05,2.711225355868903e-06,4.156529491018316e-06,6.643752755678906e-06
192,4.5838681735574924e-05,3.5207746517307136e-06,4.724949808596727e-06,4.501880985647977e-06,7.641002483817154e-05,4.1008509220947885e-06,1.8067204876460914e-06,2.4650375099431938e-06,5.020905395497808e-06,1.6876322979490887e-06,5.667145412201897e-07,1.690562050584375e-06,1.0614386073054596e-05,2.710258242572313e-06,4.326710597594137e-06,7.1646836004473325e-06
193,4.54378534745779e-05,3.574270509520525e-06,4.543259328902402e-06,4.082595814278306e-06,7.605101049246616e-05,4.114281884828914e-06,1.8362553394346679e-06,2.4626698151259056e-06,5.125039560446243e-06,1.7115727856827042e-06,5.757565010194425e-07,1.6419403411049675e-06,1.0558075209819514e-05,2.70967944857653e-06,4.514581155925219e-06,7.710905239940474e-06
194,4.5077891328901944e-05,3.6252228897489245e-06,4.345022346511633e-06,3.7083607178450437e-06,7.56376251797149e-05,4.121066101849346e-06,1.8716482335230049e-06,2.454799391452606e-06,5.229082575663307e-06,1.737820740070342e-06,5.869184291042197e-07,1.5949330714316647e-06,1.0553429392334622e-05,2.709262081059887e-06,4.717252428717519e-06,8.277075657732707e-06
195,4.4789090590358e-05,3.6725107439774863e-06,4.132755497473117e-06,3.3743115041632654e-06,7.519227893383318e-05,4.122354080154105e-06,1.912346960623696e-06,2.441606767019509e-06,5.3334515363525125e-06,1.7656005658807767e-06,5.997849364438416e-07,1.5500490603493817e-06,1.0596570900984932e-05,2.7091559030700607e-06,4.931501588459622e-06,8.856763860493805e-06
196,4.459436248994149e-05,3.7152402827968956e-06,3.910059767308502e-06,3.075297785034319e-06,7.47246163076377e-05,4.119114638596593e-06,1.9577208366801582e-06,2.4229601555410282e-06,5.43925116201701e-06,1.7941992794795148e-06,6.138783571041313e-07,1.507616723421559e-06,1.068197350655989e-05,2.7101558550677978e-06,5.153760559624701e-06,9.442133804403362e-06
197,4.4510347674164556e-05,3.7524199201112846e-06,3.681350956914605e-06,2.8061517496980446e-06,7.423106811441026e-05,4.112217005811938e-06,2.0070884596401676e-06,2.398620032045756e-06,5.5479159648637455e-06,1.823147950309095e-06,6.287070574540552e-07,1.467846757125296e-06,1.0803028224512742e-05,2.713508763835685e-06,5.379917477544027e-06,1.0023801556197481e-05
198,4.454925613306925e-05,3.782769998280968e-06,3.451237816751409e-06,2.5620529806200236e-06,7.369979084470691e-05,4.102269863639013e-06,2.059837394777804e-06,2.3684651408657698e-06,5.6607492983684015e-06,1.8523943984477722e-06,6.439091869910862e-07,1.4308381701801905e-06,1.0952436977781523e-05,2.7204438649815207e-06,5.605051547795707e-06,1.0591161994677838e-05
199,4.4719750739849034e-05,3.804968858042451e-06,3.2239305452691e-06,2.3389677326385064e-06,7.312065166362476e-05,4.089504032241536e-06,2.1157339136702424e-06,2.3326649858321066e-06,5.778390461069327e-06,1.8822732080093914e-06,6.593681934511023e-07,1.3965292698493886e-06,1.1122147850597411e-05,2.731854685636562e-06,5.823317353171261e-06,1.1133065680189223e-05
200,4.502654709281433e-05,3.8181478158969505e-06,3.0029566632769572e-06,2.1340261175009133e-06,7.249509850472741e-05,4.073986346978292e-06,2.175132105368332e-06,2.291761834780636e-06,5.900439416361832e-06,1.9132541132410773e-06,6.751534197403555e-07,1.3647201993581733e-06,1.1303675911405227e-05,2.748305073572617e-06,6.02811733595589e-06,1.163859452669943e-05
201,4.5468809044269966e-05,3.822247757527416e-06,2.791119901032442e-06,1.945648261880555e-06,7.18397387276204e-05,4.055942592065475e-06,2.2388027580829293e-06,2.2466560810377555e-06,6.025416432167412e-06,1.945678392679534e-06,6.913592229696762e-07,1.3352008851425426e-06,1.1489405033516945e-05,2.770244367960345e-06,6.212485787606971e-06,1.2097825043656915e-05
202,4.6037767289009124e-05,3.818028308631121e-06,2.590587719687601e-06,1.7733277944286256e-06,7.118156373342528e-05,4.035910812563081e-06,2.3075312633177127e-06,2.1984882128569604e-06,6.151000633269765e-06,1.979654611136451e-06,7.080064815950809e-07,1.307868868030007e-06,1.1674102166563533e-05,2.7981461040321118e-06,6.3696198368644966e-06,1.2502485398656766e-05
203,4.671490624690778e-05,3.8067101597568168e-06,2.4030524072240522e-06,1.61716834276039e-06,7.054814594015402e-05,4.01473688437778e-06,2.381819965055263e-06,2.1484554557762974e-06,6.27438464228834e-06,2.015061193942772e-06,7.250313391109644e-07,1.2827568635596204e-06,1.185565028432033e-05,2.8323796476730292e-06,6.493648858106104e-06,1.2846365216574218e-05
204,4.74723052226668e-05,3.789528581034569e-06,2.229861382677517e-06,1.477399677462468e-06,6.99587882132795e-05,3.9935164963822275e-06,2.461832233650773e-06,2.0976603141993544e-06,6.3926109746103954e-06,2.0515824041914605e-06,7.423184112499353e-07,1.259987446863629e-06,1.203459188516894e-05,2.872942967454584e-06,6.58057143850068e-06,1.3125366725940333e-05
205,4.827549382077524e-05,3.7676039051264635e-06,2.0720455992569772e-06,1.3540768931121514e-06,6.942034798744757e-05,3.973503978687247e-06,2.547452774138337e-06,2.0470537435594613e-06,6.502897248276914e-06,2.0888642628398177e-06,7.597607451624024e-07,1.2396860275856557e-06,1.2212568754131288e-05,2.9192758131523643e-06,6.628882701672232e-06,1.3337190636740798e-05
206,4.90875774659563e-05,3.742109148926365e-06,1.9302863574804124e-06,1.2469960386690757e-06,6.892678718969715e-05,3.955935319351093e-06,2.638276608250298e-06,1.9974391711968573e-06,6.602971713761381e-06,2.1267724228159712e-06,7.772976080275458e-07,1.2218811594499524e-06,1.2390549051032593e-05,2.9701953829848146e-06,6.639314575598351e-06,1.3480571628408295e-05
207,4.987292876772569e-05,3.7143476276289476e-06,1.804917923116696e-06,1.1557371886459065e-06,6.846108439391442e-05,3.941742412583769e-06,2.7335527211186993e-06,1.949480215310688e-06,6.691105686955295e-06,2.1655168845028776e-06,7.948832630925901e-07,1.20644653098465e-06,1.2568073546711392e-05,3.0239027948038975e-06,6.61371922339001e-06,1.3554104815792626e-05
208,5.059978754866688e-05,3.685584173975569e-06,1.6960336470891245e-06,1.0797847461589713e-06,6.800067363581872e-05,3.931266364309867e-06,2.832283738357126e-06,1.9037056266628951e-06,6.76563454550429e-06,2.2055201314127064e-06,8.124267418051427e-07,1.1931568989078245e-06,1.2743721705597577e-05,3.0780830165594373e-06,6.554016410770377e-06,1.3555629887632684e-05
209,5.124247650387871e-05,3.6568012502544457e-06,1.6036304481245832e-06,1.0186757484876153e-06,6.752512424533384e-05,3.924121204229469e-06,2.9335222723978267e-06,1.86052665230552e-06,6.824593365633443e-06,2.247182774852881e-06,8.297519681264997e-07,1.18184088593781e-06,1.2915947538824168e-05,3.1302372782077713e-06,6.461995300820019e-06,1.3483199147875102e-05
210,5.1783777358782286e-05,3.6285221950355587e-06,1.5276516524697725e-06,9.720612555216464e-07,6.702045256252316e-05,3.91921065455656e-06,3.036652246136163e-06,1.8202630975869418e-06,6.866062341788013e-06,2.290788312994018e-06,8.465622983900527e-07,1.1724890633162313e-06,1.3083755525405794e-05,3.1782485598104907e-06,6.33968660558193e-06,1.333689980140294e-05
211,5.221649297818762e-05,3.600741852038585e-06,1.4679419600590953e-06,9.396589966341573e-07,6.647632968286848e-05,3.914793481535206e-06,3.141421488411866e-06,1.783154481138262e-06,6.8887300767645676e-06,2.3365669691693512e-06,8.62416024586853e-07,1.1652286350615853e-06,1.3247316211996204e-05,3.220747904495927e-06,6.189745259236932e-06,1.3119916194184295e-05
212,5.25425769165196e-05,3.5730904497728364e-06,1.424232119330249e-06,9.212188992570122e-07,6.587937235983045e-05,3.908593722592132e-06,3.247672142637474e-06,1.749317875333289e-06,6.891947245429785e-06,2.3847093146313736e-06,8.767710952539259e-07,1.160223996610998e-06,1.3408303920536235e-05,3.2569282792479578e-06,6.015800370788018e-06,1.283838374814086e-05
213,5.2769168774961437e-05,3.545310520938896e-06,1.3961483421573648e-06,9.165327385321724e-07,6.521035490367071e-05,3.8980629268849e-06,3.354937828681109e-06,1.7186450284314985e-06,6.875254233309636e-06,2.4352578202214636e-06,8.891178629577124e-07,1.1575937131209465e-06,1.3569323428895394e-05,3.28626483483657e-06,5.822705398935099e-06,1.2500721938389574e-05
214,5.290264074990358e-05,3.5178309610320483e-06,1.3832286824546039e-06,9.253934635509936e-07,6.444908382709864e-05,3.880832820188747e-06,3.4621965141081546e-06,1.6907038399371573e-06,6.8377475134246495e-06,2.4880062464299287e-06,8.99113482825263e-07,1.1573931042815975e-06,1.3732616997089418e-05,3.3087118573342556e-06,5.616323334683463e-06,1.2117084364619378e-05
215,5.2943881150855614e-05,3.4921184225032618e-06,1.3849961166054388e-06,9.475104215517292e-07,6.35825734972603e-05,3.855213471908103e-06,3.5679861436912765e-06,1.6647013374054239e-06,6.777621630711293e-06,2.5424696187038623e-06,9.065973652458477e-07,1.1596651420471893e-06,1.389936126840508e-05,3.3250250137716164e-06,5.402779254037848e-06,1.1698967341253146e-05
216,5.288828662399075e-05,3.4706689200977417e-06,1.4010273891224083e-06,9.824625397203667e-07,6.261088349011139e-05,3.820498324981755e-06,3.670831115261808e-06,1.6395162203959493e-06,6.69228569398334e-06,2.59792441231348e-06,9.115166132003278e-07,1.1644786579206156e-06,1.4070056880937502e-05,3.3366087959038716e-06,5.187656287154372e-06,1.1258667129969217e-05
217,5.2730684202421165e-05,3.4566921274644106e-06,1.430920373084617e-06,1.0297074422961362e-06,6.154909443866391e-05,3.7769614072735644e-06,3.76966066524337e-06,1.6138506326348723e-06,6.579335282920387e-06,2.653615795932248e-06,9.138926922375785e-07,1.1718799574770672e-06,1.4244777220444289e-05,3.3450403648180865e-06,4.975587165550242e-06,1.080837324161463e-05
218,5.247229293196761e-05,3.453647829441827e-06,1.4742043158649635e-06,1.088632900176975e-06,6.0426149533965506e-05,3.7256372828878446e-06,3.863863008378825e-06,1.5865433055033299e-06,6.437951304875633e-06,2.7092226349897953e-06,9.138438126962444e-07,1.1818202625948626e-06,1.4422462054273428e-05,3.3517409760971793e-06,4.770199366278159e-06,1.0359051569671824e-05
219,5.21267726194771e-05,3.464815364206074e-06,1.5302870820014865e-06,1.1585955104843119e-06,5.928131411293977e-05,3.6680138850122e-06,3.952915364025645e-06,1.5569259770991693e-06,6.269747499241077e-06,2.7654135451508487e-06,9.115968286699494e-07,1.1941998222806156e-06,1.4600340962072508e-05,3.357829402088511e-06,4.574179813252664e-06,9.919618214216884e-06
220,5.1723377020357296e-05,3.493003461805146e-06,1.59846262735214e-06,1.2388678889303455e-06,5.815902708165877e-05,3.6056650483575795e-06,4.035918535747168e-06,1.5250042653446138e-06,6.078505010627147e-06,2.824086178366713e-06,9.074578120765135e-07,1.2091880108438874e-06,1.4774432401282434e-05,3.3640164702846417e-06,4.389422976201015e-06,9.496788822324745e-06
221,5.1306022219289186e-05,3.5403983228819892e-06,1.677941828571083e-06,1.3285390620217254e-06,5.710327285597856e-05,3.5398891587867975e-06,4.111401106820407e-06,1.4913537593492153e-06,5.869084044914988e-06,2.888034060733457e-06,9.017577920423342e-07,1.2279430732546831e-06,1.4940121449792058e-05,3.3706540829303935e-06,4.217268562408376e-06,9.095400463110645e-06
222,5.092860188224239e-05,3.608484575545189e-06,1.7678629039499719e-06,1.4264953342863529e-06,5.615255380222929e-05,3.4715849002856295e-06,4.177440023355857e-06,1.4568177038861592e-06,5.646254715308851e-06,2.960278945098155e-06,8.948265768733131e-07,1.2535832100192622e-06,1.5091894975039325e-05,3.377950596893509e-06,4.058743299884082e-06,8.718718102251176e-06
223,5.064862674390952e-05,3.6979845170785043e-06,1.8672697311456466e-06,1.5314745007929561e-06,5.5336041163554966e-05,3.4014758183303866e-06,4.231942122275712e-06,1.4221910541643278e-06,5.4141037589801466e-06,3.0435549470074536e-06,8.86993077103121e-07,1.2918847012116947e-06,1.5223232063954168e-05,3.3860597622910833e-06,3.914767098727212e-06,8.368544720354875e-06
224,5.0521566586988765e-05,3.8088171865000562e-06,1.975064957645783e-06,1.6421006167415723e-06,5.4671218628253094e-05,3.3304424215906237e-06,4.272964033355116e-06,1.388038472978067e-06,5.176131666369488e-06,3.1401028961477244e-06,8.785761266043182e-07,1.3512098288443124e-06,1.532746738822092e-05,3.3949344857251114e-06,3.786307837763853e-06,8.0452103291615e-06
225,5.059691876438126e-05,3.940129384763015e-06,2.0899387111917687e-06,1.7569336921451928e-06,5.4163003315407854e-05,3.259628036744531e-06,4.298984928286732e-06,1.3546909242136808e-06,4.935581032927934e-06,3.251595888196682e-06,8.69894584851227e-07,1.4417162650148658e-06,1.5398719853675045e-05,3.4042095107684697e-06,3.6743940092147183e-06,7.747562080480139e-06
226,5.091567996998279e-05,4.0904131692725494e-06,2.2102871376574793e-06,1.874574683379283e-06,5.380365137891987e-05,3.1902179126549607e-06,4.309055700420033e-06,1.3223527310951646e-06,4.695592177453356e-06,3.379114830871051e-06,8.612967222521148e-07,1.5744188038999819e-06,1.543224473774754e-05,3.413247856825883e-06,3.579905426907322e-06,7.473155150842504e-06
227,5.150864047119183e-05,4.2576285573001815e-06,2.3341487002079126e-06,1.993701461215474e-06,5.357271274696686e-05,3.1230715862884294e-06,4.30280037877719e-06,1.291188065033424e-06,4.459192542772382e-06,3.523192121769134e-06,8.531520331402213e-07,1.7606650217509517e-06,1.5424896417069182e-05,3.421181028837056e-06,3.5032610113504418e-06,7.218689020193338e-06
228,5.239518175362959e-05,4.4392664352617996e-06,2.459198255432093e-06,2.1129962445269704e-06,5.343719700474413e-05,3.058502248809334e-06,4.280316212474198e-06,1.261340227510132e-06,4.229252435030457e-06,3.683839725060416e-06,8.457990287114226e-07,2.012103006892092e-06,1.5376060742583973e-05,3.4269618291406192e-06,3.4442570484152916e-06,6.980474439847063e-06
229,5.3582427355932905e-05,4.632400215323056e-06,2.5828826112561796e-06,2.231149312955162e-06,5.335317327046307e-05,2.996360328421107e-06,4.24205397865822e-06,1.23296445332394e-06,4.008436519361912e-06,3.860494570103977e-06,8.394887872391901e-07,2.340827564666972e-06,1.5287925103890012e-05,3.4295525691061666e-06,3.402136150824953e-06,6.754862831986247e-06
230,5.506478884177419e-05,4.833794706127254e-06,2.7027415414556404e-06,2.346960184003221e-06,5.3269886204411044e-05,2.936308499146775e-06,4.1887362886058206e-06,1.206268899246494e-06,3.7991499366821902e-06,4.051920549222065e-06,8.343668021696937e-07,2.7595107861157517e-06,1.5164259006959166e-05,3.4280338580921778e-06,3.3758769681310924e-06,6.538791054354237e-06
231,5.682431436105513e-05,5.040055575976629e-06,2.816808546902209e-06,2.4593040723701795e-06,5.313561671610066e-05,2.878032947183112e-06,4.121311619025689e-06,1.1814529621372863e-06,3.6035285506985857e-06,4.256102633358132e-06,8.304961136355827e-07,3.28152553825049e-06,1.5009463189548573e-05,3.4215838604597723e-06,3.364749405599481e-06,6.330413541561189e-06
232,5.883242175750647e-05,5.247761651802372e-06,2.9238915741003613e-06,2.5669883374558787e-06,5.2903430563810765e-05,2.821275335195016e-06,4.040910225542004e-06,1.1585975538595738e-06,3.4234697404318126e-06,4.470131477961279e-06,8.278791385867398e-07,3.9210170203849635e-06,1.482912675498655e-05,3.409622190578666e-06,3.3688889203479777e-06,6.129568793957155e-06
233,6.105303154305567e-05,5.453547967080559e-06,3.0235319839863936e-06,2.6687755192322594e-06,5.253610260258667e-05,2.76578400051e-06,3.948772103156992e-06,1.1376702543976496e-06,3.2605939248514885e-06,4.69011244251082e-06,8.264551057483169e-07,4.6928787452058145e-06,1.4630026195638227e-05,3.392032504762972e-06,3.38941483979552e-06,5.937934688154555e-06
234,6.344597571972775e-05,5.654118939042711e-06,3.115618410619514e-06,2.763574790504679e-06,5.20103722993317e-05,2.7112877582127036e-06,3.846090594102063e-06,1.1186405059988471e-06,3.116087058427704e-06,4.911211931271816e-06,8.260754684278861e-07,5.612665515975093e-06,1.4418611121761375e-05,3.3691074024263774e-06,3.4279830058933162e-06,5.758878751952857e-06
235,6.596876236694018e-05,5.846207047562757e-06,3.1999964259099306e-06,2.8505832874181216e-06,5.1319298665769445e-05,2.657452087046468e-06,3.733801875960407e-06,1.1015638027472569e-06,2.9905434411839657e-06,5.12797552673619e-06,8.264776148879621e-07,6.696475528381627e-06,1.4199734051639698e-05,3.341230632765602e-06,3.486133048434048e-06,5.596944147041741e-06
236,6.857519963973558e-05,6.02658407553015e-06,3.2764266477878138e-06,2.929267903140064e-06,5.046985874265304e-05,2.6037676112195335e-06,3.612593325565602e-06,1.086546882799176e-06,2.8839715144579366e-06,5.334918011471279e-06,8.272966310683616e-07,7.96085171488336e-06,1.3976617967232258e-05,3.308681473459062e-06,3.5648553635686318e-06,5.45698043893265e-06
237,7.121236829562168e-05,6.192226272193255e-06,3.3447565164589787e-06,2.9992250771451012e-06,4.9475459109217565e-05,2.5495309029321153e-06,3.4832693673864204e-06,1.0736392189249066e-06,2.7959961805286296e-06,5.527183835676035e-06,8.281401116949938e-07,9.42271147394742e-06,1.3751823732352522e-05,3.2717898242814323e-06,3.6645098983873528e-06,5.343266664802648e-06
238,7.382137346528295e-05,6.340578190818633e-06,3.4049255501232466e-06,3.060188827024631e-06,4.834889196282044e-05,2.4941230137322895e-06,3.3471409536599114e-06,1.0627709138888483e-06,2.7261330359034734e-06,5.701049670276133e-06,8.287207092494845e-07,1.1099171119338944e-05,1.3528558147405762e-05,3.231108680674339e-06,3.784928038339603e-06,5.259010425813353e-06
239,7.634511332745681e-05,6.469752916969144e-06,3.456767468625291e-06,3.1124343415754877e-06,4.710141755447446e-05,2.4374344981036846e-06,3.2061116300641565e-06,1.053786953571396e-06,2.6739609115522493e-06,5.854186714868559e-06,8.289836976390298e-07,1.3007157308381456e-05,1.3311531343052495e-05,3.1872534716005784e-06,3.925465400577264e-06,5.2062245770526e-06
240,7.873905155052072e-05,6.578564195994612e-06,3.499949451486031e-06,3.1572301529388125e-06,4.574656880213368e-05,2.380009433505367e-06,3.062514737890606e-06,1.046530046379836e-06,2.639124286962962e-06,5.985644367819343e-06,8.291346779753795e-07,1.5162937083613798e-05,1.3107011870269204e-05,3.140721684090282e-06,4.08491448392876e-06,5.185739716016592e-06
241,8.097919650407205e-05,6.6663763531381675e-06,3.53421683058465e-06,3.1967555237677872e-06,4.430381713613271e-05,2.3227667880737476e-06,2.9188695045730415e-06,1.040938864978373e-06,2.6212442224798498e-06,6.095460245941783e-06,8.295487466968289e-07,1.7581799508696254e-05,1.2921994324552508e-05,3.0920586760462802e-06,4.261429511726521e-06,5.197186024529276e-06
242,8.306510653646519e-05,6.7327624172797806e-06,3.559703024744859e-06,3.2335660520720875e-06,4.280005454844668e-05,2.266685125107922e-06,2.777630379063203e-06,1.0371483445458605e-06,2.6198105554856736e-06,6.183942388765016e-06,8.306341286341423e-07,2.0277911615414564e-05,1.2762866194094986e-05,3.042052437750904e-06,4.4526421776615975e-06,5.2389435819487815e-06
243,8.501775969172587e-05,6.776982289821021e-06,3.577066539172675e-06,3.270255434733058e-06,4.126891721655338e-05,2.2127836565345856e-06,2.640959015010146e-06,1.0355280920227012e-06,2.6340462419658814e-06,6.250912183764549e-06,8.327359280712515e-07,2.326415247217994e-05,1.2634612570493277e-05,2.991585186570364e-06,4.655865090256492e-06,5.3081485912429975e-06
244,8.687242464532292e-05,6.797507381299935e-06,3.5874431274986055e-06,3.3095966382665802e-06,3.974799963249578e-05,2.162189287579563e-06,2.510547101648015e-06,1.0365998968939797e-06,2.6627983754019094e-06,6.295248209682892e-06,8.361268153823425e-07,2.655179476863778e-05,1.2540909851014067e-05,2.9414191947291805e-06,4.868149204897418e-06,5.4008736477997796e-06
245,8.866785379527959e-05,6.792023243667361e-06,3.592262616057747e-06,3.3548243787239076e-06,3.8274496795771865e-05,2.1160087342674276e-06,2.3875189012915494e-06,1.0408742540017445e-06,2.7045611391589915e-06,6.315013879172937e-06,8.41058859863442e-07,3.015010700853961e-05,1.2484259088603793e-05,2.8922856774615684e-06,5.086106583184658e-06,5.512562008257597e-06
246,9.043614249880705e-05,6.758075527510521e-06,3.5929552897323007e-06,3.4097363312177746e-06,3.688087448628985e-05,2.075100548169166e-06,2.2724442863190447e-06,1.0487088999653338e-06,2.75761424934182e-06,6.3082520323868246e-06,8.477899048987774e-07,3.406603469616587e-05,1.2465728524944646e-05,2.845133846828418e-06,5.305615914189534e-06,5.6385728144422e-06
247,9.219904906754238e-05,6.694006559580575e-06,3.590615919001725e-06,3.4785979660477113e-06,3.559255085992561e-05,2.039951065076269e-06,2.165482841156839e-06,1.060246742761552e-06,2.820161340045744e-06,6.274086407613994e-06,8.565489641104116e-07,3.830400873712628e-05,1.248488359378851e-05,2.801255458320021e-06,5.521688913179196e-06,5.774497563831933e-06
248,9.397159463045846e-05,6.599716139225322e-06,3.585769758433517e-06,3.56590414901499e-06,3.442813302953192e-05,2.0106844286947834e-06,2.0666305561410955e-06,1.0754207371682473e-06,2.890353129447383e-06,6.213466403272113e-06,8.675171670985741e-07,4.2865698947351396e-05,1.253999127682675e-05,2.762195558403175e-06,5.728683253513494e-06,5.916075690193983e-06
249,9.576783414548658e-05,6.4770116881338e-06,3.578306826509412e-06,3.6760594998041134e-06,3.340083189970861e-05,1.9871357054257923e-06,1.9759665161438625e-06,1.0939888174818347e-06,2.966195918936575e-06,6.129068311697584e-06,8.808777927184699e-07,4.774945462956318e-05,1.2627841890501538e-05,2.7294826078460135e-06,5.9207672168134386e-06,6.058889035171284e-06
250,9.760465114007125e-05,6.329484404662492e-06,3.5675478171831767e-06,3.8131248490815106e-06,3.2519626509127954e-05,1.968959186309831e-06,1.8937672671484319e-06,1.1155780687700906e-06,3.0454907822705255e-06,6.024413417008464e-06,8.968467029515779e-07,5.294939534375025e-05,1.2743312862319164e-05,2.7043503921872535e-06,6.092402479880854e-06,6.198135086792998e-06
251,9.950292017939367e-05,6.1619684548047564e-06,3.5523970235040705e-06,3.98075826784826e-06,3.178956331966066e-05,1.9557429204284797e-06,1.8204280753962211e-06,1.139751846859031e-06,3.1258295538274844e-06,5.902786950352343e-06,9.156023591317872e-07,5.84543720719893e-05,1.2879476448505277e-05,2.687604072939353e-06,6.238584769216534e-06,6.328600813526122e-06
252,0.0001014861271396399,5.979795915014561e-06,3.5314438747514646e-06,4.182286530097848e-06,3.1211074497316224e-05,1.9470356826740826e-06,1.7562632977927743e-06,1.1660685391964408e-06,3.204573196791049e-06,5.766631534520131e-06,9.371871672895232e-07,6.424708544602387e-05,1.3028176061172395e-05,2.679584339584402e-06,6.354646317703577e-06,6.444680618690728e-06
253,0.00010357668366026626,5.788119428095824e-06,3.5029564432100576e-06,4.420695885915294e-06,3.0779171467733896e-05,1.9422824411954462e-06,1.7013357057602374e-06,1.194059224001891e-06,3.2789142787623377e-06,5.6176911554901125e-06,9.614672983895458e-07,7.030346996502582e-05,1.3180274919122157e-05,2.6801637455150205e-06,6.435920227854464e-06,6.540451962112489e-06
254,0.00010579085350458327,5.591459378611178e-06,3.464978797178128e-06,4.698429246637521e-06,3.0483709263381685e-05,1.9408223141640368e-06,1.6554211540669416e-06,1.2231755138591224e-06,3.346102394008617e-06,5.457621552106673e-06,9.881386802494822e-07,7.659181937571803e-05,1.3325721966605154e-05,2.688784085821659e-06,6.478127711796393e-06,6.610454222159874e-06
255,0.00010813299929707712,5.393483951669558e-06,3.4156284790561096e-06,5.0170864332631715e-06,3.031058192333641e-05,1.9420034637768615e-06,1.618103789993368e-06,1.252802693611628e-06,3.4037356968150765e-06,5.288528588935232e-06,1.016737481010515e-06,8.307045415316877e-05,1.345462547241904e-05,2.7045843145699735e-06,6.4786969442196994e-06,6.651233099504343e-06
256,0.00011058989543571522,5.196970966195757e-06,3.3534001785699113e-06,5.3771806234578455e-06,3.0242710181705374e-05,1.9452724607433263e-06,1.5889050076600375e-06,1.282312459430915e-06,3.4500090124806176e-06,5.113121721192006e-06,1.0466594945519458e-06,8.968372545167757e-05,1.3559348109222575e-05,2.726681929761729e-06,6.437836030488773e-06,6.6621127186485485e-06
257,0.00011312781696557591,5.003861739542268e-06,3.2773530657512717e-06,5.77799013375124e-06,3.0260129666501164e-05,1.950149089762019e-06,1.56733354415593e-06,1.311127587919044e-06,3.483824653388666e-06,4.934500216215546e-06,1.0772338069898857e-06,9.6358342952151e-05,1.3635519401392751e-05,2.7544236622170394e-06,6.358198456372695e-06,6.644356758682367e-06
258,0.0001156953060883011,4.815289501965128e-06,3.187256837903598e-06,6.217457286832845e-06,3.0339189614140194e-05,1.9561264677255263e-06,1.5528282141846691e-06,1.3388066243958436e-06,3.5047398107531434e-06,4.7557072996444264e-06,1.1078408578131784e-06,0.00010300197861629317,1.36808107204493e-05,2.787278904214239e-06,6.243487052062096e-06,6.600208571817809e-06
259,0.0001182307710367108,4.631598359694472e-06,3.083754679911862e-06,6.692106377163005e-06,3.0451709008444867e-05,1.962560173178879e-06,1.544670954733215e-06,1.3650722335687517e-06,3.5128011445722576e-06,4.579224867202071e-06,1.1379850102205835e-06,0.0001095044111749309,1.3693791989184483e-05,2.8244940289726557e-06,6.097377562306061e-06,6.532931970916328e-06
260,0.0001206712108893327,4.45250302985857e-06,2.968469384647785e-06,7.196974077813837e-06,3.0566027840115126e-05,1.968679617340083e-06,1.5419541758946986e-06,1.3897019011773344e-06,3.5084326737514787e-06,4.4066090004333945e-06,1.1672659770063853e-06,0.00011574122309957648,1.3674839008929233e-05,2.8648946129612048e-06,5.923425915365361e-06,6.446958893139546e-06
261,0.0001229583074321051,4.27736951077776e-06,2.843941098348219e-06,7.725519291541008e-06,3.0651117018722656e-05,1.9738316811059648e-06,1.5436182157156006e-06,1.4123476611772791e-06,3.4925634529993636e-06,4.238386562595773e-06,1.1952712565921035e-06,0.00012157989526008075,1.3626991054255964e-05,2.9069471591132006e-06,5.725356044065725e-06,6.347378244223939e-06
262,0.0001250388819361429,4.105435579823724e-06,2.713374184714255e-06,8.269484766659699e-06,3.068204228298716e-05,1.977792797772765e-06,1.5485310933847365e-06,1.432423350633543e-06,3.4667209547898144e-06,4.0742445964861e-06,1.221470951143103e-06,0.0001268872635662775,1.3554676556109776e-05,2.9490210854923025e-06,5.50719602772956e-06,6.239195513729442e-06
263,0.00012685832306806938,3.935966837179544e-06,2.580254839410196e-06,8.818766750396222e-06,3.064365714646414e-05,1.980833903665241e-06,1.555549295610739e-06,1.4491185847155608e-06,3.432710104303062e-06,3.913500739116027e-06,1.2452322036356432e-06,0.00013153808719373793,1.3461907593570249e-05,2.9897162754367253e-06,5.273384023791527e-06,6.126924529413831e-06
264,0.0001283500103705664,3.7684744593335148e-06,2.4479581957411612e-06,9.361469106139124e-06,3.053069135607602e-05,1.9834795666135576e-06,1.5635024998161933e-06,1.4615303721771787e-06,3.3921488084844102e-06,3.7557032569452806e-06,1.265982085004027e-06,0.00013542578544034362,1.3351891484871143e-05,3.0279986772092695e-06,5.02886504912899e-06,6.0146656963746345e-06
265,0.00012942977592501865,3.6029484294781794e-06,2.3195248534212763e-06,9.884349348623139e-06,3.0344422737706927e-05,1.9862676486749623e-06,1.5711861697448668e-06,1.4688811675551884e-06,3.346236840676865e-06,3.601063559174877e-06,1.2833869516243049e-06,0.00013847409054254783,1.3227463531669181e-05,3.0630103668164668e-06,4.77893122703842e-06,5.906458141403965e-06
266,0.00013000287632924416,3.4398951160718673e-06,2.1976737726556292e-06,1.03737364817416e-05,3.008766178042255e-05,1.9897465087648787e-06,1.5775289230056382e-06,1.4707414413572309e-06,3.295713879211017e-06,3.4505135753439975e-06,1.2973915238234707e-06,0.0001406434715432714,1.3091072766355535e-05,3.0937596343520873e-06,4.528760970515454e-06,5.806481524707371e-06
267,0.0001299808490745324,3.2800771478979053e-06,2.084873527218115e-06,1.0816832037500197e-05,2.9760638055524295e-05,1.9945388105137747e-06,1.581914852032699e-06,1.4671201895967476e-06,3.241006011709535e-06,3.3054232178848458e-06,1.3080935674502788e-06,0.00014192548349961992,1.294420054428715e-05,3.1190277781562885e-06,4.282916982826401e-06,5.7188599023065175e-06
268,0.00012929974275430737,3.1241688553282556e-06,1.9832976853785654e-06,1.1203130129741749e-05,2.9359917327419972e-05,2.001242208980531e-06,1.5844417193165054e-06,1.4583382733005405e-06,3.182627115957824e-06,3.167174944188326e-06,1.3155644735399498e-06,0.00014232520330300025,1.2786788072851579e-05,3.137574242152928e-06,4.045078948752109e-06,5.647190285247039e-06
269,0.00012793201084439237,2.972667027710499e-06,1.8947259868067915e-06,1.152546078680673e-05,2.8880389334397212e-05,2.010222893403409e-06,1.5859257362120622e-06,1.4447968786192455e-06,3.1215878705763743e-06,3.036831289176507e-06,1.3197567731478801e-06,0.00014184288081825507,1.2617322567865583e-05,3.148479254178568e-06,3.818100592276652e-06,5.594077831484484e-06
270,0.0001258863351464087,2.8260607836994693e-06,1.8205417795066807e-06,1.178012447689945e-05,2.8318463007623333e-05,2.0214706649190044e-06,1.5876372672651938e-06,1.4268691693177095e-06,3.059441296217747e-06,2.9150020430397758e-06,1.3205531233250578e-06,0.0001404699456989001,1.243383334140014e-05,3.1514545138666315e-06,3.6042596124378106e-06,5.560868099033223e-06
271,0.00012319373820282145,2.684926887692864e-06,1.7618375837684474e-06,1.1965960807399607e-05,2.7674581499629362e-05,2.0345946563115837e-06,1.5909309192494016e-06,1.4049837343169982e-06,2.9979213967048257e-06,2.801795327591877e-06,1.3178823520050734e-06,0.00013820257647456066,1.2235165039176787e-05,3.1469642265152346e-06,3.405424365211577e-06,5.547595737324242e-06
272,0.00011988748045191583,2.5497825854860503e-06,1.7195190240247088e-06,1.2082705578945928e-05,2.6954130430607985e-05,2.0489430692821664e-06,1.5969700891182356e-06,1.3797739927541918e-06,2.9385306137471397e-06,2.6967669116750566e-06,1.3117987598342353e-06,0.00013506087962920975,1.2021379156683791e-05,3.136063827289964e-06,3.2229994503104437e-06,5.553054323164805e-06
273,0.00011599299766725682,2.420892048992771e-06,1.6943462024467312e-06,1.2129449828518996e-05,2.6166754745963078e-05,2.0637751315361576e-06,1.606616276620727e-06,1.3521544344709658e-06,2.8824347725713793e-06,2.598982357242936e-06,1.302477241467752e-06,0.00013110151945028845,1.1792853867920344e-05,3.1200778779485436e-06,3.0578312229310647e-06,5.575004094047872e-06
274,0.00011153614276373295,2.2982601884298066e-06,1.6869485609488964e-06,1.2104215979386143e-05,2.5324934864879605e-05,2.0784024029239866e-06,1.6204356926692588e-06,1.3232507220964125e-06,2.8306709676391407e-06,2.5072729952890704e-06,1.2901352898119886e-06,0.00012642007058003108,1.1549076273035992e-05,3.1003337776684714e-06,2.9102866327670558e-06,5.610698788907446e-06
275,0.00010655867792862053,2.1817913171585673e-06,1.6978366476181248e-06,1.200492029092202e-05,2.44428405771938e-05,2.0922197342754664e-06,1.6387501468929587e-06,1.2942249042702316e-06,2.784398079910263e-06,2.4205399929285304e-06,1.2749958987559466e-06,0.00012114447452139482,1.1288437626349727e-05,3.0779873985937458e-06,2.780440888404906e-06,5.6576544597082484e-06
276,0.00010112684709131543,2.0714484628669027e-06,1.7273748292202566e-06,1.1830843782788295e-05,2.35357576608051e-05,2.1045854485307295e-06,1.661664031836633e-06,1.2661304249125131e-06,2.7449229250479016e-06,2.337879507406895e-06,1.2573842147768374e-06,0.0001154233714071257,1.1009244598484942e-05,3.0538676560632565e-06,2.668156346441364e-06,5.714161041909105e-06
277,9.533011725112416e-05,1.967315575689995e-06,1.7757216323501083e-06,1.158368060908909e-05,2.2619664242643295e-05,2.1146533947134643e-06,1.6890472459519587e-06,1.2398419890503137e-06,2.7134756339788655e-06,2.2585767828050507e-06,1.2378104644279645e-06,0.0001094137391661064,1.0711238257712972e-05,3.028433876445742e-06,2.572972351250094e-06,5.779165477960272e-06
278,8.927336906201628e-05,1.8695401031512796e-06,1.8428073082100436e-06,1.1267942378730836e-05,2.171055432230334e-05,2.1213426464257135e-06,1.7205138502593432e-06,1.216012723539279e-06,2.690978921272575e-06,2.1822491629856603e-06,1.2168761862486645e-06,0.0001032703047748923,1.03966535838636e-05,3.001933866157752e-06,2.4939680517575215e-06,5.85172595171225e-06
279,8.306621120674106e-05,1.7782362012096473e-06,1.928338552507651e-06,1.0890860750232116e-05,2.0823534770300925e-05,2.1234983081386393e-06,1.7554115410947567e-06,1.195078226016595e-06,2.678038633977955e-06,2.1090872811316863e-06,1.1951244302072938e-06,9.713687237750857e-05,1.0070147813146527e-05,2.974579279918774e-06,2.4298356253934802e-06,5.930590190106563e-06
280,7.681291027021803e-05,1.6935024735739298e-06,2.0317458562788135e-06,1.0461956264457168e-05,1.9971958474299585e-05,2.1201382996337127e-06,1.7928290731762546e-06,1.1773256476871848e-06,2.6750607503467754e-06,2.0398135576772692e-06,1.1729801691064972e-06,9.113981170020923e-05,9.737913642270399e-06,2.9465853868943893e-06,2.3791921084044737e-06,6.014254433200341e-06
281,7.060547823490904e-05,1.6155437264475039e-06,2.1520852727302733e-06,9.992376213431942e-06,1.916681374156591e-05,2.1106485978643876e-06,1.8316822231501863e-06,1.162953452053642e-06,2.6822403977552e-06,1.97532170539859e-06,1.1507259906819357e-06,8.538512430494332e-05,9.406766291652766e-06,2.9182003572574804e-06,2.340873053442855e-06,6.1013190768126295e-06
282,6.452067664561164e-05,1.5447200819422842e-06,2.2880004561706436e-06,9.493990370400396e-06,1.8416424879397406e-05,2.094805853550767e-06,1.8709054103634816e-06,1.1520808339744157e-06,2.699445035019715e-06,1.9164027497277916e-06,1.128471335781747e-06,7.995913709176762e-05,9.083373936252565e-06,2.889833101242008e-06,2.313936982219263e-06,6.190673473854926e-06
283,5.8620467028418215e-05,1.4814623606934542e-06,2.437783235739954e-06,8.97830470503896e-06,1.772630927409874e-05,2.0726017606142423e-06,1.9096815511990233e-06,1.1447456269673556e-06,2.726219698749106e-06,1.8637543225396629e-06,1.1061760195093578e-06,7.493060360759804e-05,8.773555161403965e-06,2.862129891680359e-06,2.297414175837516e-06,6.281339995491345e-06
284,5.295455599549813e-05,1.4261551303796697e-06,2.5994419341429016e-06,8.455581415176212e-06,1.70989409002322e-05,2.044071883698849e-06,1.9475921885526596e-06,1.1409100220847305e-06,2.7619513783364474e-06,1.818029006174241e-06,1.0837911850445882e-06,7.035262013904529e-05,8.481858859658767e-06,2.835830728218948e-06,2.2900974783238646e-06,6.372242539850313e-06
285,4.7563002119837426e-05,1.3790706326377987e-06,2.7707148352454995e-06,7.934588907166309e-06,1.6533459718701497e-05,2.009357474342117e-06,1.9846030313242706e-06,1.140469586358546e-06,2.806001755945741e-06,1.7797501879038165e-06,1.061485262548813e-06,6.626431128855018e-05,8.211486685266157e-06,2.81154319194456e-06,2.2906330443973107e-06,6.462159648424205e-06
286,4.2477720413366366e-05,1.3403361113159373e-06,2.949133057557359e-06,7.422907952403686e-06,1.602581521527097e-05,1.968896714806064e-06,2.020919291850441e-06,1.1432734137243363e-06,2.857688364632366e-06,1.7492203005651424e-06,1.0397644845004905e-06,6.269242091612425e-05,7.964509700312175e-06,2.7896731911135325e-06,2.2979336583951696e-06,6.54975104947013e-06
287,3.7723159076512486e-05,1.309901425869088e-06,3.132197101888427e-06,6.927351668235091e-06,1.556964039669686e-05,1.9234596636251334e-06,2.056806388237334e-06,1.1491385910817142e-06,2.9163713382538436e-06,1.7265299378297666e-06,1.0193610610452816e-06,5.965286783769545e-05,7.742349646408306e-06,2.7704769298448362e-06,2.3116206055976763e-06,6.633400091501909e-06
288,3.331673756019912e-05,1.2875490287055741e-06,3.3175403166454837e-06,6.454183724797701e-06,1.515747623425678e-05,1.873963616748441e-06,2.0924219922525567e-06,1.1578600109837762e-06,2.981942223261927e-06,1.7116077971242083e-06,1.0010139927838224e-06,5.7152173893487335e-05,7.546238104807664e-06,2.7541528376580194e-06,2.3320678787391885e-06,6.711034486549499e-06
289,2.926933949175593e-05,1.2729861038776816e-06,3.502995330741873e-06,6.009103685097194e-06,1.4781846540470414e-05,1.8212868887518323e-06,2.127714884065053e-06,1.1692787468379813e-06,3.055395126108736e-06,1.704240187740204e-06,9.853162794946372e-07,5.518829080030364e-05,7.377549344306882e-06,2.7409766256629413e-06,2.360064859437199e-06,6.780475642590326e-06
290,2.5585907911537092e-05,1.2659608194845527e-06,3.6866283437660384e-06,5.597122252372015e-06,1.4436063997516908e-05,1.7662731382544348e-06,2.1624792350742367e-06,1.1833754817681103e-06,3.1388730717880447e-06,1.7041170368910724e-06,9.726680512676604e-07,5.37505262046375e-05,7.238245281570821e-06,2.731326068869197e-06,2.3965529036447797e-06,6.840383114996517e-06
291,2.2266119755109336e-05,1.266307409530368e-06,3.866804409004276e-06,5.222449653270906e-06,1.4114842196950037e-05,1.7098371820457393e-06,2.1965183041584667e-06,1.200241261079571e-06,3.2351272079205684e-06,1.7109217666607951e-06,9.63291331643612e-07,5.281892761406869e-05,7.131349266000615e-06,2.7256128046514506e-06,2.442595443673125e-06,6.891035595166782e-06
292,1.9305245307605825e-05,1.2738764938431217e-06,4.042268560979485e-06,4.888450220548991e-06,1.3814763982739173e-05,1.652994732109912e-06,2.229726721716537e-06,1.2199241269013161e-06,3.3468949689402757e-06,1.72433025574648e-06,9.572506945444529e-07,5.2363691919124453e-05,7.061016922767249e-06,2.724289510424929e-06,2.499367439290717e-06,6.93423580653689e-06
293,1.6695273471812566e-05,1.2884018556666544e-06,4.212158573433503e-06,4.597643388289861e-06,1.3534628463254673e-05,1.59682206889654e-06,2.2619920132618834e-06,1.242299098517795e-06,3.4765822901394697e-06,1.743894652475872e-06,9.544539705264528e-07,5.234484964448182e-05,7.032022554558223e-06,2.727812089773283e-06,2.568043191713993e-06,6.972483454975204e-06
294,1.4426107996845083e-05,1.3094342737604963e-06,4.3758549207165304e-06,4.3517072620694614e-06,1.3275742527885052e-05,1.5424268372576e-06,2.2930207528480704e-06,1.2670224736536996e-06,3.6261335846258758e-06,1.7689547173676124e-06,9.54648773298275e-07,5.271262639456212e-05,7.048940559360133e-06,2.736521309689676e-06,2.6495955881023365e-06,7.008196165378447e-06
295,1.2486501945269554e-05,1.3364013544390704e-06,4.532655405969045e-06,4.151502058164995e-06,1.3042230183149029e-05,1.4909044704093796e-06,2.3222711794264073e-06,1.293550186443704e-06,3.796866170415173e-06,1.798646985040085e-06,9.5744254083849e-07,5.341004287404379e-05,7.115464179877493e-06,2.750557119253688e-06,2.744591021596868e-06,7.043562671227372e-06
296,1.0864532042719637e-05,1.3686846819701347e-06,4.681381546409949e-06,3.997184175173726e-06,1.2841241636140407e-05,1.4432309380120618e-06,2.349076798152129e-06,1.3212313094043955e-06,3.9892937216052386e-06,1.8319951508674172e-06,9.62351489624826e-07,5.43799685682214e-05,7.234125724081458e-06,2.7697315492438035e-06,2.853142385723289e-06,7.080913039545564e-06
297,9.54760732022857e-06,1.4056287983713877e-06,4.820121252597484e-06,3.888395452309392e-06,1.2682722090646564e-05,1.4001514368676268e-06,2.3728967309351786e-06,1.349462729085738e-06,4.2030404318220955e-06,1.8680338538996443e-06,9.688306780051521e-07,5.55762998422745e-05,7.406372335764058e-06,2.793398266278324e-06,2.9750570886465363e-06,7.12305713901224e-06
298,8.522190140046295e-06,1.4465443100318762e-06,4.946295737568531e-06,3.82437357202543e-06,1.2578490914835435e-05,1.3621305471933505e-06,2.393551908363544e-06,1.377787693056201e-06,4.4368764756678695e-06,1.9058550269425384e-06,9.762582735089652e-07,5.697410965996418e-05,7.632679184545574e-06,2.820545039343635e-06,3.109995545806676e-06,7.173169400091367e-06
299,7.773603114972986e-06,1.4907136960014562e-06,5.057066616269978e-06,3.8038698206282087e-06,1.2540782025670586e-05,1.3293446004560658e-06,2.411317739467454e-06,1.4058432462236806e-06,4.688849600167521e-06,1.9445174458302048e-06,9.839717288834657e-07,5.857228889459448e-05,7.912394826156981e-06,2.8500875168862104e-06,3.2574581609732044e-06,7.234209932331232e-06
300,7.286303876907156e-06,1.5373320998391693e-06,5.149942978727501e-06,3.824968043447091e-06,1.2580946283658496e-05,1.3017307931820788e-06,2.4268218243401474e-06,1.4332686707086063e-06,4.956374863055333e-06,1.9829115546310847e-06,9.91430433507448e-07,6.038696928373923e-05,8.243395206888718e-06,2.8810464385565753e-06,3.4166123352259575e-06,7.308219047012971e-06
301,7.0446918186728375e-06,1.5854646276959623e-06,5.223381862142495e-06,3.8849918928256664e-06,1.2709257634042634e-05,1.2791329969431814e-06,2.4408178065647956e-06,1.459727750400107e-06,5.2361565297713464e-06,2.0197545283287423e-06,9.983678621366545e-07,6.244001502542992e-05,8.621835379976792e-06,2.9125214537294223e-06,3.586102796109846e-06,7.395877825643613e-06
302,7.03415233028591e-06,1.6341387621966607e-06,5.2770765955019904e-06,3.980574923448917e-06,1.293579323555728e-05,1.2614660723549505e-06,2.4539827122629975e-06,1.484992308142323e-06,5.524100327300249e-06,2.0538247572085967e-06,1.0047691227154209e-06,6.474928166253435e-05,9.042056985823696e-06,2.943755496286804e-06,3.76399902002469e-06,7.496517733473806e-06
303,7.241972430757386e-06,1.6824937429714648e-06,5.3116354413549824e-06,4.10786696299212e-06,1.3270935572575444e-05,1.2487545347518161e-06,2.4668257968870872e-06,1.5090009986860593e-06,5.815438061695336e-06,2.084282591048175e-06,1.0107438599360191e-06,6.732548709708048e-05,9.496556007029033e-06,2.9743296598864955e-06,3.948013760623035e-06,7.608523164163977e-06
304,7.657910635199157e-06,1.7298464705403257e-06,5.327813072981341e-06,4.262836724333314e-06,1.3724593234322722e-05,1.241019761930979e-06,2.4796659989377344e-06,1.5319200328615633e-06,6.104989796804779e-06,2.1107417466418676e-06,1.0164438980756361e-06,7.017544937903691e-05,9.976037759258267e-06,3.004126527536143e-06,4.136007072481174e-06,7.729890066080511e-06
305,8.274372391515733e-06,1.7756272334029285e-06,5.3260256462972344e-06,4.4415594917835416e-06,1.4305225059045831e-05,1.2381365591091275e-06,2.492591466167416e-06,1.5541968779575814e-06,6.387391590303603e-06,2.1330149327527147e-06,1.0220159130484068e-06,7.330723930940346e-05,1.0469825337846968e-05,3.033014189624159e-06,4.326514246282886e-06,7.858540523937709e-06
306,9.086278232634802e-06,1.8192363153741842e-06,5.306595760691547e-06,4.640278665091867e-06,1.501971675926177e-05,1.2397716409165267e-06,2.5053967627052406e-06,1.5765373699726759e-06,6.657277755176447e-06,2.150834231138577e-06,1.0275368574756421e-06,7.673327015608592e-05,1.0966778553051265e-05,3.060710440468213e-06,4.518845695779562e-06,7.992102446418266e-06
307,1.009078582494069e-05,1.8599852998623777e-06,5.270333115396465e-06,4.855133836169846e-06,1.5873394303862404e-05,1.2454424491327357e-06,2.5175727514035678e-06,1.5997908892631376e-06,6.9094940901697e-06,2.163809608997653e-06,1.032963769253783e-06,8.047030477137653e-05,1.1456027104260014e-05,3.087085922492592e-06,4.7126259983257215e-06,8.127436602730811e-06
308,1.1286962920070725e-05,1.8972085908786402e-06,5.2189006380277404e-06,5.081781943140394e-06,1.686943164390972e-05,1.254695797506239e-06,2.528391857535695e-06,1.624791969251692e-06,7.139339134867982e-06,2.17161643070665e-06,1.0381393616710335e-06,8.453729607544558e-05,1.1926939785321831e-05,3.1125486820134196e-06,4.907301106720377e-06,8.260532266139754e-06
309,1.267534358098813e-05,1.9303867764368357e-06,5.154821004893883e-06,5.315283752230613e-06,1.8008273317543776e-05,1.2673012712663203e-06,2.5370230357290254e-06,1.6522066285938628e-06,7.3427257138156805e-06,2.1742655583178392e-06,1.042877822874196e-06,8.895206288935723e-05,1.2369485010828801e-05,3.1380209986867726e-06,5.102013794371359e-06,8.386978454293134e-06
310,1.4257267953473943e-05,1.959138013296671e-06,5.0812097393664845e-06,5.550281954896136e-06,1.9287805071639e-05,1.2832865331518925e-06,2.5425423651112993e-06,1.682413617816348e-06,7.516245905576485e-06,2.1722657709227514e-06,1.04712165009617e-06,9.372686283383632e-05,1.2775827850375854e-05,3.164491866934693e-06,5.295507886836392e-06,8.502778180017201e-06
311,1.6034137325646808e-05,1.983154841607337e-06,5.00139582870611e-06,5.781113675513352e-06,2.0703944080716142e-05,1.3028209109007491e-06,2.5438108102070535e-06,1.7154474820855078e-06,7.657223923532789e-06,2.166539872638503e-06,1.0510752192489923e-06,9.886283867102734e-05,1.314155199813475e-05,3.1925402279204185e-06,5.485854223794116e-06,8.605134503357447e-06
312,1.800690229713207e-05,2.0022195897552585e-06,4.9185937544264165e-06,6.001653968001516e-06,2.225087948800354e-05,1.3261437916828943e-06,2.5394053346730027e-06,1.7510202861902327e-06,7.763641767137844e-06,2.158143297482799e-06,1.055197356641079e-06,0.000104344523972958,1.3465152964589695e-05,3.222160171433556e-06,5.670236641065774e-06,8.69260128273925e-06
313,2.017585643801108e-05,2.0163010754482166e-06,4.8356951516687215e-06,6.205170941526385e-06,2.392081558846028e-05,1.3535981484499211e-06,2.5277646014734774e-06,1.7886227206410292e-06,7.833708678432812e-06,2.1479705131215913e-06,1.0600491094799136e-06,0.00011013615226672235,1.374687463615574e-05,3.2529618921417415e-06,5.8448390459264385e-06,8.764215616808175e-06
314,2.2540300088378105e-05,2.0256099803621937e-06,4.755164989444229e-06,6.384645764136014e-06,2.570359235652976e-05,1.3856380966174396e-06,2.5074635743753634e-06,1.8276962224168511e-06,7.865343887254251e-06,2.1366155912261467e-06,1.0661275549948521e-06,0.00011618030885491308,1.3988298068208913e-05,3.284664575595487e-06,6.004835451147398e-06,8.818236749379012e-06
315,2.5097545850402507e-05,2.0304994919358992e-06,4.678969677942752e-06,6.533664308367108e-06,2.7586544720143988e-05,1.4227747102313892e-06,2.4774702588915576e-06,1.8678493855407709e-06,7.856260474500901e-06,2.1244096763964782e-06,1.0737824781195038e-06,0.00012239811534114578,1.4192430790952126e-05,3.31763372209446e-06,6.144717492831347e-06,8.851569154229394e-06
316,2.7841488208737743e-05,2.031267531679079e-06,4.608461851864489e-06,6.6475138561913995e-06,2.955496551629681e-05,1.4655380555216983e-06,2.43734571283547e-06,1.9090449267973655e-06,7.804715006064815e-06,2.1115047080838467e-06,1.0831916032086464e-06,0.00012869047501255532,1.4363098651244564e-05,3.3531613291561337e-06,6.25904291854997e-06,8.860269041413449e-06
317,3.07616230441237e-05,2.0280916646344196e-06,4.5443178533770695e-06,6.723940033599782e-06,3.159341340812339e-05,1.5144578673921894e-06,2.387380856225584e-06,1.9516499902771186e-06,7.710241996143369e-06,2.0978999974466254e-06,1.094354905729027e-06,0.00013494088914108422,1.4503454539858148e-05,3.3934251678284028e-06,6.343388408186455e-06,8.840798876531913e-06
318,3.38428504696887e-05,2.0212166990574533e-06,4.486690019171332e-06,6.763190623595153e-06,3.3687477046846034e-05,1.5700130428560743e-06,2.328631009739106e-06,1.9963149106081285e-06,7.57398534879131e-06,2.083455078227316e-06,1.1070985813654358e-06,0.00014101934264503546,1.4614965931872524e-05,3.441241297762203e-06,6.395184940103946e-06,8.791362680404505e-06
319,3.706600097533009e-05,2.011198415050958e-06,4.435465820765946e-06,6.767313715819288e-06,3.582503696179089e-05,1.6325481119450588e-06,2.262804597614197e-06,2.0437771909521733e-06,7.3987750680067085e-06,2.0679673940973305e-06,1.1210899731067864e-06,0.00014678363991478785,1.4697869050980437e-05,3.4996697511528308e-06,6.414048253839225e-06,8.712466685517136e-06
320,4.040988662745328e-05,1.9989219343638944e-06,4.390395750286677e-06,6.739016752824518e-06,3.79962589146149e-05,1.7021844619004062e-06,2.1920223550901644e-06,2.094699517694594e-06,7.189051521975086e-06,2.051321592904276e-06,1.1358662945606351e-06,0.00015207604220790748,1.4752397201349796e-05,3.57158503635381e-06,6.401253049507674e-06,8.606239444549251e-06
321,4.3855427907576986e-05,1.9853836067836047e-06,4.3510878267683404e-06,6.6806638476558e-06,4.019218580162894e-05,1.778753678161509e-06,2.1185199206100513e-06,2.149542929107902e-06,6.950535885022985e-06,2.033634253563456e-06,1.1508876100236094e-06,0.0001567235563019913,1.4779764246913372e-05,3.659396112733201e-06,6.3585672545172165e-06,8.475274852301825e-06
322,4.7390049851105976e-05,1.9715067528704386e-06,4.317013642444605e-06,6.593967899711675e-06,4.240211036431505e-05,1.8617690406891096e-06,2.0443796843509146e-06,2.2084425275024817e-06,6.68959955688022e-06,2.015246168429262e-06,1.1656287101463125e-06,0.00016055444102092332,1.4782671059114688e-05,3.7649071153748335e-06,6.2874406963765675e-06,8.322206982841483e-06
323,5.100904985932104e-05,1.958120762690682e-06,4.287542937123781e-06,6.480392553126773e-06,4.461079390341012e-05,1.950423803812911e-06,1.9713949862240823e-06,2.2711241070284e-06,6.412499848288122e-06,1.9965190621578477e-06,1.1796470121386065e-06,0.00016342899949982318,1.4765380638491284e-05,3.889194330635322e-06,6.189235944251589e-06,8.150006541699951e-06
324,5.471201402792949e-05,1.9459559309113605e-06,4.261922401612928e-06,6.341737070109517e-06,4.67985459237845e-05,2.043628833690038e-06,1.9010928873625708e-06,2.3368978701627774e-06,6.124749316445097e-06,1.9776500519231845e-06,1.1925369569063003e-06,0.0001652669034427501,1.4733329860103997e-05,4.03251150754506e-06,6.066001595206325e-06,7.962184487936844e-06
325,5.849621500564112e-05,1.9356390367842355e-06,4.239220915304209e-06,6.180476812529397e-06,4.8946116254791826e-05,2.140091041602542e-06,1.8347827843209203e-06,2.4046995294754683e-06,5.8307482411647775e-06,1.958653134000118e-06,1.203815352879658e-06,0.0001660533291966054,1.4692349807924884e-05,4.194253139193423e-06,5.920891744517928e-06,7.762613870375857e-06
326,6.235253091778103e-05,1.9277657733734477e-06,4.2183878471621244e-06,5.999837923041828e-06,5.104128710503871e-05,2.238399949095664e-06,1.7735243397098457e-06,2.4731752586616764e-06,5.533657612535426e-06,1.9393733171953577e-06,1.212876724700327e-06,0.00016581848092771286,1.4647729075511818e-05,4.3729222746210355e-06,5.75785087415237e-06,7.555131582457051e-06
327,6.626724668064872e-05,1.922929378583167e-06,4.198502363692111e-06,5.803726212259509e-06,5.308192014356346e-05,2.3372471600570026e-06,1.7180682399638475e-06,2.5408406446537976e-06,5.235525936770138e-06,1.919487377237453e-06,1.2190913730757693e-06,0.00016460384246843245,1.4603358355442108e-05,4.566089200629137e-06,5.5808199775990835e-06,7.343109532268197e-06
328,7.022670158803775e-05,1.9216529944252945e-06,4.179115747332081e-06,5.5965551388364785e-06,5.5073533245114175e-05,2.4358465692554726e-06,1.668838518379373e-06,2.6062784878517564e-06,4.937682003455299e-06,1.8985986957234273e-06,1.2219744669200038e-06,0.00016244166157386767,1.4561058399822352e-05,4.770389869287665e-06,5.393158168166631e-06,7.129232388038377e-06
329,7.421970119712055e-05,1.9243410628364463e-06,4.16051155965954e-06,5.383015927839933e-06,5.702314775591955e-05,2.5341976610849355e-06,1.625938850657162e-06,2.6682934962306755e-06,4.64123505257724e-06,1.8763761333869042e-06,1.2212690643761174e-06,0.00015936034717823746,1.452009027045641e-05,4.981662423115464e-06,5.1977798796430666e-06,6.915620856663215e-06
