,EMG1,EMG2,EMG3,EMG4,EMG5,EMG6,EMG7,EMG8,EMG9,EMG10,EMG11,EMG12,EMG13,EMG14,EMG15,EMG16
0,1.1309592228981018e-06,3.20803469733252e-07,6.492239698809541e-06,6.632263556146004e-06,3.226764838711613e-08,1.559446129442091e-07,2.4894424487695507e-07,7.444987811088078e-08,2.9108330185200334e-05,1.882532577952172e-07,1.3117475435030997e-06,5.459726444855989e-05,-2.1681267479113734e-08,3.0362307814268975e-07,-4.180274813840905e-09,2.1349676387647717e-07
1,1.3069899701744576e-06,4.0862464035705976e-07,7.798123583350729e-06,1.042131936715979e-05,6.211207407309297e-08,1.9708157365424283e-07,3.2104654730344955e-07,1.1613926498566442e-07,3.94098961614774e-05,3.989346904027705e-07,2.028751156317335e-06,7.173629138372232e-05,1.0925085497116669e-07,3.4188203998747495e-07,5.449089615847151e-08,2.959315901441779e-07
2,1.4832006182300895e-06,4.981608999382716e-07,9.073824897710761e-06,1.4066711935527157e-05,9.172429356684968e-08,2.385844805408318e-07,3.922490300476983e-07,1.5783589344364205e-07,4.950980826400499e-05,6.084823466239398e-07,2.714270485254491e-06,8.88121079004927e-05,2.355005529264957e-07,3.825330041881019e-07,1.1226412585824072e-07,3.7851980674178753e-07
3,1.657262405556283e-06,5.87920937457565e-07,1.0309539464258628e-05,1.7468994217659517e-05,1.2080619469562157e-07,2.8017494541697287e-07,4.609066750957028e-07,1.9927401475251795e-07,5.934737324747829e-05,8.149207734817183e-07,3.3604948242402805e-06,0.00010572091748079438,3.55410612159796e-07,4.252497661016042e-07,1.6843900185155946e-07,4.5987024035828003e-07
4,1.8268257614970273e-06,6.7642972114114e-07,1.1495871491139039e-05,2.0545544002678137e-05,1.4918660870833848e-07,3.2159687912041513e-07,5.256797631348748e-07,2.402351591496225e-07,6.885848794650191e-05,1.0168320512851262e-06,3.960478312705034e-06,0.00012237557417151633,4.674962114307186e-07,4.696943789612399e-07,2.224133994620805e-07,5.386191871395318e-07
5,1.9895595215822153e-06,7.623731728882124e-07,1.2623654626318685e-05,2.3235842465297282e-05,1.7677400676945967e-07,3.626265228505734e-07,5.856764138473864e-07,2.805096397644272e-07,7.798039891012029e-05,1.2134456028609803e-06,4.508670365571908e-06,0.00013870023395816822,5.704642205159345e-07,5.155270720171822e-07,2.7368956376223157e-07,6.134474982725083e-07
6,2.143346413215022e-06,8.448438333962234e-07,1.3684098877185599e-05,2.550438385407882e-05,2.0350545351835343e-07,4.030561904559085e-07,6.40533506600665e-07,3.1988493254069435e-07,8.665557503595867e-05,1.404460349017535e-06,5.00123334550064e-06,0.00015461820285697279,6.632924329881733e-07,5.624024449180437e-07,3.2190165877559733e-07,6.832499525018273e-07
7,2.286601733132923e-06,9.235344623687037e-07,1.4669406940795031e-05,2.734056402400693e-05,2.293200541458312e-07,4.426518015206835e-07,6.903765770078309e-07,3.5817303224142633e-07,9.482937367783399e-05,1.589758125534756e-06,5.436069070210016e-06,0.0001700497314945591,7.454075008147025e-07,6.099618283569226e-07,3.668765386824337e-07,7.47388626218119e-07
8,2.4185026666863736e-06,9.98707549895182e-07,1.5573724357676964e-05,2.8755109727920934e-05,2.5413944384204955e-07,4.81111417692458e-07,7.356796643847334e-07,3.9523338285848315e-07,0.00010244373149055457,1.7692857845259431e-06,5.812431097731316e-06,0.0001849237365367869,8.168007191480355e-07,6.578102506470563e-07,4.0865532769333167e-07,8.057872541766381e-07
9,2.538930280339469e-06,1.070950573351666e-06,1.6394054770972943e-05,2.9773968731674943e-05,2.7785649582912754e-07,5.180583028447904e-07,7.771140344810293e-07,4.3098727890927097e-07,0.00010943665278152675,1.943154155591381e-06,6.1303089901506476e-06,0.0001991918580794857,8.77979301036783e-07,7.054666491067448e-07,4.4744833538605114e-07,8.587780747862126e-07
10,2.6481452683230084e-06,1.1409001790898463e-06,1.7130494481508745e-05,3.04310577444308e-05,3.003520800841787e-07,5.530735830918395e-07,8.15426720938476e-07,4.6542368388065885e-07,0.00011575160392359135,2.1117546878368142e-06,6.390398776983183e-06,0.00021283108893071744,9.29826445733694e-07,7.523296079670573e-07,4.835700928520407e-07,9.068546857079012e-07
11,2.7463842343260914e-06,1.2090700000276698e-06,1.7785242007740514e-05,3.076153677987206e-05,3.215402571669906e-07,5.857476788160361e-07,8.513322019829605e-07,4.985580475859694e-07,0.00012134814177402888,2.2757700696867477e-06,6.594825481314978e-06,0.00022582987998963686,9.734211180775806e-07,7.977138075417622e-07,5.173749532325011e-07,9.505016809985305e-07
12,2.833552350225021e-06,1.2757758929919649e-06,1.836056583385652e-05,3.079839770042773e-05,3.4141624110198183e-07,6.157273782948151e-07,8.854378422691865e-07,5.303735163804051e-07,0.00012620362683674698,2.4361318741191768e-06,6.747388605921279e-06,0.00023817361341229237,1.00983868350924e-06,8.409497472704613e-07,5.492030549487521e-07,9.901270655138744e-07
13,2.9091483209506773e-06,1.3411175513373935e-06,1.885679158303903e-05,3.0573583989764147e-05,3.6007276370036854e-07,6.427412438160516e-07,9.18238970958146e-07,5.608324899372638e-07,0.0001303038830665948,2.5939350207735874e-06,6.852645582416187e-06,0.00024984904885797107,1.0400215114385856e-06,8.814564911449646e-07,5.793743070409897e-07,1.0260399337224705e-06
14,2.972496913530575e-06,1.4049866217398244e-06,1.9271509998178182e-05,3.0120920880732014e-05,3.7767082331108305e-07,6.666066792822381e-07,9.501569846011857e-07,5.899683982412999e-07,0.0001336298083325277,2.7502485337712613e-06,6.914879365254278e-06,0.00026085801516934304,1.0647594676411243e-06,9.18718342700454e-07,6.082096369961611e-07,1.0584650566188514e-06
15,3.0231883844591345e-06,1.4670655030144144e-06,1.960022314284442e-05,2.9477645859041293e-05,3.9438370736147117e-07,6.872459998653469e-07,9.81578240333544e-07,6.17970935528129e-07,0.0001361539466807009,2.905891282613806e-06,6.937905781081377e-06,0.00027121842885964955,1.084727522967564e-06,9.522585191932221e-07,6.360180695632034e-07,1.0875784156613302e-06
16,3.061488735138951e-06,1.5268139187534235e-06,1.9837617521866788e-05,2.8683922062236405e-05,4.1034432677239757e-07,7.047173831466228e-07,1.0129033735483614e-06,6.451778259083678e-07,0.0001378538800300041,3.061317788513703e-06,6.9253307307210214e-06,0.0002809523943096112,1.1005621178167297e-06,9.817315846435486e-07,6.630748192544573e-07,1.1134865065369424e-06
17,3.0885285826839654e-06,1.5834798873987397e-06,1.9978702424200176e-05,2.778105039066977e-05,4.2561791527155477e-07,7.19215650447434e-07,1.0446343067350538e-06,6.719895459976233e-07,0.00013873194167297542,3.216623647251628e-06,6.880691382064777e-06,0.0002900727628860142,1.1129486734510554e-06,1.0070530355183893e-06,6.896345283971947e-07,1.1361933714099913e-06
18,3.106214601268633e-06,1.6361532608338063e-06,2.00196719444433e-05,2.6809022110751378e-05,4.4020430444757304e-07,7.310057133813665e-07,1.0774667140612852e-06,6.988039006450397e-07,0.0001388263063837072,3.3715818087645045e-06,6.807557899452095e-06,0.000298569611317997,1.1226279112851742e-06,1.0284157952573519e-06,7.159327909057748e-07,1.1557057202325902e-06
19,3.1169390700127e-06,1.6838458788858782e-06,1.9958699824334856e-05,2.580430924433378e-05,4.540540269612885e-07,7.403349578628258e-07,1.1122914067181697e-06,7.259944381159216e-07,0.00013820737268112638,3.5256449972242205e-06,6.7097045125036e-06,0.0003063964726303745,1.1303331723969248e-06,1.0462060174664405e-06,7.421521683820091e-07,1.172221157594628e-06
20,3.1232376482359683e-06,1.7255896914489493e-06,1.979682538915288e-05,2.4799080529917754e-05,4.6709988779365283e-07,7.474124499196673e-07,1.1500607246858757e-06,7.538711257960574e-07,0.00013696183647224166,3.6779588449473237e-06,6.591074876575249e-06,0.00031346956374698077,1.1367522577336853e-06,1.0609191835604522e-06,7.683965488154631e-07,1.1861607396379432e-06
21,3.1275128244961674e-06,1.7605640574210913e-06,1.9538777980966685e-05,2.3821981832002322e-05,4.79316380627892e-07,7.524692815385786e-07,1.1916086140646166e-06,7.826195851712425e-07,0.00013517496817553394,3.827574555830866e-06,6.4553714101163505e-06,0.00031968934995708974,1.1424995471455457e-06,1.0731060883254896e-06,7.946825502319294e-07,1.1980000698032049e-06
22,3.1318288023373464e-06,1.788242297343566e-06,1.919334044592613e-05,2.2899232382232156e-05,4.907656133616871e-07,7.558276188282525e-07,1.2375361784417052e-06,8.12271952425067e-07,0.00013292506444955024,3.973833986620656e-06,6.305739822392831e-06,0.00032496854367619073,1.1480796073326647e-06,1.083305583933882e-06,8.20937954706807e-07,1.2080883609427085e-06
23,3.137740828750789e-06,1.80850417211364e-06,1.877296708314538e-05,2.205496729347953e-05,5.015778421721241e-07,7.579071715273311e-07,1.2881743109087124e-06,8.427149615943801e-07,0.00013029081776839578,4.116474743459175e-06,6.144976587635155e-06,0.0003292417633666128,1.1538851258204766e-06,1.0919427425519846e-06,8.470282375889262e-07,1.2165940677129151e-06
24,3.1461761257374973e-06,1.8216394222074938e-06,1.8292725027870488e-05,2.1310763532323644e-05,5.118921933745817e-07,7.59158901050886e-07,1.3435829535932454e-06,8.736981460929703e-07,0.00012735614361152186,4.255228078391793e-06,5.975839620077632e-06,0.0003324482829096278,1.1601969175495857e-06,1.0992345441503337e-06,8.728406008926613e-07,1.2235715532687803e-06
25,3.157394344699576e-06,1.8282022628423074e-06,1.776882411945908e-05,2.068478100898986e-05,5.218208459306039e-07,7.599736649421604e-07,1.4035715812871623e-06,9.048292374975353e-07,0.00012420287382510617,4.389310649455402e-06,5.800959464187268e-06,0.0003345000187618038,1.167152299312946e-06,1.105165811730829e-06,8.983835646292161e-07,1.2290557282038206e-06
26,3.171047241641743e-06,1.8288238276879473e-06,1.7216942205472103e-05,2.019107149300179e-05,5.314503924528906e-07,7.606290829237614e-07,1.467723110182445e-06,9.35579039070088e-07,0.00012089873759215849,4.517229503018454e-06,5.622477607332711e-06,0.00033525933283366696,1.1747354764134847e-06,1.1095816746624075e-06,9.237854994192695e-07,1.2330834775873115e-06
27,3.186364250847423e-06,1.824194143001425e-06,1.6650639430083438e-05,1.9839555761701516e-05,5.408465424743065e-07,7.613033836740406e-07,1.5353915173888756e-06,9.653009466595457e-07,0.00011749090111604469,4.636924897470321e-06,5.441731585201301e-06,0.00033454796471863487,1.1828032648113808e-06,1.11236825882723e-06,9.491889284974072e-07,1.2356786184929141e-06
28,3.202414575928778e-06,1.8152252874980466e-06,1.608044811585052e-05,1.9636707851740645e-05,5.500502705156259e-07,7.621296409448862e-07,1.6056883553206769e-06,9.932699901131033e-07,0.00011400801328474872,4.7461333598573995e-06,5.259221616748928e-06,0.0003321885646788096,1.191118577024327e-06,1.1135695174517859e-06,9.74672131957956e-07,1.2369002740467186e-06
29,3.2183047656902116e-06,1.8031659104611603e-06,1.5513984616432924e-05,1.9586445059592436e-05,5.590923643473434e-07,7.632263842026379e-07,1.6775248897855358e-06,1.0188095585861517e-06,0.00011046864711339655,4.842884724494308e-06,5.07495618499735e-06,0.00032805827627005793,1.19940514870393e-06,1.113337784122806e-06,1.000244666035762e-06,1.2368914608528744e-06
30,3.2331662751425992e-06,1.789545351007554e-06,1.4956635693974327e-05,1.96906770178998e-05,5.680273081834778e-07,7.646741297423637e-07,1.7497578154511926e-06,1.0415295840187396e-06,0.00010689018387077878,4.926047684893111e-06,4.88895393155408e-06,0.00032212509967565763,1.207411350956921e-06,1.1118314405491626e-06,1.0258486393155076e-06,1.2358444576547858e-06
31,3.2459472036518413e-06,1.7760302273113283e-06,1.4412138646481886e-05,1.9949243482175633e-05,5.769382691118586e-07,7.664997613730164e-07,1.8213764177793128e-06,1.061532877289224e-06,0.00010329279569449967,4.995738209143446e-06,4.701583500246189e-06,0.00031444125130977664,1.214953561255709e-06,1.1091757756055926e-06,1.0513192547412205e-06,1.233951643846833e-06
32,3.255311192133594e-06,1.76426305351754e-06,1.3882893858838894e-05,2.035923729068866e-05,5.858936863564066e-07,7.687225106015874e-07,1.8915833508670792e-06,1.0794038419103356e-06,9.969901892057279e-05,5.05330767605126e-06,4.513634555249823e-06,0.0003050974946872159,1.2219286521732895e-06,1.1054335979546343e-06,1.0763421483366905e-06,1.231391361130827e-06
33,3.259887887121619e-06,1.7556904172291095e-06,1.337022726653951e-05,2.0914045889528017e-05,5.949052696301574e-07,7.713965026584987e-07,1.9597014867656205e-06,1.0959785486330609e-06,9.613090480635704e-05,5.100802106781261e-06,4.3261354533697635e-06,0.0002941935209154384,1.2282734183504015e-06,1.1005542809224575e-06,1.1004749621226456e-06,1.228328383596593e-06
34,3.25864444639523e-06,1.7514275837467066e-06,1.2874724278739339e-05,2.1602637479299614e-05,6.039249282505363e-07,7.745799537771863e-07,2.024982126453402e-06,1.112114252490544e-06,9.260459646848792e-05,5.140211352188299e-06,4.139992051213344e-06,0.0002818638387204273,1.233935119421917e-06,1.0943565188019196e-06,1.1231946273826448e-06,1.2249118086421994e-06
35,3.251008923284004e-06,1.7522119614726048e-06,1.2396585254879944e-05,2.240923643207444e-05,6.128712988504005e-07,7.782787921291413e-07,2.0864303764958973e-06,1.1286050815681243e-06,8.912384500392978e-05,5.17307876305069e-06,3.95567763460146e-06,0.0002683182706524297,1.2389318783798067e-06,1.0865501118930303e-06,1.1438930717790502e-06,1.2212644467360192e-06
36,3.2367308946350713e-06,1.7584223872503912e-06,1.193596922561019e-05,2.3313141777317095e-05,6.216894152581529e-07,7.824299413822196e-07,2.1427461734553017e-06,1.1461487921367237e-06,8.567782220297487e-05,5.200684477139585e-06,3.773222728006908e-06,0.00025384373869330766,1.2433841049635239e-06,1.0768153225661993e-06,1.161893729197737e-06,1.2174685422856847e-06
37,3.215691623920215e-06,1.7701063857130927e-06,1.1493327056076281e-05,2.4288845104367243e-05,6.304241930524729e-07,7.869044143508998e-07,2.1924668838474594e-06,1.1652841014856257e-06,8.224734059836775e-05,5.224453977804098e-06,3.59247194092772e-06,0.0002387704192663643,1.2474171033204444e-06,1.0649941992795221e-06,1.1765573451381297e-06,1.2135366277327996e-06
38,3.187798787581322e-06,1.7870059298616845e-06,1.1069672168707398e-05,2.5307012178727628e-05,6.392267004547931e-07,7.915150174980941e-07,2.234293963405699e-06,1.1863450591741312e-06,7.881687277569789e-05,5.246195608268492e-06,3.4133749303980226e-06,0.00022343212473114755,1.2510835189676825e-06,1.051283092448889e-06,1.1873807873021427e-06,1.2093762100565876e-06
39,3.152984167754362e-06,1.8086244511201902e-06,1.0666731235982909e-05,2.6336354167901962e-05,6.482718534994938e-07,7.960618974153059e-07,2.267412288119901e-06,1.2094450387160123e-06,7.538550735398936e-05,5.268083597960116e-06,3.236193569690847e-06,0.00020813825171000087,1.2544224935187723e-06,1.036220247075755e-06,1.1940189684968955e-06,1.2048043364845428e-06
40,3.111268729468443e-06,1.8343414865890497e-06,1.0286956146966392e-05,2.7345695174784735e-05,6.576736892723305e-07,8.003951222530732e-07,2.291592459031559e-06,1.234473786701365e-06,7.197115382426565e-05,5.292550750725649e-06,3.061602584809887e-06,0.00019315894958224438,1.2575419117179169e-06,1.0204845650052453e-06,1.1962777303029614e-06,1.1996169876648167e-06
41,3.0628536173811523e-06,1.8635250972049713e-06,9.933363613701712e-06,2.8305659769261066e-05,6.674553979714491e-07,8.044302518993249e-07,2.3070457821204455e-06,1.2611234798777858e-06,6.860625525424751e-05,5.322272595482183e-06,2.890636586172573e-06,0.00017872099651914595,1.2606073933292939e-06,1.0047072039238075e-06,1.1941230554768309e-06,1.1936380792629799e-06
42,3.008214373634672e-06,1.8956117607293364e-06,9.609189520267392e-06,2.9190012990591357e-05,6.775392757482486e-07,8.081090418930482e-07,2.314185171229156e-06,1.288934830161315e-06,6.532840933813992e-05,5.360209966694435e-06,2.7244946820495234e-06,0.00016501193420507746,1.2637701511050311e-06,9.89377961376354e-07,1.1877110185112126e-06,1.1867732298657822e-06
43,2.948144671053496e-06,1.930140268193791e-06,9.317498245218693e-06,2.9976838980741843e-05,6.87734458651758e-07,8.113553696476937e-07,2.3134771531341857e-06,1.3173188897506695e-06,6.217194814600352e-05,5.4095428571829316e-06,2.564296804157261e-06,0.00015218725416237856,1.2671015580252914e-06,9.747950074023288e-07,1.1774165255645477e-06,1.1791360339218831e-06
44,2.8836467700608422e-06,1.9667235655350584e-06,9.061001618470229e-06,3.064934993923142e-05,6.977680278199093e-07,8.140626598820286e-07,2.3054326268207825e-06,1.3455379168672738e-06,5.916350763292788e-05,5.473435336316255e-06,2.4108886532623616e-06,0.00014037595720436954,1.2705448251907266e-06,9.610424325043257e-07,1.163801366977444e-06,1.1711204171889518e-06
45,2.815665782706524e-06,2.00496850977206e-06,8.842190312989285e-06,3.1195932157844974e-05,7.073577370290967e-07,8.161048603635955e-07,2.2906152058098394e-06,1.3726749016900999e-06,5.632009368454279e-05,5.554685320705195e-06,2.2647770372023684e-06,0.0001296839428013973,1.2738833723519543e-06,9.479943010996289e-07,1.147494945416803e-06,1.1633026291470069e-06
46,2.744885368318637e-06,2.044355212500125e-06,8.663540336275475e-06,3.160932246065963e-05,7.162494806426174e-07,8.173755715318025e-07,2.2695328621108428e-06,1.3976337544716673e-06,5.364799401418695e-05,5.655368566886392e-06,2.1262297818389633e-06,0.00012019663330894215,1.2767858263524037e-06,9.353167953804255e-07,1.1290783198643547e-06,1.1562723381026463e-06
47,2.6718033406955477e-06,2.0840902953898864e-06,8.527369787956525e-06,3.1884935349773615e-05,7.242334530172883e-07,8.178353373705248e-07,2.2424439915824693e-06,1.4191961805117223e-06,5.1143333904425215e-05,5.776652102389863e-06,1.9954322732482857e-06,0.00011198199427181054,1.2789379667996908e-06,9.224816401165704e-07,1.1090464864966941e-06,1.150521743556033e-06
48,2.597017670639079e-06,2.1230250311046976e-06,8.43525067348274e-06,3.2018276502701083e-05,7.312197085229953e-07,8.174961205732692e-07,2.209265683451601e-06,1.4361439671933906e-06,4.879502160560841e-05,5.918862920187695e-06,1.87252899005537e-06,0.00010509443637250801,1.280117998848008e-06,9.088612484212781e-07,1.0877907449655537e-06,1.1464126485547323e-06
49,2.5214817904769136e-06,2.159777917273364e-06,8.387474086377069e-06,3.20023603918125e-05,7.37320602875674e-07,8.163810828103907e-07,2.1697266379672643e-06,1.447442045377143e-06,4.658906849585905e-05,6.081656412747022e-06,1.757561444446017e-06,9.957925257992033e-05,1.280140688232418e-06,8.939389414413996e-07,1.0655727690256378e-06,1.144176754798439e-06
50,2.4465701577871745e-06,2.1930853280520734e-06,8.3829097793597e-06,3.1827528975360055e-05,7.428250611050739e-07,8.145417683751182e-07,2.1237014123683485e-06,1.452449062629106e-06,4.4512949500994976e-05,6.264056501112847e-06,1.6504500303617296e-06,9.547628984423163e-05,1.2787867890814903e-06,8.775200519419271e-07,1.0425479482534999e-06,1.1439050162216357e-06
51,2.373910122584488e-06,2.2221916109540445e-06,8.419010876217038e-06,3.1484771261738854e-05,7.480789676255606e-07,8.120744855820059e-07,2.0715043301804754e-06,1.4510630885379677e-06,4.2558790260117044e-05,6.464282674590373e-06,1.551037732581995e-06,9.282064233847756e-05,1.2757859874588539e-06,8.597565073487889e-07,1.0188206137397266e-06,1.1455374936610627e-06
52,2.3050730483200826e-06,2.247027128378547e-06,8.491994746004136e-06,3.0970439862645415e-05,7.533791296745605e-07,8.090783922675613e-07,2.013955770795557e-06,1.4436716506682083e-06,4.072358797862921e-05,6.679434728863633e-06,1.4591406938033737e-06,9.163887945969546e-05,1.270845220002762e-06,8.409782271810941e-07,9.944494734907389e-07,1.1489333403914029e-06
53,2.2413567023396514e-06,2.268121326174938e-06,8.59751706648215e-06,3.0289696465409434e-05,7.589432095309629e-07,8.056029525950668e-07,1.952230112205362e-06,1.4309161308554838e-06,3.900594864827003e-05,6.905200202066057e-06,1.3746150078794816e-06,9.194261131652195e-05,1.2637821393195377e-06,8.215305734356312e-07,9.694116956399854e-07,1.154013261796915e-06
54,2.1837566051045393e-06,2.2864111120869398e-06,8.731498327754451e-06,2.945778188567207e-05,7.649218223913624e-07,8.01619392662217e-07,1.8876347380166056e-06,1.413513903809062e-06,3.740271941294976e-05,7.1357491251009286e-06,1.2974246723211422e-06,9.372341693336191e-05,1.2547299784551268e-06,8.017240137196293e-07,9.43643936037669e-07,1.160801821045496e-06
55,2.132965101829716e-06,2.303077598827457e-06,8.890425412574008e-06,2.849929506080104e-05,7.713968975942779e-07,7.970208136523899e-07,1.8214209299582217e-06,1.3922752424157464e-06,3.59095730016095e-05,7.36392326828392e-06,1.227660689706899e-06,9.695087765429517e-05,1.2442245057375988e-06,7.818213280657544e-07,9.171922305134322e-07,1.1693021544076881e-06
56,2.0893035481422505e-06,2.3193925227466836e-06,9.070957977711824e-06,2.744595125462893e-05,7.783663692662277e-07,7.916773107435103e-07,1.754652106702817e-06,1.368129934731373e-06,3.4524202513387214e-05,7.58177810512052e-06,1.1654872413555858e-06,0.00010157248398863836,1.2331049906148178e-06,7.620170958344193e-07,8.90298209604342e-07,1.1793655501069793e-06
57,2.052698042520291e-06,2.3365178349630816e-06,9.269150850541113e-06,2.6333574667698573e-05,7.85740996418453e-07,7.855198815127379e-07,1.6881802659614543e-06,1.34200943736839e-06,3.32472300253698e-05,7.781416903210537e-06,1.1110352173912555e-06,0.00010751487278408622,1.222342614256918e-06,7.424520281372806e-07,8.633059933025795e-07,1.1906993980980034e-06
58,2.0227829957268984e-06,2.355294606691126e-06,9.47970960900282e-06,2.5199172592275423e-05,7.933855494779234e-07,7.785673097999166e-07,1.6227657207806763e-06,1.3146832251705413e-06,3.208020976473383e-05,7.95593395033619e-06,1.0643270767263948e-06,0.00011468601618581286,1.2128958452608217e-06,7.23261429402423e-07,8.365293342776763e-07,1.2029819626222956e-06
59,1.9990441312758786e-06,2.3761302102253536e-06,9.695640082441072e-06,2.4078535415527437e-05,8.012193316199834e-07,7.70920100753746e-07,1.5592305898127132e-06,1.286707962391775e-06,3.1025396808976237e-05,8.100258238398315e-06,1.0252953970475112e-06,0.00012297633427349572,1.2056317652872643e-06,7.04584812890369e-07,8.102507393792438e-07,1.2159597607869311e-06
60,1.9808555998071525e-06,2.3990365105270204e-06,9.90849384673209e-06,2.300436549860812e-05,8.093048845973429e-07,7.627964458829466e-07,1.4984765643274196e-06,1.258537216956132e-06,3.008890162102369e-05,8.211602511181644e-06,9.938657312955438e-07,0.00013226007820556234,1.20131081268305e-06,6.865302487480324e-07,7.848124602947849e-07,1.229444599953394e-06
61,1.96745770305561e-06,2.4237631269881383e-06,1.0109099081306518e-05,2.2004941417859092e-05,8.17835615591826e-07,7.545408575966985e-07,1.4413780352292439e-06,1.230697338831225e-06,2.92825543823352e-05,8.289194390104717e-06,9.700364601290793e-07,0.00014240063928081857,1.2005724907284203e-06,6.691640869967983e-07,7.606428745083117e-07,1.2432208788724161e-06
62,1.9580464467020436e-06,2.449962096209109e-06,1.0288477960584257e-05,2.1103442554045352e-05,8.270516882097826e-07,7.465474146608314e-07,1.3887120617993854e-06,1.2038709874265359e-06,2.8621423469387817e-05,8.333304938733527e-06,9.538863951446923e-07,0.00015325533616997948,1.2039018935600542e-06,6.525383177508301e-07,7.381954678053306e-07,1.2569516411552171e-06
63,1.951936601014036e-06,2.477367986526343e-06,1.043874251966832e-05,2.031796851720052e-05,8.371734691950123e-07,7.391736438357897e-07,1.3411575194695044e-06,1.1788229305234238e-06,2.811944429638697e-05,8.344048576898141e-06,9.454906183320211e-07,0.00016467151161577272,1.2116374542785477e-06,6.367033222126449e-07,7.178993954121159e-07,1.2701896060084287e-06
64,1.948614174489762e-06,2.5059533476231444e-06,1.0553805723580219e-05,1.9662061466316502e-05,8.483611443999455e-07,7.326900779073341e-07,1.299261508032675e-06,1.156265104345201e-06,2.7786424836717713e-05,8.320622241383588e-06,9.448166636289141e-07,0.00017647747517982834,1.2240076880378622e-06,6.216827644122274e-07,7.001623253564664e-07,1.2824922467575804e-06
65,1.9476655440156468e-06,2.535988497645884e-06,1.0629719953755488e-05,1.9145349087472864e-05,8.606800710455457e-07,7.272513653867189e-07,1.2633698030647661e-06,1.1368035514259563e-06,2.762795349392908e-05,8.26145084142349e-06,9.516723981597724e-07,0.0001884801008754639,1.2411204553740066e-06,6.074620048382239e-07,6.853864998073313e-07,1.2935191874663251e-06
66,1.948707163333702e-06,2.567990978647698e-06,1.0664627969159027e-05,1.877398615270118e-05,8.740891764218662e-07,7.228914593901683e-07,1.2336056342260568e-06,1.1209907632456857e-06,2.764797254763286e-05,8.165064127051348e-06,9.657065402728909e-07,0.00020047291724549046,1.2629220631259052e-06,5.940353904825899e-07,6.739624848021503e-07,1.3030312759323047e-06
67,1.951362709534842e-06,2.6026053209200337e-06,1.0658519487504302e-05,1.8550787447542773e-05,8.884415177857555e-07,7.195449284574396e-07,1.2098986662945653e-06,1.109390230962519e-06,2.785148775326173e-05,8.03098261309441e-06,9.864301449546113e-07,0.00021224893085140852,1.2891735196251074e-06,5.81457687077749e-07,6.662504198390895e-07,1.3108276274969046e-06
68,1.955266434520752e-06,2.640428239149628e-06,1.0612956150069643e-05,1.847515164931842e-05,9.034793907876609e-07,7.170780410202571e-07,1.1919958724149109e-06,1.1025688502461454e-06,2.8244815131934606e-05,7.86012501690619e-06,1.01326152052038e-06,0.00022361119017755496,1.319417074895885e-06,5.698272302911101e-07,6.625574074145625e-07,1.3166839035369702e-06
69,1.960093490747241e-06,2.6817890629140483e-06,1.0530766067766305e-05,1.8543090044664205e-05,9.188543686444486e-07,7.15338521113935e-07,1.1794337327012936e-06,1.1010182429099074e-06,2.8833599382272246e-05,7.654862001158685e-06,1.0456802955090357e-06,0.00023437401239376134,1.3529415387176064e-06,5.592433649765495e-07,6.630975537305232e-07,1.3203278626460908e-06
70,1.965588945111667e-06,2.7265556324273504e-06,1.0415582976020605e-05,1.8747692527209554e-05,9.341841660297887e-07,7.142492316085759e-07,1.1715205531513278e-06,1.1050901677718211e-06,2.962042819145749e-05,7.418953984943512e-06,1.0834951016697862e-06,0.0002443515340751708,1.3888365853859685e-06,5.498144367724234e-07,6.679527552168677e-07,1.3214733537801861e-06
71,1.9715086600436766e-06,2.774036699381671e-06,1.0271094403524281e-05,1.908007952145453e-05,9.49090871861677e-07,7.13885202652739e-07,1.167405485799933e-06,1.1150089160828617e-06,3.0603189069594824e-05,7.157289776806548e-06,1.126981057744123e-06,0.0002533476722325864,1.4261665250708306e-06,5.41677875821009e-07,6.770645866876498e-07,1.319902041979526e-06
72,1.977470327110809e-06,2.8229956059570748e-06,1.0100234821252568e-05,1.9530580441659778e-05,9.63191047826305e-07,7.144446920430671e-07,1.1662661291975747e-06,1.1309036707644087e-06,3.177484134767602e-05,6.875259320904815e-06,1.1767412153172147e-06,0.0002611710839023796,1.464146275193554e-06,5.349693695993197e-07,6.902491044184209e-07,1.3155422969311372e-06
73,1.9828602824649845e-06,2.871776644304359e-06,9.905011441031337e-06,2.0089789643654823e-05,9.761026329244506e-07,7.16158725773964e-07,1.1675228969559759e-06,1.152779647670744e-06,3.312462420758325e-05,6.57792684837425e-06,1.2335835895954563e-06,0.00026767400362696735,1.502169417063604e-06,5.297780674035065e-07,7.072100073480934e-07,1.3084682776511418e-06
74,1.9868795654016756e-06,2.918528448610431e-06,9.687168553555772e-06,2.0749297436623112e-05,9.875013761876197e-07,7.19236677344752e-07,1.1709429403844928e-06,1.1804553957139484e-06,3.463944459227288e-05,6.269505608592288e-06,1.2987168333982032e-06,0.0002727849432421588,1.5396892562837224e-06,5.261346470483782e-07,7.275525915239442e-07,1.2987955656165708e-06
75,1.988649699460899e-06,2.9614753650887295e-06,9.448965829607231e-06,2.15021122909859e-05,9.971654071719307e-07,7.238554885227474e-07,1.1766057492127136e-06,1.2135712951430938e-06,3.6304509604569294e-05,5.9534327350991015e-06,1.37412149214693e-06,0.0002765101812754196,1.5761081927017118e-06,5.240051187609706e-07,7.508177227894059e-07,1.2866031391405388e-06
76,1.987327040635222e-06,2.999184894493338e-06,9.193425474001263e-06,2.2342832017846537e-05,1.004980663837073e-06,7.301813515065668e-07,1.1847997809904673e-06,1.2517102908153491e-06,3.810357596903797e-05,5.6327549678857274e-06,1.4627886339981897e-06,0.0002789023149562432,1.6108040586346344e-06,5.232662701214389e-07,7.765172684922642e-07,1.2720101579516565e-06
77,1.98224922885133e-06,3.030753732637415e-06,8.924110359180532e-06,2.3267468865541477e-05,1.0109323617211815e-06,7.384135144775632e-07,1.1958965888350101e-06,1.2945300735859196e-06,4.0019006047170195e-05,5.310384282797192e-06,1.5686858508346085e-06,0.00028001696056109427,1.643239390933551e-06,5.236965539496932e-07,8.041385848569282e-07,1.255321979463459e-06
78,1.9730627391328167e-06,3.0557981517046185e-06,8.64476589693943e-06,2.4272719211114628e-05,1.0150767444053033e-06,7.487787300150148e-07,1.210204882891173e-06,1.34177709692195e-06,4.203102665465182e-05,4.989144023604999e-06,1.696450551221669e-06,0.0002798953670528171,1.672979875444721e-06,5.250251133199676e-07,8.331470221909753e-07,1.237053035218264e-06
79,1.9597298250892495e-06,3.0741874424511625e-06,8.359027733735368e-06,2.5354503153670266e-05,1.017484483498896e-06,7.614507956692668e-07,1.227845433316433e-06,1.39318638607358e-06,4.4116292385391054e-05,4.671755652307216e-06,1.8509899327748317e-06,0.00027859024882458263,1.699590130818926e-06,5.270250154929419e-07,8.630210142035103e-07,1.2177809723373974e-06
80,1.9424156857893753e-06,3.0856350691918697e-06,8.070196723204818e-06,2.650603343412506e-05,1.0182009367882165e-06,7.764734652450995e-07,1.2487169551737673e-06,1.4483647607911494e-06,4.624709664270116e-05,4.3608013295401596e-06,2.037324629301817e-06,0.0002762043796277019,1.7225538393905586e-06,5.29568104919586e-07,8.932760194229323e-07,1.1979958313780302e-06
81,1.921366019083212e-06,3.0894204997993034e-06,7.780969275380002e-06,2.771653711157457e-05,1.0172710601427704e-06,7.937368468709029e-07,1.2725301776146554e-06,1.506713537142791e-06,4.839158138398622e-05,4.058582881098862e-06,2.260838447653719e-06,0.00027290299544173967,1.7412755848804125e-06,5.325996706956162e-07,9.234547402119567e-07,1.1780684885293363e-06
82,1.8968528382841345e-06,3.084398078411585e-06,7.493070057995577e-06,2.8971701677137605e-05,1.0147922031148066e-06,8.129848038270881e-07,1.2988217271963627e-06,1.5674051985572433e-06,5.051346696948006e-05,3.766986313466616e-06,2.5277643000517197e-06,0.00026889332048337907,1.755115265735589e-06,5.361094914201803e-07,9.531588176637561e-07,1.1582776030518883e-06
83,1.869154172792546e-06,3.0691968290031086e-06,7.20694227607624e-06,3.0255477826470432e-05,1.0109112025593822e-06,8.338570777465252e-07,1.3269448616209496e-06,1.6293987191630896e-06,5.257195081459432e-05,3.4875556817798356e-06,2.845598038276023e-06,0.0002643877706834271,1.7634780171453529e-06,5.401459885107063e-07,9.82153184777419e-07,1.1388584085711479e-06
84,1.838487728762236e-06,3.0425080663575e-06,6.921812714250376e-06,3.155197206092809e-05,1.0057624468925575e-06,8.559914125760991e-07,1.3560736212920626e-06,1.6914609840671027e-06,5.452595397653195e-05,3.2216290396888946e-06,3.223149680772049e-06,0.0002595727566011065,1.7659668848794718e-06,5.448025687685786e-07,1.0104441430421317e-06,1.120074726984028e-06
85,1.8048993390882696e-06,3.0034651494988696e-06,6.636281058092021e-06,3.284656903286052e-05,9.994088158567126e-07,8.791210271116282e-07,1.3852156084586276e-06,1.752222696832568e-06,5.634324397530688e-05,2.970254631373431e-06,3.670104760460455e-06,0.00025459941702642847,1.7624504377181551e-06,5.501475479082947e-07,1.0382383968593935e-06,1.102208734004067e-06
86,1.768239069477686e-06,2.9520602876415704e-06,6.349204753370625e-06,3.412598368560903e-05,9.918125615162517e-07,9.03071904709578e-07,1.413267844195326e-06,1.8102778360083773e-06,5.800734887983361e-05,2.7340145497692954e-06,4.196330836001723e-06,0.00024959447012991857,1.7529402682195668e-06,5.561734445504459e-07,1.0658134631892378e-06,1.0854511105416144e-06
87,1.728323277335035e-06,2.889392846737903e-06,6.060428721263808e-06,3.5377091998371476e-05,9.828667953703131e-07,9.277023922242441e-07,1.4391084092292794e-06,1.864220398736076e-06,5.9515947138060223e-05,2.5130484679919193e-06,4.811378908334291e-06,0.00024467505986885437,1.7374852075858934e-06,5.628247373832262e-07,1.0933869303392865e-06,1.0698420478925845e-06
88,1.6851615504324614e-06,2.817521855758376e-06,5.77092713465091e-06,3.658469682893802e-05,9.724993610144573e-07,9.528873394485387e-07,1.4616210179187997e-06,1.9125660942131865e-06,6.08723220700964e-05,2.3072109581658984e-06,5.524317301369857e-06,0.00023995550883827704,1.7163032028121025e-06,5.700763360755357e-07,1.1210351189612632e-06,1.0552969238802079e-06
89,1.6390654922205656e-06,2.738945483549784e-06,5.482247547537251e-06,3.772974314225125e-05,9.607413414566667e-07,9.7851349253163e-07,1.4797116201260023e-06,1.953719868992988e-06,6.207582139402045e-05,2.11615824306486e-06,6.34359843976354e-06,0.00023554215904222588,1.6899789784296315e-06,5.779838852664531e-07,1.1486598904759591e-06,1.0416374424772395e-06
90,1.5906270212417607e-06,2.656025864478261e-06,5.195723527082937e-06,3.879052359433885e-05,9.476764566344004e-07,1.0044171947664318e-06,1.492468550878453e-06,1.986175663166118e-06,6.311635058914842e-05,1.9394281835707205e-06,7.276798220100017e-06,0.00023152017463148167,1.6594606929828677e-06,5.866591713776347e-07,1.1759875729657546e-06,1.0286386556988832e-06
91,1.540642295031117e-06,2.570645186174628e-06,4.912141777419259e-06,3.974739186035706e-05,9.333498398289074e-07,1.0303387797226653e-06,1.4993632182995881e-06,2.00887545293186e-06,6.397453667403207e-05,1.776584901357989e-06,8.330514360726464e-06,0.0002279474706983347,1.625855168918389e-06,5.96195482653791e-07,1.2026248198701716e-06,1.0160930551751264e-06
92,1.4899972652531591e-06,2.4841393746885513e-06,4.632002995352382e-06,4.058822646873318e-05,9.177464367394381e-07,1.0559827156064451e-06,1.5002881843957706e-06,2.021472752443018e-06,6.462568418709208e-05,1.6273031561188405e-06,9.51060540266087e-06,0.0002248639179621911,1.5901788309739497e-06,6.066013786380384e-07,1.2281651273803222e-06,1.0038468053719045e-06
93,1.43951736526891e-06,2.3974261521398876e-06,4.355904878872506e-06,4.131149745879849e-05,9.008687591516563e-07,1.0811247697130366e-06,1.495433001615165e-06,2.024335562216721e-06,6.50454017253378e-05,1.4913577065019817e-06,1.08224403806528e-05,0.00022230284460020598,1.553206109440393e-06,6.177804339316839e-07,1.2522574329928353e-06,9.918624612981919e-07
94,1.3898429621782634e-06,2.311213810107855e-06,4.084698762383986e-06,4.192578121291562e-05,8.828692712259632e-07,1.1056531054253337e-06,1.4851317224677257e-06,2.0182906633767797e-06,6.521586908104403e-05,1.368575587092114e-06,1.2270790376450787e-05,0.0002202927946661214,1.5154827908037762e-06,6.295642583593806e-07,1.2746153694484747e-06,9.803424475897517e-07
95,1.341411236749424e-06,2.2261698557997223e-06,3.819497694712216e-06,4.2445999352580755e-05,8.641238195560907e-07,1.129507138169733e-06,1.4697855122017176e-06,2.0042505228288246e-06,6.513072267469403e-05,1.2587374756016297e-06,1.3859380591427635e-05,0.00021885120575551283,1.4774868115381354e-06,6.417806226227804e-07,1.2950186245596104e-06,9.697723042322458e-07
96,1.2945776678814465e-06,2.1429885096506575e-06,3.561664379159296e-06,4.2887837374259164e-05,8.451537368596962e-07,1.1525659265865028e-06,1.449867190883889e-06,1.98295631801763e-06,6.479559647934631e-05,1.161471161789986e-06,1.559031473458634e-05,0.0002179739711769122,1.439826356970563e-06,6.542928400611075e-07,1.3132869502915698e-06,9.607783387400668e-07
97,1.2498411477000939e-06,2.062394221474464e-06,3.312757847380311e-06,4.3263889219571574e-05,8.264592488894289e-07,1.174573329663344e-06,1.4259272289873046e-06,1.954955706194966e-06,6.422294849001096e-05,1.0762660063500278e-06,1.7463501567300854e-05,0.00021762623020125723,1.4033193562513065e-06,6.669644706279912e-07,1.329208222270194e-06,9.539236299382113e-07
98,1.208086681852173e-06,1.9851306737767928e-06,3.074438766832592e-06,4.3584570774131695e-05,8.084042074610871e-07,1.1951260681712727e-06,1.398523079315963e-06,1.9206966447629143e-06,6.342439675979037e-05,1.0026203113004625e-06,1.9476067938487648e-05,0.00021774106117719788,1.3688879890120525e-06,6.796178530773884e-07,1.3425235109506937e-06,9.496017995688496e-07
99,1.1707592038393396e-06,1.9119201886108393e-06,2.8484297334747335e-06,4.386234429090519e-05,7.911976728892946e-07,1.2136810435102597e-06,1.368099655104596e-06,1.8805912596489645e-06,6.240775339406148e-05,9.401505546983319e-07,2.162171404045695e-05,0.0002182226043733098,1.3373621720455216e-06,6.920854525609592e-07,1.3530582323286135e-06,9.48018041595435e-07
100,1.1399273383637491e-06,1.8433815036793858e-06,2.636546145962239e-06,4.411534441271388e-05,7.749309720669717e-07,1.2296047955703807e-06,1.3349416436096646e-06,1.8350355275928346e-06,6.1181909152762e-05,8.885294061913213e-07,2.3890078444155993e-05,0.00021894711698307114,1.3093465338069412e-06,7.043065691652222e-07,1.3608952892623644e-06,9.491884736167203e-07
101,1.118239839910678e-06,1.7799350182552033e-06,2.440649824525087e-06,4.4368467488773054e-05,7.596302765289177e-07,1.242321126692266e-06,1.2992602215681654e-06,1.784426454904158e-06,5.9764751849276826e-05,8.47341493010432e-07,2.6266234926251957e-05,0.00021976934120033315,1.2852098320193626e-06,7.163363518620925e-07,1.3663938729765102e-06,9.529593013364414e-07
102,1.1087792847393942e-06,1.7217088438196553e-06,2.2624534920349276e-06,4.465232219683616e-05,7.453102338067281e-07,1.2514670402824057e-06,1.2613403711221834e-06,1.7292112672526468e-06,5.8188283118098456e-05,8.160052417621064e-07,2.8730349175723977e-05,0.00022053727484137392,1.2651436598468208e-06,7.282949659947726e-07,1.3700383091067668e-06,9.590527451585015e-07
103,1.1148478836867837e-06,1.6684733297814236e-06,2.1033532053719597e-06,4.5001147716005035e-05,7.320128883463456e-07,1.2569229453632997e-06,1.221635697563e-06,1.6699723501051394e-06,5.6498238489568866e-05,7.937725514521202e-07,3.125739894460297e-05,0.00022109934867494668,1.2492424873455313e-06,7.403672299394856e-07,1.3723129993481723e-06,9.67118550101398e-07
104,1.1398334084951474e-06,1.6196735272239226e-06,1.9644359016528293e-06,4.545055135334902e-05,7.198020876867198e-07,1.2587439827208346e-06,1.1807610700440093e-06,1.6074980315921205e-06,5.4747734251908273e-05,7.797591275975455e-07,3.3816763821952244e-05,0.00022130389731626833,1.2375965709958146e-06,7.528085631453597e-07,1.3736936632155894e-06,9.76824454846658e-07
105,1.1872657721280157e-06,1.5745633035025975e-06,1.8465668923415194e-06,4.603543394018662e-05,7.087129019350202e-07,1.2571006438120461e-06,1.1394184454137099e-06,1.5427656099954858e-06,5.2988360780947314e-05,7.729897113105751e-07,3.637147643663181e-05,0.00022101720624179234,1.230349935974818e-06,7.65902548283737e-07,1.3746228543714536e-06,9.880075052880974e-07
106,1.2609214989451292e-06,1.5323403999322047e-06,1.7504629797140628e-06,4.678815773961907e-05,6.986984337724926e-07,1.25224103086929e-06,1.0983272891897253e-06,1.4768181591053081e-06,5.126429982359874e-05,7.724337713542716e-07,3.887717202444558e-05,0.00022016325269963961,1.2276588766726244e-06,7.799284466569789e-07,1.3754036447043228e-06,1.0007503900836867e-06
107,1.3647689348113013e-06,1.4922062437287469e-06,1.6767618732591684e-06,4.773687018162367e-05,6.896044762233028e-07,1.2444132282819915e-06,1.0581747832035505e-06,1.4106354009540708e-06,4.9610915782799014e-05,7.770171208829726e-07,4.128129559629212e-05,0.00021874928598418763,1.2295805176101454e-06,7.951431924169181e-07,1.3761101398499123e-06,1.0152689833583698e-06
108,1.5027680133836063e-06,1.4533851166313914e-06,1.626050619802314e-06,4.8903930207360496e-05,6.81166664008666e-07,1.2337660441459501e-06,1.0195512455369926e-06,1.3451209386318334e-06,4.8055504383412206e-05,7.856611325458014e-07,4.3523801152294966e-05,0.0002168488411084171,1.2359903998750368e-06,8.117359331886195e-07,1.3765810682785163e-06,1.0317445770044423e-06
109,1.678687448084232e-06,1.4151574957782296e-06,1.598820697252177e-06,5.030457682000105e-05,6.730331404566779e-07,1.2203344311800068e-06,9.828839920820122e-07,1.281167793671507e-06,4.661942321420274e-05,7.974090158093445e-07,4.554114607983968e-05,0.0002145558448300028,1.2465785777461254e-06,8.297854730345907e-07,1.3764812161132152e-06,1.0502773079277834e-06
110,1.8960288852819792e-06,1.376862916312323e-06,1.5954244697922766e-06,5.194607019912815e-05,6.648436644681817e-07,1.2041317299585383e-06,9.484210213598801e-07,1.2196589651832628e-06,4.5321681685686606e-05,8.115729465979572e-07,4.727447739612206e-05,0.0002119490195864309,1.2609228705529935e-06,8.492589195958835e-07,1.3754219628616549e-06,1.0709393687336882e-06
111,2.1580087724215026e-06,1.3378268656053315e-06,1.6160803067058946e-06,5.382735709711453e-05,6.563480647331407e-07,1.1852268196797548e-06,9.162758787196087e-07,1.1613713459200346e-06,4.418152443851539e-05,8.277422003201018e-07,4.867930050902673e-05,0.00020908567241953403,1.2786291807273577e-06,8.700420003443592e-07,1.3731005266204707e-06,1.0938064492616798e-06
112,2.467518672252579e-06,1.2973575940697478e-06,1.6608658771739133e-06,5.5938984258411785e-05,6.474645913065814e-07,1.1637100453114933e-06,8.864880626414811e-07,1.1068834531750044e-06,4.321719259930045e-05,8.456481909961568e-07,4.973036877363454e-05,0.00020601114716603774,1.2994519626125933e-06,8.919761462041269e-07,1.3693610644644178e-06,1.1189300935617908e-06
113,2.8270502768567616e-06,1.254968956633695e-06,1.7296943932078537e-06,5.8262706519800386e-05,6.382238597158323e-07,1.1396235176262823e-06,8.590418050035038e-07,1.0565702902162183e-06,4.24417846189832e-05,8.650483108573458e-07,5.041758036525609e-05,0.00020277038901032998,1.32327256168572e-06,9.149068751098684e-07,1.3641540583006867e-06,1.1463424668654036e-06
114,3.2386030804293245e-06,1.2106570426854256e-06,1.8223307745651943e-06,6.077025404735444e-05,6.286820104788242e-07,1.1129980632661873e-06,8.338634589359575e-07,1.0106880775594955e-06,4.1859836204206234e-05,8.856840832560662e-07,5.073712500389357e-05,0.00019942041547815864,1.3499756938824853e-06,9.387574092582753e-07,1.3574564622137936e-06,1.1761327491239446e-06
115,3.703593526278712e-06,1.1649125888667834e-06,1.9383898512919393e-06,6.342153994250497e-05,6.189064476835495e-07,1.0839798173773122e-06,8.108479501693024e-07,9.694790151460988e-07,4.146689299713384e-05,9.072444384695351e-07,5.0687400654326154e-05,0.00019604008195584898,1.3793962825470113e-06,9.635580026929948e-07,1.3492016432463789e-06,1.208468888128695e-06
116,4.222809144705051e-06,1.118461096592567e-06,2.077246689840244e-06,6.616388387500838e-05,6.090149637475851e-07,1.0528818011974998e-06,7.898756635246578e-07,9.331964368705469e-07,4.1251752763947606e-05,9.2931530975307e-07,5.027270145060182e-05,0.00019273091343297995,1.4114040521113152e-06,9.893738967692666e-07,1.3392707844938445e-06,1.2435090907720364e-06
117,4.796399926713198e-06,1.0720248734446578e-06,2.237948258473473e-06,6.89335829368841e-05,5.991816599502922e-07,1.0201202804291633e-06,7.707877192657629e-07,9.020567690174091e-07,4.119983367553199e-05,9.513551931189851e-07,4.9508900933941424e-05,0.00018960771756875157,1.4460211039552956e-06,1.0162182197041188e-06,1.3275775331658657e-06,1.2813116324876493e-06
118,5.423798126759771e-06,1.0262856634487972e-06,2.4192286678960583e-06,7.165934681668534e-05,5.895970831125056e-07,9.86150759864527e-07,7.533607627383129e-07,8.762037114192134e-07,4.129621711899712e-05,9.72729317761697e-07,4.8426123016424514e-05,0.00018678233760447972,1.4834406272594472e-06,1.044031068106306e-06,1.3141569754007833e-06,1.3218263104227088e-06
119,6.103543376339367e-06,9.81944517306969e-07,2.6195784310374648e-06,7.426655099117636e-05,5.804374999540296e-07,9.514342063551214e-07,7.372992748723837e-07,8.556917676150624e-07,4.1527463754342854e-05,9.928036257403629e-07,4.7067710791349046e-05,0.00018434627317391247,1.5239158255489115e-06,1.0726816940836824e-06,1.2991362533970396e-06,1.3649714477687283e-06
120,6.833138932775523e-06,9.397319902789347e-07,2.8372363034733353e-06,7.668220894768454e-05,5.718547689293681e-07,9.164117877720086e-07,7.222575293123032e-07,8.404765700450566e-07,4.188146851627349e-05,1.011071657397408e-06,4.548582693949474e-05,0.0001823598331129233,1.5675874830441425e-06,1.101936699936626e-06,1.2826376637420387e-06,1.4107212576017998e-06
121,7.608978572699776e-06,9.003599007923969e-07,3.070069135479372e-06,7.884081171014707e-05,5.639636146897868e-07,8.815201135742683e-07,7.079058543020812e-07,8.304312278501187e-07,4.2345020492689125e-05,1.027284885256409e-06,4.373469721490734e-05,0.00018085258363052532,1.6143555688454292e-06,1.1314236234310476e-06,1.2647713705739045e-06,1.459079969653649e-06
122,8.426386018822203e-06,8.64475572465152e-07,3.31548603969444e-06,8.069019591305638e-05,5.56832466076594e-07,8.47225126642222e-07,6.93994815898294e-07,8.253745866808508e-07,4.2900617713677246e-05,1.0415315729536594e-06,4.186418008619069e-05,0.00017983245650476102,1.663835207023067e-06,1.1606712494018542e-06,1.245707855375198e-06,1.5099617164110187e-06
123,9.280067297452524e-06,8.326342946089505e-07,3.570550627709571e-06,8.219558259210364e-05,5.504919216106265e-07,8.140273223363752e-07,6.803833384000363e-07,8.250964463688887e-07,4.3525392744853086e-05,1.0542013452805423e-06,3.9916420918274704e-05,0.00017929863568321412,1.7153441461605877e-06,1.1892462805614498e-06,1.2256811347963354e-06,1.5631208519146853e-06
124,1.0165055514796241e-05,8.052699756810609e-07,3.83225406480947e-06,8.333999615092199e-05,5.449688983221441e-07,7.824412385810455e-07,6.670579636895256e-07,8.293651757910331e-07,4.419300640188855e-05,1.0658474133457175e-06,3.7925770003689e-05,0.00017925388743130272,1.767911088718946e-06,1.2168719583223923e-06,1.20488641497821e-06,1.6181464205826996e-06
125,1.1077544193841429e-05,7.826730896483887e-07,4.097772506716441e-06,8.412034799833231e-05,5.403219304983552e-07,7.529482013656576e-07,6.541336424326511e-07,8.378922659030541e-07,4.487700710961981e-05,1.0770190076850458e-06,3.5919845626412595e-05,0.0001797080921362866,1.8203520576108912e-06,1.2433994746464657e-06,1.1833698029322933e-06,1.6744258524358e-06
126,1.2014979584667831e-05,7.650010467642522e-07,4.364590831952994e-06,8.453967586134843e-05,5.366193523007463e-07,7.25934011345098e-07,6.418056417936154e-07,8.502859532742055e-07,4.555478057373214e-05,1.0881326254421807e-06,3.392035870094759e-05,0.00018066826741818247,1.871361503419035e-06,1.2686844320824162e-06,1.1609929310567898e-06,1.7310929492606134e-06
127,1.2975565736188706e-05,7.523401432154277e-07,4.630429199869184e-06,8.459769374846916e-05,5.338795198667366e-07,7.016564122897341e-07,6.303172867070128e-07,8.66034041038125e-07,4.621205687892001e-05,1.0994267273741741e-06,3.194399979804207e-05,0.00018212719675779948,1.9195187467880062e-06,1.2925229965728398e-06,1.1374806465937635e-06,1.787048057057377e-06
128,1.3957937495438135e-05,7.448228988903804e-07,4.8929455222068395e-06,8.42844568489947e-05,5.320605740255088e-07,6.802598812553338e-07,6.199870006335684e-07,8.844998822590769e-07,4.6846609666168304e-05,1.1109902065524945e-06,3.0003759325275438e-05,0.0001840649932074161,1.9633070043381524e-06,1.3146688315724249e-06,1.1125317166715514e-06,1.841066103317662e-06
129,1.4961512867597559e-05,7.427243099118053e-07,5.149428090451542e-06,8.358181087830755e-05,5.311031710232855e-07,6.61802812034688e-07,6.112028223733762e-07,9.049373190304572e-07,4.746841071915353e-05,1.1227943731991132e-06,2.8110290155642345e-05,0.00018645611628220342,2.0013315305793435e-06,1.3348529625727884e-06,1.0859748692483364e-06,1.8919470907190158e-06
130,1.5987155604891624e-05,7.464323843870327e-07,5.396883015670202e-06,8.247177325210075e-05,5.309465434399831e-07,6.462536760325756e-07,6.043498815566689e-07,9.265448391074244e-07,4.809475577795298e-05,1.1347028108145485e-06,2.6272716725039444e-05,0.00018926682473324117,2.0326352247114125e-06,1.352801512192329e-06,1.057915673706449e-06,1.938646180710146e-06
131,1.7037067480222947e-05,7.563244092707301e-07,5.632623792392437e-06,8.094640320495817e-05,5.314954316096086e-07,6.334616540639241e-07,5.997483311818115e-07,9.4852582275855e-07,4.874309037555359e-05,1.1465040119936687e-06,2.4498757009625475e-05,0.00019244931262700322,2.0568248399627588e-06,1.368301318035773e-06,1.0287724448312078e-06,1.980319157988527e-06
132,1.811341977676835e-05,7.726658312502495e-07,5.855021685003432e-06,7.901481683313565e-05,5.325964245389838e-07,6.231454475573892e-07,5.976278645561774e-07,9.70114874463743e-07,4.9426784151494914e-05,1.157964525578927e-06,2.279444406953589e-05,0.00019595186631939953,2.0739809217145656e-06,1.3813006231207984e-06,9.991556471850727e-07,2.0162473506969826e-06
133,1.9216918793313882e-05,7.955665429082928e-07,6.063992708266106e-06,7.670578518517684e-05,5.340618272972362e-07,6.149293108338159e-07,5.98115355608752e-07,9.90564338628287e-07,5.015519063096898e-05,1.1688634498319005e-06,2.1163609597058925e-05,0.00019974483373663723,2.0845532405403047e-06,1.391952366540445e-06,9.69689398425811e-07,2.0457218836811797e-06
134,2.0346526209660824e-05,8.249669974004763e-07,6.2609801159043235e-06,7.406587650413822e-05,5.357200906711957e-07,6.084319911497274e-07,6.012291236352301e-07,1.0091394213330876e-06,5.093471046167454e-05,1.1790190950524756e-06,1.9607476159622504e-05,0.0002038369393380288,2.0892932449167994e-06,1.4005283949777435e-06,9.408940701764288e-07,2.068090478683543e-06
135,2.1499491792615826e-05,8.606396605531823e-07,6.4484205671286725e-06,7.1154363663841e-05,5.374520798301532e-07,6.033948219650406e-07,6.06888913416037e-07,1.0251968191552238e-06,5.1769140336465496e-05,1.1883325692602475e-06,1.8125414938644246e-05,0.00020826287905450778,2.0891138184767423e-06,1.4072437481451843e-06,9.131417952286048e-07,2.082984471589657e-06
136,2.267051705497746e-05,9.021963096176884e-07,6.628893783548918e-06,6.803686044890589e-05,5.391783975194669e-07,5.997915020513615e-07,6.149672056606999e-07,1.0383056858634553e-06,5.2660520572991676e-05,1.1968043861621142e-06,1.671683374729647e-05,0.00021305441690034965,2.0848745792397158e-06,1.41211660516782e-06,8.866774549173004e-07,2.090459826944606e-06
137,2.385078515880638e-05,9.491036613286181e-07,6.804298708535022e-06,6.477915133368199e-05,5.408059807839692e-07,5.978316254033703e-07,6.25374817753531e-07,1.048275264167167e-06,5.361079266748163e-05,1.2044595445109051e-06,1.5382090452027056e-05,0.00021822170184378838,2.0771978360691183e-06,1.4149565851478665e-06,8.617092249314527e-07,2.090945953435297e-06
138,2.5027962205579515e-05,1.0007066637158309e-06,6.975436455289113e-06,6.14418639984432e-05,5.422095051916231e-07,5.978434367737445e-07,6.380986553415786e-07,1.0550674626458527e-06,5.46224490602726e-05,1.2112442158088067e-06,1.412162445255183e-05,0.00022375363710555967,2.066371665046396e-06,1.415466363072846e-06,8.384834401680542e-07,2.0851918527102228e-06
139,2.61866059232784e-05,1.0562300186070562e-06,7.142218539776105e-06,5.807645469850554e-05,5.432920137423076e-07,6.001403256027162e-07,6.531455270881352e-07,1.0587130002375636e-06,5.569636874860322e-05,1.2170176205800381e-06,1.2935168879697965e-05,0.0002296286235764688,2.0523638991144274e-06,1.4133862500264969e-06,8.172442912185721e-07,2.0742992958595134e-06
140,2.7308003912754594e-05,1.114770449644192e-06,7.304348534875501e-06,5.47234368814069e-05,5.440461755953744e-07,6.049551930654115e-07,6.704643675389742e-07,1.0593175824125713e-06,5.682763937491276e-05,1.2216504180924232e-06,1.1822042976448055e-05,0.00023582807769508143,2.0349796423464425e-06,1.4086179433605475e-06,7.981265857918828e-07,2.059674588829073e-06
141,2.8370262411075065e-05,1.1753179014053068e-06,7.4619587927854286e-06,5.1413760328932854e-05,5.445405093513789e-07,6.124187271553624e-07,6.899165649543636e-07,1.0570945081745136e-06,5.80026876529526e-05,1.2251732619536139e-06,1.078151135534425e-05,0.00024234489537457247,2.0141491623613275e-06,1.4012802761635854e-06,7.811003500541345e-07,2.0427864842004913e-06
142,2.935043482311589e-05,1.2367734639226359e-06,7.61561144177942e-06,4.8172479940140804e-05,5.448729446094058e-07,6.225418077831583e-07,7.112820651315575e-07,1.0523296303104414e-06,5.9200068229325424e-05,1.2278921294041292e-06,9.81256034340916e-06,0.0002491756976887734,1.990220669800304e-06,1.3916697923512278e-06,7.660185217093116e-07,2.0249143623121817e-06
143,3.0228501053011425e-05,1.2979649328908332e-06,7.765624784106058e-06,4.5022335145939725e-05,5.451381005705969e-07,6.352040369089127e-07,7.342769061990456e-07,1.0453370243857272e-06,6.039377168240927e-05,1.2303611846730008e-06,8.913413093598051e-06,0.0002562968411546489,1.9640777710088594e-06,1.3801571171198906e-06,7.527568469046254e-07,2.0070839198676315e-06
144,3.0990858059216304e-05,1.3577789749697709e-06,7.911503543271805e-06,4.1985925053028365e-05,5.454063220746662e-07,6.501606567887094e-07,7.585623047538272e-07,1.0364615317879e-06,6.15558289865361e-05,1.2332175771411555e-06,8.081267877840948e-06,0.0002636411174044936,1.9370396194985827e-06,1.3671336272731392e-06,7.413601111678368e-07,1.9901110184230376e-06
145,3.163163536025756e-05,1.415439982695242e-06,8.05205315628442e-06,3.908666973639029e-05,5.457316881809147e-07,6.670662293282154e-07,7.837219001224247e-07,1.026036785344874e-06,6.265598529732358e-05,1.2370287462447079e-06,7.312638790823115e-06,0.00027109094789616063,1.9106529653579414e-06,1.3530518848085196e-06,7.320661833508633e-07,1.9745920198602057e-06
146,3.2151995258399326e-05,1.4707214158330216e-06,8.185752562366725e-06,3.634885065502845e-05,5.461917887319824e-07,6.855192411197108e-07,8.09238987309619e-07,1.0142982866050158e-06,6.36606061844929e-05,1.242267396451938e-06,6.604097171366602e-06,0.00027848945811738987,1.886468566967207e-06,1.3384360159690403e-06,7.251972540784368e-07,1.96081261801788e-06
147,3.255824015215178e-05,1.5238598628455092e-06,8.310829159100781e-06,3.379691889061767e-05,5.469179539262591e-07,7.051287974745238e-07,8.345356632576501e-07,1.0013978925529158e-06,6.453657443479778e-05,1.2493691877409175e-06,5.952688965911061e-06,0.00028565928800684375,1.8658507771261368e-06,1.3237996328294865e-06,7.210339305446963e-07,1.948657961809865e-06
148,3.285916806765749e-05,1.575245050462781e-06,8.425133725135308e-06,3.145431885706912e-05,5.480780081181981e-07,7.255538221550579e-07,8.590725893976864e-07,9.875371908870206e-07,6.525930471023267e-05,1.258747070653268e-06,5.355688873173941e-06,0.00029241151115202925,1.849860257714229e-06,1.3095811587769352e-06,7.197454852240244e-07,1.9376398230461125e-06
149,3.30628141783512e-05,1.625172487960383e-06,8.526146444157798e-06,2.9341907052647994e-05,5.49816529922891e-07,7.464928237935612e-07,8.824424790079024e-07,9.73054088144304e-07,6.581499460008026e-05,1.2707160250483361e-06,4.8100317370510015e-06,0.00029853637603766207,1.8392363072914818e-06,1.2961465323287811e-06,7.213723178868571e-07,1.9271027766247436e-06
150,3.3173293250313934e-05,1.6737900054257745e-06,8.611228700121523e-06,2.7476210396120098e-05,5.522044547598264e-07,7.676835648170563e-07,9.043817468183771e-07,9.583763417782764e-07,6.619481484701694e-05,1.2854021677332319e-06,4.312026596072891e-06,0.00030379710926760594,1.8344713536118948e-06,1.283773141921661e-06,7.258565807566895e-07,1.916539977675396e-06
151,3.3189227903241604e-05,1.7211484129517143e-06,8.678112305975733e-06,2.586832026657081e-05,5.5523603453375e-07,7.889148730865779e-07,9.246805898979165e-07,9.439362785872121e-07,6.639058207900444e-05,1.3027235524721983e-06,3.8576294928170115e-06,0.0003079565456125835,1.8358935657316638e-06,1.2725934484024565e-06,7.331132663610194e-07,1.9058303306086852e-06
152,3.310435071842435e-05,1.767255862699363e-06,8.725644361867878e-06,2.4523966236931698e-05,5.588496800734686e-07,8.099878947491083e-07,9.430619207064811e-07,9.301075527627906e-07,6.639575011807335e-05,1.322468068913913e-06,3.442999203175053e-06,0.0003108325232099306,1.8436637724096642e-06,1.2625494560472482e-06,7.430925370665742e-07,1.8952558623622945e-06
153,3.2909218234555284e-05,1.8120881631274926e-06,8.754637756679879e-06,2.3444268981589943e-05,5.629325757274576e-07,8.306484819779754e-07,9.591241045549671e-07,9.171499965876412e-07,6.620601415153365e-05,1.3444242232276148e-06,3.0649811191836055e-06,0.0003123416489195913,1.8576916636954498e-06,1.253367920659895e-06,7.557820547981772e-07,1.885345947932507e-06
154,3.259311808494414e-05,1.85554215733151e-06,8.76830767125327e-06,2.2626432168614625e-05,5.673088799350168e-07,8.505745350473128e-07,9.723638823359107e-07,9.052080276312195e-07,6.58163955054429e-05,1.3684485081669704e-06,2.721329738244368e-06,0.0003124930810193826,1.8775645274446095e-06,1.244583189918179e-06,7.711595059989643e-07,1.8766759837007006e-06
155,3.2146249915082214e-05,1.8973735760521708e-06,8.771748512702188e-06,2.206425228939164e-05,5.717361760300918e-07,8.694457830739853e-07,9.822195164010343e-07,8.943701316616731e-07,6.521684422788598e-05,1.3943999736035124e-06,2.4105471316274905e-06,0.00031134252973465305,1.9025627620356745e-06,1.2356386915620203e-06,7.891375605063456e-07,1.8696783005220104e-06
156,3.156224554348707e-05,1.937147719100438e-06,8.77057889914269e-06,2.174858206565717e-05,5.759153752675367e-07,8.870456513693016e-07,9.881066548558365e-07,8.847094248756787e-07,6.439024174675071e-05,1.4220298919307965e-06,2.1314937760541323e-06,0.0003089628438964665,1.93170580870044e-06,1.2260155619759116e-06,8.095370571543331e-07,1.8645017734743368e-06
157,3.084054011047535e-05,1.9741891240793103e-06,8.769660535516099e-06,2.166770002207675e-05,5.795261825801859e-07,9.03298397872934e-07,9.895024495415479e-07,8.763115299700328e-07,6.331739837831748e-05,1.4509266085690004e-06,1.8831508824308132e-06,0.00030545538998748945,1.963734141659666e-06,1.2153187782236334e-06,8.321232218526006e-07,1.8609978900583265e-06
158,2.998775615358419e-05,2.007590306479836e-06,8.772606000654226e-06,2.180740773255534e-05,5.823180717183014e-07,9.181928417560948e-07,9.861172120437824e-07,8.693178417461001e-07,6.198916199891837e-05,1.4805010616615473e-06,1.6645891052838923e-06,0.00030096474555192106,1.997089526277452e-06,1.2033111994232796e-06,8.566840545879753e-07,1.858867605896313e-06
159,2.9017205686009227e-05,2.0363781773616623e-06,8.781838454262523e-06,2.2150655778955244e-05,5.842166638548822e-07,9.316855015201599e-07,9.780538604896375e-07,8.639096116633691e-07,6.0417315882551854e-05,1.5099655632001889e-06,1.4748855371304469e-06,0.0002956690508188269,2.0300146401659573e-06,1.1898984590417139e-06,8.830574695165761e-07,1.8578703369369612e-06
160,2.7946082999383513e-05,2.0597816854214795e-06,8.798598765419312e-06,2.2676918540096924e-05,5.853460159965481e-07,9.436830235757728e-07,9.657936860911351e-07,8.602333386737022e-07,5.8634577654226835e-05,1.5383202328233358e-06,1.3129442747548561e-06,0.00028975770902070155,2.0607478824711124e-06,1.175046740094841e-06,9.110708340657205e-07,1.85791340556581e-06
161,2.679163762575072e-05,2.0774290832584725e-06,8.822822140863283e-06,2.3362446646293628e-05,5.859418171092181e-07,9.540699543334883e-07,9.500270677831426e-07,8.583581554951761e-07,5.668485113009479e-05,1.5644244446929491e-06,1.17738400568933e-06,0.0002834090892308952,2.0877121321841732e-06,1.1586784891320944e-06,9.404690899469439e-07,1.8589364680154444e-06
162,2.5569278689540404e-05,2.0893645206557105e-06,8.85327321680382e-06,2.418232010210108e-05,5.862319744874022e-07,9.627441203180976e-07,9.315152825558839e-07,8.582975276376634e-07,5.4614729524646167e-05,1.5871366523540212e-06,1.0665508592937974e-06,0.0002767702096227395,2.109653358595655e-06,1.1406535964596235e-06,9.708825229069152e-07,1.8607167231074633e-06
163,2.429361243339983e-05,2.095871930242566e-06,8.888011181726943e-06,2.5113527868272664e-05,5.863647152913062e-07,9.696770433567977e-07,9.110450337269592e-07,8.600737577958269e-07,5.2470679076641575e-05,1.6053702992868378e-06,9.786075782105063e-07,0.0002699454756542272,2.1257008173829255e-06,1.1208480763771444e-06,1.001804309187073e-06,1.8628043300028496e-06
164,2.2979899064758587e-05,2.097218263714558e-06,8.924654803075734e-06,2.6137411027437337e-05,5.863949652410454e-07,9.749639833511914e-07,8.893901311488459e-07,8.637574342934277e-07,5.029697972345257e-05,1.6180731085684797e-06,9.116262006743482e-07,0.0002630045573124861,2.1352676494713725e-06,1.0992392961938831e-06,1.0325787609322333e-06,1.8646363224876353e-06
165,2.164388090741558e-05,2.0935288502525986e-06,8.96011915870373e-06,2.7240497836740863e-05,5.862901605992812e-07,9.788132684554849e-07,8.672591752958971e-07,8.694457794090742e-07,4.8132929120683886e-05,1.6243094748383237e-06,8.636694451302109e-07,0.0002560063280698178,2.1378240067030985e-06,1.0759671825222146e-06,1.0624684483245956e-06,1.8656707477302136e-06
166,2.0300603081502006e-05,2.0848899861023208e-06,8.990426048406533e-06,2.841381965879315e-05,5.859416164183891e-07,9.815072291278769e-07,8.452644510551938e-07,8.772318734780408e-07,4.601124507646808e-05,1.6234651287769352e-06,8.330065087923806e-07,0.00024902372002746,2.1328550300923512e-06,1.0513738490845473e-06,1.0908306762702892e-06,1.8654170324304009e-06
167,1.8963452134290573e-05,2.0715599446261765e-06,9.011432571701268e-06,2.96514800724988e-05,5.852135202852191e-07,9.833934819915043e-07,8.239154067757029e-07,8.871857574915431e-07,4.39582566410351e-05,1.615444626105307e-06,8.185097021604964e-07,0.0002421563146527926,2.1201816213807406e-06,1.0259473195302562e-06,1.1172976014757049e-06,1.8634259282305942e-06
168,1.7643848207063838e-05,2.054102525176397e-06,9.02023673813783e-06,3.094922109172991e-05,5.840259813343315e-07,9.848900363945318e-07,8.03640649938539e-07,8.993357606771174e-07,4.199610816231864e-05,1.6007447904095373e-06,8.199113408401244e-07,0.0002355235637717498,2.100318440536596e-06,1.0001554751926743e-06,1.1418186538304366e-06,1.859318691566671e-06
169,1.635149830934914e-05,2.0333234798915553e-06,9.016022397725469e-06,3.230314773462461e-05,5.823948092082046e-07,9.864405715243588e-07,7.848337650379109e-07,9.13688460420804e-07,4.014525303409397e-05,1.5803106580287672e-06,8.376598466429965e-07,0.00022924252937072724,2.0745559588338037e-06,9.743062671151816e-07,1.1645618511548527e-06,1.8528207575570731e-06
170,1.5094889025068257e-05,2.0100813539579304e-06,8.999634068888155e-06,3.370822977062152e-05,5.803882934028848e-07,9.884226753226204e-07,7.678695344486318e-07,9.302958767207421e-07,3.842528520630338e-05,1.5552108274691994e-06,8.725739356041265e-07,0.00022341106210097447,2.044845493338004e-06,9.485336456814116e-07,1.185763933656157e-06,1.8437501496747862e-06
171,1.3881525170288087e-05,1.9851927136060277e-06,8.972450988292536e-06,3.51562403062423e-05,5.780825084825319e-07,9.91074679489501e-07,7.530597892395525e-07,9.493006630659825e-07,3.685503905646939e-05,1.5263613207090633e-06,9.256096213067492e-07,0.00021811074005706788,2.0135799040212093e-06,9.228572158790998e-07,1.2056107572068403e-06,1.8319649115933376e-06
172,1.2717606980898766e-05,1.959483832661995e-06,8.93546845760746e-06,3.6633742505120186e-05,5.756042502906021e-07,9.94463638429637e-07,7.406055593071041e-07,9.709168300122084e-07,3.5453110915313285e-05,1.4944850032569508e-06,9.977946388658865e-07,0.00021341459795322674,1.9832616062175045e-06,8.972359724572235e-07,1.2241955464538788e-06,1.817330004476079e-06
173,1.1607584302996767e-05,1.933801104487054e-06,8.888886847386769e-06,3.812158615116884e-05,5.732036711017986e-07,9.984729503016964e-07,7.306032031607985e-07,9.953692111313774e-07,3.423811138881599e-05,1.4602130859681885e-06,1.0902142548202368e-06,0.00020938272508639987,1.9561990501893815e-06,8.716373228662557e-07,1.2415267876985383e-06,1.7997761470564934e-06
174,1.0554357891718535e-05,1.908882577348641e-06,8.83211650775556e-06,3.959653645309418e-05,5.712335874191378e-07,1.0028088946654789e-06,7.2307152958762e-07,1.0228272234352849e-06,3.322794242096817e-05,1.4241140698553107e-06,1.203965946107505e-06,0.00020605331545475567,1.93439469052446e-06,8.46148158676486e-07,1.2575124264284996e-06,1.7794089828039052e-06
175,9.560089735227275e-06,1.8852522893494875e-06,8.764074761980536e-06,4.103411517584385e-05,5.700482151891304e-07,1.0070548293348728e-06,7.179391955757658e-07,1.0533533009662509e-06,3.243898201095128e-05,1.3866393829121553e-06,1.3401048049324689e-06,0.0002034433380693099,1.9195771797226653e-06,8.210383333758244e-07,1.271916373496634e-06,1.756544639044591e-06
176,8.626862344497735e-06,1.8632970048173607e-06,8.683526467404409e-06,4.241149466736368e-05,5.699247048394348e-07,1.010774418147541e-06,7.150077646140711e-07,1.086862596277267e-06,3.1886046320526536e-05,1.3481478711144896e-06,1.4996140185911935e-06,0.00020155891412792885,1.913244767073018e-06,7.96705235238863e-07,1.2843624557551167e-06,1.7316325826504045e-06
177,7.756801713107141e-06,1.8434589884489284e-06,8.589147146664789e-06,4.3709867585470084e-05,5.710373376736244e-07,1.013583630292608e-06,7.139588158139467e-07,1.1230813900057123e-06,3.15820493163592e-05,1.3090643127842388e-06,1.6833757501387084e-06,0.00020040516249233745,1.916675089352505e-06,7.735738810332453e-07,1.2943999613580523e-06,1.7051149144086564e-06
178,6.951850096336173e-06,1.8263808841723144e-06,8.479190957012003e-06,4.491594170300434e-05,5.734661946375644e-07,1.0151270850876047e-06,7.144294253576544e-07,1.1615121236375541e-06,3.153623022777072e-05,1.2700513528708128e-06,1.8921243607200954e-06,0.0001999874505276515,1.930925193758147e-06,7.520521736464763e-07,1.3015519732375766e-06,1.6772971482999196e-06
179,6.213414045264024e-06,1.8128929287076831e-06,8.35110085129255e-06,4.60221943986311e-05,5.77244992102225e-07,1.0150210652813002e-06,7.160931059367932e-07,1.2014292607653704e-06,3.175210053529871e-05,1.2320631373978766e-06,2.1263951848893554e-06,0.00020030362912381095,1.956827290582329e-06,7.32524110855028e-07,1.3053227312085732e-06,1.6483393659355931e-06
180,5.542082652738277e-06,1.8038664969047165e-06,8.201752813486863e-06,4.702571582067329e-05,5.82435076751401e-07,1.0128694590061915e-06,7.18668976332854e-07,1.2419420500791334e-06,3.2226769965365344e-05,1.1962612274060658e-06,2.3865689294908026e-06,0.00020133149793275342,1.9949493448845824e-06,7.153110204578904e-07,1.305230768388762e-06,1.6184055349176105e-06
181,4.9376605486174055e-06,1.8001141395626114e-06,8.02855022770293e-06,4.7925889065572186e-05,5.891616614799847e-07,1.0083803442606443e-06,7.218891714547975e-07,1.2821406887588424e-06,3.2951568305188936e-05,1.1638605269134706e-06,2.6731544121804336e-06,0.00020301649408387473,2.0455254637883635e-06,7.006163690687141e-07,1.3009106045291193e-06,1.5878107629836908e-06
182,4.399448389912999e-06,1.8024217476811865e-06,7.830649731688617e-06,4.872133947404151e-05,5.975670684198955e-07,1.0015023025849745e-06,7.254927313134462e-07,1.3212423969906192e-06,3.391268786944224e-05,1.1359799914998407e-06,2.987229605464272e-06,0.00020526479976437303,2.1084130605384952e-06,6.885141133543172e-07,1.2922447697444524e-06,1.5569773430386242e-06
183,3.9263701676899305e-06,1.8115807938532945e-06,7.609516656750819e-06,4.94064673707396e-05,6.077284113073391e-07,9.924409852133504e-07,7.292180346884419e-07,1.358596970232652e-06,3.509122763232566e-05,1.1135403166599597e-06,3.3307558627246715e-06,0.00020794493846470455,2.183085921271002e-06,6.789848794916974e-07,1.2794445253205916e-06,1.526243159880464e-06
184,3.5168446200799184e-06,1.8283374972989854e-06,7.368677232877975e-06,4.9968538103249364e-05,6.196119768378247e-07,9.81517024852827e-07,7.327784277899137e-07,1.3935434127076187e-06,3.646374148835762e-05,1.0972150316793175e-06,3.7065919128561086e-06,0.00021089469054436113,2.2686143488940616e-06,6.719609808897401e-07,1.2630245880371486e-06,1.4957472320743203e-06
185,3.1686961199880473e-06,1.8533034789598586e-06,7.112968693854712e-06,5.0387490269857315e-05,6.330696550232865e-07,9.690160530600765e-07,7.358779243679975e-07,1.425288348743899e-06,3.800368170340028e-05,1.0874323296914199e-06,4.118244525093646e-06,0.00021392780621450077,2.3636501402853856e-06,6.673320152564903e-07,1.2436798786839007e-06,1.4655065837523019e-06
186,2.879226348344577e-06,1.886855137446643e-06,6.847617397708503e-06,5.063955198829545e-05,6.478630703963097e-07,9.551658076472608e-07,7.382616566057308e-07,1.4529397569030393e-06,3.968190255279964e-05,1.0844592156243005e-06,4.569464966516736e-06,0.00021684109122849376,2.4664947501031977e-06,6.649088171819819e-07,1.2221183833610256e-06,1.4355577274095124e-06
187,2.645272019742542e-06,1.929061987710081e-06,6.5773832362271044e-06,5.070280182010284e-05,6.637067027335959e-07,9.401973650858404e-07,7.397365286274136e-07,1.4756524710446386e-06,4.1466225485935546e-05,1.0885793424672664e-06,5.063791299958579e-06,0.0002194277630937487,2.5752546123933704e-06,6.644215102744338e-07,1.1989431685063194e-06,1.4060101424417375e-06
188,2.4631526901488488e-06,1.9797169860269812e-06,6.305956585436163e-06,5.056193141246711e-05,6.802939449067818e-07,9.243981074841946e-07,7.401340186725088e-07,1.4927880089223675e-06,4.332207737492322e-05,1.100245270819472e-06,5.604125134836961e-06,0.00022149913165741883,2.6880214087473864e-06,6.655970752790505e-07,1.1746616776256522e-06,1.3770448316024924e-06
189,2.328613277056137e-06,2.0384376916781086e-06,6.035752068896072e-06,5.021090228003431e-05,6.973140629063035e-07,9.081059957867142e-07,7.392469546664708e-07,1.5040370013117157e-06,4.521310799273328e-05,1.1200626383334865e-06,6.192437118392819e-06,0.00022290726781438346,2.8030547669439457e-06,6.682456813681644e-07,1.1497750652824512e-06,1.348949951511304e-06
190,2.2368956360445874e-06,2.1047113503565414e-06,5.768082381086242e-06,4.965340807121493e-05,7.145018761769228e-07,8.916513912568894e-07,7.368111650622975e-07,1.509475270857827e-06,4.709975563606149e-05,1.148652588253527e-06,6.829678443273367e-06,0.00022355500732870975,2.918958209406564e-06,6.722768156872143e-07,1.1248125700310328e-06,1.3221373575317439e-06
191,2.182987213511336e-06,2.1778496991073573e-06,5.503535307183263e-06,4.8901450380885836e-05,7.316671756248209e-07,8.753130689637676e-07,7.325725577137705e-07,1.5095235070498464e-06,4.893750378458581e-05,1.1865380527672966e-06,7.515781297019175e-06,0.00022338266361459873,3.034767587517629e-06,6.776699456529235e-07,1.1002595243180325e-06,1.2970565777636542e-06
192,2.1619949989947124e-06,2.2569371462570256e-06,5.242416863941192e-06,4.797237359527797e-05,7.486411840656637e-07,8.593163789344462e-07,7.264123610550831e-07,1.5047966827126863e-06,5.06768816696662e-05,1.2340936049088213e-06,8.249526625566304e-06,0.00022234076793364025,3.1498549971115875e-06,6.844490004011169e-07,1.0764688674721267e-06,1.2741077455576978e-06
193,2.169494705414004e-06,2.3408176693638868e-06,4.985206976189021e-06,4.688457080501651e-05,7.651984661995211e-07,8.438326416474759e-07,7.184613075546755e-07,1.4959294288690456e-06,5.226571783818711e-05,1.2915342745975981e-06,9.028415253118748e-06,0.00022038134996152408,3.2636691183791944e-06,6.9266960599721e-07,1.0536666873445941e-06,1.2536394978103054e-06
194,2.201639812441526e-06,2.42808646043761e-06,4.732939515944906e-06,4.565302372433728e-05,7.810218002756165e-07,8.289656713030845e-07,7.091164705242059e-07,1.4835227278903191e-06,5.3655243564573086e-05,1.3589420784210054e-06,9.848878380235018e-06,0.0002174837417090401,3.3754783844364465e-06,7.02410324108245e-07,1.0320495902080105e-06,1.235925755000106e-06
195,2.2549221279183736e-06,2.5170677434557338e-06,4.487381789165326e-06,4.4287845324485525e-05,7.957137821641764e-07,8.147820052334195e-07,6.98933728619317e-07,1.4681817170899486e-06,5.480884219966871e-05,1.4363304691652176e-06,1.0706730442894923e-05,0.00021368778634967833,3.4842686303934186e-06,7.137504533181369e-07,1.0118811822661747e-06,1.2211121762268424e-06
196,2.325767611112684e-06,2.6057862978129914e-06,4.25094984902502e-06,4.279732062630695e-05,8.088477039581826e-07,8.014126509803485e-07,6.884834108875814e-07,1.4504895138385877e-06,5.570678451373526e-05,1.5236992347317512e-06,1.1597384428523973e-05,0.00020910268072957603,3.5887484011287348e-06,7.267506121689448e-07,9.935066443854335e-07,1.2092514255562869e-06
197,2.410307738487293e-06,2.691922771434379e-06,4.026418689476957e-06,4.119240387629713e-05,8.200154111956503e-07,7.891436301668778e-07,6.782611031843472e-07,1.4309538381668375e-06,5.634274924345883e-05,1.6209906804206117e-06,1.251546545633639e-05,0.00020388946958474415,3.687297461668403e-06,7.414456741753244e-07,9.772756461057672e-07,1.2003718478853218e-06
198,2.50448095228149e-06,2.7728100985707697e-06,3.816548142779227e-06,3.9489587636738695e-05,8.288104074459066e-07,7.784073140945016e-07,6.686526584484031e-07,1.4100320977133952e-06,5.67174652788523e-05,1.7279698236835445e-06,1.3453911486290623e-05,0.00019823241028769275,3.7778063456490226e-06,7.578206978586811e-07,9.634463713307225e-07,1.1944895818850634e-06
199,2.604314923672967e-06,2.8456128056521066e-06,3.623713735865756e-06,3.771182202260069e-05,8.347673820199985e-07,7.696818375063068e-07,6.599249470611634e-07,1.3881352575261546e-06,5.683801948025088e-05,1.8441781328116165e-06,1.4403063131160555e-05,0.0001923116588679965,3.85753521344079e-06,7.757773436032191e-07,9.521527642182799e-07,1.1916499713493364e-06
200,2.7061096651678447e-06,2.907736200755202e-06,3.449621919843702e-06,3.588774697871919e-05,8.373762128356969e-07,7.633745030993209e-07,6.52247154554964e-07,1.3655278305972904e-06,5.672052876451253e-05,1.96898448329507e-06,1.5350102918375594e-05,0.00018628397924655736,3.923216698276524e-06,7.951192102567963e-07,9.434592242959759e-07,1.192002656479022e-06
201,2.8063451636860613e-06,2.9573522605842993e-06,3.295178945035646e-06,3.4049590322207104e-05,8.362475325826017e-07,7.597644785147137e-07,6.457554392784923e-07,1.3422348641364643e-06,5.638779903917336e-05,2.101604373548933e-06,1.6278760679058614e-05,0.00018027820738794723,3.9715416539542345e-06,8.155561234564731e-07,9.374533407901522e-07,1.195756999110865e-06
202,2.9013975722371967e-06,2.993832065889333e-06,3.160498712147663e-06,3.223061103163165e-05,8.313269823892235e-07,7.590037569825281e-07,6.406311836521086e-07,1.318051262583101e-06,5.586571574288445e-05,2.2410844936473115e-06,1.71691531400484e-05,0.00017440642447938821,3.999898565974564e-06,8.367177647629329e-07,9.342655739540118e-07,1.2030246098521884e-06
203,2.9874032039930575e-06,3.0178250631886996e-06,3.045027150219248e-06,3.046281932361378e-05,8.229625486169571e-07,7.611189197665979e-07,6.371277786119993e-07,1.2926337849609335e-06,5.51854599264761e-05,2.386410209022389e-06,1.79979822712195e-05,0.00016877828428251587,4.0070245418116345e-06,8.581883926783331e-07,9.339785873267897e-07,1.2137276606840453e-06
204,3.060546287600972e-06,3.0308616986267403e-06,2.9478664111402877e-06,2.8775262477020595e-05,8.117659536891572e-07,7.659982406670014e-07,6.355505588029841e-07,1.2656378986461858e-06,5.438590416232466e-05,2.5367477597191084e-06,1.873976800419425e-05,0.0001635055954652366,3.99327784041602e-06,8.795761027535877e-07,9.365310984224697e-07,1.2276158160979717e-06
205,3.117649634956377e-06,3.0346906644715584e-06,2.8682849946845035e-06,2.7192913340836985e-05,7.98398339071565e-07,7.733910382254198e-07,6.36245965854976e-07,1.2368692070374054e-06,5.3510004026092415e-05,2.691570007420536e-06,1.936976687013761e-05,0.00015869724559092123,3.960484885259576e-06,9.005764588702694e-07,9.417081505731317e-07,1.2442930816124187e-06
206,3.156689125143585e-06,3.0307303829798324e-06,2.8060790123128637e-06,2.573610142051655e-05,7.834364642214861e-07,7.829375582609982e-07,6.395772921863143e-07,1.2063747092059057e-06,5.259823944287907e-05,2.850496641284514e-06,1.9868030184584124e-05,0.0001544514103526477,3.911487826460075e-06,9.209565456219067e-07,9.491837924751414e-07,1.2632550512714511e-06
207,3.1769507455899307e-06,3.0198136198379157e-06,2.7614621961425546e-06,2.442042264422661e-05,7.673756225582125e-07,7.942359555906054e-07,6.458546645402396e-07,1.1743976756121207e-06,5.168353986432337e-05,3.013093129866164e-06,2.022240761679602e-05,0.00015084894646887276,3.8495326189895095e-06,9.404513593276095e-07,9.585401942463882e-07,1.2839835565003724e-06
208,3.178816927322285e-06,3.002163141470108e-06,2.7346396327581146e-06,2.3256960215407002e-05,7.507116313668779e-07,8.069107871157408e-07,6.552707166662739e-07,1.1412636691123617e-06,5.0789605835344644e-05,3.1789306282711906e-06,2.042809365633466e-05,0.00014794766905982195,3.777657415600809e-06,9.586681542009492e-07,9.692742460053672e-07,1.306007598482867e-06
209,3.163405872258361e-06,2.9775340585973996e-06,2.725480839447911e-06,2.225246348048431e-05,7.339841819375277e-07,8.206481678405669e-07,6.67882498023404e-07,1.1073582967403692e-06,4.9932558526424026e-05,3.34776929026941e-06,2.048395648840159e-05,0.0001457778094262028,3.698265394839881e-06,9.751062435401926e-07,9.808540877628277e-07,1.3288402234685246e-06
210,3.132318994578229e-06,2.945484530394589e-06,2.733414177871509e-06,2.140921763630014e-05,7.177335225789055e-07,8.352550012407886e-07,6.836255011672566e-07,1.0731822377129061e-06,4.912393121891063e-05,3.5195760436877854e-06,2.0389555804710867e-05,0.0001443421170205476,3.6129624817673544e-06,9.893020438274787e-07,9.928002720809302e-07,1.3518745947486114e-06
211,3.087553200925891e-06,2.9056586171003057e-06,2.757393750646577e-06,2.0724735837384965e-05,7.024284403825112e-07,8.507481081519043e-07,7.023539427547393e-07,1.0393254644274738e-06,4.8373001022029364e-05,3.6943583432183773e-06,2.0145935055159604e-05,0.00014362127397269024,3.5226438298847344e-06,1.0009657833494876e-06,1.0047117377679008e-06,1.3743688731457155e-06
212,3.0314314684976773e-06,2.8579799892639356e-06,2.795925630802456e-06,2.0191650071770177e-05,6.884246226018899e-07,8.67346304067029e-07,7.238963667554952e-07,1.0063649148049862e-06,4.7687847162897754e-05,3.871929646388125e-06,1.9758558743295815e-05,0.00014357808650377498,3.427807136806988e-06,1.0099867192790157e-06,1.0162489335678274e-06,1.3955506412246071e-06
213,2.966424292250209e-06,2.802761757289742e-06,2.847210882828631e-06,1.9797961674406666e-05,6.759581608541793e-07,8.853476955673724e-07,7.480757374426893e-07,9.74803706334306e-07,4.7075227646614625e-05,4.05165317467654e-06,1.9239248287814503e-05,0.0001441572363132892,3.3289790463729133e-06,1.0164121548271865e-06,1.027143752275721e-06,1.4148132042350229e-06
214,2.8949130943475167e-06,2.7407539192336162e-06,2.909248528740205e-06,1.9527557080707293e-05,6.651584920404052e-07,9.050243747673874e-07,7.746767342923551e-07,9.450421196457493e-07,4.6539238132307767e-05,4.232191473129182e-06,1.8605930402053865e-05,0.0001452891956256815,3.2270360972664284e-06,1.0204889876500118e-06,1.0372323885653964e-06,1.431926836658763e-06
215,2.8190219919239222e-06,2.6731132749400295e-06,2.9797661348322683e-06,1.9361028468421684e-05,6.560672939489716e-07,9.265797295832202e-07,8.034029789423408e-07,9.17331776378176e-07,4.607908583036158e-05,4.411370410834085e-06,1.7880568674881963e-05,0.00014690482861008097,3.123269168528602e-06,1.0226132653413466e-06,1.046464104968545e-06,1.4470994379670677e-06
216,2.7405311751017028e-06,2.6013058877204577e-06,3.0561847994875154e-06,1.9277018819711518e-05,6.486420409576272e-07,9.50112566806581e-07,8.33846043264841e-07,8.917658689386836e-07,4.5687822509506676e-05,4.5863070406583705e-06,1.7086413282013987e-05,0.0001489513611438453,3.0191815249060543e-06,1.0231672856589796e-06,1.0548861651041028e-06,1.46079797473784e-06
217,2.660794671055846e-06,2.526973016913825e-06,3.1358580639353945e-06,1.9254120770836297e-05,6.42752695636295e-07,9.75587559384535e-07,8.654686717460533e-07,8.683471971277647e-07,4.5354507255101794e-05,4.7538209243022334e-06,1.6245706219201626e-05,0.00015139440729051165,2.9161547504880766e-06,1.0224437881491807e-06,1.0626189194191957e-06,1.4734766787802438e-06
218,2.5806556803061803e-06,2.4517527266777096e-06,3.2164716647887738e-06,1.927294695206445e-05,6.382272664514205e-07,1.0028719363819814e-06,8.97622318414908e-07,8.470658501026853e-07,4.506917406065002e-05,4.910898451900597e-06,1.5378238888852758e-05,0.0001542053048284263,2.815218872884238e-06,1.020678032077645e-06,1.0698043777534187e-06,1.4854043962963957e-06
219,2.500402857542755e-06,2.3770571547016396e-06,3.296294118639484e-06,1.931774019316946e-05,6.349427187188393e-07,1.031829260728835e-06,9.296148034792358e-07,8.27904608976319e-07,4.4825833251340524e-05,5.054883271723252e-06,1.4500671546680689e-05,0.0001573510805407044,2.717027307477134e-06,1.0180514636080875e-06,1.076530942026951e-06,1.4966274456782848e-06
220,2.4197864905324924e-06,2.3038852999858343e-06,3.3740862894115968e-06,1.9376975799392303e-05,6.328746661258219e-07,1.06235739508794e-06,9.608166648736267e-07,8.108044048494601e-07,4.4620941506637975e-05,5.183338590120229e-06,1.3626555350078266e-05,0.00016079412527302456,2.6218822131333793e-06,1.0146574755244887e-06,1.0827731123609293e-06,1.5070317992470579e-06
221,2.3381618071998963e-06,2.2327861061262056e-06,3.448731097610882e-06,1.944271177607798e-05,6.32096404899404e-07,1.0943285720768644e-06,9.90731860893339e-07,7.95673488003483e-07,4.445073165216802e-05,5.293900472135976e-06,1.2766884622744809e-05,0.0001644873401962804,2.529701533891777e-06,1.0105037921899576e-06,1.088371312272355e-06,1.5164524475353837e-06
222,2.254788917309588e-06,2.164012942763245e-06,3.518887540226514e-06,1.9508961542931987e-05,6.327904287739693e-07,1.1275468520452283e-06,1.0189602312943774e-06,7.824273326113107e-07,4.430978479906683e-05,5.3844550167386815e-06,1.1930702604993923e-05,0.00016836152824393672,2.4400654311395082e-06,1.0055646793279911e-06,1.0930504761255077e-06,1.524731799342447e-06
223,2.1691413563522876e-06,2.0977904578319817e-06,3.5829892525350443e-06,1.9570055862407613e-05,6.352440007326946e-07,1.1617790692328843e-06,1.04513443367011e-06,7.710200797528273e-07,4.4189624157312253e-05,5.453620088945211e-06,1.1125438772983408e-05,0.00017231928441246243,2.352434679407372e-06,9.998362227537029e-07,1.0964971892555162e-06,1.5316940495074318e-06
224,2.0811067248829803e-06,2.034559386494161e-06,3.63960220904822e-06,1.9620116780424285e-05,6.397915898997296e-07,1.1967528697863267e-06,1.0689487034939814e-06,7.615024231909889e-07,4.407838234308328e-05,5.501122300752506e-06,1.0357082559513336e-05,0.00017624252199442074,2.2664095794710034e-06,9.933227882806774e-07,1.0985061699495805e-06,1.537114301917845e-06
225,1.9911287636077115e-06,1.975085259700548e-06,3.6878436977687642e-06,1.96538537305641e-05,6.467517280218166e-07,1.2320691993991632e-06,1.0902092457418161e-06,7.540716562562807e-07,4.3963287927554926e-05,5.5275853037305015e-06,9.63035033839943e-06,0.00018000825046321606,2.181908413005143e-06,9.85955396272845e-07,1.0990845968011386e-06,1.5407486781462922e-06
226,1.9002739435137603e-06,1.9203632053422116e-06,3.727600732298491e-06,1.9667764842813784e-05,6.563745432194466e-07,1.2671124958668576e-06,1.1088012971202357e-06,7.490126044964466e-07,4.383305469881471e-05,5.533761701217362e-06,8.948830695701545e-06,0.00018350048402352906,2.0992527068354084e-06,9.775631458483876e-07,1.0983940255667362e-06,1.542427268792612e-06
227,1.8101025291759948e-06,1.8713765890004342e-06,3.7595206534741763e-06,1.9660611412757268e-05,6.687904932485656e-07,1.30103283069563e-06,1.1246344722804917e-06,7.465776323556898e-07,4.367677244491753e-05,5.519894029363054e-06,8.315072057676545e-06,0.00018660876684628862,2.019152620073227e-06,9.679431822869807e-07,1.0966033457829875e-06,1.5421766029039998e-06
228,1.7223691214605944e-06,1.82893008623279e-06,3.7848578417281275e-06,1.9632651606775466e-05,6.839818114808942e-07,1.3328120090856522e-06,1.1376692115863197e-06,7.469195124468144e-07,4.348242989396424e-05,5.485714322552711e-06,7.730626152463851e-06,0.00018922133534854927,1.9426086525227535e-06,9.569177203579947e-07,1.0938015975621232e-06,1.5402862903697872e-06
229,1.6387497220372453e-06,1.7937016701722687e-06,3.805256747508822e-06,1.9583870347778188e-05,7.017890118588866e-07,1.3614064460019582e-06,1.1480121169325417e-06,7.500700615465715e-07,4.323961571992253e-05,5.430910851741372e-06,7.196070377185276e-06,0.00019123384596426572,1.8707939456425062e-06,9.443550832610105e-07,1.0900236287377368e-06,1.537225092627078e-06
230,1.5607273713015975e-06,1.7663734393432362e-06,3.822523121624073e-06,1.9512154334175904e-05,7.219608173777421e-07,1.3859531092968054e-06,1.1559903625194531e-06,7.559225947692555e-07,4.2943854423767786e-05,5.355772715514807e-06,6.711050586850959e-06,0.00019257408705321467,1.8049598678338373e-06,9.302428326683804e-07,1.0853806637493697e-06,1.5334635672943942e-06
231,1.4895703069489865e-06,1.747625378685492e-06,3.83839539760388e-06,1.941283794134782e-05,7.442431709662902e-07,1.4059593859871033e-06,1.1621373901447232e-06,7.642262896401008e-07,4.259782428929958e-05,5.261858396870642e-06,6.274397281626179e-06,0.0001932123313701083,1.746348893383868e-06,9.147549970768318e-07,1.0802096884755652e-06,1.5293528414612707e-06
232,1.4262965965175407e-06,1.7379832283769371e-06,3.854312283243386e-06,1.9280291855963562e-05,7.684492481199457e-07,1.4213202791937978e-06,1.167081906361907e-06,7.746224841056254e-07,4.2209144837537114e-05,5.152377510696621e-06,5.8843557657708435e-06,0.00019314164396484542,1.6960880699126255e-06,8.981963591566797e-07,1.075084600373099e-06,1.5250677567661063e-06
233,1.371649283434581e-06,1.7376798156838976e-06,3.8712103605049915e-06,1.9110635089177155e-05,7.944604176571306e-07,1.432144578119277e-06,1.1713978054571448e-06,7.867423332499462e-07,4.178652780280184e-05,5.031996519897027e-06,5.538915768544536e-06,0.00019235660710867965,1.6550924461079412e-06,8.808820342686715e-07,1.0706703071200349e-06,1.5205679131847003e-06
234,1.3261320574183062e-06,1.7466200021858476e-06,3.889491768492329e-06,1.8904181069572283e-05,8.221853754599906e-07,1.4386145789647604e-06,1.1755105708291066e-06,8.003069082471605e-07,4.133566677944222e-05,4.906185925650169e-06,5.236073675496848e-06,0.00019085956146929847,1.6240433612717632e-06,8.630710299736471e-07,1.0675709519562665e-06,1.5156333074714585e-06
235,1.2900533153574577e-06,1.7643880169573661e-06,3.909300598717527e-06,1.8666880770685075e-05,8.51514346212747e-07,1.441001532953847e-06,1.1796826303361984e-06,8.151300707640354e-07,4.085656795581348e-05,4.780552535682325e-06,4.973781340130747e-06,0.00018868236348155916,1.6034212461789403e-06,8.449713390547092e-07,1.0662609255027218e-06,1.5099864878077977e-06
236,1.2635127802943364e-06,1.790251946780467e-06,3.931010926040086e-06,1.8410514659735017e-05,8.822692257228675e-07,1.4396845215611456e-06,1.184002164083798e-06,8.310586864803962e-07,4.034454814315809e-05,4.660474423388779e-06,4.749607686242015e-06,0.0001858972779689296,1.5934890831557134e-06,8.267882499996338e-07,1.067078949055211e-06,1.5033757182521518e-06
237,1.2463550830997109e-06,1.8232131113842575e-06,3.955679608383771e-06,1.8151652403452885e-05,9.141789902452296e-07,1.4350849537128517e-06,1.188340156503663e-06,8.479604895785775e-07,3.9795398618096465e-05,4.550932648672603e-06,4.560546302354879e-06,0.0001826094994321537,1.5942277367867479e-06,8.087926539365493e-07,1.070251528903246e-06,1.495552420450912e-06
238,1.2381522798866363e-06,1.8621089115946217e-06,3.985313884041124e-06,1.7909752452561523e-05,9.469142976033916e-07,1.427626986172104e-06,1.1923261769033118e-06,8.657318134525285e-07,3.9211798230884374e-05,4.4562856530654896e-06,4.403267033057498e-06,0.00017893660752109445,1.605356048828149e-06,7.913522364294237e-07,1.0759076457120507e-06,1.4862484622535605e-06
239,1.2382294631010287e-06,1.9056910169981782e-06,4.022894828334199e-06,1.7704997656149742e-05,9.801553332016085e-07,1.4177832154597341e-06,1.1953958120941626e-06,8.842536098910978e-07,3.860678091790783e-05,4.380018302440071e-06,4.274465277671776e-06,0.00017498532039167186,1.6264710779546792e-06,7.74872751220904e-07,1.0840914377616703e-06,1.4752290699513806e-06
240,1.2457018891891287e-06,1.952625597821658e-06,4.072126619580911e-06,1.7556358610901397e-05,1.013656713325738e-06,1.4061190907511628e-06,1.1969195763537966e-06,9.033527175488402e-07,3.800215393111278e-05,4.324660371709002e-06,4.1708232157137735e-06,0.0001708423677585889,1.6571499898883363e-06,7.596940000855728e-07,1.0947839978138392e-06,1.4623251538694287e-06
241,1.2594961050328167e-06,2.001443090743359e-06,4.13696640734295e-06,1.7480128194964635e-05,1.0472707785034025e-06,1.3932670026999736e-06,1.1963743570561303e-06,9.228159773256803e-07,3.742323835517516e-05,4.2918741836476376e-06,4.088715655554048e-06,0.00016658794786390019,1.6968933931161294e-06,7.460335614515327e-07,1.1078742347190545e-06,1.4473716936085623e-06
242,1.2783821892699157e-06,2.0504735331750306e-06,4.221109955370349e-06,1.7488995013589015e-05,1.0808829627382459e-06,1.3798749832337012e-06,1.1934817923983222e-06,9.423954562234128e-07,3.689372152337112e-05,4.282535101744996e-06,4.024103802046749e-06,0.00016231589245095768,1.7450090752128651e-06,7.339950553531339e-07,1.1230831579931676e-06,1.4301401770462715e-06
243,1.3010939401159747e-06,2.0978023983957982e-06,4.327677977763057e-06,1.7591615639689813e-05,1.1142951316274677e-06,1.3665678766454843e-06,1.188233978895019e-06,9.617936993194805e-07,3.643372630487267e-05,4.296686300871769e-06,3.972608989380395e-06,0.00015813649231754387,1.8005488490723352e-06,7.235916341705145e-07,1.139926237114827e-06,1.410361340625346e-06
244,1.326557510964259e-06,2.141362368561454e-06,4.459238521498713e-06,1.7792592319506575e-05,1.1471585717487072e-06,1.3538871112529694e-06,1.1807840447846188e-06,9.806737401551953e-07,3.606066594485965e-05,4.333428229096404e-06,3.929487652874006e-06,0.00015415837642706584,1.8622597408834312e-06,7.147694155267781e-07,1.157714976112261e-06,1.387863130844562e-06
245,1.354109780253824e-06,2.179247193978045e-06,4.618009465489085e-06,1.809276869078353e-05,1.179029763183096e-06,1.342226289618864e-06,1.1712953704432164e-06,9.986803782615196e-07,3.578971511111989e-05,4.39085904281131e-06,3.88964364009787e-06,0.00015046744902540583,1.9285184052493047e-06,7.074599272552234e-07,1.1755781934876703e-06,1.3627201752640637e-06
246,1.3835417063821557e-06,2.2101360492423874e-06,4.8059313107905455e-06,1.848975456344572e-05,1.2095410897501962e-06,1.3318158176087225e-06,1.1598973349899606e-06,1.0154675450546232e-06,3.56322965087448e-05,4.4661024227324844e-06,3.848072776910284e-06,0.0001471176283231436,1.9973152407033848e-06,7.016668680256385e-07,1.1925608083755352e-06,1.3352065457521763e-06
247,1.4149252983681028e-06,2.2336278655673434e-06,5.024483744120456e-06,1.8978523104046892e-05,1.2385592717533897e-06,1.3227210850585876e-06,1.146777490352816e-06,1.0307363342044717e-06,3.559450564474577e-05,4.555495970319053e-06,3.8006882428531517e-06,0.00014413114585413333,2.066387468094324e-06,6.975281859217334e-07,1.2077758128705146e-06,1.3056160183119005e-06
248,1.448350596971964e-06,2.2503363535396865e-06,5.274430321609494e-06,1.955180029436797e-05,1.2661874250970667e-06,1.3148043191334858e-06,1.132260713047432e-06,1.0442291193759803e-06,3.567724967332284e-05,4.655033271758083e-06,3.744873273340328e-06,0.00014150041448260657,2.1335158703275046e-06,6.952885668765247e-07,1.220477178728473e-06,1.274230523099799e-06
249,1.4837556527854606e-06,2.261662471079275e-06,5.5557876219367025e-06,2.0199895889659056e-05,1.292608370287568e-06,1.3076892023703304e-06,1.116749055546763e-06,1.0556826119003874e-06,3.5877349818551326e-05,4.760917940661213e-06,3.6792809006487385e-06,0.00013918932863950275,2.1968464051228985e-06,6.952084422550353e-07,1.2300394920545385e-06,1.2414259122137717e-06
250,1.52091049928218e-06,2.2693239678378946e-06,5.8680843928695495e-06,2.0909945511906667e-05,1.3178972704134156e-06,1.3008172188769934e-06,1.1006221697305108e-06,1.064856713805999e-06,3.618888238563789e-05,4.869903377370944e-06,3.603456724748298e-06,0.00013713762890836268,2.2551200144028194e-06,6.974871834245196e-07,1.2359614519860928e-06,1.2076951693021617e-06
251,1.559461870709104e-06,2.2749221814357276e-06,6.21068244936623e-06,2.1665199110754363e-05,1.3419312120106588e-06,1.2936169930616863e-06,1.084240177937627e-06,1.0716636376293238e-06,3.6605217363733674e-05,4.9792411704466826e-06,3.5180011621115113e-06,0.0001352690776957615,2.307827361346825e-06,7.022410494308758e-07,1.2379273783186407e-06,1.173562210294664e-06
252,1.5989768315546912e-06,2.279775058587624e-06,6.5829190605548e-06,2.2444988998313523e-05,1.364424658369369e-06,1.2856395414162936e-06,1.0679864353670151e-06,1.0762387846343735e-06,3.7121849025227557e-05,5.086373254318984e-06,3.4247279852054226e-06,0.00013349688861677403,2.3552771677357036e-06,7.095188936598472e-07,1.2358118672088322e-06,1.139526370562585e-06
253,1.6390323389785423e-06,2.2849757388463024e-06,6.983973119181743e-06,2.3225224216863353e-05,1.385040669094437e-06,1.2765272211381938e-06,1.052232649888122e-06,1.0788454589381645e-06,3.7739028959324616e-05,5.18868720800027e-06,3.326110566094963e-06,0.00013172583967619456,2.398483869337428e-06,7.193070805426019e-07,1.2295625861561235e-06,1.1060708056062922e-06
254,1.679376849902014e-06,2.2915042970077447e-06,7.412460737102627e-06,2.397906648206426e-05,1.4035199122871717e-06,1.2659499747753206e-06,1.0372441730490627e-06,1.0797011266017215e-06,3.846216199551481e-05,5.283524464056924e-06,3.2244792155146457e-06,0.00012986217492043966,2.4388519557330295e-06,7.315166939984422e-07,1.2191134283859797e-06,1.0736424799074501e-06
255,1.7201083901596473e-06,2.3002971657192665e-06,7.86594063242479e-06,2.467806906398626e-05,1.4197843134227208e-06,1.253667305403346e-06,1.0231107499070528e-06,1.0788639292884883e-06,3.929886480984263e-05,5.368353241448337e-06,3.1217059073810056e-06,0.0001278325810238609,2.47779460033745e-06,7.459811385421421e-07,1.2044659657512926e-06,1.042604031697805e-06
256,1.761791064044282e-06,2.3122574239145924e-06,8.340711217898605e-06,2.5294357190984603e-05,1.4339764602002103e-06,1.239613091902489e-06,1.0097426164000654e-06,1.0762379688661018e-06,4.0255494352816265e-05,5.4409453947213544e-06,3.0194015491563244e-06,0.00012559366132137788,2.5164835858574815e-06,7.624697957401907e-07,1.1858195082809604e-06,1.0132236060255077e-06
257,1.8054641096313714e-06,2.328185715678733e-06,8.832149267036876e-06,2.5803799930994213e-05,1.4464032593308656e-06,1.2238648571843037e-06,9.968952249241002e-07,1.0716767260989782e-06,4.133632321306175e-05,5.49945346026107e-06,2.9192053855401384e-06,0.00012312167518889754,2.555772820909534e-06,7.80718588536321e-07,1.1635950608282433e-06,9.856804648295182e-07
258,1.8525592689722034e-06,2.3486365295181454e-06,9.335412604146902e-06,2.61890609887056e-05,1.457396436874161e-06,1.2065416245740527e-06,9.84178508969111e-07,1.0651164462220225e-06,4.254353026840327e-05,5.542254231189102e-06,2.822831484481925e-06,0.00012040268383070878,2.5961812113902475e-06,8.004600007179027e-07,1.1383771184491079e-06,9.600756331981455e-07
259,1.9047916748733691e-06,2.37378564235989e-06,9.846070455509403e-06,2.6441020584578475e-05,1.4671743405304404e-06,1.1877618797655805e-06,9.710894456565618e-07,1.05665587315434e-06,4.387511549905023e-05,5.5675386574484e-06,2.7318596650476725e-06,0.00011744322486324889,2.637955462533632e-06,8.214035000718547e-07,1.110848006132449e-06,9.364587879960251e-07
260,1.9640592031444656e-06,2.403388875707219e-06,1.0360229435472392e-05,2.655781838511463e-05,1.475807919881728e-06,1.1677281066867046e-06,9.571268051110702e-07,1.0465331126458903e-06,4.5321762899011835e-05,5.573015007706282e-06,2.647481646810082e-06,0.00011428722351029808,2.681292555264725e-06,8.431726726236605e-07,1.0817239625890693e-06,9.148266381436868e-07
261,2.0323062340412238e-06,2.4368499753910834e-06,1.0873964424342843e-05,2.654189922935851e-05,1.4833062662314373e-06,1.1468435721222773e-06,9.41953433263594e-07,1.035062016651736e-06,4.686532278206261e-05,5.5562084649770394e-06,2.570390623935908e-06,0.00011101433778499746,2.7265365160463877e-06,8.65282148188151e-07,1.0516869200782832e-06,8.951304210654926e-07
262,2.111347753089885e-06,2.473357445851767e-06,1.138249321701765e-05,2.639625952007612e-05,1.4897125701345823e-06,1.125702195082672e-06,9.25505776697612e-07,1.0226238784120167e-06,4.8480570260198956e-05,5.515322483553231e-06,2.5009102449200742e-06,0.00010771966345576493,2.77416151171858e-06,8.871930313646129e-07,1.0213313233008685e-06,8.773608053072946e-07
263,2.2028163667226247e-06,2.511980657534352e-06,1.187997716675723e-05,2.6121810854200396e-05,1.4950897437499624e-06,1.1049575589234501e-06,9.079703179454682e-07,1.0096620564924447e-06,5.0139984804500015e-05,5.450093409020863e-06,2.4393273937704623e-06,0.00010449286478840286,2.824684826396582e-06,9.083823698465421e-07,9.91140927275127e-07,8.616180906691335e-07
264,2.308377575236096e-06,2.5516860567463295e-06,1.2360219312825049e-05,2.5717601310294764e-05,1.4994255648661759e-06,1.085210163145158e-06,8.896498227720477e-07,9.965955496628422e-07,5.18184554121135e-05,5.3621132174987125e-06,2.3862030795993935e-06,0.0001014093979604221,2.878696152788862e-06,9.283683219393458e-07,9.614982329667792e-07,8.480637982221486e-07
265,2.430103710264599e-06,2.5913794067245854e-06,1.2817618646089503e-05,2.5183575970108914e-05,1.5025871280989249e-06,1.0669509856884755e-06,8.708495295601226e-07,9.837312384934124e-07,5.3493825006129755e-05,5.254459159015544e-06,2.3424583527308905e-06,9.853239426716004e-05,2.9369075420203384e-06,9.467097426938659e-07,9.327251974378923e-07,8.36810737873317e-07
266,2.570759574747986e-06,2.6300314170669585e-06,1.3247801034679177e-05,2.452372069771985e-05,1.5043427049385272e-06,1.0505172309766332e-06,8.51851358051668e-07,9.712744553618174e-07,5.5142406034811095e-05,5.1308483817582064e-06,2.309260170664766e-06,9.591825249359365e-05,3.0000297701462066e-06,9.629928577498846e-07,9.051311439104119e-07,8.278631304860344e-07
267,2.7338279600438367e-06,2.6667914570477433e-06,1.3647872307370744e-05,2.3747895147260953e-05,1.5043695866158812e-06,1.0360589427982632e-06,8.329446309963946e-07,9.593842696347473e-07,5.6732904417804474e-05,4.994824924942669e-06,2.2878276004033534e-06,9.36214885657733e-05,3.068498367700005e-06,9.767989405634638e-07,8.79024710343775e-07,8.211312651133529e-07
268,2.9232415721949953e-06,2.7009958469584403e-06,1.4016292290883013e-05,2.28720086551897e-05,1.5022446456427987e-06,1.0235206721219976e-06,8.144929823628058e-07,9.481974050714538e-07,5.822272458128867e-05,4.84935318755554e-06,2.2792272096906694e-06,9.169520915840533e-05,3.142229148569546e-06,9.877232788917373e-07,8.546923505189589e-07,8.164578489881635e-07
269,3.1429384759936157e-06,2.7321015460527396e-06,1.4352182916929566e-05,2.1916890488702052e-05,1.4974959938775264e-06,1.0126477935932796e-06,7.969744107881408e-07,9.37875417912018e-07,5.955724816775242e-05,4.696711510951044e-06,2.2842036707627846e-06,9.018598354601445e-05,3.2204982710331614e-06,9.955176276014598e-07,8.323919424510431e-07,8.136131992384391e-07
270,3.396449613302558e-06,2.7595997978510824e-06,1.4654106858329765e-05,2.0906438297370236e-05,1.4897455222824733e-06,1.003054798683989e-06,7.809157826913488e-07,9.287071241551872e-07,6.067064970582266e-05,4.538459509173885e-06,2.3031164136144535e-06,8.912913949871439e-05,3.3019466651489337e-06,1.000260780824254e-06,8.123526851820285e-07,8.123211432630072e-07
271,3.686670913184835e-06,2.7828826121160957e-06,1.4919080165107765e-05,1.986561048273145e-05,1.4788341030865876e-06,9.943438678779913e-07,7.667765516093063e-07,9.211500195992203e-07,6.149060556152078e-05,4.375544911411449e-06,2.336041023793381e-06,8.855009932311969e-05,3.3847275188326915e-06,1.0023884525887537e-06,7.94745581557961e-07,8.123851607846929e-07
272,4.01579436768579e-06,2.8010867571885587e-06,1.5142820412520727e-05,1.881860412460153e-05,1.4647833029576624e-06,9.861936464552806e-07,7.548846244989966e-07,9.15743413657133e-07,6.195249556403643e-05,4.208628331572319e-06,2.3829476635354856e-06,8.846812297203236e-05,3.466778876761506e-06,1.0025704887897096e-06,7.79644126215653e-07,8.138136219224026e-07
273,4.385267139335256e-06,2.813115245728898e-06,1.5321288766750767e-05,1.7787380002930084e-05,1.4476520388284361e-06,9.783683658393033e-07,7.454297262989014e-07,9.129737150611553e-07,6.201964682235728e-05,4.038452930902951e-06,2.443737519032536e-06,8.889708152658831e-05,3.546078088851354e-06,1.0015555745321695e-06,7.669978967968726e-07,8.167945232091819e-07
274,4.795770183663706e-06,2.8179778638571065e-06,1.5452655046832935e-05,1.6790650036240537e-05,1.427484962835781e-06,9.706823323351948e-07,7.384739671227371e-07,9.131766703944795e-07,6.169231173936656e-05,3.866076007943524e-06,2.5180820044864155e-06,8.984341354236395e-05,3.6207617542345533e-06,1.000054121665326e-06,7.566422161634723e-07,8.215659371059562e-07
275,5.247299824123104e-06,2.815295701699172e-06,1.553889373349438e-05,1.5843413688615415e-05,1.404383102944632e-06,9.629720566140294e-07,7.339723604723693e-07,9.165031778478968e-07,6.0995796918770836e-05,3.692906762779188e-06,2.6052657253986996e-06,9.130342980206291e-05,3.689168718689278e-06,9.986572797431831e-07,7.483570987287591e-07,8.283024842986198e-07
276,5.7392585598594415e-06,2.8056555968350914e-06,1.558650371169891e-05,1.4956970120651428e-05,1.3785859731329072e-06,9.55092188600254e-07,7.317956028861599e-07,9.229441386569383e-07,5.9963313855768545e-05,3.520536744976133e-06,2.7042108727386868e-06,9.32611683837153e-05,3.7498859614659444e-06,9.977898527578398e-07,7.419087185054119e-07,8.3703949784554e-07
277,6.270343547462414e-06,2.790577061748474e-06,1.5605888316748333e-05,1.4139096711443746e-05,1.3504949436323518e-06,9.469415601591378e-07,7.317310776181264e-07,9.323825712969063e-07,5.8630108381280756e-05,3.350456469320939e-06,2.813685478482959e-06,9.568687128059766e-05,3.80173291033209e-06,9.976944562238765e-07,7.37031193514849e-07,8.476286553848558e-07
278,6.838215266136949e-06,2.77209814791985e-06,1.5609401486449727e-05,1.3394194545974808e-05,1.3206041818447838e-06,9.385158342025788e-07,7.334697772348845e-07,9.446309657758151e-07,5.703435198412688e-05,3.1838701741719326e-06,2.932577665459111e-06,9.853509576163367e-05,3.843571931507456e-06,9.984404333613742e-07,7.334199387597821e-07,8.59739508464108e-07
279,7.4391650063022215e-06,2.7522437582000436e-06,1.560892260655801e-05,1.272364863527028e-05,1.2893608982108095e-06,9.299423994379062e-07,7.366105542440166e-07,9.594286642830622e-07,5.521705555251443e-05,3.021675593936415e-06,3.0600608753280052e-06,0.00010174253135518907,3.874000910729421e-06,9.999529622270398e-07,7.307654740703067e-07,8.7290345880798e-07
280,8.068056655223845e-06,2.732640062438486e-06,1.561413227623745e-05,1.2126777527090386e-05,1.2570659882836005e-06,9.214390506547997e-07,7.406982231449258e-07,9.764074625964313e-07,5.3221950003052174e-05,2.8644547168454828e-06,3.1955302109619095e-06,0.00010522805943590841,3.891243334038483e-06,1.0020302570200013e-06,7.287639770032036e-07,8.865600953360392e-07
281,8.718711868589223e-06,2.7143531350528935e-06,1.5631993105752622e-05,1.1602327700658007e-05,1.2238814059480688e-06,9.132060945000642e-07,7.452872032829763e-07,9.950772375815029e-07,5.109559059098253e-05,2.7124509282677583e-06,3.338359050622001e-06,0.00010889629668766884,3.893528792718495e-06,1.004328293443405e-06,7.271055801047536e-07,9.001063631893945e-07
282,9.3846168859198e-06,2.6979139859275716e-06,1.566699939977566e-05,1.1149996093084802e-05,1.189899555662159e-06,9.053467603905855e-07,7.500023997503916e-07,1.0148813768699859e-06,4.888547547852215e-05,2.565731679167904e-06,3.4877372542007526e-06,0.00011264218073140626,3.87979685741149e-06,1.0063706364046323e-06,7.254883271338e-07,9.129919109935134e-07
283,1.0059463125594504e-05,2.683461917592816e-06,1.5721576142635242e-05,1.077142620920101e-05,1.1552345057683803e-06,8.978684573860633e-07,7.545834692191227e-07,1.0352966222434179e-06,4.6635926621973416e-05,2.4245434185747567e-06,3.642838319296215e-06,0.00011635561919370635,3.850223512276966e-06,1.0076526449544633e-06,7.236672835562415e-07,9.248213163034294e-07
284,1.0736997017478582e-05,2.6709170752130465e-06,1.5796457375362104e-05,1.047041825151205e-05,1.1201238058716676e-06,8.90707446862863e-07,7.58911995572575e-07,1.0559039316315722e-06,4.43837758248142e-05,2.289538170878037e-06,3.8031338968839206e-06,0.00011992995585261246,3.8062833133622106e-06,1.0077986559269202e-06,7.215378733915131e-07,9.35399741087303e-07
285,1.1410345894258068e-05,2.660099142951427e-06,1.589109294600138e-05,1.0252387106016996e-05,1.0850006176643978e-06,8.83737948438702e-07,7.63003255227211e-07,1.0763897021861415e-06,4.2155834982658935e-05,2.161650260235533e-06,3.968397594520776e-06,0.0001232765582313717,3.7504181895588918e-06,1.0066349418504624e-06,7.191912323020589e-07,9.447105096218611e-07
286,1.2071846271946197e-05,2.6507996204346384e-06,1.6004061097468242e-05,1.0123318569751785e-05,1.050496723239455e-06,8.76801719767813e-07,7.669594284454736e-07,1.0964823909239299e-06,3.996853651399759e-05,2.04180765146345e-06,4.138376709722556e-06,0.00012633942163833975,3.685487334906113e-06,1.0041103749380333e-06,7.168636712674459e-07,9.528213348817646e-07
287,1.2713993036265907e-05,2.642890453676373e-06,1.6133461474490687e-05,1.0088601181390903e-05,1.0173689378011008e-06,8.697619273700735e-07,7.709086138555879e-07,1.115878604092638e-06,3.782970915545329e-05,1.9307924618455314e-06,4.3126727499492854e-06,0.00012909898052764374,3.614198464259897e-06,1.0001627861347336e-06,7.148324074662869e-07,9.597785581651425e-07
288,1.3330815877706645e-05,2.6364782456916645e-06,1.6277292271312275e-05,1.0152158722300237e-05,9.863762217818502e-07,8.625313862162646e-07,7.749379429178034e-07,1.1342302188503747e-06,3.574279597958836e-05,1.829253756009658e-06,4.49111286318447e-06,0.0001315609111974034,3.5387964464667104e-06,9.946669636530862e-07,7.133477858457699e-07,9.655987843214576e-07
289,1.3918653595243556e-05,2.632007003121286e-06,1.643378555857249e-05,1.0316213850701264e-05,9.581834126939734e-07,8.550711860555874e-07,7.790295049027463e-07,1.151166525995174e-06,3.3712195324542936e-05,1.7376781269144199e-06,4.674180950340347e-06,0.00013373627103131964,3.461110197933553e-06,9.87483997852197e-07,7.125940168311627e-07,9.703785575606283e-07
290,1.4475921847316853e-05,2.6302189574211823e-06,1.6601639436220505e-05,1.0581589687175574e-05,9.333334285413435e-07,8.47409816283467e-07,7.830323621803633e-07,1.166281357737559e-06,3.17461578730372e-05,1.656324351186012e-06,4.863022423887239e-06,0.0001356232348533076,3.3827327249266595e-06,9.78551065398255e-07,7.126452160103132e-07,9.743854846635163e-07
291,1.5001976174299874e-05,2.6319651145942896e-06,1.678010052738308e-05,1.0948048807847484e-05,9.122321624588922e-07,8.396818382995475e-07,7.866735197283876e-07,1.1791205846511064e-06,2.985533598740168e-05,1.5852211596990255e-06,5.0590542630077505e-06,0.0001371992045963922,3.3051209777213554e-06,9.679664821512228e-07,7.134329683274928e-07,9.779885315733289e-07
292,1.5495493557485914e-05,2.6379383031545483e-06,1.6968923790188406e-05,1.1414329465279978e-05,8.951111735757559e-07,8.321226663549652e-07,7.895817842402234e-07,1.1891937530037918e-06,2.8050002006248175e-05,1.5241856903418527e-06,5.263467244884761e-06,0.000138429229560298,3.229601419077955e-06,9.560248805088348e-07,7.147543760517188e-07,9.81516170377205e-07
293,1.5953117246688406e-05,2.6484405200040865e-06,1.716826367010638e-05,1.1977956104201443e-05,8.820003307668246e-07,8.250016547037568e-07,7.91351293251156e-07,1.1959612039379594e-06,2.633971898816151e-05,1.472819371967377e-06,5.476826105424836e-06,0.00013929123229100256,3.157308117998165e-06,9.43158199095579e-07,7.163400986391939e-07,9.85208206377097e-07
294,1.636911341020131e-05,2.6632802226958655e-06,1.7378436010995163e-05,1.2635010154380109e-05,8.727223436327596e-07,8.185561701131577e-07,7.916739609285727e-07,1.1988573198645508e-06,2.473461103887391e-05,1.4304879555805087e-06,5.698969297115158e-06,0.00013980836562931274,3.089058435305244e-06,9.298331711555373e-07,7.179703789872644e-07,9.892277154377344e-07
295,1.6736177222919276e-05,2.681817288721059e-06,1.7599366764054296e-05,1.3379928999359448e-05,8.6690658045022e-07,8.129792689280376e-07,7.904675624286467e-07,1.1974243687005497e-06,2.3245616584005795e-05,1.396275115255544e-06,5.929333853024553e-06,0.00014006696447897395,3.0252281389724583e-06,9.164900175483671e-07,7.195509882014678e-07,9.93633742303556e-07
296,1.704685190832471e-05,2.703083685968672e-06,1.782961314426948e-05,1.4205333224815517e-05,8.640318783581352e-07,8.08434071169945e-07,7.878923413765637e-07,1.1914565468780412e-06,2.1883775213828308e-05,1.3689475405041695e-06,6.16738771603599e-06,0.00014020376229265336,2.9657626954844414e-06,9.035112910814475e-07,7.210649580712216e-07,9.983451583678488e-07
297,1.729490321783029e-05,2.725916648284171e-06,1.8065174818158312e-05,1.510188816989787e-05,8.634831180083183e-07,8.050390126758037e-07,7.84247823746164e-07,1.181056491686085e-06,2.0659747221046414e-05,1.3470131885073424e-06,6.412616065330153e-06,0.00014037516849068466,2.910372228314124e-06,8.912104596040591e-07,7.224595939737134e-07,1.0031605133914777e-06
298,1.7476184584138423e-05,2.749103822929573e-06,1.8298711909347614e-05,1.605821088717516e-05,8.64605555055654e-07,8.028270752390814e-07,7.798630003538713e-07,1.1666258522114598e-06,1.9583652143874955e-05,1.3289055147691055e-06,6.663987094149774e-06,0.0001407346562729888,2.8587828187649197e-06,8.798854038891093e-07,7.235938390970816e-07,1.0078189484358247e-06
299,1.7588802535489115e-05,2.7715382366097264e-06,1.851970877712651e-05,1.706082218529331e-05,8.66789098985718e-07,8.017311706346405e-07,7.750802373207301e-07,1.1487958038585651e-06,1.8664726211574558e-05,1.313216641947058e-06,6.91936685076425e-06,0.00014142255141471577,2.8109356925473124e-06,8.698780573704349e-07,7.242757088321165e-07,1.012071589570064e-06
300,1.7632716880378437e-05,2.7923649438472703e-06,1.8715553381367378e-05,1.809412866559495e-05,8.695893164224656e-07,8.016031202486958e-07,7.702894371815817e-07,1.1282815682423788e-06,1.7910647359050056e-05,1.2988120979617126e-06,7.175213658660255e-06,0.00014255951467945701,2.7671272018569416e-06,8.615222195307349e-07,7.243456581731859e-07,1.015731041049662e-06
301,1.7608931522972234e-05,2.8111224561598087e-06,1.887324681379945e-05,1.9140376854560324e-05,8.728044281344724e-07,8.022319915107132e-07,7.659140519864195e-07,1.1057299129851234e-06,1.7326860974868975e-05,1.2847682307705848e-06,7.4264436173098005e-06,0.00014424337632659161,2.7280093251603787e-06,8.55034744491165e-07,7.237364309436122e-07,1.0186820415346676e-06
302,1.7518277209833946e-05,2.8278757550779655e-06,1.8981593773858908e-05,2.0179370355435828e-05,8.76444702924845e-07,8.033954461060072e-07,7.623389849167897e-07,1.0816842250016962e-06,1.6916531101437397e-05,1.2703329738912385e-06,7.666352932356206e-06,0.0001465491580196859,2.694353097185023e-06,8.504936308913019e-07,7.224605169878376e-07,1.0208950456411806e-06
303,1.7360351702498504e-05,2.84328030637429e-06,1.9033410104890753e-05,2.118802782201518e-05,8.806333710758485e-07,8.049669408065609e-07,7.598428178363827e-07,1.056679448314524e-06,1.6681408569369643e-05,1.2550520535443973e-06,7.886808447875507e-06,0.00014952961818969399,2.6667403051427392e-06,8.478922221643768e-07,7.20575549002981e-07,1.0224196581599832e-06
304,1.713389837296021e-05,2.8584705172724307e-06,1.9026661821037864e-05,2.2140964583611974e-05,8.855065566737843e-07,8.069565371913761e-07,7.585722375382693e-07,1.0313131082590907e-06,1.6622875825022638e-05,1.2388651890818799e-06,8.079041104104937e-06,0.00015321718369411253,2.645437753374296e-06,8.471611081972774e-07,7.18177710063182e-07,1.0233153522353979e-06
305,1.6838996577237936e-05,2.874740814832319e-06,1.896385061057172e-05,2.3013239514461576e-05,8.911392091396196e-07,8.09416134265798e-07,7.585448674944309e-07,1.0061867839905233e-06,1.674212383970135e-05,1.2219964804259617e-06,8.235057164150288e-06,0.00015762597541677493,2.6304546903439024e-06,8.481427602037749e-07,7.153939580313085e-07,1.023609753294984e-06
306,1.6479766257659475e-05,2.8931869865993026e-06,1.8850324217433975e-05,2.3784389744587662e-05,8.975262428064428e-07,8.123418818153169e-07,7.596619863337056e-07,9.818140985045612e-07,1.7039573823522895e-05,1.2047473639044718e-06,8.349061189333715e-06,0.00016275174984678044,2.621673611804855e-06,8.505732611525736e-07,7.123687793088242e-07,1.0233622247028897e-06
307,1.606594838791234e-05,2.9145222526591424e-06,1.869267184413279e-05,2.444170708195928e-05,9.046444253028166e-07,8.156858575617314e-07,7.617385943854168e-07,9.586070258818657e-07,1.7514487981414762e-05,1.1873628632104946e-06,8.417807934436515e-06,0.00016857245678418903,2.618987077501747e-06,8.540888117793762e-07,7.092454725371221e-07,1.0227638640918126e-06
308,1.561242611156612e-05,2.9390537831283197e-06,1.8497527001151817e-05,2.498142233698544e-05,9.125379298336771e-07,8.194265742377721e-07,7.645742926175535e-07,9.369025405690035e-07,1.8165006178113237e-05,1.1700219051691853e-06,8.439556764288314e-06,0.00017505199428440407,2.622361402190139e-06,8.582478648262279e-07,7.061105649178967e-07,1.0221673314071189e-06
309,1.5136851276206141e-05,2.9666721307952697e-06,1.8270395816448085e-05,2.5407439063318322e-05,9.213262987238192e-07,8.236187484841082e-07,7.680442599379133e-07,9.169837899512995e-07,1.8987997121314654e-05,1.1528709461341703e-06,8.413130387422776e-06,0.00018214580055980477,2.631782727206861e-06,8.625646733053014e-07,7.02927834561657e-07,1.0220161490200871e-06
310,1.4656932399202448e-05,2.9968474109533505e-06,1.8014509750680618e-05,2.572795615006497e-05,9.311199424525342e-07,8.284179859404623e-07,7.721238558191832e-07,8.991039160434969e-07,1.997838244430495e-05,1.136002373239386e-06,8.338356068426866e-06,0.00018980459324718975,2.64710798811397e-06,8.665775949097785e-07,6.995205098548942e-07,1.0227225814256218e-06
311,1.4189071095217577e-05,3.028730042220355e-06,1.7730518804979965e-05,2.5951310062105635e-05,9.419394495385021e-07,8.34095049764545e-07,7.768100962412718e-07,8.834812095347073e-07,2.112818345142411e-05,1.1194212714103792e-06,8.216959555645005e-06,0.00019797109908619088,2.667896558318749e-06,8.69950405464473e-07,6.956203027263254e-07,1.024568636399994e-06
312,1.3748274954852434e-05,3.061359000154102e-06,1.7417465822372337e-05,2.6083441780554844e-05,9.536977411402481e-07,8.410260491116336e-07,7.820204864469201e-07,8.702799375515776e-07,2.2425706494631196e-05,1.1030945800430686e-06,8.052835374879057e-06,0.00020656803373706646,2.6933320589973565e-06,8.725066126662801e-07,6.90970665947683e-07,1.0276709343729358e-06
313,1.334813976099114e-05,3.093866684091566e-06,1.7074211683596175e-05,2.6128420493232452e-05,9.662012061364414e-07,8.496551926015024e-07,7.875434323512254e-07,8.596225701235067e-07,2.3855411341569667e-05,1.0870379883031688e-06,7.851927024879894e-06,0.00021548480537468323,2.7222935955140786e-06,8.741358431183868e-07,6.854467878327088e-07,1.0320119473172709e-06
314,1.3000454513763426e-05,3.125592527391466e-06,1.670036236479552e-05,2.609068853014147e-05,9.791747665007903e-07,8.604414827526641e-07,7.930335645412063e-07,8.515871945127322e-07,2.5398589748759234e-05,1.071328778781418e-06,7.621908139148965e-06,0.00022457308901868464,2.7535292689050855e-06,8.746975233639158e-07,6.791432122602655e-07,1.0375142970958406e-06
315,1.2714762070482098e-05,3.1561222062660006e-06,1.6296583572885393e-05,2.597692330014418e-05,9.923616649638308e-07,8.737881196347123e-07,7.980536760245831e-07,8.46183255412687e-07,2.7034053383427072e-05,1.056033049711079e-06,7.371424323760988e-06,0.00023365560033670275,2.7858209413986392e-06,8.74065956467895e-07,6.723877914469832e-07,1.0440847544573614e-06
316,1.2498116596399818e-05,3.1853113740926758e-06,1.586459027981585e-05,2.5796896470293657e-05,1.0056425141577264e-06,8.899636633470719e-07,8.021917685585621e-07,8.433603070527575e-07,2.873853394638983e-05,1.041153987850694e-06,7.109157771993805e-06,0.00024254888201771582,2.8180709574628346e-06,8.722415470473269e-07,6.656649052596265e-07,1.0515685658852835e-06
317,1.2355067326335705e-05,3.2133082783238613e-06,1.540708746615877e-05,2.556371207471698e-05,1.0190725071603565e-06,9.090460587571632e-07,8.052179701122197e-07,8.430242242960569e-07,3.048796202992258e-05,1.0266523041539836e-06,6.843462256527991e-06,0.0002510961835713409,2.8493416306620507e-06,8.693469666064064e-07,6.595052075988723e-07,1.059668521918921e-06
318,1.2287841904015854e-05,3.2405425460682845e-06,1.4927815883756505e-05,2.529386259439828e-05,1.0328163483851608e-06,9.30904150556337e-07,8.071785664678912e-07,8.450182907862614e-07,3.226041127619809e-05,1.0124617685376002e-06,6.582658030641526e-06,0.00025919700038221294,2.8788888009352177e-06,8.655087175883176e-07,6.544274252081196e-07,1.067916575068786e-06
319,1.2296725776053921e-05,3.2676438995453003e-06,1.4431632767731543e-05,2.5007283090989526e-05,1.0470302674910835e-06,9.552023542455854e-07,8.08358710880809e-07,8.4909387548013e-07,3.403937136571099e-05,9.98517690096522e-07,6.3351977550253885e-06,0.00026681654938338114,2.9061457073729913e-06,8.607869835465372e-07,6.509173719817458e-07,1.0757241001216857e-06
320,1.2380638269411995e-05,3.2952904538234503e-06,1.3924415249873973e-05,2.4727205336622413e-05,1.0617550416595473e-06,9.814229370722923e-07,8.091475260006653e-07,8.549321664800289e-07,3.581513202192377e-05,9.848603284202359e-07,6.109275539446805e-06,0.00027396580960769787,2.9306006505341063e-06,8.552247432747382e-07,6.493862893035489e-07,1.0825172029709767e-06
321,1.2537735556406342e-05,3.324019796886927e-06,1.3412635074019492e-05,2.4479424655300796e-05,1.0768579856051864e-06,1.0089304971434065e-06,8.099102267168015e-07,8.622216783341684e-07,3.7583635818691475e-05,9.716882580787981e-07,5.912387441255002e-06,0.0002806620801225368,2.9516096830922422e-06,8.489356509319775e-07,6.501266339838569e-07,1.0879011433918821e-06
322,1.2765658873029617e-05,3.354034754999687e-06,1.2902532800823722e-05,2.429079670292568e-05,1.0920191492040759e-06,1.0370873455802766e-06,8.10931433117789e-07,8.706986231468476e-07,3.9343811862605625e-05,9.592841906738688e-07,5.751337054375268e-06,0.0002869027475515071,2.968245075845123e-06,8.42151754135724e-07,6.53294938442094e-07,1.0917251181851147e-06
323,1.3061128721716599e-05,3.385071174213696e-06,1.2399082741977335e-05,2.418720502411581e-05,1.1067307083167085e-06,1.0653692515255138e-06,8.124026775494262e-07,8.801305711253459e-07,4.1094094218547464e-05,9.479344784667194e-07,5.6324592302642035e-06,0.00029267333512228156,2.979204201414132e-06,8.352137618193083e-07,6.589118434847862e-07,1.0940340923956063e-06
324,1.341906491029869e-05,3.4164355253565234e-06,1.1905514139136883e-05,2.419155221129207e-05,1.1203039741170107e-06,1.093419590092568e-06,8.144150857452584e-07,8.903478118741302e-07,4.28284535476801e-05,9.379150598863062e-07,5.561679506149595e-06,0.00029797070879041964,2.9827543643203785e-06,8.285034097599792e-07,6.668934851454615e-07,1.0949926072185193e-06
325,1.3831854639858148e-05,3.447208924824871e-06,1.1423886590012183e-05,2.43222809835577e-05,1.1319386211624744e-06,1.1210323294488733e-06,8.169531614350911e-07,9.013239094048983e-07,4.453316466263468e-05,9.295144774313729e-07,5.544392360815921e-06,0.00030281329822523875,2.97682305841495e-06,8.223530981343217e-07,6.771341754404484e-07,1.0947938025562485e-06
326,1.4289345740926428e-05,3.4764910844471194e-06,1.095608891789583e-05,2.4592555660566297e-05,1.1408840163369391e-06,1.148099099684654e-06,8.199146669453814e-07,9.131773608335497e-07,4.6185342097902204e-05,9.230387315281387e-07,5.585374583832367e-06,0.0003072329395043439,2.9593602852205172e-06,8.170010225712054e-07,6.895778713430841e-07,1.093570386887742e-06
327,1.4779855192929632e-05,3.5036172813829424e-06,1.0504534002663955e-05,2.5009898440415127e-05,1.146603020972998e-06,1.174566645816503e-06,8.231753643286934e-07,9.260588390632729e-07,4.775347264004255e-05,9.18753176405806e-07,5.689012396549162e-06,0.00031125762181436736,2.9288422833710428e-06,8.126205076301621e-07,7.041975159227002e-07,1.0913706570309785e-06
328,1.5291970652705337e-05,3.528342028282848e-06,1.00725960741474e-05,2.557604610869444e-05,1.1488252093603939e-06,1.200435720602704e-06,8.266589649381244e-07,9.400361733753344e-07,4.9200195914906026e-05,9.168206834956035e-07,5.8598761023358455e-06,0.0003148952375138588,2.8846763147453817e-06,8.093872778090902e-07,7.209230513357472e-07,1.0882136277020035e-06
329,1.581610078775306e-05,3.55092641518753e-06,9.664906297715048e-06,2.6286867860361038e-05,1.147495752940063e-06,1.2257926986864215e-06,8.30363167183942e-07,9.550971395374158e-07,5.0485541211163954e-05,9.173359279926857e-07,6.1032826677422215e-06,0.0003181212817276411,2.8273891756589193e-06,8.075248147975105e-07,7.396163640817127e-07,1.0841625527856494e-06
330,1.6344545783065137e-05,3.572064137709306e-06,9.287156418627638e-06,2.7132268843463595e-05,1.1427082582824476e-06,1.2508270918207701e-06,8.343283921635651e-07,9.712664416207824e-07,5.156861405897328e-05,9.204303223657418e-07,6.425559293261227e-06,0.00032086750483651256,2.7585440062489867e-06,8.073015092620925e-07,7.601129157398083e-07,1.0793219056674477e-06
