,EMG1,EMG2,EMG3,EMG4,EMG5,EMG6,EMG7,EMG8,EMG9,EMG10,EMG11,EMG12,EMG13,EMG14,EMG15,EMG16
0,8.728066330510384e-08,1.1429776207251788e-06,8.611647545744284e-07,3.089897160850018e-06,1.274328013623943e-07,1.9451951081903983e-07,2.2410350361187217e-07,2.150566997644156e-07,4.2388702153997044e-07,5.730483451352973e-07,1.4783492056704597e-07,2.310454329661351e-05,1.1183213768581351e-07,4.599876496283594e-07,3.3654942507806373e-07,3.8092323527486556e-07
1,5.981448807477727e-07,1.3027046336766101e-06,1.569147903492574e-06,4.123566574939692e-06,2.1897989692573807e-07,3.0077480805143807e-07,2.6462655887415115e-07,2.726405020628317e-07,5.775077100377262e-07,7.330025019648552e-07,2.537213382070467e-07,2.657994465755549e-05,1.5650762389128136e-07,5.19523041994603e-07,3.799348739731745e-07,4.573157190192698e-07
2,1.136772602283112e-06,1.4640337883337389e-06,2.2716774726502026e-06,5.141349912499325e-06,3.063906129785594e-07,4.024157708154756e-07,3.0486384114317065e-07,3.3046461619814957e-07,7.342433675808131e-07,8.897927502760067e-07,3.601969888920922e-07,3.016471164983459e-05,2.0134527373249725e-07,5.778142774526518e-07,4.240335323902444e-07,5.322994153405247e-07
3,1.6991404557404235e-06,1.6241503979761557e-06,2.9661084540170396e-06,6.120236152079183e-06,3.887092187000363e-07,4.979198850913688e-07,3.4402936470707024e-07,3.87607919135011e-07,8.932219003178709e-07,1.0418694159916488e-06,4.64922297392957e-07,3.382933978245958e-05,2.4532571009387083e-07,6.341771133987417e-07,4.6836478595377587e-07,6.04385110750392e-07
4,2.2825757306131466e-06,1.7805271019649252e-06,3.6493656287876453e-06,7.0408938778129334e-06,4.6525476797235597e-07,5.858918361844104e-07,3.8153740147591e-07,4.432554377581519e-07,1.0539228591466284e-06,1.188139517977859e-06,5.658165690480333e-07,3.754805760702849e-05,2.877895561510707e-07,6.881196844209505e-07,5.124566473614675e-07,6.724122357454461e-07
5,2.886301316604202e-06,1.931313598285792e-06,4.317887392379761e-06,7.888953049008157e-06,5.356380407729097e-07,6.651731098895298e-07,4.170045833920349e-07,4.96734144879879e-07,1.2161392288380503e-06,1.3277640705862062e-06,6.613743827303252e-07,4.1295700799355724e-05,3.2844597932723835e-07,7.393940457920622e-07,5.558579859175952e-07,7.356590316498971e-07
6,3.5116286303031695e-06,2.075552685800991e-06,4.967592843269449e-06,8.65532936284096e-06,5.996530765777091e-07,7.349184037535707e-07,4.5019895417216015e-07,5.4756880577413e-07,1.3797601150980076e-06,1.4599400053533734e-06,7.508860438021798e-07,4.50437772690724e-05,3.6725146607261056e-07,7.878767825972352e-07,5.981412008110178e-07,7.938536288942892e-07
7,4.161697427243052e-06,2.213088822032695e-06,5.5938551723640475e-06,9.335528081404192e-06,6.571353409517958e-07,7.946288731640698e-07,4.80992323726442e-07,5.955169246671754e-07,1.5445543257189137e-06,1.583853235739017e-06,8.343889587203793e-07,4.8759227101473076e-05,4.042473746550527e-07,8.334033911826332e-07,6.389141701366815e-07,8.470216240168614e-07
8,4.840884891868257e-06,2.3443153510551864e-06,6.191628259857345e-06,9.928084018004788e-06,7.079043353602991e-07,8.441723833498465e-07,5.093304627527896e-07,6.405549815109754e-07,1.7100899899925352e-06,1.698674456850421e-06,9.124181942445083e-07,5.2405053595787195e-05,4.394586030020213e-07,8.757044133282776e-07,6.778237126746319e-07,8.952805303403487e-07
9,5.554112729760863e-06,2.4699364897104154e-06,6.755856448851362e-06,1.0432604803057782e-05,7.518242299947715e-07,8.837959477973572e-07,5.351924974890611e-07,6.828257240967306e-07,1.8757740707858849e-06,1.8035204363477148e-06,9.857416988922541e-07,5.594032551702123e-05,4.7287432594551704e-07,9.14432644131599e-07,7.145306422841673e-07,9.387280038901528e-07
10,6.306237472344398e-06,2.590744868068508e-06,7.282055312285432e-06,1.0848397920820709e-05,7.889144874537659e-07,9.140792349297029e-07,5.585389609072418e-07,7.22551809319351e-07,2.040934481715553e-06,1.8975092057244487e-06,1.0551622022850801e-06,5.93192862930831e-05,5.044641377031234e-07,9.492276216646641e-07,7.486825592766066e-07,9.774279756793226e-07
11,7.101567182139805e-06,2.7073825664950062e-06,7.766794485821983e-06,1.1174516752424148e-05,8.193893578797526e-07,9.357945312320485e-07,5.792837484236464e-07,7.599283543012126e-07,2.2048740418495474e-06,1.97992033045298e-06,1.1213855138602819e-06,6.249134502120653e-05,5.342157890186181e-07,9.79797613785582e-07,7.799239666758855e-07,1.011454187150792e-06
12,7.943429722932534e-06,2.8202069509026175e-06,8.207859278346384e-06,1.1410869004197371e-05,8.435747543462074e-07,9.497651505554314e-07,5.973177388368804e-07,7.950464195683658e-07,2.366876147134969e-06,2.0502704342291853e-06,1.1849512176618434e-06,6.540420316789998e-05,5.622040212801908e-07,1.0059455709571664e-06,8.079916817083565e-07,1.0409274245503402e-06
13,8.833773968583167e-06,2.9293729002063624e-06,8.603907073306382e-06,1.1559263792087296e-05,8.618122171240782e-07,9.568483742035598e-07,6.125656386790912e-07,8.278951930555851e-07,2.5261616087027613e-06,2.1081869691425125e-06,1.2462069465938336e-06,6.801098303599529e-05,5.886486530397864e-07,1.027515351239589e-06,8.328491796899018e-07,1.0660274414770699e-06
14,9.772943911838562e-06,3.0350779597688647e-06,8.953803960306889e-06,1.1623758743084843e-05,8.744624466494293e-07,9.580172619202247e-07,6.250109335215152e-07,8.584056454599879e-07,2.6817974686317528e-06,2.153229369574058e-06,1.3053270301910386e-06,7.027893447344641e-05,6.139028967003816e-07,1.044362885100552e-06,8.546971658895634e-07,1.0870730497486707e-06
15,1.0759725937158979e-05,3.1378546748355567e-06,9.256587696216127e-06,1.1610439292189382e-05,8.819527040892147e-07,9.544163252090062e-07,6.34689129963796e-07,8.864555043274437e-07,2.832711748010325e-06,2.1849338134974385e-06,1.3623763410424943e-06,7.219507840321415e-05,6.383694343297565e-07,1.0564001307311879e-06,8.738343778632815e-07,1.1046391397309557e-06
16,1.1791530939669521e-05,3.2387443165263575e-06,9.512478409271235e-06,1.15270572421626e-05,8.847718066331473e-07,9.473240095192145e-07,6.416972981041857e-07,9.1184826939913e-07,2.97797753744273e-06,2.2031234603896492e-06,1.4173380517447967e-06,7.376579375535831e-05,6.624058241675324e-07,1.063642183349178e-06,8.905536886816751e-07,1.1195372854017821e-06
17,1.2864484522956747e-05,3.3391730194794666e-06,9.723781508185763e-06,1.1382744012337527e-05,8.834106977287782e-07,9.380445251578926e-07,6.461778264539572e-07,9.343187341781382e-07,3.117156014717866e-06,2.2082165010092643e-06,1.4700442187711909e-06,7.501077558246835e-05,6.862796537507499e-07,1.0661936626416191e-06,9.052126923721139e-07,1.1326641686139242e-06
18,1.3973284359079415e-05,3.440576486253654e-06,9.89463851819502e-06,1.118754861922203e-05,8.782999451813323e-07,9.277966171049024e-07,6.482475995768627e-07,9.53525323257288e-07,3.2502981119672782e-06,2.2013097218262997e-06,1.520100106906856e-06,7.59535066928625e-05,7.101798963489457e-07,1.0641941221516426e-06,9.183723153641316e-07,1.1448991187208657e-06
19,1.5110773335949708e-05,3.5440895920921187e-06,1.0029912305279024e-05,1.0951548071980292e-05,8.697793025714512e-07,9.176452548290872e-07,6.479486071564082e-07,9.689996801201534e-07,3.377623507702544e-06,2.1840241120811953e-06,1.5669407267339914e-06,7.661165205317468e-05,7.342614103055628e-07,1.0578070209657494e-06,9.307908959306336e-07,1.1571315312140783e-06
20,1.626749455255561e-05,3.6505435575778408e-06,1.0133896674083755e-05,1.068406408068727e-05,8.581019661882676e-07,9.084701370351939e-07,6.45276569608663e-07,9.801322076522132e-07,3.4993435292726416e-06,2.158199485892023e-06,1.6100005434830853e-06,7.699279461156425e-05,7.586902600501428e-07,1.0473058091521747e-06,9.432556993646395e-07,1.1703232269297807e-06
21,1.743186876582509e-05,3.7606408806424543e-06,1.0209324950138818e-05,1.039380346624447e-05,8.434969465958208e-07,9.009561301573412e-07,6.402814881947563e-07,9.862614996866028e-07,3.615829966576357e-06,2.12563400263187e-06,1.648801483963557e-06,7.709877489845038e-05,7.836655530790654e-07,1.0332139448775656e-06,9.564179060683643e-07,1.1854883195161802e-06
22,1.859129914592761e-05,3.875022197194062e-06,1.0256962798998603e-05,1.0089682139775827e-05,8.262895022805253e-07,8.956149520108668e-07,6.332006299448854e-07,9.86829440650611e-07,3.727828489176959e-06,2.088004199971911e-06,1.6828636897075841e-06,7.693525551231825e-05,8.094273392784268e-07,1.0163856430761259e-06,9.707256526160328e-07,1.2035909692066154e-06
23,1.9733762131183665e-05,3.994171149465109e-06,1.0275768839431458e-05,9.781325852874479e-06,8.06977626162856e-07,8.928358561183501e-07,6.245344863037888e-07,9.815224032327747e-07,3.836471378309933e-06,2.046874149864961e-06,1.711620511229774e-06,7.651953487361853e-05,8.362474540390216e-07,9.97933507313311e-07,9.864163501265836e-07,1.2254338181217394e-06
24,2.0849213366382525e-05,4.118283333848638e-06,1.0263417640004462e-05,9.478864421305065e-06,7.861861885771619e-07,8.929180156236073e-07,6.149883989819857e-07,9.703613664068084e-07,3.943131868454572e-06,2.003693699536462e-06,1.734511265035659e-06,7.588113923384029e-05,8.643795714180181e-07,9.790332572143374e-07,1.0035294607245896e-06,1.2515887227130677e-06
25,2.1930246416303624e-05,4.247135427096585e-06,1.021708157071676e-05,9.192436411660583e-06,7.645475042276918e-07,8.960508041234197e-07,6.053257086755595e-07,9.537229756077382e-07,4.049208029658604e-06,1.9597644333195863e-06,1.7511547998053853e-06,7.505464057365959e-05,8.939943956772273e-07,9.607499285167196e-07,1.0219608870929405e-06,1.2824105427441063e-06
26,2.2971583692024697e-05,4.3799761938488565e-06,1.0134422418252217e-05,8.93182730177829e-06,7.42598290596066e-07,9.022781759595309e-07,5.962482728176378e-07,9.322530961171e-07,4.155884741725121e-06,1.9162172412749144e-06,1.7614172212339493e-06,7.407109076640796e-05,9.251426611893846e-07,9.439745341180422e-07,1.0415497565889225e-06,1.3181299647296056e-06
27,2.3968518182190894e-05,4.51563664127426e-06,1.0014568345670815e-05,8.706245729144431e-06,7.207330550040325e-07,9.114830011038035e-07,5.883448717942105e-07,9.066931431007143e-07,4.2640262199686394e-06,1.8741007983582927e-06,1.76532082171461e-06,7.295571852622118e-05,9.577538777996292e-07,9.294206663045968e-07,1.0621150375105586e-06,1.358926893931451e-06
28,2.4915077690185832e-05,4.652969099105021e-06,9.858713066002796e-06,8.524030143156907e-06,6.992006626547747e-07,9.233769170119823e-07,5.820771874845679e-07,8.777587891772662e-07,4.37437784771799e-06,1.8345294492959872e-06,1.7629235911137805e-06,7.173156909242513e-05,9.916683853622118e-07,9.17618578099881e-07,1.0834191916033713e-06,1.4049325110629392e-06
29,2.5802476873282122e-05,4.79136938033119e-06,9.67011411781654e-06,8.392248691701723e-06,6.781189305358018e-07,9.375018831478633e-07,5.777827358419632e-07,8.461659128851293e-07,4.487867751730423e-06,1.7987396569457547e-06,1.7543654597146794e-06,7.042277255597015e-05,1.0266783880791184e-06,9.089237800235369e-07,1.105153959099475e-06,1.4562530686266167e-06
30,2.661797394787488e-05,4.931066461156983e-06,9.453578710079826e-06,8.316372956924653e-06,6.575012597455391e-07,9.532865484630765e-07,5.756837455583025e-07,8.127087007352238e-07,4.605547874805514e-06,1.7680401056869975e-06,1.7400661569459767e-06,6.905423006833186e-05,1.0625351749187463e-06,9.035641962627934e-07,1.1269996037601518e-06,1.513023488345525e-06
31,2.734490240725475e-05,5.0730920928458135e-06,9.214688618790877e-06,8.300122039442047e-06,6.373041425979564e-07,9.70144681821173e-07,5.758936528431676e-07,7.782563972186185e-07,4.72818067497662e-06,1.7437303527858413e-06,1.7208392980047226e-06,6.764872523615271e-05,1.0989274827502951e-06,9.0169663930205e-07,1.1486828305691772e-06,1.5753416272088145e-06
32,2.7964786064114724e-05,5.219013825633597e-06,8.958924494486273e-06,8.3454021451553e-06,6.17477462761396e-07,9.875323335336826e-07,5.784397536435193e-07,7.436726228805038e-07,4.855934084884918e-06,1.7270080283115083e-06,1.6977805954138155e-06,6.622324809203972e-05,1.1354788336277064e-06,9.034365692433132e-07,1.1699567693582841e-06,1.6431041032745858e-06
33,2.8460858490609698e-05,5.370561645123061e-06,8.690820655834222e-06,8.452376258442212e-06,5.979790785958405e-07,1.0049330523421754e-06,5.833218595123297e-07,7.097436026598854e-07,4.9884100763369295e-06,1.7188494280925643e-06,1.6720097213041044e-06,6.4787957878839e-05,1.1717550490121486e-06,9.088499887339324e-07,1.1905459951456873e-06,1.7159329107767173e-06
34,2.8821352692795624e-05,5.529240147593022e-06,8.413471004339635e-06,8.619804884570623e-06,5.787701130808923e-07,1.0218411935059653e-06,5.905758545329409e-07,6.771585467437919e-07,5.12481963706205e-06,1.7199046376008388e-06,1.6444410070292236e-06,6.335071566298579e-05,1.2072477057294027e-06,9.17917439485819e-07,1.2101646460671379e-06,1.7931967989575562e-06
35,2.904140784574421e-05,5.695950368272081e-06,8.128628870714822e-06,8.845608496518202e-06,5.598497940367575e-07,1.0378018897292499e-06,6.00281869918417e-07,6.465255162786416e-07,5.2640984485074214e-06,1.7304661468327653e-06,1.6157146497086484e-06,6.192344451604598e-05,1.2413794160694192e-06,9.305152909558945e-07,1.2286082765673254e-06,1.8739876617397827e-06
36,2.912298038644353e-05,5.870649842279875e-06,7.837200760648455e-06,9.127432955014321e-06,5.413305131571738e-07,1.0524696763918912e-06,6.125099612384517e-07,6.183843995435459e-07,5.404913752141402e-06,1.7505209890010696e-06,1.5862964025540966e-06,6.0523680841206624e-05,1.2735521210925172e-06,9.464320060384876e-07,1.2458351502905615e-06,1.957063011488905e-06
37,2.9072560565605655e-05,6.052137962229135e-06,7.539794613379994e-06,9.462996542614198e-06,5.234823104047138e-07,1.0656010962203893e-06,6.27262483633375e-07,5.93189349765173e-07,5.545532495901637e-06,1.7798614636160259e-06,1.5566338607571764e-06,5.917169621933534e-05,1.30316757492134e-06,9.653685210825943e-07,1.2620069842535497e-06,2.040913779822904e-06
38,2.8897425989077737e-05,6.238049270152206e-06,7.237201433656684e-06,9.850063570483264e-06,5.066965804075065e-07,1.0769842890619188e-06,6.444649209985081e-07,5.712775473037134e-07,5.6836362569310835e-06,1.8181718320840802e-06,1.5272464267898305e-06,5.788954089115673e-05,1.3296268313714483e-06,9.869025209092228e-07,1.2774625544883282e-06,2.1240135964757624e-06
39,2.8602618289619398e-05,6.425055969612598e-06,6.930776463317611e-06,1.0286069141314684e-05,4.913947305032916e-07,1.0864189185007181e-06,6.640105179545883e-07,5.528572341316979e-07,5.816428571914033e-06,1.8650370283197848e-06,1.49873068244742e-06,5.670431134358341e-05,1.3523984391123059e-06,1.0104526116043856e-06,1.2926202887285818e-06,2.2050598380615688e-06
40,2.8190908143175192e-05,6.6092140032469705e-06,6.6226553936948055e-06,1.0767551170544066e-05,4.779425413233789e-07,1.0937607866702517e-06,6.858208406968678e-07,5.380156716649781e-07,5.941187704093355e-06,1.9199786167723752e-06,1.471728400292309e-06,5.565040762533932e-05,1.3711302646745287e-06,1.0352997187531841e-06,1.3079024232051192e-06,2.2829779415099603e-06
41,2.766567411172233e-05,6.786364175653201e-06,6.315795102736487e-06,1.1289567882424497e-05,4.66605355008116e-07,1.0989218900275324e-06,7.098632063920626e-07,5.267305819635252e-07,6.055891713612081e-06,1.9825619680609304e-06,1.4468628727073827e-06,5.476575899817569e-05,1.3856945784968485e-06,1.060729798014655e-06,1.3237083523086899e-06,2.3567716328529203e-06
42,2.703437799520127e-05,6.952462560042085e-06,6.01388826068826e-06,1.1845469559331824e-05,4.5754081271358485e-07,1.1018402811305948e-06,7.361125646746633e-07,5.188763617824469e-07,6.159504067066012e-06,2.0524100789855736e-06,1.4246600081121936e-06,5.4084406950948335e-05,1.3961277152535952e-06,1.0862348069020197e-06,1.34038668851025e-06,2.425542273052086e-06
43,2.6310184724495056e-05,7.103683846779727e-06,5.7211652395727935e-06,1.2427408509289331e-05,4.5080893813934927e-07,1.1024857133214966e-06,7.644998891154718e-07,5.14228763904386e-07,6.251764791663471e-06,2.1290628048491487e-06,1.405510076905835e-06,5.363185945262684e-05,1.4025193823244447e-06,1.1115834862894948e-06,1.358213107511692e-06,2.488728945293976e-06
44,2.5510766129959872e-05,7.236223339842798e-06,5.4420382015875534e-06,1.3027420564274914e-05,4.463803348459784e-07,1.1008738602018079e-06,7.94869866521513e-07,5.124819159620195e-07,6.332569801802084e-06,2.21183432055e-06,1.3896455349801787e-06,5.342566800033212e-05,1.4049860702426506e-06,1.1367130553932243e-06,1.3773767722664011e-06,2.5462176733361183e-06
45,2.465514620930439e-05,7.345854308711282e-06,5.180632199187151e-06,1.363850205037328e-05,4.441353474740417e-07,1.0970932871558017e-06,8.269521109067093e-07,5.13280687133652e-07,6.401529305215218e-06,2.2997886875371706e-06,1.3770881220826232e-06,5.347855921430748e-05,1.4037738117017704e-06,1.1615932721002628e-06,1.397955244565618e-06,2.598106649578045e-06
46,2.376044924482512e-05,7.427467737753385e-06,4.940483998482539e-06,1.4255286984765902e-05,4.4386490621582036e-07,1.091335210398288e-06,8.60367491592288e-07,5.162447909193821e-07,6.45832579482724e-06,2.3918290861264954e-06,1.3676296156183362e-06,5.380151508104182e-05,1.3993140834005047e-06,1.186181902283643e-06,1.4198691438230066e-06,2.6443669150652385e-06
47,2.2840470409813595e-05,7.475107225333283e-06,4.724611519189988e-06,1.4874248500061301e-05,4.452876030372274e-07,1.0838612756378227e-06,8.946595229530498e-07,5.209764142592201e-07,6.50359995619897e-06,2.4868135779543707e-06,1.3609269739117641e-06,5.440609797854745e-05,1.3921311836020989e-06,1.2104387700422673e-06,1.4428141068287395e-06,2.6846779129322447e-06
48,2.190661971687074e-05,7.482906775489938e-06,4.535702630614508e-06,1.549349432870435e-05,4.48077839956637e-07,1.0749395464550953e-06,9.293167187304673e-07,5.270848265079953e-07,6.539608568129896e-06,2.583630026364472e-06,1.3566607025151958e-06,5.530464135397501e-05,1.3827233542295077e-06,1.2343232488918035e-06,1.4662013849419216e-06,2.7184213212981398e-06
49,2.096963574100576e-05,7.446629579943523e-06,4.3760993837431565e-06,1.611216845870863e-05,4.518810284185973e-07,1.0648374913697147e-06,9.638014278891298e-07,5.342349637733207e-07,6.570334619273423e-06,2.68130565372152e-06,1.3545910016095111e-06,5.650730086498794e-05,1.3714988766993249e-06,1.2577542544659057e-06,1.4891425352115629e-06,2.744767784821823e-06
50,2.0040105932010926e-05,7.365030273034548e-06,4.247624057813974e-06,1.6729335785904848e-05,4.5631595660745137e-07,1.0538865790421502e-06,9.975759625270222e-07,5.421786947688842e-07,6.60120340824929e-06,2.77917893699805e-06,1.3544459989760872e-06,5.801927512694461e-05,1.3587637193742107e-06,1.2805465780287126e-06,1.510523335201593e-06,2.7628957044150478e-06
51,1.9127480412193308e-05,7.240434085267786e-06,4.151419710094019e-06,1.73425166492089e-05,4.6101036870650513e-07,1.0425626412247006e-06,1.0300674891322958e-06,5.507481855194444e-07,6.638610491763148e-06,2.8769185722515027e-06,1.3557838879169666e-06,5.9842279304120096e-05,1.3447848014354226e-06,1.302355600050623e-06,1.5292248962352268e-06,2.7722780867224505e-06
52,1.8239071824682272e-05,7.078369730445514e-06,4.087869967831022e-06,1.7946780750227325e-05,4.656912198770334e-07,1.031519833337786e-06,1.0606167142785209e-06,5.598284231874845e-07,6.689284278906399e-06,2.974295688874755e-06,1.3579644420765745e-06,6.19783913879998e-05,1.3298770492597005e-06,1.3226786472841253e-06,1.544436692255697e-06,2.7728134302945097e-06
53,1.7380507746549042e-05,6.886480432968535e-06,4.056658135449204e-06,1.8535222280077907e-05,4.7027030291047844e-07,1.021546913354177e-06,1.0885121599341592e-06,5.69327833313552e-07,6.759515400142233e-06,3.0710456209672377e-06,1.3602368429413716e-06,6.443151985257873e-05,1.314399423337014e-06,1.3409079915962265e-06,1.5558623258171787e-06,2.7646729237414826e-06
54,1.6557145328480916e-05,6.673127753140012e-06,4.056977445537341e-06,1.910049789671567e-05,4.748487354061141e-07,1.0134570850384638e-06,1.1131003502278127e-06,5.791507966769929e-07,6.854538063637546e-06,3.1670539933062414e-06,1.361934144845471e-06,6.720523671741796e-05,1.2986975931625958e-06,1.3563842983104425e-06,1.5636532221191662e-06,2.748100989255e-06
55,1.577498681440381e-05,6.446152884468246e-06,4.087756441152367e-06,1.963659675627441e-05,4.79631431328842e-07,1.0079681988197549e-06,1.1338809223026632e-06,5.891823044904977e-07,6.978312533780054e-06,3.2625722909114714e-06,1.3627149217800173e-06,7.029878350323498e-05,1.2831054116926503e-06,1.3684787122092404e-06,1.5681238940257294e-06,2.7235198130525097e-06
56,1.5040536957106654e-05,6.212158490721094e-06,4.147757011716865e-06,2.0140413018450133e-05,4.848191757645925e-07,1.0056298720117074e-06,1.150502382706318e-06,5.993188175250684e-07,7.1335527249632414e-06,3.358198812538052e-06,1.3626596677170466e-06,7.370316595615897e-05,1.267954289525608e-06,1.3767220730933028e-06,1.5694812244410052e-06,2.6918339634852083e-06
57,1.4359938640255215e-05,5.976342642955551e-06,4.2355117666388094e-06,2.0612876989764482e-05,4.905512578214723e-07,1.0067980290723434e-06,1.1626740420928225e-06,6.095381150748411e-07,7.321685794659886e-06,3.4547843032744415e-06,1.3621133066383984e-06,7.739818887080785e-05,1.2535146790956433e-06,1.3808669482679012e-06,1.56771447680656e-06,2.6545068308871863e-06
58,1.3737913177107743e-05,5.742651123169373e-06,4.349140663694793e-06,2.10591559618193e-05,4.969008793264135e-07,1.0116318764847339e-06,1.1701406193349896e-06,6.19925748755522e-07,7.542706345628089e-06,3.5534075363093262e-06,1.3614543284339336e-06,8.135029682538431e-05,1.2399510266585067e-06,1.3808292135341586e-06,1.5625877620878305e-06,2.6132906042893188e-06
59,1.317702195101115e-05,5.514064310171857e-06,4.48611942373132e-06,2.1487334523731577e-05,5.038832480346381e-07,1.0201007484298336e-06,1.1727859511128023e-06,6.306202023790009e-07,7.795070651696949e-06,3.655260775641904e-06,1.3609869336664664e-06,8.551067006556187e-05,1.2273401909017229e-06,1.3766079031196797e-06,1.5536662723859655e-06,2.5698851257559298e-06
60,1.2677731413155259e-05,5.292939871033694e-06,4.6430872872380355e-06,2.1905844218566515e-05,5.114606439602115e-07,1.0320015395683494e-06,1.1707471561981323e-06,6.417584487765152e-07,8.075632413699511e-06,3.7613186098158405e-06,1.3608924109460093e-06,8.981400990819722e-05,1.2156864759438082e-06,1.368255542702486e-06,1.5404042107416912e-06,2.52577821786686e-06
61,1.223930474814874e-05,5.0813094321836015e-06,4.8157896771515065e-06,2.2321484428393238e-05,5.195399991352501e-07,1.047004934443001e-06,1.164448349601898e-06,6.534920605635665e-07,8.379579175681919e-06,3.871987162296608e-06,1.3611722314925975e-06,9.41806622874306e-05,1.2049243773152317e-06,1.3558934083531319e-06,1.5223100704176257e-06,2.482234524663963e-06
62,1.1860937796447275e-05,4.8810289778907796e-06,4.999198404939844e-06,2.2739734825386026e-05,5.279519304737808e-07,1.0647133757356812e-06,1.154578530805667e-06,6.660248377573698e-07,8.700509919161322e-06,3.986985885094354e-06,1.3617015768095372e-06,9.852408959713363e-05,1.194923669471282e-06,1.339762052772898e-06,1.4991411629153296e-06,2.440256301585972e-06
63,1.1542568459253945e-05,4.693781861431706e-06,5.187757908938111e-06,2.3166641034555764e-05,5.364284450396273e-07,1.0846662698258422e-06,1.1420278720799312e-06,6.796055691419023e-07,9.03075534028306e-06,4.105517930956652e-06,1.362443881271404e-06,0.00010276093644596079,1.1854654011769349e-06,1.3202456495974885e-06,1.4710364089024578e-06,2.400480619946778e-06
64,1.1285095117504533e-05,4.5210206588579145e-06,5.3756842913272e-06,2.3610186591896843e-05,5.446264365204258e-07,1.1062934978415039e-06,1.1277689404641226e-06,6.944823710098589e-07,9.361817891914418e-06,4.226600505222912e-06,1.3636703501160467e-06,0.00010681845451125581,1.1762315837010824e-06,1.2977666796203128e-06,1.4385120289131706e-06,2.363102107521701e-06
65,1.1089872488610709e-05,4.363910536170241e-06,5.557248622710852e-06,2.4080138288103672e-05,5.522103163267356e-07,1.128893558557914e-06,1.112717664376166e-06,7.108514440552706e-07,9.684861061775681e-06,4.34925527063324e-06,1.366003113593415e-06,0.00011063739994887708,1.1668786373239445e-06,1.2725961827813892e-06,1.4023487108812221e-06,2.3278633645326125e-06
66,1.0957656623565957e-05,4.2232416744214944e-06,5.726909841993847e-06,2.45867272565283e-05,5.58921558761173e-07,1.151663548467615e-06,1.097655910240718e-06,7.288271622633472e-07,9.991347355526037e-06,4.472403760442652e-06,1.3702613831269472e-06,0.00011417303842458326,1.157173727167643e-06,1.2447635777317154e-06,1.3634598410405795e-06,2.2940888024899023e-06
67,1.0887631350391188e-05,4.099284588638332e-06,5.879202181612707e-06,2.5138814315231567e-05,5.645676212012761e-07,1.173730484180775e-06,1.0832620442697629e-06,7.484403828707968e-07,1.0273750402524073e-05,4.594713413292041e-06,1.3772484205205267e-06,0.0001173966338454971,1.1471180399708091e-06,1.2141834818108607e-06,1.3227778888861944e-06,2.2607227591552856e-06
68,1.0877092376529977e-05,3.991733764276201e-06,6.008705447406281e-06,2.5742081182409345e-05,5.689991424724312e-07,1.1941499202104148e-06,1.0701912223232471e-06,7.696345081070321e-07,1.0526010772709766e-05,4.714674349403313e-06,1.387614457110014e-06,0.00012029457157523413,1.1369547105682542e-06,1.1809452195398014e-06,1.2811648421997861e-06,2.226404009782489e-06
69,1.0921724426713941e-05,3.899889781951586e-06,6.110630346411607e-06,2.6398139688812072e-05,5.721585043606563e-07,1.211949764321393e-06,1.0590941258453344e-06,7.92257322346895e-07,1.074356794920873e-05,4.830863117203098e-06,1.4018291373551798e-06,0.0001228598379655783,1.1270333574177915e-06,1.1455429750403669e-06,1.239375132824703e-06,2.1896778695499307e-06
70,1.1016039143521369e-05,3.82291063462363e-06,6.18177310400798e-06,2.7105148396543672e-05,5.741312107161634e-07,1.2263145591204434e-06,1.0505440252778853e-06,8.161099416900716e-07,1.0923149841144342e-05,4.942172287427862e-06,1.4202184399192354e-06,0.00012507773716011243,1.117690002418235e-06,1.1088516343476039e-06,1.1980711926737776e-06,2.149363633889215e-06
71,1.115378713548979e-05,3.7598282659373808e-06,6.2210057021419915e-06,2.7859136104511734e-05,5.751162099480175e-07,1.2367961129837865e-06,1.0449470558128885e-06,8.410401023938175e-07,1.1062603488504287e-05,5.047865530887459e-06,1.4429810939575292e-06,0.00012691635262265772,1.10926547222479e-06,1.0718992178428006e-06,1.1578445659010664e-06,2.1049319838765076e-06
72,1.1328335618406468e-05,3.7093344070701455e-06,6.229112195707831e-06,2.8654805538966572e-05,5.753603291066053e-07,1.2433227763329291e-06,1.0425043874976942e-06,8.669571867591128e-07,1.1160904285837852e-05,5.1473998370377796e-06,1.4701440406017407e-06,0.00012832801397393378,1.1021437474777888e-06,1.0356418658615117e-06,1.1192041532649343e-06,2.056679004246358e-06
73,1.153272810282701e-05,3.669657129399611e-06,6.2083290064700125e-06,2.9485366323302333e-05,5.751348329663843e-07,1.2460241729189975e-06,1.0432338801726398e-06,8.937488026326378e-07,1.1218133665451061e-05,5.240034591583825e-06,1.5014959030591727e-06,0.00012925756885238116,1.0966899425460268e-06,1.00086070661965e-06,1.0825331988648174e-06,2.005599943277331e-06
74,1.175926805572435e-05,3.638770251987696e-06,6.1616755466198365e-06,3.0341475997379905e-05,5.747532673708069e-07,1.2450983982352143e-06,1.0470216349672396e-06,9.212069770778809e-07,1.1234946676243979e-05,5.324496693641684e-06,1.5365462110365375e-06,0.00012965255344441783,1.093149815018196e-06,9.681582558894411e-07,1.0480662954099815e-06,1.953057224713802e-06
75,1.1999519837823737e-05,3.6148161539445634e-06,6.092108484453234e-06,3.120961368074661e-05,5.745727930839964e-07,1.2407781280560815e-06,1.0536579531485806e-06,9.490000787355885e-07,1.1211653954403495e-05,5.399078893055794e-06,1.5745295436070542e-06,0.000129474188056711,1.0916063778773343e-06,9.379846247218027e-07,1.0159289662731725e-06,1.9004238095580826e-06
76,1.2245709430598662e-05,3.5964626721317665e-06,6.001911620900641e-06,3.2070551409229444e-05,5.749489184467975e-07,1.2333012558397937e-06,1.0628501903026802e-06,9.766646004344377e-07,1.1148037661906321e-05,5.4621925855957035e-06,1.6144372319567125e-06,0.00012870690955154088,1.0920292476810695e-06,9.10643284125626e-07,9.862023993456378e-07,1.8488497078537954e-06
77,1.2492622741279152e-05,3.5830806060892334e-06,5.892670662208234e-06,3.2899030351094106e-05,5.761792457109678e-07,1.222916636199377e-06,1.0742507362358604e-06,1.0036291672597755e-06,1.1044406642762748e-05,5.513030483994733e-06,1.6550412605738138e-06,0.00012736214525264737,1.0943651994652548e-06,8.863014132830357e-07,9.58963127246805e-07,1.7992036294177946e-06
78,1.2737965390316853e-05,3.574757448242019e-06,5.765614854047812e-06,3.366575995904836e-05,5.784745956476701e-07,1.2099450675846035e-06,1.0874905975269363e-06,1.0292501780232353e-06,1.0902731454648175e-05,5.552017542568511e-06,1.694955169768848e-06,0.00012547311656376848,1.0985546752603326e-06,8.650442493559786e-07,9.342994839390393e-07,1.7521174076369515e-06
79,1.298077330446762e-05,3.5721421126821143e-06,5.621875950570876e-06,3.4341752256990595e-05,5.819457872932834e-07,1.1947628482741457e-06,1.102170968862571e-06,1.052817505686771e-06,1.0726689323092449e-05,5.5808651291885125e-06,1.7328293639286544e-06,0.0001230814018851844,1.1044885619564443e-06,8.469150838485688e-07,9.123030250227326e-07,1.7080190030240483e-06
80,1.3219828822579489e-05,3.5761505087102712e-06,5.462522131905181e-06,3.4903369680540406e-05,5.866011942621778e-07,1.1776725567240661e-06,1.117866978320188e-06,1.0736217966397513e-06,1.0520776467834478e-05,5.60216780183206e-06,1.7676097984705016e-06,0.0001202231945342099,1.1119950636633453e-06,8.318964547459034e-07,8.930247129773493e-07,1.6671485230865012e-06
81,1.3453715439092958e-05,3.5876485551491445e-06,5.288547248475231e-06,3.533567762719978e-05,5.92391900078784e-07,1.1588177429644313e-06,1.1342393706261773e-06,1.0911891293596069e-06,1.0289212949721099e-05,5.618722584192704e-06,1.7986495970488753e-06,0.00011692618283711021,1.1208340378180494e-06,8.1987615669991e-07,8.764438136508956e-07,1.6296134586692576e-06
82,1.3681671214345035e-05,3.60719692283573e-06,5.101030165371351e-06,3.563245445962829e-05,5.993091357269261e-07,1.1382464225408335e-06,1.151170489913487e-06,1.105543666651508e-06,1.0035051240083241e-05,5.632935283366498e-06,1.8256030092240673e-06,0.00011321801884512335,1.13071121697642e-06,8.106183653921974e-07,8.624780657240611e-07,1.5954379921338598e-06
83,1.390369072722157e-05,3.634855065774737e-06,4.901455620687159e-06,3.5792873622117457e-05,6.074537881131708e-07,1.1160289696457959e-06,1.1687566233514905e-06,1.1172480481853097e-06,9.759656455028107e-06,5.646604290063083e-06,1.848206482678165e-06,0.00010913626623431974,1.1413513429531523e-06,8.037432574748731e-07,8.509844030014112e-07,1.5645211451037026e-06
84,1.411963561213088e-05,3.6700396275168314e-06,4.6919442708929716e-06,3.581652366208079e-05,6.170121826789598e-07,1.0922772906802243e-06,1.187199747962676e-06,1.127182693887647e-06,9.462827457935377e-06,5.6610989911243725e-06,1.8661005476037973e-06,0.00010473174628554153,1.1525390666743668e-06,7.987431348651418e-07,8.417687403370756e-07,1.53653636404429e-06
85,1.432801025765141e-05,3.7114450099664276e-06,4.4751693273939925e-06,3.569975008690152e-05,6.281909028463015e-07,1.0670655654623737e-06,1.2067567321845236e-06,1.1362587396930785e-06,9.14382427677224e-06,5.677669503219688e-06,1.8788115415130753e-06,0.00010006412910510608,1.164098469253071e-06,7.950373924388354e-07,8.346616190837433e-07,1.5108936645588614e-06
86,1.4525253224518801e-05,3.7570393168306218e-06,4.254015058050584e-06,3.54357481992948e-05,6.411746949422797e-07,1.0403881854353701e-06,1.2277316952608571e-06,1.145244745005704e-06,8.803044872781282e-06,5.697584123165609e-06,1.8858809997551125e-06,9.519241290699227e-05,1.1758761888040872e-06,7.92045429300224e-07,8.296059406982294e-07,1.4868273131188306e-06
87,1.470605944013674e-05,3.804185777673999e-06,4.031231690730014e-06,3.501781564136179e-05,6.560967122124015e-07,1.0122149372386402e-06,1.2504424498331537e-06,1.1547231537424428e-06,8.443365515362801e-06,5.72202389705731e-06,1.8870234297913438e-06,9.016700847679317e-05,1.1877034261619874e-06,7.892490759183738e-07,8.267018397283367e-07,1.46355280592488e-06
88,1.4864383720170236e-05,3.8499104278485305e-06,3.8092753334558463e-06,3.444307858446112e-05,6.730119792442341e-07,9.825664148548261e-07,1.2751856406362747e-06,1.1651195630416478e-06,8.07013938559669e-06,5.751844290637592e-06,1.8822016418145421e-06,8.503031200411772e-05,1.1993467036952762e-06,7.862033689395392e-07,8.262056943788979e-07,1.440415975495013e-06
89,1.4994446009618826e-05,3.891264242612165e-06,3.590322559273245e-06,3.3714883905527855e-05,6.91882155974264e-07,9.515405320305527e-07,1.3021861764263645e-06,1.176756117590364e-06,7.689897779251027e-06,5.7872724779819285e-06,1.8715473951495757e-06,7.982429083487822e-05,1.2105156363650319e-06,7.825088879305052e-07,8.284554961813966e-07,1.4170276998871304e-06
90,1.5091491702238126e-05,3.925725531390513e-06,3.376348102271192e-06,3.284364713411743e-05,7.125885994186845e-07,9.193143733459464e-07,1.331513843646058e-06,1.1898906620731045e-06,7.308882026828273e-06,5.8275998726176804e-06,1.8551690036017321e-06,7.45970767934494e-05,1.2208828892992499e-06,7.778228057788327e-07,8.337469541152768e-07,1.3933433002708236e-06
91,1.5152255069685068e-05,3.951564008565758e-06,3.1692112513800174e-06,3.184644424204614e-05,7.349830974282005e-07,8.861706779186168e-07,1.3630206641722189e-06,1.2047365244713334e-06,6.93236680741761e-06,5.871049763681542e-06,1.8330751081014394e-06,6.940347150954117e-05,1.2300621591826833e-06,7.719157311823619e-07,8.422502977786015e-07,1.3695871752453312e-06
92,1.5174843611558552e-05,3.967995644479331e-06,2.9707418694774563e-06,3.074555738230712e-05,7.58922617980282e-07,8.525324245982112e-07,1.3963372128998179e-06,1.2214597281511315e-06,6.564707812382293e-06,5.9149684896930174e-06,1.8053749852434073e-06,6.429995303307528e-05,1.237568778821104e-06,7.647116855379519e-07,8.539927964502585e-07,1.3460859850967875e-06
93,1.5157741598014647e-05,3.974970310399351e-06,2.7827406120721723e-06,2.9566363115441386e-05,7.842412476669439e-07,8.189375283740005e-07,1.4309432500963577e-06,1.240132371243157e-06,6.209598974803424e-06,5.956271045568759e-06,1.772546672741642e-06,5.933769386133333e-05,1.2427942517685587e-06,7.563088385734418e-07,8.68864648025084e-07,1.3231689285304483e-06
94,1.509837090492091e-05,3.972662290976174e-06,2.606827563904343e-06,2.8335198273315493e-05,8.106944077841588e-07,7.85935402635816e-07,1.4662830068357562e-06,1.2606729849984764e-06,5.87027648964463e-06,5.991949862270889e-06,1.735436126183751e-06,5.455761114144298e-05,1.2450401894131837e-06,7.469959925960415e-07,8.866202017839811e-07,1.3011545088744574e-06
95,1.4992674998430917e-05,3.961035917940877e-06,2.444290832662962e-06,2.7077560212992283e-05,8.379185657883604e-07,7.539757964929313e-07,1.5018197938761934e-06,1.2828177544794743e-06,5.549558171428139e-06,6.019472119780467e-06,1.6950090989590173e-06,4.9989404068992044e-05,1.2435974598315003e-06,7.372208748361941e-07,9.068916387030825e-07,1.2803753672338488e-06
96,1.483660811651034e-05,3.9398565379053405e-06,2.2960951356904997e-06,2.5816521923634473e-05,8.654122724412901e-07,7.233690695564875e-07,1.5369667593896115e-06,1.3061080228560707e-06,5.249653614894635e-06,6.036976836739585e-06,1.652194387297935e-06,4.565332305997605e-05,1.2377837313775723e-06,7.274880072436155e-07,9.292623938529518e-07,1.2611697955389324e-06
97,1.4628388847047166e-05,3.90906837805501e-06,2.1629519243346707e-06,2.4571280788111934e-05,8.925489410166692e-07,6.943271591991875e-07,1.5709625923233348e-06,1.3299050122805048e-06,4.97189303006592e-06,6.043339773946729e-06,1.6079686643407859e-06,4.156250945614027e-05,1.226998884423742e-06,7.182441546471814e-07,9.53385479640667e-07,1.2437913664028813e-06
98,1.4369864547520055e-05,3.8691332901703224e-06,2.0453485836226703e-06,2.335621252275724e-05,9.186336977628689e-07,6.670331493659545e-07,1.6027906600924436e-06,1.3534598500923875e-06,4.71668777374215e-06,6.038184399582904e-06,1.5634726611080145e-06,3.772494685061749e-05,1.2109204230215407e-06,7.098166716364507e-07,9.790285152104865e-07,1.228309333627779e-06
99,1.4066592915527221e-05,3.8211466633036834e-06,1.943575483015584e-06,2.2180979750478265e-05,9.429946438534167e-07,6.416724748690402e-07,1.6311791297040573e-06,1.3759895946587536e-06,4.483851346656616e-06,6.021737249669278e-06,1.519939373540734e-06,3.414488324465409e-05,1.1896976357699525e-06,7.024064674586175e-07,1.0059797393420407e-06,1.2145843360661771e-06
100,1.372704391847334e-05,3.76682730855501e-06,1.857722261221425e-06,2.1051645171730207e-05,9.650938704003735e-07,6.184001327386751e-07,1.654722574546963e-06,1.39671337449092e-06,4.272958373239801e-06,5.994431834318256e-06,1.4784846905847196e-06,3.082378025839398e-05,1.1639081811582595e-06,6.961107859160856e-07,1.0339209142425382e-06,1.2023396847408733e-06
101,1.3361353497405577e-05,3.7083953065763344e-06,1.787631688170975e-06,1.997200173485421e-05,9.846347544073599e-07,5.972966305439836e-07,1.6721492374482213e-06,1.4148893970922067e-06,4.083349483841613e-06,5.956383369639506e-06,1.4399496665329615e-06,2.7760969966642706e-05,1.1343333642860938e-06,6.909555098438066e-07,1.0624155856225742e-06,1.1912718394958882e-06
102,1.2980065728375406e-05,3.6482426196654737e-06,1.7328920747736483e-06,1.8944541592741693e-05,1.0016197443629364e-06,5.783770173082475e-07,1.6826372100835777e-06,1.4298983820320315e-06,3.913900855646075e-06,5.90702282921595e-06,1.4048834294989522e-06,2.495412571432694e-05,1.1017824099417736e-06,6.869092817220022e-07,1.0910141720999096e-06,1.1810969839005908e-06
103,1.2593151678421948e-05,3.5884654708338196e-06,1.6928534669389459e-06,1.7971190538164742e-05,1.0163096554784899e-06,5.616484784238649e-07,1.6860175775433826e-06,1.4413448218377473e-06,3.7629335951107695e-06,5.845203156871599e-06,1.373617225865887e-06,2.2399516585315798e-05,1.0670306017444552e-06,6.83895069906459e-07,1.1193234630702007e-06,1.1715543806121522e-06
104,1.2209261492478066e-05,3.530500049982356e-06,1.6666066329669914e-06,1.7054108306994388e-05,1.029089069147905e-06,5.471692161704229e-07,1.6827658285404893e-06,1.449102794299696e-06,3.6284494723818e-06,5.769780466066026e-06,1.3463330273980375e-06,2.009205666911672e-05,1.0308141774534807e-06,6.818347960844916e-07,1.1469341260634765e-06,1.1624596699425846e-06
105,1.183511203174958e-05,3.4749788827487937e-06,1.6529415247180164e-06,1.619655862752089e-05,1.040341424281015e-06,5.350647483804878e-07,1.673801638821416e-06,1.4532516538695733e-06,3.508604529137952e-06,5.680234722728955e-06,1.3230915887087216e-06,1.8025268114552693e-05,9.938666796966658e-07,6.806747632514493e-07,1.1733116955112215e-06,1.1537431638985413e-06
106,1.1475199370175702e-05,3.4217315331009326e-06,1.6503184121037437e-06,1.540355049665151e-05,1.0504037793593114e-06,5.254862945621959e-07,1.6602195667913105e-06,1.4539145284885624e-06,3.402006962363463e-06,5.576950721089626e-06,1.3038462013807562e-06,1.6191286553775677e-05,9.569435760021252e-07,6.803347136015116e-07,1.1978253011753517e-06,1.14537065759475e-06
107,1.1132216042571692e-05,3.3699014132346807e-06,1.6568951370459797e-06,1.4681882908416305e-05,1.0595379215522202e-06,5.185431243338146e-07,1.6430645237484177e-06,1.4511056550290221e-06,3.3076056318949717e-06,5.461171407547568e-06,1.288444369500672e-06,1.4580968270262413e-05,9.207758429557947e-07,6.80646219790965e-07,1.2198688597370971e-06,1.137248917932035e-06
108,1.0808263121276255e-05,3.3182348511102436e-06,1.6706948434619129e-06,1.403944519345007e-05,1.0678942755980858e-06,5.142562017856761e-07,1.6231852342067582e-06,1.444709214559753e-06,3.2245298985038805e-06,5.334808400173219e-06,1.2766598782258888e-06,1.3184090270504645e-05,8.860213393526493e-07,6.813703886304119e-07,1.2388974955130544e-06,1.1292539682942269e-06
109,1.0506368157978767e-05,3.2654851115128677e-06,1.689944438202893e-06,1.3483947944180194e-05,1.0755082478100708e-06,5.125468120972011e-07,1.601193526389609e-06,1.4345975769315729e-06,3.152246858058963e-06,5.200213508683058e-06,1.2683209890921729e-06,1.1989585149018203e-05,8.532727757888443e-07,6.822777477935479e-07,1.2544149500768206e-06,1.1213367084498189e-06
110,1.02315191355383e-05,3.2107729728635493e-06,1.7134459833077453e-06,1.302156761120686e-05,1.0823023030768653e-06,5.13240980947414e-07,1.577543207925206e-06,1.4207823509719116e-06,3.090861641650619e-06,5.0598549559246676e-06,1.2634378890603803e-06,1.0985722843629925e-05,8.230610331940316e-07,6.83208482735745e-07,1.2660383681007674e-06,1.1135920602448995e-06
111,9.990627413134433e-06,3.1538297113186865e-06,1.7407502911918658e-06,1.265618059707364e-05,1.0881046340265095e-06,5.160733393247158e-07,1.5526403563109456e-06,1.4034676157198572e-06,3.0411162634050116e-06,4.915861321804443e-06,1.2621728565958612e-06,1.0160211415184305e-05,7.958146630220829e-07,6.840846698294398e-07,1.2735857111497911e-06,1.1062358931183874e-06
112,9.791434723713097e-06,3.0951115498934932e-06,1.7720363136840922e-06,1.238944453015527e-05,1.0927515857137654e-06,5.207060802715237e-07,1.5268906916955305e-06,1.382960502477462e-06,3.0039767560153774e-06,4.769660187035425e-06,1.2646906323613517e-06,9.500307061337793e-06,7.718137627178029e-07,6.848940692514513e-07,1.2771289613432753e-06,1.0995114275347127e-06
113,9.6410765440133e-06,3.0357154476543696e-06,1.8078274000237967e-06,1.2221235604437116e-05,1.09621782845616e-06,5.267891734066548e-07,1.5006860753484074e-06,1.3595810838699953e-06,2.980188667004864e-06,4.621930921420978e-06,1.2710702129408625e-06,8.992990523376589e-06,7.511672168912603e-07,6.856399442823824e-07,1.277022749792592e-06,1.0936113866524576e-06
114,9.545137299258694e-06,2.97705008902657e-06,1.8487341620452369e-06,1.2149959372182e-05,1.0986407189550621e-06,5.34034808173154e-07,1.474367732501548e-06,1.3337160792764388e-06,2.9701820546035083e-06,4.472743666174886e-06,1.281350977806625e-06,8.62510511024935e-06,7.338119912497188e-07,6.862809777606354e-07,1.2738353907270832e-06,1.088665483411918e-06
115,9.507452738377907e-06,2.920398938886259e-06,1.8952748282639419e-06,1.2172761363882355e-05,1.1002265126414524e-06,5.422454868984792e-07,1.448205879504531e-06,1.3059111790863568e-06,2.974318446465116e-06,4.3217113265123595e-06,1.2956028728047473e-06,8.383341296558897e-06,7.195298487071252e-07,6.867457315952128e-07,1.2681596104475062e-06,1.0847484964203805e-06
116,9.53048245457282e-06,2.8666465574505402e-06,1.9477213607793893e-06,1.2285701849180797e-05,1.1011511590911142e-06,5.512910659337112e-07,1.422439624627895e-06,1.27684013917141e-06,2.9932242857347993e-06,4.168187675446214e-06,1.313899458791409e-06,8.254046091088405e-06,7.079848515840389e-07,6.870205796960044e-07,1.2604396408093805e-06,1.0818746887411327e-06
117,9.615922437314836e-06,2.8162856373076495e-06,2.0059713476412894e-06,1.2483691968566955e-05,1.1015352304443175e-06,5.610794456358589e-07,1.397364979277937e-06,1.2471736951273303e-06,3.027981361428839e-06,4.011523249459758e-06,1.3362019427564268e-06,8.222897753182592e-06,6.987796475425202e-07,6.871912774930257e-07,1.2509415384841694e-06,1.0800406181347752e-06
118,9.765028014265553e-06,2.769551702730975e-06,2.0694965410193207e-06,1.276028749716867e-05,1.1014580555030878e-06,5.715491503012404e-07,1.3733950900792713e-06,1.2174546780249016e-06,3.0801177642088724e-06,3.851314026506005e-06,1.3622604468660219e-06,8.27476435326432e-06,6.915075626018778e-07,6.874040594481786e-07,1.2398716172469506e-06,1.0793083450848057e-06
119,9.978349833557752e-06,2.7265388708621616e-06,2.1373802260565574e-06,1.310813886277233e-05,1.1009345702568275e-06,5.826844467091711e-07,1.3510440615429167e-06,1.1880580164434362e-06,3.1514605350504564e-06,3.687672677296904e-06,1.3915951049608083e-06,8.394245391603033e-06,6.858080913104292e-07,6.878203917867723e-07,1.227525139393601e-06,1.0797902423644637e-06
120,1.0255140142012108e-05,2.6873169144974483e-06,2.208407083275135e-06,1.3520473195160902e-05,1.0998378271969743e-06,5.945336261709543e-07,1.3308550134040783e-06,1.1592547146201212e-06,3.2438883745676577e-06,3.521523535889961e-06,1.423548654739516e-06,8.566910390471089e-06,6.814386549174162e-07,6.885747191014909e-07,1.2143004965413833e-06,1.081549897765778e-06
121,1.0592937868345446e-05,2.6520710628339038e-06,2.2811651197529056e-06,1.3992686004363259e-05,1.0978329517224487e-06,6.071947311831688e-07,1.3133256525840644e-06,1.1312868132626454e-06,3.3590939105674925e-06,3.3547083892371714e-06,1.4574406660189368e-06,8.780664439048946e-06,6.782959819557353e-07,6.897174902897933e-07,1.2005628975749664e-06,1.0845832375106019e-06
122,1.0987701625228794e-05,2.621195606164715e-06,2.3541652551809136e-06,1.4523018754818695e-05,1.0944172940592124e-06,6.207640798224531e-07,1.2988831281977813e-06,1.1043560406826973e-06,3.498543417788736e-06,3.18971743342013e-06,1.4927527117970201e-06,9.02657223154384e-06,6.763568460766557e-07,6.911798091319975e-07,1.186519774090637e-06,1.0889159602255434e-06
123,1.1434389713731673e-05,2.5952924598992773e-06,2.425987716493124e-06,1.511221609970073e-05,1.0890858226995526e-06,6.353109745944178e-07,1.2879157949717531e-06,1.0785943418747104e-06,3.663601798288153e-06,3.0291698285575272e-06,1.5291400425221783e-06,9.298760309218541e-06,6.756165927540976e-07,6.928002484212221e-07,1.17221601493433e-06,1.0947285687605828e-06
124,1.1927526790418251e-05,2.5751169288370487e-06,2.4953786050868358e-06,1.5762504938385926e-05,1.0815085174766867e-06,6.509174870945475e-07,1.2807961613765854e-06,1.0541046228285785e-06,3.855585675374729e-06,2.875379826016352e-06,1.566291425984434e-06,9.59356905542421e-06,6.760797057549685e-07,6.944240464676182e-07,1.157579004534932e-06,1.1024025483076629e-06
125,1.2461512625974528e-05,2.5615074190497863e-06,2.561209308026963e-06,1.6476220380001106e-05,1.0715698267972338e-06,6.677173417811395e-07,1.2778294385449904e-06,1.0309897905566302e-06,4.075645207666185e-06,2.7302685888161657e-06,1.6038198312905772e-06,9.908353709620725e-06,6.77791438878986e-07,6.960151675405546e-07,1.1424540370151944e-06,1.1124384969999127e-06
126,1.3030797861890495e-05,2.5552530695758103e-06,2.6223087168175267e-06,1.7254428876892646e-05,1.0592548144436074e-06,6.858764221530837e-07,1.2791579600081905e-06,1.0092966949554035e-06,4.324571393880333e-06,2.595578017810849e-06,1.6412322943610066e-06,1.0240227806270333e-05,6.808708136800998e-07,6.976796704189532e-07,1.1266917034825505e-06,1.1253308188768792e-06
127,1.3629995618416545e-05,2.556891922667695e-06,2.6772609428938795e-06,1.809593357909131e-05,1.0445367748717906e-06,7.055435990561871e-07,1.2846963272629771e-06,9.88967306712151e-07,4.602642836817357e-06,2.4731168344085146e-06,1.6779743316308532e-06,1.0585366408885762e-05,6.854908275745335e-07,6.995855083636613e-07,1.1102722396041435e-06,1.1415022327598335e-06
128,1.4253753642301942e-05,2.5665871508044648e-06,2.724351661696366e-06,1.8996865611845185e-05,1.0273868691802332e-06,7.268014080479774e-07,1.2941144649515966e-06,9.698951716051235e-07,4.909529403227296e-06,2.3648582147687364e-06,1.7134798190473588e-06,1.0939456757660514e-05,6.918120962032411e-07,7.018565921444429e-07,1.0933352378305279e-06,1.1612791780812663e-06
129,1.4896237277806047e-05,2.584212532209825e-06,2.7618486551442865e-06,1.995073897479023e-05,1.00783068186323e-06,7.496255911750393e-07,1.3068399294902665e-06,9.520424102935087e-07,5.244187905773939e-06,2.272886231945401e-06,1.74714186654453e-06,1.1298997861755222e-05,6.999491119037522e-07,7.045048808176753e-07,1.0760813651232746e-06,1.1848645935411686e-06
130,1.5550275876991067e-05,2.6095628887726156e-06,2.7885582371760214e-06,2.094873574694742e-05,9.859417150956408e-07,7.738765043173408e-07,1.322059899230771e-06,9.354993777901513e-07,5.604761379148987e-06,2.199243184842356e-06,1.778359593522686e-06,1.166270767829114e-05,7.099942725933272e-07,7.074230378595299e-07,1.058651400423617e-06,1.2123227533849865e-06
131,1.6206382388696713e-05,2.642509556766852e-06,2.8043300951798657e-06,2.1980121604555472e-05,9.618050535446874e-07,7.993163242451107e-07,1.3387439657665023e-06,9.204346316938162e-07,5.988571766751984e-06,2.1457536978955107e-06,1.8067964714649508e-06,1.2032367901960266e-05,7.220351685934218e-07,7.104357569895869e-07,1.0410860476580279e-06,1.2435723631176148e-06
132,1.6852022735656098e-05,2.683030023763846e-06,2.810204995842491e-06,2.3032660961012097e-05,9.355381450244334e-07,8.256060054547131e-07,1.3557220672254087e-06,9.06982824384363e-07,6.3921261994212295e-06,2.113909439418711e-06,1.8326055697104474e-06,1.2412434098223602e-05,7.361251865749003e-07,7.133784574550009e-07,1.0233900780145809e-06,1.2783630058102576e-06
133,1.747167443777983e-05,2.7311861317889515e-06,2.8081915672972455e-06,2.4092598490673682e-05,9.07368028677642e-07,8.522844642641661e-07,1.3718059108307756e-06,8.9515134165038e-07,6.810954489737708e-06,2.1048321388932916e-06,1.8563565492735603e-06,1.2808416733761416e-05,7.522336568928314e-07,7.161545799723845e-07,1.0056112289556838e-06,1.3162420598102645e-06
134,1.8048048733105622e-05,2.787174704575445e-06,2.8008923957601665e-06,2.5143821657745795e-05,8.776781049198147e-07,8.788004943029067e-07,1.385925145231254e-06,8.847866245064477e-07,7.239322724151254e-06,2.119273713780502e-06,1.8787501106646055e-06,1.3225316070717335e-05,7.702031840037717e-07,7.187316612457871e-07,9.878276422888658e-07,1.356542353549897e-06
135,1.8564210344393278e-05,2.8514806805516107e-06,2.7911500141554125e-06,2.616678537058558e-05,8.469602647076433e-07,9.046041839302731e-07,1.3972575611565843e-06,8.755910796155071e-07,7.670083262007362e-06,2.1576303409097204e-06,1.9003389841283566e-06,1.3667237317911599e-05,7.897226707995748e-07,7.21083292459086e-07,9.701217753006924e-07,1.3984316309426579e-06
136,1.9005738846654412e-05,2.9250237075887964e-06,2.7817376915141804e-06,2.7138699325247213e-05,8.157257842393904e-07,9.291922052961756e-07,1.4053120430701416e-06,8.67177777402536e-07,8.094871137293048e-06,2.2199668539184724e-06,1.9213645122259998e-06,1.4137600407121046e-05,8.103343282078997e-07,7.231446495389157e-07,9.526468155901976e-07,1.4410392977489446e-06
137,1.9362227807803544e-05,3.009150454744968e-06,2.7750967456357248e-06,2.8035744323833625e-05,7.844668426769675e-07,9.520540702230274e-07,1.409935912416122e-06,8.591623371776899e-07,8.504666672753683e-06,2.3060327947235844e-06,1.9417305642581387e-06,1.4638832135139057e-05,8.314910250505039e-07,7.248210754621484e-07,9.356781095743638e-07,1.483595438670657e-06
138,1.962812818168428e-05,3.105407218542401e-06,2.773173196453012e-06,2.8836464273459985e-05,7.536516712600808e-07,9.726230542811971e-07,1.4112589809106597e-06,8.512598935215377e-07,8.890581847185219e-06,2.4152771344174117e-06,1.9611008757292687e-06,1.5171562633179649e-05,8.526294681947835e-07,7.260182755828145e-07,9.195689959846354e-07,1.5254815856486462e-06
139,1.9803133344761384e-05,3.215173430961568e-06,2.7774369236319112e-06,2.9524955814844675e-05,7.236961105461819e-07,9.903438490192014e-07,1.4095757252981509e-06,8.433231178057302e-07,9.244659707313419e-06,2.546917203766469e-06,1.9790586542394994e-06,1.5734185172741837e-05,8.732247626969515e-07,7.26679009384711e-07,9.047066111288127e-07,1.5661693211264804e-06
140,1.9891624540401135e-05,3.339346470220456e-06,2.789090323041444e-06,3.0092970296638703e-05,6.94934147935456e-07,1.004809420488919e-06,1.4051849677079437e-06,8.353154562283011e-07,9.560480026364124e-06,2.7000859139651367e-06,1.9952294159805343e-06,1.6323512053486963e-05,8.928785964436271e-07,7.26821992697085e-07,8.914922016022574e-07,1.6050992017193104e-06
141,1.990062275228317e-05,3.4782057818696666e-06,2.809309489049646e-06,3.0540498611657024e-05,6.676216592417716e-07,1.0158123174446722e-06,1.3983108966863442e-06,8.272969880721651e-07,9.833318380384836e-06,2.8739745527564503e-06,2.0093113844843726e-06,1.6936461800181284e-05,9.114362957080867e-07,7.265520842071648e-07,8.802807529393246e-07,1.6415633649767458e-06
142,1.983739180987372e-05,3.631433075828531e-06,2.839332520617176e-06,3.087456009578825e-05,6.419665411678437e-07,1.02326847748763e-06,1.3891845567280793e-06,8.194465702890756e-07,1.00595625451796e-05,3.0678149403900795e-06,2.0210556692250804e-06,1.7571860723679737e-05,9.289865469998993e-07,7.260425267660896e-07,8.713056028373122e-07,1.674682049904785e-06
143,1.970898679960476e-05,3.79822123384091e-06,2.880359955005354e-06,3.110604835028293e-05,6.181612540655511e-07,1.027180981361947e-06,1.3781633986462148e-06,8.120451033729339e-07,1.0235620537371143e-05,3.280654200035448e-06,2.0302645255063036e-06,1.8231509077508483e-05,9.457069827117354e-07,7.255080639634577e-07,8.64658569954514e-07,1.7035329643381095e-06
144,1.952404059425724e-05,3.9774017898323385e-06,2.9333443868015924e-06,3.124550608590078e-05,5.963802813503737e-07,1.0277449328337816e-06,1.3657507951547938e-06,8.054214458325006e-07,1.0357410839893362e-05,3.5111213694083275e-06,2.0368277470732803e-06,1.892032734047346e-05,9.61712179765023e-07,7.251668316960358e-07,8.603205270497558e-07,1.727370680226699e-06
145,1.929464195821417e-05,4.16751874414294e-06,2.9987669924415995e-06,3.130038761362898e-05,5.767463423835493e-07,1.0254291827818552e-06,1.3525188691933434e-06,7.999502826020923e-07,1.0421023125903984e-05,3.75739166398982e-06,2.0407428236015605e-06,1.964542611779558e-05,9.770244205128081e-07,7.252134468743106e-07,8.582056792964317e-07,1.7458261957356694e-06
146,1.9036668893046544e-05,4.366855246088931e-06,3.0765117437562992e-06,3.1275801088167394e-05,5.593280776978877e-07,1.0208949738355511e-06,1.3389943566907764e-06,7.960833731280582e-07,1.0423680522491433e-05,4.0173306765489065e-06,2.0420716603102127e-06,2.041407756436244e-05,9.916338987755661e-07,7.258227229419808e-07,8.582274273421117e-07,1.758971832026139e-06
147,1.8768713687981672e-05,4.573451938408654e-06,3.16590078449712e-06,3.1177629460958735e-05,5.44193817941642e-07,1.014829185036309e-06,1.32555873824363e-06,7.943221931684546e-07,1.036417249975097e-05,4.288749728957034e-06,2.040946006650978e-06,2.123181627480285e-05,1.005540447150612e-06,7.271530926049876e-07,8.603633981866114e-07,1.7671751119909782e-06
148,1.851033430645205e-05,4.78507166211133e-06,3.2658112481096745e-06,3.101542964975257e-05,5.314595278025433e-07,1.007810488594969e-06,1.312405993947875e-06,7.951345223297238e-07,1.0243105576364198e-05,4.569690179840472e-06,2.037668651585991e-06,2.210199052342145e-05,1.0187148937142453e-06,7.293484325714183e-07,8.64649438733073e-07,1.7708666677336959e-06
149,1.8280155621427414e-05,4.999042872227634e-06,3.3747242681286093e-06,3.0803550667516865e-05,5.21275103339427e-07,1.00026546368818e-06,1.2995812433618428e-06,7.988881754644921e-07,1.0063493289441147e-05,4.858524159199215e-06,2.032727238802605e-06,2.302606906222625e-05,1.0310103626714878e-06,7.325491101310298e-07,8.711361127626101e-07,1.7704674793548178e-06
150,1.8094345965280614e-05,5.212023470532006e-06,3.4906931289270097e-06,3.056013643434449e-05,5.137902478911581e-07,9.92530433553696e-07,1.2870866518767338e-06,8.058435910034232e-07,9.831326121262527e-06,5.153770821551552e-06,2.026704699444717e-06,2.4003286673191933e-05,1.0421027814887054e-06,7.368667028420945e-07,8.798972415395027e-07,1.7665137106772915e-06
151,1.7965870878793764e-05,5.419832523974256e-06,3.611378633821805e-06,3.0304568460609544e-05,5.091507612717491e-07,9.849681088462776e-07,1.274999541307042e-06,8.161902314237208e-07,9.555326162735666e-06,5.453822317754401e-06,2.0202663497274647e-06,2.5029914578797854e-05,1.0515336700211415e-06,7.423261572603438e-07,8.910550073795145e-07,1.7597593157783998e-06
152,1.79042539277055e-05,5.617480693723175e-06,3.734237075328525e-06,3.005449727651469e-05,5.075052152125869e-07,9.780382749312013e-07,1.2635329528724812e-06,8.30085566081401e-07,9.245749516809058e-06,5.75679939581027e-06,2.0141866416323434e-06,2.6099195006217295e-05,1.0588234376090257e-06,7.488375418576308e-07,9.047665246063783e-07,1.751079580838702e-06
153,1.7915478233491125e-05,5.799429047431e-06,3.856769153231279e-06,2.9823455402884584e-05,5.09004676365551e-07,9.722696879938837e-07,1.2529999617178262e-06,8.47673267573949e-07,8.912921250516992e-06,6.060589799149376e-06,2.0092536099211464e-06,2.7201599487678692e-05,1.0635371968213732e-06,7.561952257215235e-07,9.212050582944842e-07,1.7412495724919546e-06
154,1.800226663141375e-05,5.960047958875488e-06,3.9767082668719015e-06,2.9619665619083663e-05,5.137915032241893e-07,9.681724858813847e-07,1.2436984623987e-06,8.690847128987428e-07,8.566209026642975e-06,6.363006127572646e-06,2.006105626369155e-06,2.8325073786131346e-05,1.0653363251555512e-06,7.640757200645211e-07,9.40536222118121e-07,1.7308122450000327e-06
155,1.8164874481174662e-05,6.094234545203247e-06,4.092103682659538e-06,2.9446328232435883e-05,5.21962890075936e-07,9.661567022866394e-07,1.2357837441462783e-06,8.944260156710686e-07,8.213555129196513e-06,6.661899159735173e-06,2.0051419794213163e-06,2.9456628466336142e-05,1.0641170375581741e-06,7.720725840477977e-07,9.62876056943019e-07,1.720120698065411e-06
156,1.840198846096677e-05,6.1980536760671054e-06,4.201287056338349e-06,2.930286254007189e-05,5.335323221252542e-07,9.664793470790433e-07,1.2291999964864896e-06,9.237499064392893e-07,7.861301100675827e-06,6.9550896127354e-06,2.0064841681200825e-06,3.058559095064627e-05,1.0601089681873147e-06,7.798151810625329e-07,9.882569982273536e-07,1.7094083174927018e-06
157,1.871141688945183e-05,6.269070793886345e-06,4.302746900268856e-06,2.9186046129936762e-05,5.484266809466551e-07,9.692134584653634e-07,1.2236799451680732e-06,9.570342443612657e-07,7.5142388264823344e-06,7.240114459431346e-06,2.009961372921542e-06,3.1706070650486476e-05,1.0537789039635245e-06,7.87122675382981e-07,1.016596162832852e-06,1.6987668397009634e-06
158,1.9090652112302832e-05,6.30604438553762e-06,4.3950099984942525e-06,2.909060015239172e-05,5.665033328234856e-07,9.7424630458296e-07,1.2187771328689352e-06,9.941838742280034e-07,7.176011575970151e-06,7.5138351656741674e-06,2.0151890631687637e-06,3.281659593111e-05,1.04563150268199e-06,7.940809899583837e-07,1.0476656915026962e-06,1.6881481211398243e-06
159,1.953741881844135e-05,6.3082805356409384e-06,4.476617089053533e-06,2.900960328500838e-05,5.875441067354207e-07,9.813057273909868e-07,1.2139197156516804e-06,1.0350237147633557e-06,6.849695242744625e-06,7.77211322860694e-06,2.0216977234651888e-06,3.391771310293076e-05,1.0360778356191327e-06,8.009810288868808e-07,1.0810869296783538e-06,1.677518984700272e-06
160,2.0050007718937675e-05,6.2755765357989645e-06,4.546141920668636e-06,2.8935297787793004e-05,6.112296343222919e-07,9.899860619167647e-07,1.2084878588891993e-06,1.0792491662638993e-06,6.538201466438882e-06,8.009934410667071e-06,2.0289585748623615e-06,3.500964641397856e-05,1.0254113198883045e-06,8.08165596344644e-07,1.116338407914547e-06,1.6670397744630936e-06
161,2.062691998688944e-05,6.209000327341254e-06,4.602089512869623e-06,2.886041599036107e-05,6.371444372126838e-07,9.997864185675106e-07,1.201881451893453e-06,1.1263815915401537e-06,6.2444230461577225e-06,8.222091333842433e-06,2.0362925978069145e-06,3.609058425706883e-05,1.0138262694603781e-06,8.15900597361092e-07,1.1527645157080462e-06,1.6570402125644652e-06
162,2.1265592045768168e-05,6.111629665305066e-06,4.6426310543494075e-06,2.877941554852153e-05,6.648288827293084e-07,1.0101969121645576e-06,1.1935355111075074e-06,1.1758229830586967e-06,5.971322952047294e-06,8.404091679624605e-06,2.0428315417557153e-06,3.715497181089137e-05,1.00144088268602e-06,8.243426104146632e-07,1.189579637769045e-06,1.6478102845360805e-06
163,2.196091115961433e-05,5.988549362019652e-06,4.665469245595875e-06,2.868851328090869e-05,6.9382093234116e-07,1.0207781868591122e-06,1.1828984425568132e-06,1.227017144889007e-06,5.7221178888969345e-06,8.552910294892042e-06,2.047606955635259e-06,3.819317963064549e-05,9.883480083460759e-07,8.335778328797779e-07,1.2258530460945781e-06,1.639422595765483e-06
164,2.2704885940959888e-05,5.8462256842325525e-06,4.668181344358219e-06,2.858397630580558e-05,7.236472831901773e-07,1.0311706678941896e-06,1.1694445119745876e-06,1.2795984649943668e-06,5.500457259555736e-06,8.667409070536154e-06,2.0496358039167922e-06,3.919424029108087e-05,9.746818732723196e-07,8.43660909366381e-07,1.2604841746633028e-06,1.6317044551899172e-06
165,2.3487911249678868e-05,5.691635537958428e-06,4.648941324883233e-06,2.846003148171456e-05,7.538126329015661e-07,1.0410975412461818e-06,1.1527617440363548e-06,1.3333934548557923e-06,5.3103961567775585e-06,8.748423391902399e-06,2.0479147730097756e-06,4.014969508883411e-05,9.606371218739204e-07,8.54603130369391e-07,1.2922003474748394e-06,1.624299047673637e-06
166,2.43004715805171e-05,5.531430653066088e-06,4.60718675071688e-06,2.830873112256946e-05,7.838230009891228e-07,1.050434952975213e-06,1.132669026482127e-06,1.3882802673206738e-06,5.156159091629846e-06,8.79861743694407e-06,2.041430022234895e-06,4.1055547286531516e-05,9.464504156334402e-07,8.663243574126411e-07,1.3196249147057186e-06,1.6167432704639392e-06
167,2.513382655269698e-05,5.371335913422345e-06,4.543914592192411e-06,2.8121975527318157e-05,8.132100073233874e-07,1.0592804546162933e-06,1.10927963507222e-06,1.4440710680177025e-06,5.041894954813479e-06,8.822136341790517e-06,2.0293178261604614e-06,4.191197974021264e-05,9.324041674831164e-07,8.786199173544887e-07,1.3414741618495664e-06,1.6086080405012096e-06
168,2.5979151000253598e-05,5.215897120345739e-06,4.461538072775135e-06,2.789347817642095e-05,8.415600032994567e-07,1.0679096197298957e-06,1.082966878507484e-06,1.5004939208231886e-06,4.971550463105911e-06,8.823932333916515e-06,2.0111334304708013e-06,4.272203278606547e-05,9.188201745112177e-07,8.911770806897234e-07,1.3568351306674912e-06,1.599693307243521e-06
169,2.6825594087907098e-05,5.0685710345156125e-06,4.363398484832124e-06,2.7619057754975072e-05,8.685646130973682e-07,1.0766432823636868e-06,1.054242633806775e-06,1.5571616532838859e-06,4.948793417475966e-06,8.80878870362569e-06,1.9870083721229706e-06,4.348992709596689e-05,9.060128813065588e-07,9.036526011875632e-07,1.3653307361746391e-06,1.590098886792019e-06
170,2.7658466049885697e-05,4.932019999551596e-06,4.253108063165554e-06,2.7295612550454318e-05,8.9402579520316e-07,1.0857353372834414e-06,1.0236191023435694e-06,1.6135092196067436e-06,4.976862262609586e-06,8.780389586656518e-06,1.9575268988040857e-06,4.4218619712038395e-05,8.94266308372314e-07,9.157596761471738e-07,1.367026509272857e-06,1.5800836848161408e-06
171,2.8459044709630617e-05,4.808405748421149e-06,4.133933453842488e-06,2.6920144896878282e-05,9.177756881977207e-07,1.09532265796284e-06,9.915437304006324e-07,1.6688132065937913e-06,5.0583207114534716e-06,8.740810724024195e-06,1.9234347626634256e-06,4.490672162938354e-05,8.838415748971862e-07,9.272664296270314e-07,1.3621880566201432e-06,1.5698526707561233e-06
172,2.9206619351980012e-05,4.69952154544814e-06,4.008421283637544e-06,2.6489966323860936e-05,9.396032519719107e-07,1.1054251902414427e-06,9.58416419788221e-07,1.7222857310416948e-06,5.194865791789323e-06,8.6905524840557e-06,1.8854300003567012e-06,4.5547598847267906e-05,8.749491121166188e-07,9.379046907896519e-07,1.351119567818305e-06,1.559420271561341e-06
173,2.988164116644463e-05,4.606729863115723e-06,3.878341035564876e-06,2.6004061800989457e-05,9.5928199779657e-07,1.1160033082117937e-06,9.246302772545122e-07,1.7731236325643994e-06,5.387414751928183e-06,8.628961108076857e-06,1.8440741094423598e-06,4.613321416577889e-05,8.676973311464078e-07,9.473151361932277e-07,1.3341422022216457e-06,1.548556500873451e-06
174,3.046765587758379e-05,4.530803582370601e-06,3.7448506684948634e-06,2.546449201835242e-05,9.766559215803836e-07,1.1270348723703864e-06,8.90603769319092e-07,1.8204504107710093e-06,5.636433382389075e-06,8.5547810608955e-06,1.7997450752299259e-06,4.666044011991429e-05,8.620734418662326e-07,9.5513073592424e-07,1.3116631585785253e-06,1.5367864967905337e-06
175,3.095050025684029e-05,4.471809713914519e-06,3.6087539653393865e-06,2.487654126275009e-05,9.916605744016896e-07,1.138522851519076e-06,8.568063390228633e-07,1.8632239153625846e-06,5.942086743013066e-06,8.466719464772836e-06,1.752681566874287e-06,4.713502033706984e-05,8.579592479941623e-07,9.611463478476304e-07,1.2842931002326983e-06,1.52349138232516e-06
176,3.1316667402732536e-05,4.429075547395057e-06,3.4707525441498106e-06,2.42470396674712e-05,1.0042437163830808e-06,1.1504185718290718e-06,8.237894070534548e-07,1.9002618027970787e-06,6.303940372496987e-06,8.363963802263208e-06,1.7031605874962913e-06,4.757049172565066e-05,8.551812853680928e-07,9.654135697891246e-07,1.2528792006292053e-06,1.5081332168099126e-06
177,3.155492748126907e-05,4.401168630457017e-06,3.3316251976752545e-06,2.358183148116707e-05,1.0142972945629672e-06,1.1625574052947559e-06,7.922133296285009e-07,1.930420911774509e-06,6.720475632356797e-06,8.246474880221352e-06,1.6517064003471147e-06,4.798280735719221e-05,8.535938589578807e-07,9.681649627814996e-07,1.218374635929528e-06,1.4904690662425299e-06
178,3.166119848462347e-05,4.385905869072356e-06,3.19232180974114e-06,2.2884522042128133e-05,1.0216868937094035e-06,1.1747010511836146e-06,7.628202962548659e-07,1.9528066008385897e-06,7.1887710408459255e-06,8.114965062435668e-06,1.59918271385792e-06,4.838433224831189e-05,8.531389619863692e-07,9.696367157868905e-07,1.1817010846318918e-06,1.4705861483719312e-06
179,3.164138101139193e-05,4.380535100811809e-06,3.0539773737730805e-06,2.2157275999063815e-05,1.0263233465775583e-06,1.186662350909136e-06,7.36344243204306e-07,1.966912318888144e-06,7.704401364796522e-06,7.970776296449764e-06,1.5466953956013289e-06,4.87803516351158e-05,8.538496736906631e-07,9.699308197430161e-07,1.1437375597751314e-06,1.4487913005880137e-06
180,3.150881631362128e-05,4.382115880419965e-06,2.917839136142291e-06,2.14022328820891e-05,1.0282143870916987e-06,1.1984004066387325e-06,7.134263078147973e-07,1.9726656191254368e-06,8.261613995815687e-06,7.815915821005883e-06,1.4953665529664922e-06,4.916772984655887e-05,8.558157412417233e-07,9.689692846863545e-07,1.105351312651819e-06,1.425533361086747e-06
181,3.1279391232853585e-05,4.387926887261962e-06,2.7851426485203602e-06,2.0622269566560277e-05,1.027484306572895e-06,1.2100103377311116e-06,6.945832921342967e-07,1.9703559459599937e-06,8.853892427962717e-06,7.653185657701789e-06,1.4461395141712629e-06,4.953508567129834e-05,8.591091845234468e-07,9.665095795670508e-07,1.0674007292010235e-06,1.4013995164545342e-06
182,3.0969351644065965e-05,4.395708481922826e-06,2.657010421546457e-06,1.9821215312856078e-05,1.0243417963931267e-06,1.22162096883898e-06,6.802150591089678e-07,1.9604888288025263e-06,9.474656759773157e-06,7.486118382665724e-06,1.3997086201684798e-06,4.986524172625352e-05,8.636952725285165e-07,9.622175609025048e-07,1.030749611867558e-06,1.3770576066289688e-06
183,3.059610020844549e-05,4.40365379169137e-06,2.5343716872287588e-06,1.9004094214488048e-05,1.0190063354952616e-06,1.2332677592711015e-06,6.706179383154959e-07,1.9436977749860733e-06,1.0117679353213773e-05,7.3185309471711015e-06,1.356533739250396e-06,5.013906399415957e-05,8.694112244911426e-07,9.557870360789528e-07,9.962748319379638e-07,1.3531185619521573e-06
184,3.0177947765698218e-05,4.410225277131916e-06,2.4178499351858707e-06,1.817763945163141e-05,1.0116447054057263e-06,1.2448199864464334e-06,6.659800662122469e-07,1.9207253891852365e-06,1.0777153861764364e-05,7.153803472812606e-06,1.3169145652448855e-06,5.033846019882247e-05,8.760363956510724e-07,9.47037130053959e-07,9.648204817399203e-07,1.3300717425398628e-06
185,2.973153926435225e-05,4.414037557203297e-06,2.307667766253054e-06,1.735082313206009e-05,1.0023475997977887e-06,1.2559879623699877e-06,6.663669385048124e-07,1.8923441441919014e-06,1.1447652421407396e-05,6.9943343730954515e-06,1.2811091951140512e-06,5.044667465981224e-05,8.833852432622121e-07,9.359542830306727e-07,9.371360974152061e-07,1.3083648268484616e-06
186,2.9270306278352458e-05,4.414007669932759e-06,2.2036328352494937e-06,1.6535031253368224e-05,9.911538969468687e-07,1.2663482359718507e-06,6.717190630357646e-07,1.859219382816544e-06,1.2124112794861055e-05,6.841527669344376e-06,1.2493861398799932e-06,5.044578263350766e-05,8.91341049231508e-07,9.227077094483053e-07,9.138339957932531e-07,1.2884859004049177e-06
187,2.8806106740514734e-05,4.409676881168615e-06,2.1051675406929735e-06,1.574375487138261e-05,9.781255693008874e-07,1.2753410401210697e-06,6.818533433138329e-07,1.821875913584601e-06,1.2801802085764961e-05,6.6961123320137605e-06,1.2219610192707933e-06,5.031608207410422e-05,8.998093048409893e-07,9.076340643971968e-07,8.953498538391383e-07,1.2709145430728803e-06
188,2.8351708387202504e-05,4.401333469318069e-06,2.0114122034358868e-06,1.4991781136623744e-05,9.634203013662892e-07,1.2822685315516654e-06,6.964510784035329e-07,1.7808132635291346e-06,1.347613813849236e-05,6.558448189278527e-06,1.1989270243238368e-06,5.004274828593685e-05,9.086681853343643e-07,8.911568981471683e-07,8.819129574634268e-07,1.2560065941893016e-06
189,2.7920896096792963e-05,4.38969419390847e-06,1.9214989761353396e-06,1.4293913420540994e-05,9.472745486341828e-07,1.2863356876111932e-06,7.150408484943227e-07,1.736658531286232e-06,1.4142298094216511e-05,6.428778189720675e-06,1.180270968640364e-06,4.962700418850186e-05,9.177884907091593e-07,8.736871979103005e-07,8.735409710607761e-07,1.2439433821833825e-06
190,2.7526134112416922e-05,4.375417572162103e-06,1.8349324815132225e-06,1.366353050521549e-05,9.299177918649875e-07,1.286786206988657e-06,7.369905370041268e-07,1.6902640176129642e-06,1.479463073235683e-05,6.307427239729129e-06,1.1659609017846687e-06,4.9093426070342655e-05,9.270726668276086e-07,8.556001769353766e-07,8.700465686465465e-07,1.2347790895144642e-06
191,2.717647022897773e-05,4.358920956923036e-06,1.7518403432678797e-06,1.3111594475380672e-05,9.115236513575662e-07,1.2831189630919686e-06,7.615102798865815e-07,1.6427039544363817e-06,1.5425904012114226e-05,6.194833997105344e-06,1.1560406979768396e-06,4.8488591278736483e-05,9.364512627221764e-07,8.372856555533981e-07,8.710551357169303e-07,1.2285368563862066e-06
192,2.6877217385226645e-05,4.340491740577732e-06,1.6729016542219963e-06,1.2646561790929702e-05,8.922189117092322e-07,1.2752304695940235e-06,7.87673832840944e-07,1.5951565768630309e-06,1.6026520946644504e-05,6.0914491975703084e-06,1.1506485046490873e-06,4.7872316001740425e-05,9.458684858475919e-07,8.191914079048714e-07,8.760667508873921e-07,1.2252713675377128e-06
193,2.663007660625883e-05,4.320342029612982e-06,1.5990177232549869e-06,1.2275086060013352e-05,8.721076707774698e-07,1.2633838015220366e-06,8.144824768855662e-07,1.5487434671241273e-06,1.6584286841017233e-05,5.997655948133774e-06,1.1499431309837629e-06,4.7306585870241925e-05,9.552763362929475e-07,8.018135339626479e-07,8.845642289127942e-07,1.2250341964467365e-06
194,2.6433039469671044e-05,4.298557867661456e-06,1.531013388186609e-06,1.2002964304122928e-05,8.513004223172816e-07,1.2480844355723596e-06,8.409844332062355e-07,1.504435396396142e-06,1.7085490061135613e-05,5.9136400867384505e-06,1.1540306766221057e-06,4.684826080077597e-05,9.645991828705333e-07,7.856499058556269e-07,8.960772917859907e-07,1.2277764697121436e-06
195,2.628102291732932e-05,4.275165985614005e-06,1.4695582818294297e-06,1.1835745185612174e-05,8.299327527423995e-07,1.229970957832606e-06,8.664166946082338e-07,1.4630493444126572e-06,1.7517322324977884e-05,5.839084406227214e-06,1.1629278398904584e-06,4.6547469568430316e-05,9.736874002628086e-07,7.71160597863511e-07,9.101367072086336e-07,1.2333118065381424e-06
196,2.6166592684612976e-05,4.250366968671321e-06,1.4152013370571835e-06,1.1778650739080595e-05,8.081471387843957e-07,1.2097445168051213e-06,8.902983747820956e-07,1.425285823857481e-06,1.787071628711073e-05,5.77299417977813e-06,1.1765152225803375e-06,4.644801103909083e-05,9.823285301562526e-07,7.587432270159318e-07,9.261981961722619e-07,1.2414053452523573e-06
197,2.6079465874310746e-05,4.224731584121074e-06,1.3683412775837467e-06,1.1835879117730655e-05,7.860652801019381e-07,1.1881141425032703e-06,9.124175884968935e-07,1.3917566028516701e-06,1.8142384560014143e-05,5.713953714180225e-06,1.1945362392036983e-06,4.658650176293499e-05,9.902993195043323e-07,7.487012060191677e-07,9.436185881194037e-07,1.2518818558728513e-06
198,2.6005934765613786e-05,4.199161929297072e-06,1.3291400742940047e-06,1.2009826589580033e-05,7.638084576845205e-07,1.165735191100882e-06,9.327120438410138e-07,1.3629684414335495e-06,1.8335190320600727e-05,5.660531252409833e-06,1.2167322686704176e-06,4.699083100116115e-05,9.973960260444503e-07,7.412187262107178e-07,9.616761126515689e-07,1.2646052409542621e-06
199,2.593015131199969e-05,4.174609871123431e-06,1.2974796518586731e-06,1.2300813539569936e-05,7.415667487890847e-07,1.1431561042978167e-06,9.511205219081946e-07,1.3392770641741625e-06,1.845663515011472e-05,5.611549673719849e-06,1.2430123936546802e-06,4.767961478870955e-05,1.0034508913801224e-06,7.363625832242926e-07,9.796727841627899e-07,1.2793619329056262e-06
200,2.5836874268139405e-05,4.151709189026518e-06,1.2729998206077986e-06,1.2707363569302367e-05,7.196478506638938e-07,1.1208424349096464e-06,9.675240461310837e-07,1.320868198242919e-06,1.8515998036652157e-05,5.566290526369078e-06,1.2734572396253892e-06,4.8663242410685585e-05,1.0083677162370565e-06,7.340937976056099e-07,9.971454956448633e-07,1.2957963701118303e-06
201,2.5713823142255803e-05,4.130567266866441e-06,1.2552117144560792e-06,1.3226640375075055e-05,6.984462498729251e-07,1.09928995562332e-06,9.818254481710406e-07,1.3077699791237067e-06,1.8521384355376466e-05,5.524542832719378e-06,1.3081441240092951e-06,4.9945971003300115e-05,1.0121442658809344e-06,7.342937201540775e-07,1.0140374825028078e-06,1.3134873790831626e-06
202,2.5552558343783665e-05,4.1109203712830845e-06,1.2436299828588605e-06,1.3854692659504435e-05,6.783679588994082e-07,1.0791078742103036e-06,9.940921208006333e-07,1.299872030609144e-06,1.8478109588672733e-05,5.486280361419708e-06,1.3469615026534572e-06,5.152812698631436e-05,1.0148220848848806e-06,7.368220144042192e-07,1.0306530388432237e-06,1.3321048025173787e-06
203,2.5347827562560915e-05,4.092575471990817e-06,1.2378180891541048e-06,1.4586329455144542e-05,6.5979732287472e-07,1.0609721838116423e-06,1.0046520128849145e-06,1.2969695823905466e-06,1.838881300218656e-05,5.45115985632865e-06,1.3895136976086485e-06,5.340748145834183e-05,1.0163942465802049e-06,7.415451530688933e-07,1.0474337871461653e-06,1.3514473031382318e-06
204,2.509585334640714e-05,4.075761604542865e-06,1.2373593382331118e-06,1.5414626575015368e-05,6.431068727338054e-07,1.0454896018712046e-06,1.0140841823747697e-06,1.2988075318019893e-06,1.825447400000803e-05,5.418339700351806e-06,1.4350981553555182e-06,5.557874869849453e-05,1.01676022111673e-06,7.48283637248793e-07,1.0647545812851647e-06,1.3712980686643606e-06
205,2.4792265114840402e-05,4.061054208085943e-06,1.2418920854752584e-06,1.6330304888597663e-05,6.286432503489729e-07,1.033079795703902e-06,1.023106108106249e-06,1.3050513868468873e-06,1.807548627026604e-05,5.386710613688424e-06,1.4827391690669377e-06,5.8030955117952595e-05,1.015759649671122e-06,7.567555235567618e-07,1.082836993946818e-06,1.3912731425160403e-06
206,2.4430336129543248e-05,4.048962114236281e-06,1.2512364624872844e-06,1.7321202070326454e-05,6.166887354598566e-07,1.0239315076757725e-06,1.0324158632966618e-06,1.3152177967607682e-06,1.7852491130992623e-05,5.355110280878213e-06,1.5312754252254014e-06,6.074486025021092e-05,1.0132419578989818e-06,7.665978157396781e-07,1.1017368515899654e-06,1.4107975665775795e-06
207,2.4000496305435918e-05,4.03964254220033e-06,1.2654979777547563e-06,1.8371793587690453e-05,6.074440107608419e-07,1.0180036411955765e-06,1.0425783334971862e-06,1.3286503822688928e-06,1.7586889985657505e-05,5.32228514809254e-06,1.5794650870089912e-06,6.369368633208608e-05,1.0090857654324047e-06,7.774146671916828e-07,1.1213689182013472e-06,1.4291903594036655e-06
208,2.3492335462283926e-05,4.032998238594452e-06,1.2850558437468167e-06,1.9462720803093158e-05,6.010343606532814e-07,1.0150378343271098e-06,1.0540021491412216e-06,1.3445639189219488e-06,1.7281048183970756e-05,5.286797457360449e-06,1.6260493744163134e-06,6.684747316629135e-05,1.003154265555023e-06,7.887659617471786e-07,1.141556457348316e-06,1.4457681674775102e-06
209,2.2898636324403356e-05,4.028946352027208e-06,1.3104261917920203e-06,2.0570510263855943e-05,5.975119123737141e-07,1.0146056772372168e-06,1.0669717572450103e-06,1.3621690143857584e-06,1.6938337548540056e-05,5.247047246743097e-06,1.6697536966754574e-06,7.017773117133542e-05,9.952868599911032e-07,8.001376911290823e-07,1.1620852777455092e-06,1.459873032613707e-06
210,2.2218572821002105e-05,4.027616821624365e-06,1.3420709669781333e-06,2.1667668064589855e-05,5.968463254480986e-07,1.0162133709622886e-06,1.081683718838355e-06,1.3808195332541048e-06,1.656320655935954e-05,5.201379868625531e-06,1.7093014628095158e-06,7.365885737565724e-05,9.853782874613965e-07,8.110120103227975e-07,1.1827420213234948e-06,1.4708264435911596e-06
211,2.145744952618762e-05,4.029447774792998e-06,1.380257021868231e-06,2.2723330511631483e-05,5.989207814046209e-07,1.0194112846090262e-06,1.098278465661428e-06,1.4000284291117391e-06,1.61612041227484e-05,5.148264643360679e-06,1.743518869354874e-06,7.726519919784458e-05,9.734683629137492e-07,8.210333684368083e-07,1.203318483423212e-06,1.4779475391733792e-06
212,2.062339847376021e-05,4.035187642647058e-06,1.4249994942277237e-06,2.370494955217728e-05,6.035406257944316e-07,1.0238210522912258e-06,1.1168616909465341e-06,1.4193160471499227e-06,1.573848085873032e-05,5.0865546103540395e-06,1.7714691401299363e-06,8.096507312629312e-05,9.597383754981114e-07,8.301122702223259e-07,1.2235738238044982e-06,1.4807318381018959e-06
213,1.972435628297555e-05,4.045758442000168e-06,1.476056412633416e-06,2.458145289328101e-05,6.104576246102594e-07,1.029070147638645e-06,1.1374841200910183e-06,1.4380504716004778e-06,1.530053380614275e-05,5.015696935858174e-06,1.792501556947722e-06,8.471474188399459e-05,9.444099222277915e-07,8.383489224282605e-07,1.2431666333601756e-06,1.479067126230905e-06
214,1.8767927297284564e-05,4.061966736676136e-06,1.5329605692649822e-06,2.5327325814666625e-05,6.194046797251661e-07,1.034726411577106e-06,1.1600767309915175e-06,1.4554155098785001e-06,1.4850893330855538e-05,4.935649595908317e-06,1.8062137280189869e-06,8.845589097923651e-05,9.276456368080033e-07,8.458504660005455e-07,1.2616205823512163e-06,1.473272911575092e-06
215,1.7763102966240073e-05,4.084234795833246e-06,1.5950635132088987e-06,2.5925846449141535e-05,6.301098351250531e-07,1.040342588745575e-06,1.1844111903652383e-06,1.4704672298319993e-06,1.439060480619556e-05,4.846454953027139e-06,1.812377116792779e-06,9.211816459831363e-05,9.095196755312885e-07,8.525900914209354e-07,1.2784027333605033e-06,1.4639319617670646e-06
216,1.672137091159484e-05,4.112605898920102e-06,1.6615426585665546e-06,2.6369648533059955e-05,6.423101872130056e-07,1.0456012949259354e-06,1.2101641912262917e-06,1.4821993986413775e-06,1.3918550737915352e-05,4.747858896092015e-06,1.810813339635393e-06,9.562563185567251e-05,8.900568807556775e-07,8.583592055787636e-07,1.293079541019072e-06,1.4517113373965359e-06
217,1.565636839422635e-05,4.14698777416683e-06,1.7314262395914584e-06,2.66580532682837e-05,6.557963532558538e-07,1.0504042830608334e-06,1.2370636715526621e-06,1.489639489150379e-06,1.3432464097120183e-05,4.639394623664808e-06,1.8012684380013564e-06,9.890561342314006e-05,8.693100417624989e-07,8.627982791334861e-07,1.3054165280612808e-06,1.4373335678715608e-06
218,1.4582539888793767e-05,4.187323662320457e-06,1.8037009809939897e-06,2.6792547958147176e-05,6.704154206544814e-07,1.054805730339839e-06,1.2649914247970427e-06,1.4920121647309947e-06,1.2930614638917814e-05,4.5207867449981845e-06,1.7834447419233702e-06,0.0001018982468273652,8.474190011075123e-07,8.655021420774767e-07,1.3153562074029416e-06,1.421602807950064e-06
219,1.3513500950397998e-05,4.233527202054296e-06,1.877389523925022e-06,2.6773564678840012e-05,6.85998728533218e-07,1.0588689459865804e-06,1.2939401591297463e-06,1.488900569582855e-06,1.2413580107718804e-05,4.392236617705203e-06,1.7572188558200081e-06,0.00010456413324639623,8.246467848713558e-07,8.661697606808959e-07,1.322923612036754e-06,1.4053225051355159e-06
220,1.2460945275494728e-05,4.285268499517952e-06,1.951553103332468e-06,2.6600984606747807e-05,7.022974811353861e-07,1.0625638547882632e-06,1.3238631296115444e-06,1.480290654475316e-06,1.1885096455580162e-05,4.254464878541879e-06,1.7228574348359068e-06,0.00010688755118652533,8.01423680071645e-07,8.647237254914078e-07,1.3281185065465944e-06,1.3891393321063258e-06
221,1.1434603627110662e-05,4.341754765641523e-06,2.0253948325988676e-06,2.627738500983322e-05,7.189658746707485e-07,1.0657589687336926e-06,1.354559043730583e-06,1.4664550584295193e-06,1.1351528157396677e-05,4.108654429753445e-06,1.6810590752989298e-06,0.00010887380277440859,7.783559508458832e-07,8.613300983948021e-07,1.3308108314264026e-06,1.373446556693757e-06
222,1.0442802061989903e-05,4.401642650539094e-06,2.098476072102868e-06,2.5811212178114075e-05,7.355694631954588e-07,1.0683137399421975e-06,1.3856868224658956e-06,1.447742758955252e-06,1.0820441522124014e-05,3.956374480274578e-06,1.6328448135775188e-06,0.00011053964104173343,7.561465357513022e-07,8.563018263252554e-07,1.3306653387200613e-06,1.358369642522475e-06
223,9.49278556108621e-06,4.463190863797761e-06,2.170803494101605e-06,2.52181994570502e-05,7.516336754599229e-07,1.0701907258807015e-06,1.4168741836688079e-06,1.424442218180833e-06,1.0299190634022537e-05,3.7994592003497814e-06,1.5794398638305418e-06,0.00011189957027039622,7.354720348020817e-07,8.499521811272285e-07,1.3271317933045907e-06,1.343807801784023e-06
224,8.59059972682131e-06,4.524631508232191e-06,2.2426805798311635e-06,2.4520701056136743e-05,7.667378638573687e-07,1.0714622202021317e-06,1.4478141022352404e-06,1.3968135703988342e-06,9.794070061550238e-06,3.639802667163543e-06,1.52221329898619e-06,0.00011295896610229651,7.168988015291532e-07,8.425042808150812e-07,1.3195173951389455e-06,1.3295681519047717e-06
225,7.740925373649036e-06,4.584583015797026e-06,2.3144590771905398e-06,2.374514693179427e-05,7.80578399806048e-07,1.072212896358333e-06,1.4782693961976457e-06,1.3651656867660777e-06,9.309964525315957e-06,3.479149491408911e-06,1.4626123186317106e-06,0.00011372264385334563,7.00854244475008e-07,8.340907197983002e-07,1.3071677260348872e-06,1.315586650426743e-06
226,6.947223899034732e-06,4.642270434051718e-06,2.3863487449344935e-06,2.291847965264941e-05,7.929356020423184e-07,1.0724500067520577e-06,1.5079774809487828e-06,1.329857388439313e-06,8.850143160372852e-06,3.3190578234859175e-06,1.4020600714633024e-06,0.00011421176624937873,6.876177379019422e-07,8.248151725976281e-07,1.2897166279540172e-06,1.3020984167580474e-06
227,6.2121462223234035e-06,4.697403170033504e-06,2.4583570131744315e-06,2.2065279769222105e-05,8.036077954653821e-07,1.0720742569580047e-06,1.5365112943659688e-06,1.2912903935170041e-06,8.41605793061088e-06,3.160961469667104e-06,1.3418881472316837e-06,0.00011447421086936749,6.77322240773795e-07,8.148528742343469e-07,1.2672564138527912e-06,1.2896127450937056e-06
228,5.537868864611451e-06,4.749743098633359e-06,2.530355372813481e-06,2.1206782073408374e-05,8.12421460264706e-07,1.0709312403689273e-06,1.563175063927531e-06,1.2499601373158597e-06,8.007355213279763e-06,3.0060869095544476e-06,1.283312120023359e-06,0.00011458142673625361,6.699993458731918e-07,8.045129796298506e-07,1.2403349574671466e-06,1.2787141520643398e-06
229,4.926132532426879e-06,4.798613443186653e-06,2.6022046634625976e-06,2.0361081835457336e-05,8.193078798875878e-07,1.0689468980364793e-06,1.5869899657544587e-06,1.206478663981209e-06,7.6222613857086e-06,2.8552867841065313e-06,1.227390168096709e-06,0.00011461606868815727,6.656771012922302e-07,7.941794636039293e-07,1.2098040373784384e-06,1.269879251150192e-06
230,4.378087523148331e-06,4.842753084939177e-06,2.673849487490853e-06,1.954311166756248e-05,8.243443777824625e-07,1.0662234634226706e-06,1.60677660682412e-06,1.1615045558048098e-06,7.258155638855901e-06,2.7090244745724544e-06,1.1749874068858101e-06,0.0001146594998628094,6.644513684258645e-07,7.841978160501356e-07,1.1766065777061984e-06,1.2634470828210195e-06
231,3.894171092164095e-06,4.880690143826248e-06,2.7453572892581045e-06,1.8764076283528145e-05,8.277063953986118e-07,1.0629747458810475e-06,1.6212963425871794e-06,1.1156846226658197e-06,6.9120975678775435e-06,2.56761929491915e-06,1.1267859172175174e-06,0.00011478453589810082,6.664494606199616e-07,7.748294020005696e-07,1.141608750172464e-06,1.2596627028587116e-06
232,3.474114952646544e-06,4.911261830200628e-06,2.8169419818091687e-06,1.803097192131956e-05,8.295781950113059e-07,1.0593690433956603e-06,1.6293949415514837e-06,1.069665839292525e-06,6.581316471335847e-06,2.4316441290381047e-06,1.0833072864382578e-06,0.00011505201524990003,6.717403284847686e-07,7.662833231960375e-07,1.1055196427263205e-06,1.2586707103190627e-06
233,3.117101235514754e-06,4.933815011931404e-06,2.8889570933029217e-06,1.73467094415387e-05,8.301142273831438e-07,1.0554266945084152e-06,1.6301235923058269e-06,1.0240806905311745e-06,6.2637123222413835e-06,2.3021204229601094e-06,1.044908604709242e-06,0.00011550767479751919,6.802890650957082e-07,7.587565077617893e-07,1.068891432701764e-06,1.2604944132256839e-06
234,2.8220742250770906e-06,4.948085031971935e-06,2.961773710401919e-06,1.6710890420759008e-05,8.294579963599593e-07,1.0510199412472714e-06,1.6228644611626586e-06,9.795057991644488e-07,5.95824636466242e-06,2.180338655813849e-06,1.0117683208878107e-06,0.00011618030856345776,6.919562880796923e-07,7.52431197345785e-07,1.0321855774881482e-06,1.265047735448507e-06
235,2.5881043127174333e-06,4.9540276512390115e-06,3.0355366615069686e-06,1.612100629208e-05,8.277532445468326e-07,1.0459276599798804e-06,1.6074729554491592e-06,9.364821461689889e-07,5.665056246377874e-06,2.0675854889039093e-06,9.839095660404208e-07,0.00011708586459222326,7.065057847995409e-07,7.474505688141232e-07,9.95837304428662e-07,1.2721289659885963e-06
236,2.4145804349351452e-06,4.9517651544015175e-06,3.109918547648614e-06,1.5573790256036114e-05,8.25158421596557e-07,1.0398922299553925e-06,1.5843635432872261e-06,8.955658085891661e-07,5.385296272623228e-06,1.9650814771967917e-06,9.612760794407523e-07,0.00011823681545951049,7.23605937379839e-07,7.439208512316693e-07,9.602460495726508e-07,1.2814206855682895e-06
237,2.3011031032226843e-06,4.941612683086491e-06,3.1840099889093506e-06,1.5066564353869952e-05,8.218786076369586e-07,1.0326399859906607e-06,1.5544227216152814e-06,8.573270734164687e-07,5.120837878464701e-06,1.8740729108440043e-06,9.438005574909702e-07,0.00011964867028431074,7.428235217752564e-07,7.419454317387336e-07,9.25728353127066e-07,1.2925586436835744e-06
238,2.247248140207725e-06,4.9239925093813686e-06,3.256424583467369e-06,1.4598400270270033e-05,8.181460116402675e-07,1.0238613489904795e-06,1.518743360483427e-06,8.222947468269336e-07,4.8739302711532175e-06,1.7958470404845304e-06,9.313960076739648e-07,0.00012133759144855637,7.636362121361145e-07,7.416417492167452e-07,8.925221558617157e-07,1.3051967002154906e-06
239,2.2525145252637755e-06,4.899127279604796e-06,3.3255835242925643e-06,1.4170635928220656e-05,8.14159442091576e-07,1.0132175298838448e-06,1.4783602879702146e-06,7.909012862926035e-07,4.646819893186615e-06,1.7316202437914052e-06,9.23938645938429e-07,0.00012331106295124065,7.854880486256202e-07,7.430983319052403e-07,8.608584738591521e-07,1.318986748193323e-06
240,2.3165257430019817e-06,4.86682882754238e-06,3.390026662977823e-06,1.3786213280015857e-05,8.100709618748574e-07,1.0004130982156201e-06,1.4341354106839678e-06,7.634586343835769e-07,4.441338185238041e-06,1.6823985491479907e-06,9.213457062772168e-07,0.00012555853395053334,8.078396736626344e-07,7.463212172270229e-07,8.310415495118615e-07,1.3335066509767548e-06
241,2.4392790241958516e-06,4.826753349616342e-06,3.448618480563018e-06,1.3448086024040205e-05,8.060133630780895e-07,9.85276212861428e-07,1.386736289808132e-06,7.401562863690085e-07,4.2586122900514374e-06,1.648877342089518e-06,9.236556416418488e-07,0.00012804885793720388,8.301425346487831e-07,7.512547044363876e-07,8.034591573383092e-07,1.3481939305796912e-06
242,2.621283575741832e-06,4.77891813811717e-06,3.5006344394018135e-06,1.3158174938706721e-05,8.021089033315638e-07,9.677891678074687e-07,1.3366361755776302e-06,7.210767834555234e-07,4.099058526681557e-06,1.63141214572062e-06,9.30970495206518e-07,0.00013073613785469254,8.517992100384846e-07,7.578811412774131e-07,7.785099437610386e-07,1.362340833632496e-06
243,2.8635935176972158e-06,4.724006475924102e-06,3.5457697102893694e-06,1.291797755667039e-05,7.984468255309814e-07,9.48068605456307e-07,1.2841632686729807e-06,7.062088857530403e-07,3.962578256617305e-06,1.6300479770280426e-06,9.43318810160852e-07,0.00013356913127590136,8.722401987923843e-07,7.663003368363359e-07,7.565312772027932e-07,1.375224145635199e-06
244,3.1677602860787166e-06,4.663301644975054e-06,3.5841221663084367e-06,1.2729986738408312e-05,7.950512591444404e-07,9.263345642472457e-07,1.2295992497251927e-06,6.954449845449932e-07,3.848738563899631e-06,1.644538228552281e-06,9.605683133812998e-07,0.00013649784666432236,8.910772543877291e-07,7.766962262785765e-07,7.377756289967252e-07,1.3863363496636971e-06
245,3.5356527236189147e-06,4.5983786129906785e-06,3.6162019266450467e-06,1.2598423801823406e-05,7.918783546062405e-07,9.029122954140095e-07,1.1732720157881824e-06,6.886055465134588e-07,3.7568404546272666e-06,1.6743375659426274e-06,9.824174788170927e-07,0.00013947391487691667,9.081628508700476e-07,7.892554397181662e-07,7.223926202358156e-07,1.3955042744617643e-06
246,3.969125095627637e-06,4.5307144245685195e-06,3.6429729739574236e-06,1.2528858362719091e-05,7.888388941877239e-07,8.78244443201542e-07,1.1156127493282195e-06,6.855135422827715e-07,3.6859320011326785e-06,1.7186455774995235e-06,1.0084534680452006e-06,0.00014244490137472611,9.235027145345381e-07,8.041371507175772e-07,7.104009274737779e-07,1.4027628193627218e-06
247,4.469697697088516e-06,4.4613328908334e-06,3.665858230331518e-06,1.2527075409858425e-05,7.857883364050681e-07,8.528484891317742e-07,1.0571864212541334e-06,6.860469315912518e-07,3.634875653875513e-06,1.7765486635096668e-06,1.0382222898672996e-06,0.0001453449771059786,9.3711718881962e-07,8.214610320272558e-07,7.016858050998238e-07,1.4081689746726776e-06
248,5.038427806406145e-06,4.390652198429781e-06,3.686605209600475e-06,1.2597730126570158e-05,7.825014937573686e-07,8.272337077171001e-07,9.987087416191937e-07,6.901006632601864e-07,3.602527300490868e-06,1.8472009003234054e-06,1.0712162773038856e-06,0.00014808585887922051,9.489457312220584e-07,8.412718975217739e-07,6.960353732720499e-07,1.4117745471939158e-06
249,5.675883471643799e-06,4.318662816817948e-06,3.706962538299384e-06,1.274343133995387e-05,7.787069786523898e-07,8.018673817813977e-07,9.410441129659034e-07,6.97503811889554e-07,3.5879657257366483e-06,1.929938499236393e-06,1.1067914455041467e-06,0.0001505541326224954,9.588131382880755e-07,8.635010536335008e-07,6.93200727596415e-07,1.4136759548348218e-06
250,6.382145262416768e-06,4.2452722435936854e-06,3.7282728846096853e-06,1.2964477082295929e-05,7.741767235550922e-07,7.771973909159656e-07,8.851562999131107e-07,7.079753241836878e-07,3.590596058170588e-06,2.0242775657208925e-06,1.1441037027067726e-06,0.00015261936492397659,9.664484068509577e-07,8.879364641706204e-07,6.929516494036885e-07,1.4139657880895711e-06
251,7.157057105811312e-06,4.170542887701111e-06,3.751217000535485e-06,1.3258924110182485e-05,7.688091349162242e-07,7.536519871951314e-07,8.320004664050441e-07,7.211287833516235e-07,3.609964312970802e-06,2.129805426423724e-06,1.1820778844653473e-06,0.0001541500538072221,9.71598930074103e-07,9.14214583863082e-07,6.951011170037718e-07,1.4126133752600916e-06
252,8.000677117797114e-06,4.094784722929724e-06,3.7758503307549123e-06,1.362305925943068e-05,7.626446336047428e-07,7.316129334898525e-07,7.82409193428496e-07,7.365053200055709e-07,3.6453789495160273e-06,2.246009418865214e-06,1.2194112767831755e-06,0.0001550307320263276,9.742245967587774e-07,9.418326101383777e-07,6.994902121336686e-07,1.409436852152028e-06
253,8.91330388719721e-06,4.018620738385007e-06,3.8018643497059326e-06,1.4052614350232301e-05,7.557987162063548e-07,7.113990849559663e-07,7.3703929250688e-07,7.536397165519683e-07,3.69569836633925e-06,2.3721868461563897e-06,1.2546839131497912e-06,0.0001551757314414223,9.745839452951142e-07,9.701556159630333e-07,7.059336076050991e-07,1.4042538190272388e-06
254,9.894820162013576e-06,3.943063420360265e-06,3.828934707656728e-06,1.4544417291415574e-05,7.484143115237086e-07,6.932415121089893e-07,6.963882979008898e-07,7.72119914156715e-07,3.7594875329842996e-06,2.5075701237091886e-06,1.2865955294733977e-06,0.00015453669389728255,9.731024221668328e-07,9.984552745592135e-07,7.141645934982854e-07,1.3971093434637993e-06
255,1.0944127234628692e-05,3.869535377082809e-06,3.85705398465321e-06,1.5097831747370267e-05,7.407066260184719e-07,6.772484513067236e-07,6.608397450678801e-07,7.915633050508402e-07,3.835373181932589e-06,2.651500689785907e-06,1.3142104972588955e-06,0.0001531007733978786,9.701745014895492e-07,1.0260285941700583e-06,7.238401171487627e-07,1.3883663550919748e-06
256,1.2059480890766375e-05,3.799723202657665e-06,3.886765733160396e-06,1.5715582774696815e-05,7.329987946050394e-07,6.634003490380328e-07,6.306858632500246e-07,8.115406472149303e-07,3.92232153392853e-06,2.8033636740182826e-06,1.3370617375198386e-06,0.0001508771178838937,9.661032217236906e-07,1.0523093529196325e-06,7.345900766144056e-07,1.3785641220850333e-06
257,1.3239498428406273e-05,3.7352517180269585e-06,3.919238761002466e-06,1.6403693569180612e-05,7.256602233009974e-07,6.516076949570802e-07,6.061173229800384e-07,8.315389516258075e-07,4.01970361213396e-06,2.9623728247523697e-06,1.3550662049467778e-06,0.00014787682231660407,9.612003784622755e-07,1.0768590860737825e-06,7.460317195097462e-07,1.368191769998793e-06
258,1.4483959978125618e-05,3.677426179987064e-06,3.956182247237313e-06,1.7170369168470495e-05,7.19008107703539e-07,6.418020311513187e-07,5.872250970910994e-07,8.50991747705043e-07,4.127223914223046e-06,3.1275400181578868e-06,1.3683393050661931e-06,0.00014410372958737546,9.558825703368586e-07,1.099267190682012e-06,7.577297975737217e-07,1.3575647328442224e-06
259,1.579366433902929e-05,3.627211401827296e-06,3.999667985225219e-06,1.802406882304748e-05,7.132521022669762e-07,6.339644441647512e-07,5.740328112449808e-07,8.693696570828156e-07,4.244870420520271e-06,3.297901861862303e-06,1.3770207433024262e-06,0.0001395665512152972,9.506339751015245e-07,1.119082586237998e-06,7.691965353908946e-07,1.3468350622379926e-06
260,1.716915215880516e-05,3.585220483697475e-06,4.05192500948196e-06,1.897142654497833e-05,7.084972619876695e-07,6.280771341454137e-07,5.665145836347301e-07,8.86281917592189e-07,4.372824626800166e-06,3.472795055673753e-06,1.3811540663191623e-06,0.00013429949979089874,9.45916664721401e-07,1.1358835292742715e-06,7.799976783247644e-07,1.336100525224027e-06
261,1.8608928964154352e-05,3.5515642911962056e-06,4.115129263465656e-06,2.0015654007434354e-05,7.047835324421335e-07,6.240731132716343e-07,5.645754355382737e-07,9.015155484927119e-07,4.511140816489876e-06,3.6519643204699247e-06,1.3806657692661377e-06,0.0001283740393423742,9.42154940818822e-07,1.1494248278787987e-06,7.898615397191937e-07,1.325567758711056e-06
262,2.010820163404983e-05,3.52574382243443e-06,4.1912157754149495e-06,2.1155628572920757e-05,7.021207906471794e-07,6.218048135294665e-07,5.680228282078281e-07,9.149915336437707e-07,4.659300084606632e-06,3.835461841594613e-06,1.375493766635205e-06,0.00012189765884411073,9.397826237338774e-07,1.1596480745543303e-06,7.987017275582548e-07,1.3156565074716968e-06
263,2.165837539754321e-05,3.506706067036162e-06,4.281755230991908e-06,2.23854848686486e-05,7.004793698647189e-07,6.210410273759382e-07,5.765512235501186e-07,9.266694060569151e-07,4.815974458150861e-06,4.023512398657383e-06,1.3657966559512254e-06,0.00011500328717603395,9.392760939726553e-07,1.1665261471706651e-06,8.066333854985294e-07,1.3069541592741517e-06
264,2.3246710203980804e-05,3.4930090567108174e-06,4.387869904955124e-06,2.3694503905288007e-05,6.997482517971455e-07,6.215405238167471e-07,5.897418776952338e-07,9.364793654857457e-07,4.9790443298690646e-06,4.2165262358416625e-06,1.3520771685719487e-06,0.00010783399065832379,9.411306813639719e-07,1.1699689558570616e-06,8.139891261429419e-07,1.3000572023083124e-06
265,2.485601716760348e-05,3.483048546273907e-06,4.510093322811171e-06,2.506713821568889e-05,6.997156867038091e-07,6.231861361382842e-07,6.070719351949276e-07,9.443350664177689e-07,5.145644342783819e-06,4.415195954681091e-06,1.3351066642712642e-06,0.00010052769923125457,9.457933522423022e-07,1.169926622550531e-06,8.212208474975504e-07,1.2954283972417177e-06
266,2.646482269738335e-05,3.4753356342142285e-06,4.6481520960663715e-06,2.6483277577463676e-05,7.000917771840918e-07,6.260628253906688e-07,6.279231517942106e-07,9.50150911480039e-07,5.312297302555135e-06,4.620425970444198e-06,1.315715863603351e-06,9.320627016062281e-05,9.536061463316545e-07,1.1665690149012132e-06,8.287384083098197e-07,1.2933604374553176e-06
267,2.804780179441557e-05,3.468771316209827e-06,4.8007883207983496e-06,2.791981270844137e-05,7.005659706013677e-07,6.303944405897256e-07,6.515952894056691e-07,9.53787243020786e-07,5.475265168294665e-06,4.8330006933541665e-06,1.2946559107626534e-06,8.597117057371026e-05,9.647880794782224e-07,1.1603414801116352e-06,8.368319565192909e-07,1.2939981659454682e-06
268,2.9575778070523806e-05,3.462786649142603e-06,4.965740051286384e-06,2.93545231436318e-05,7.008954077557083e-07,6.364023691599286e-07,6.773360807389785e-07,9.550121099278295e-07,5.630743443740549e-06,5.0532354643420066e-06,1.2726227008602639e-06,7.890442803661024e-05,9.794253034918471e-07,1.151842996773909e-06,8.456862380445178e-07,1.29732654921641e-06
269,3.101506732418761e-05,3.457222996055089e-06,5.139900606130184e-06,3.077123056494171e-05,7.009572177771171e-07,6.44204599398994e-07,7.043659054001997e-07,9.536137440276716e-07,5.774620299647383e-06,5.28085227961511e-06,1.2503182897556407e-06,7.207152594010486e-05,9.974498766638274e-07,1.1416567522235248e-06,8.554163446912717e-07,1.3031255096743648e-06
270,3.232713574469542e-05,3.4519839586604818e-06,5.319643290168435e-06,3.216356924806837e-05,7.006973321952517e-07,6.537883996715806e-07,7.318724318672656e-07,9.496210429589729e-07,5.902330621063896e-06,5.514950758207788e-06,1.2284242790870644e-06,6.552428082712718e-05,1.0186163267489188e-06,1.1302922775112704e-06,8.660762619717468e-07,1.3109499732489465e-06
271,3.3470602274484553e-05,3.4467108803033602e-06,5.501283897648895e-06,3.353541831903095e-05,7.000385030944002e-07,6.650201703088802e-07,7.590243850062947e-07,9.434235794778373e-07,6.009344656316617e-06,5.7538594669214365e-06,1.207507394778145e-06,5.930346507708762e-05,1.0424830389629183e-06,1.118244168770009e-06,8.776469535570515e-07,1.3201459159100663e-06
272,3.440683250511214e-05,3.4407588716628013e-06,5.681605165108367e-06,3.48979464656571e-05,6.988366602219703e-07,6.776627504307376e-07,7.850311108786119e-07,9.356645638465327e-07,6.091962416525818e-06,5.995021935308631e-06,1.1879368239463958e-06,5.3441203465640704e-05,1.0684273410459886e-06,1.1060279013609709e-06,8.900515073890164e-07,1.3298973538534249e-06
273,3.5107511700918245e-05,3.433465431767869e-06,5.858334627530013e-06,3.626487718282838e-05,6.968856308817894e-07,6.914161274087119e-07,8.091665113328169e-07,9.270168644678594e-07,6.147819980219188e-06,6.2351998758396524e-06,1.1698702322040219e-06,4.796303721117324e-05,1.0957263098122787e-06,1.0941198446566303e-06,9.031859760762502e-07,1.3393421124095564e-06
274,3.5559934456885104e-05,3.424464690601752e-06,6.03046591113647e-06,3.764796231184931e-05,6.939607995451448e-07,7.05991404135333e-07,8.307530901891624e-07,9.180391455009365e-07,6.1760090063474805e-06,6.470864723420058e-06,1.153317956168604e-06,4.288952995169187e-05,1.1236773700679166e-06,1.0828852413566673e-06,9.169173880185714e-07,1.3477376969247042e-06
275,3.5766131600830564e-05,3.4138830369335158e-06,6.198344264758963e-06,3.905371809220294e-05,6.899114373776645e-07,7.211516384802629e-07,8.492032628571376e-07,9.091756055201408e-07,6.177060199532145e-06,6.6983274117785625e-06,1.1382528813872305e-06,3.8237330257267206e-05,1.1516886669317624e-06,1.0725761328299463e-06,9.310691812992862e-07,1.3545708255714195e-06
276,3.57362154630325e-05,3.4023963439844096e-06,6.3634962819701395e-06,4.048171137358027e-05,6.847390099501871e-07,7.366788840801943e-07,8.640790252126405e-07,9.008135357385368e-07,6.152979469548869e-06,6.913417192381283e-06,1.1247132199456701e-06,3.401977874848968e-05,1.1792891031558221e-06,1.0633580161829873e-06,9.454555764050606e-07,1.359540482686876e-06
277,3.548118763741651e-05,3.391128241527523e-06,6.52823077175776e-06,4.192480760849955e-05,6.785734819374097e-07,7.523529374740478e-07,8.750572619685497e-07,8.932998691158165e-07,6.107205939602438e-06,7.111044610085632e-06,1.1128332591877961e-06,3.02472875541748e-05,1.206071847496295e-06,1.0552998776327876e-06,9.599546539499757e-07,1.3624447251223418e-06
278,3.501039861624098e-05,3.3813665676827457e-06,6.695076457064844e-06,4.337144912173391e-05,6.715779902488869e-07,7.680004447774207e-07,8.818636309775876e-07,8.869143537138848e-07,6.044155303272459e-06,7.2851951339305396e-06,1.1027748348403605e-06,2.692769846742932e-05,1.2316355154865452e-06,1.0483515571044393e-06,9.745551123744605e-07,1.3631024550150694e-06
279,3.433358609474663e-05,3.3742243035999894e-06,6.866185912098158e-06,4.480902479405606e-05,6.638704523622836e-07,7.835242432582528e-07,8.843117324258424e-07,8.818476971066571e-07,5.968365132464156e-06,7.429582422245103e-06,1.0946134947474952e-06,2.4066706951289284e-05,1.2555558777993694e-06,1.0423467353171852e-06,9.893651206438267e-07,1.36143282463235e-06
280,3.34638065472295e-05,3.370509133455683e-06,7.042852011792615e-06,4.6227152642993836e-05,6.554911951528736e-07,7.988387009156625e-07,8.824160359022307e-07,8.781785515553473e-07,5.883846534702621e-06,7.538640002675626e-06,1.0882641048421604e-06,2.1668269522372566e-05,1.277346409458912e-06,1.0370090379910879e-06,1.0045759568500352e-06,1.3576307870087678e-06
281,3.241904590751067e-05,3.3708461569148097e-06,7.22517855162091e-06,4.762009209048893e-05,6.464182244209858e-07,8.137819646372971e-07,8.76444456448691e-07,8.758333507788075e-07,5.794084347961949e-06,7.608317567687383e-06,1.0835083685555843e-06,1.973485782054346e-05,1.2963884669196968e-06,1.0319794965091528e-06,1.0203745038281513e-06,1.3522638965054657e-06
282,3.122258230606683e-05,3.3757574789645063e-06,7.411839524784888e-06,4.8987722392379345e-05,6.366106042653814e-07,8.280934290075778e-07,8.668516072168322e-07,8.745727153116289e-07,5.702336664309444e-06,7.636475965587518e-06,1.0801189858498879e-06,1.8267552865788493e-05,1.3119029076883538e-06,1.0269503363254518e-06,1.036872576666945e-06,1.346207593615176e-06
283,2.9902481771369214e-05,3.3855044119920217e-06,7.599896132517666e-06,5.033468246817522e-05,6.260369913011939e-07,8.414542832233207e-07,8.541342666000216e-07,8.740350254692635e-07,5.611720755589959e-06,7.62300718322254e-06,1.07797194766766e-06,1.7265959124537623e-05,1.3230129552445869e-06,1.021855446028277e-06,1.0541086772400138e-06,1.3404562198659097e-06
284,2.8490384433322635e-05,3.399838391193201e-06,7.78473298194495e-06,5.166747706554757e-05,6.146954536376742e-07,8.535556255452371e-07,8.387062451520372e-07,8.737860290836119e-07,5.525097126229973e-06,7.569683924113278e-06,1.0770386595457912e-06,1.6727753758077833e-05,1.328866446509331e-06,1.0169131369080424e-06,1.0720988315901475e-06,1.3359038797638884e-06
285,2.701987689831484e-05,3.4178616592182692e-06,7.960194545717677e-06,5.298987545374647e-05,6.026381361328192e-07,8.641530230105477e-07,8.208686242494722e-07,8.733206408382219e-07,5.444972328512576e-06,7.479619189183351e-06,1.077281414723311e-06,1.664791199431088e-05,1.3287984156210134e-06,1.0124830651316763e-06,1.0908605981307863e-06,1.333190332849352e-06
286,2.5524887703969805e-05,3.438063686108056e-06,8.119004718752163e-06,5.4298233957178155e-05,5.89968242897686e-07,8.730512021007096e-07,8.00870937824318e-07,8.720766757269161e-07,5.373424495613773e-06,7.356407334380199e-06,1.0785576102563095e-06,1.701814610985755e-05,1.3224965054546413e-06,1.0089092588844925e-06,1.1103638689474464e-06,1.3326546020356303e-06
287,2.4038401644358647e-05,3.458545932314486e-06,8.253558457486396e-06,5.557937656403234e-05,5.768335843926979e-07,8.800303153120614e-07,7.790097659795692e-07,8.695520784364658e-07,5.311977037532323e-06,7.203286773410682e-06,1.0806000696054088e-06,1.7826921936763418e-05,1.310026222056372e-06,1.0064250945617086e-06,1.1304526247951245e-06,1.3343959532679338e-06
288,2.2591442025336114e-05,3.4774048180231493e-06,8.357044060498632e-06,5.68124033665308e-05,5.634587252727444e-07,8.848222504900363e-07,7.557008124249755e-07,8.654745772229543e-07,5.261468711434482e-06,7.022919681928362e-06,1.0831032040382808e-06,1.9059616388386145e-05,1.2916634816463548e-06,1.005090554189489e-06,1.1508361121524994e-06,1.3384075013834884e-06
289,2.12121113178911e-05,3.4931745567997006e-06,8.424603691932438e-06,5.797330617788147e-05,5.501533632918514e-07,8.871990331659714e-07,7.314709244864653e-07,8.598715639054149e-07,5.222003838229034e-06,6.8180016274647406e-06,1.0859001362684801e-06,2.0698285374635866e-05,1.2677577220714437e-06,1.0047825263165854e-06,1.171222007252831e-06,1.3446961745752475e-06
290,1.992469931119459e-05,3.505202942128087e-06,8.454136212501526e-06,5.9040288304020994e-05,5.37250444451725e-07,8.870847207811847e-07,7.068806723987485e-07,8.529775718668164e-07,5.192984106283434e-06,6.591962037425114e-06,1.0891081364407925e-06,2.272144720364451e-05,1.2387968932388349e-06,1.0052379448338454e-06,1.1914982229381748e-06,1.3533108072335504e-06
291,1.8749146469153188e-05,3.513789394746497e-06,8.446512241909351e-06,5.999812911515249e-05,5.250317625637915e-07,8.845580905726109e-07,6.824580917184437e-07,8.450881053615786e-07,5.173173465220865e-06,6.3490242807482804e-06,1.0931308479071038e-06,2.5104699840122528e-05,1.2054833797764587e-06,1.0060892297254733e-06,1.2117506343962086e-06,1.36427339049086e-06
292,1.7701009030762932e-05,3.5199298134280816e-06,8.40520200843538e-06,6.0840455759574754e-05,5.136968306023441e-07,8.797383387724016e-07,6.586964409457966e-07,8.364894901070895e-07,5.160820121854877e-06,6.093789811380234e-06,1.0985553507288462e-06,2.782200207213895e-05,1.1686392149016673e-06,1.006896952520122e-06,1.232083277339468e-06,1.3774640951375127e-06
293,1.679164941357015e-05,3.524764848571235e-06,8.335418072597643e-06,6.156926981969121e-05,5.033867541560051e-07,8.726766248699995e-07,6.360753105612803e-07,8.27439749199637e-07,5.1539725037023114e-06,5.830881395345715e-06,1.1060276835300241e-06,3.084636427898514e-05,1.1291027473728193e-06,1.0072429786688406e-06,1.2524233612472707e-06,1.3925262112465123e-06
294,1.6028356600788554e-05,3.529124666365447e-06,8.24292103584809e-06,6.219171005690901e-05,4.942486414766106e-07,8.633691567463371e-07,6.150418318944907e-07,8.181242583363395e-07,5.151018303528763e-06,5.564863779939762e-06,1.1161370887280888e-06,3.414893577531183e-05,1.0877667903470336e-06,1.006847437300588e-06,1.2724506498317638e-06,1.40886030563066e-06
295,1.5414496662917822e-05,3.533429890612017e-06,8.132816884409196e-06,6.271467879826251e-05,4.864787460121671e-07,8.518674533165383e-07,5.959571555810509e-07,8.086183142132642e-07,5.151163905403719e-06,5.300272998280242e-06,1.1293225489637418e-06,3.769711613479299e-05,1.0456163263586203e-06,1.0056006186159688e-06,1.2916684823975205e-06,1.4257693670773378e-06
296,1.4950058255106479e-05,3.5378051714244114e-06,8.008822686754907e-06,6.313891306756356e-05,4.802918169829378e-07,8.383365227004435e-07,5.790552794653368e-07,7.989172190472261e-07,5.154495354187801e-06,5.041503910351843e-06,1.1458217799744818e-06,4.1453479483244075e-05,1.00364122219474e-06,1.0034849795769839e-06,1.3095738344104352e-06,1.4427311585811577e-06
297,1.46327414344644e-05,3.5422099615327534e-06,7.873160782903268e-06,6.345541870356727e-05,4.758597399808146e-07,8.230010109724351e-07,5.644364378993289e-07,7.890162104919993e-07,5.161576003976218e-06,4.792502154267824e-06,1.1656612475861056e-06,4.537588356209529e-05,9.627238949453993e-07,1.0004661471320504e-06,1.325806170026274e-06,1.459610329308866e-06
298,1.4459141859883068e-05,3.5465704547496956e-06,7.726801948205176e-06,6.36466537340936e-05,4.732810142680151e-07,8.060826778845801e-07,5.520997032696717e-07,7.789860876743953e-07,5.172867601838008e-06,4.556424721700194e-06,1.188652431399766e-06,4.94174009007933e-05,9.235932201788849e-07,9.964716996652415e-07,1.3401477829449726e-06,1.4766089333009827e-06
299,1.4425457331745824e-05,3.5508971864127553e-06,7.569848733050447e-06,6.369165214642178e-05,4.725705406333903e-07,7.877865584945377e-07,5.420179492798711e-07,7.689954129132914e-07,5.18829027326645e-06,4.335488727185946e-06,1.2143763321802233e-06,5.352575569093421e-05,8.868088766088582e-07,9.914853339052296e-07,1.3524080627877315e-06,1.4940103055546205e-06
300,1.4527835651440496e-05,3.5553265423318455e-06,7.402064728871878e-06,6.357214184790069e-05,4.736498595022045e-07,7.682947070960758e-07,5.342228706341502e-07,7.592571375660767e-07,5.207006128463221e-06,4.1311035434723614e-06,1.2421743297762304e-06,5.7643607555215695e-05,8.527624680045853e-07,9.856250880897007e-07,1.3623476151279463e-06,1.5119478431000093e-06
301,1.4762945080985701e-05,3.5600873586744086e-06,7.223477658364681e-06,6.327736132107924e-05,4.7634895809892136e-07,7.477707859267035e-07,5.288315005903229e-07,7.499585295659642e-07,5.22730988415992e-06,3.944244256123354e-06,1.2711580320235706e-06,6.171062023640361e-05,8.217232477130926e-07,9.79115934790002e-07,1.3697183931484037e-06,1.5303074216770467e-06
302,1.5128803601739614e-05,3.5654496620992296e-06,7.034848647407086e-06,6.28066115527243e-05,4.804214639918059e-07,7.264079593583509e-07,5.25987971137059e-07,7.412435737415607e-07,5.246590288233676e-06,3.775952579643505e-06,1.3002515860387532e-06,6.566679058079087e-05,7.938891185905421e-07,9.722376409694376e-07,1.374359180875596e-06,1.548753528109037e-06
303,1.5625063579881984e-05,3.571694802920925e-06,6.837800118809756e-06,6.2169451358957e-05,4.855615742995536e-07,7.044911861423842e-07,5.25782409207784e-07,7.332201477915339e-07,5.261526319885652e-06,3.627748889274309e-06,1.328298802956697e-06,6.945530993090354e-05,7.693878418736553e-07,9.65323652163553e-07,1.3762531735904325e-06,1.5668789431661935e-06
304,1.6252036266184276e-05,3.5791234856976834e-06,6.634554100893113e-06,6.138391299935455e-05,4.9142274236762e-07,6.824116525400781e-07,5.282148691297706e-07,7.25956840566654e-07,5.268629907094794e-06,3.501728407628721e-06,1.3542075823925789e-06,7.302253188314601e-05,7.482640118672993e-07,9.587578427706833e-07,1.3754984688911447e-06,1.5844089513087115e-06
305,1.7008944322576417e-05,3.5881067262446884e-06,6.4275044581620626e-06,6.047323088536346e-05,4.976567259794151e-07,6.606109718895672e-07,5.332040008577459e-07,7.195041834508483e-07,5.265009285914736e-06,3.400335769554239e-06,1.3770284537398203e-06,7.631382458705439e-05,7.304907347861644e-07,9.529059430901781e-07,1.372205607510897e-06,1.6012801732397508e-06
306,1.7892749505782095e-05,3.5991374040202845e-06,6.2189858559448035e-06,5.946145111716557e-05,5.039837083146727e-07,6.394993712832313e-07,5.406128411163286e-07,7.139552687448339e-07,5.24906248624096e-06,3.3260234143512036e-06,1.3959572609410195e-06,7.926876085947936e-05,7.159695954306801e-07,9.480302056225179e-07,1.3664089267776016e-06,1.6175032375467765e-06
307,1.8897986464408815e-05,3.612808387805679e-06,6.011383793904424e-06,5.8368612599115845e-05,5.102523284509351e-07,6.1941052313821e-07,5.502674366624315e-07,7.094964558827328e-07,5.220765979598422e-06,3.280962886209159e-06,1.4103364150927132e-06,8.18227354507881e-05,7.045174195772565e-07,9.442721773963951e-07,1.3580995666592177e-06,1.632958393397489e-06
308,2.0016700046444274e-05,3.629693592915303e-06,5.807345420711358e-06,5.7207902734129985e-05,5.164270119152157e-07,6.006045648550344e-07,5.619519008404808e-07,7.063953797490157e-07,5.181411702273155e-06,3.266834095883194e-06,1.419636590044727e-06,8.391774307278113e-05,6.95909430861624e-07,9.416894748549991e-07,1.3473817439618666e-06,1.6473194707337452e-06
309,2.1237905470328507e-05,3.6501631844611625e-06,5.609760083491047e-06,5.598772026992348e-05,5.225200846586936e-07,5.832925813247669e-07,5.753954070862938e-07,7.049333377620776e-07,5.132980353962056e-06,3.2846777523096526e-06,1.4234492661014277e-06,8.551693701499503e-05,6.89996820216696e-07,9.402768633218548e-07,1.3346187952829058e-06,1.6601012435404923e-06
310,2.254706063416674e-05,3.674188413691572e-06,5.4214448022125705e-06,5.4717871913086095e-05,5.285433359975662e-07,5.676580403387268e-07,5.902873291858203e-07,7.053435131540275e-07,5.077447758556635e-06,3.3348228888044126e-06,1.4216374938041426e-06,8.661515778538714e-05,6.86795488624552e-07,9.399742530637556e-07,1.3204341191830738e-06,1.6707284883117854e-06
311,2.3926226786700755e-05,3.701279459062341e-06,5.244718303026711e-06,5.341541605211749e-05,5.344885472555416e-07,5.538622535922818e-07,6.06350648019176e-07,7.077793511071069e-07,5.016249658701949e-06,3.4169094245255083e-06,1.4145555008892638e-06,8.724033838759199e-05,6.864374958721903e-07,9.406891549951472e-07,1.305554260456868e-06,1.6785895873245273e-06
312,2.5354994206128514e-05,3.7306969620481016e-06,5.081102752492482e-06,5.2106556481920927e-05,5.403046191732219e-07,5.420459803617793e-07,6.234295580611038e-07,7.122978019023607e-07,4.950084347333392e-06,3.5299898215098244e-06,1.4030391124379336e-06,8.744383845676968e-05,6.890407034414452e-07,9.423130632364437e-07,1.2906180693109773e-06,1.6830415152122433e-06
313,2.6811591408723292e-05,3.7617959511934597e-06,4.93132429005102e-06,5.082392984278636e-05,5.458789704731472e-07,5.323336000457393e-07,6.414797180749936e-07,7.188877402222385e-07,4.879044192102702e-06,3.6726045323255174e-06,1.38816917943326e-06,8.728403880785367e-05,6.946369471678995e-07,9.447383557163641e-07,1.276104601820073e-06,1.6834018916834252e-06
314,2.8273527765010376e-05,3.794196223297332e-06,4.795554361822422e-06,4.960074550730513e-05,5.510492660396962e-07,5.24825696608183e-07,6.604688164279543e-07,7.275493185423849e-07,4.802876068984648e-06,3.842738180679168e-06,1.3710823579514212e-06,8.681561700794372e-05,7.031841394119666e-07,9.479005356709046e-07,1.2624094096823235e-06,1.6790778793343915e-06
315,2.9717624254557145e-05,3.827726917556499e-06,4.673566157845292e-06,4.846470134653399e-05,5.556514470898636e-07,5.195846462462523e-07,6.803144242262035e-07,7.383338823046484e-07,4.721294884950445e-06,4.03773221129522e-06,1.3528977280754895e-06,8.609130279230367e-05,7.145914030532866e-07,9.518040678068684e-07,1.2499667313930716e-06,1.669799068550678e-06
316,3.1119567292528726e-05,3.86229854714741e-06,4.564623494909111e-06,4.743484636462543e-05,5.595651126026831e-07,5.166225547138275e-07,7.009087575299995e-07,7.512943960812802e-07,4.634365902115575e-06,4.2542548268404815e-06,1.3346622913958052e-06,8.516775294663578e-05,7.287175057104392e-07,9.565021590755238e-07,1.2392870619686157e-06,1.6557020266679914e-06
317,3.245288694171757e-05,3.8977301315110015e-06,4.467403441004703e-06,4.652225589836094e-05,5.627032333762128e-07,5.158962829920077e-07,7.221873134475195e-07,7.664232003961552e-07,4.542799596425799e-06,4.488270284776147e-06,1.3173149084043066e-06,8.410710273818191e-05,7.453616155219489e-07,9.620872702711988e-07,1.2308574046035347e-06,1.6371622778150376e-06
318,3.3687407846519365e-05,3.933545181012579e-06,4.38027199047076e-06,4.5732444086026424e-05,5.649747045832024e-07,5.173364107982041e-07,7.441767142506084e-07,7.836481605719157e-07,4.447967280495282e-06,4.734937649113896e-06,1.3016779681210004e-06,8.297568076525195e-05,7.642669397375966e-07,9.686928128355469e-07,1.2249960470832465e-06,1.614548394210506e-06
319,3.478855522963701e-05,3.96895788805754e-06,4.301752261312212e-06,4.506733212914563e-05,5.662956957418921e-07,5.209226895353505e-07,7.669707747912866e-07,8.028476350839875e-07,4.351661231908711e-06,4.988523849829567e-06,1.2884433351309928e-06,8.184291449313318e-05,7.851193889599616e-07,9.76433965596514e-07,1.221782402731567e-06,1.5881433088618387e-06
320,3.5719868156222666e-05,4.003106502488123e-06,4.2308717460347455e-06,4.4526215632361786e-05,5.666448621834902e-07,5.267456100283208e-07,7.906552632634242e-07,8.238233065518476e-07,4.255743515961637e-06,5.242554333005547e-06,1.2781338713099059e-06,8.078020453479558e-05,8.075218202053344e-07,9.853414801194825e-07,1.2210616158464242e-06,1.558251601215323e-06
321,3.644919138633274e-05,4.035165124884157e-06,4.16729937755607e-06,4.410577717265088e-05,5.660843663804733e-07,5.34982142853906e-07,8.152472023659501e-07,8.462491178879447e-07,4.161761055131518e-06,5.490349698095049e-06,1.271056895686206e-06,7.98587195874232e-05,8.309625433074863e-07,9.953877849481543e-07,1.2224827339877333e-06,1.5252721737147277e-06
322,3.695551125075255e-05,4.06411332225432e-06,4.111325385088622e-06,4.379907309070694e-05,5.647165879486074e-07,5.45809227345861e-07,8.406775110526274e-07,8.696503483473197e-07,4.070596157793613e-06,5.725786374753868e-06,1.2673265829738838e-06,7.914561628729439e-05,8.548117743951977e-07,1.0065569751200916e-06,1.225577235117219e-06,1.4896371065677834e-06
323,3.723216287433236e-05,4.088496044822647e-06,4.063747764606352e-06,4.359367826634336e-05,5.626509253809911e-07,5.593341050055701e-07,8.668210390619256e-07,8.934342521669943e-07,3.982260941753618e-06,5.94400578291908e-06,1.2669993320451475e-06,7.869902598053657e-05,8.783698676801277e-07,1.0188641934930226e-06,1.2298542802080675e-06,1.4517544772605329e-06
324,3.728441940835718e-05,4.106571324009976e-06,4.025685890490467e-06,4.347015914199404e-05,5.600375795338379e-07,5.755762743509203e-07,8.935436283353178e-07,9.169631969967611e-07,3.895874476831581e-06,6.141937219750863e-06,1.2702257508111636e-06,7.856369508077857e-05,9.009632721874982e-07,1.0323032227257576e-06,1.2348467571951233e-06,1.4120566025015243e-06
325,3.7123057422127874e-05,4.116775590144937e-06,3.998284020067726e-06,4.3402785238165956e-05,5.570948157309412e-07,5.944749306494034e-07,9.207018404106498e-07,9.39633936024147e-07,3.8098444195128016e-06,6.318509887782556e-06,1.2772826618535508e-06,7.876913103358596e-05,9.220269899543128e-07,1.0467563407254845e-06,1.2401175875166864e-06,1.3710911655630083e-06
326,3.675799693055477e-05,4.118118282354581e-06,3.982350260176993e-06,4.3363110120740534e-05,5.540563853087996e-07,6.158808961093089e-07,9.481340531702936e-07,9.60917702556072e-07,3.7223010166059845e-06,6.474426913097376e-06,1.2884894653457868e-06,7.932924396730516e-05,9.411213680257909e-07,1.0619352813693918e-06,1.2452959276511239e-06,1.3295327968564997e-06
327,3.6196111070982385e-05,4.110258016665185e-06,3.978182641941775e-06,4.332490556410894e-05,5.510926245845708e-07,6.395367237827942e-07,9.757146850988774e-07,9.803432640212101e-07,3.6316655899602456e-06,6.611567225750281e-06,1.304127055857953e-06,8.024161433476111e-05,9.57923841753201e-07,1.0774069009321927e-06,1.2501262009841935e-06,1.2880718694237082e-06
328,3.544389070349161e-05,4.093341588344284e-06,3.985707222653843e-06,4.32684621049559e-05,5.482927909841072e-07,6.650728518014864e-07,1.003381911150702e-06,9.974395706465808e-07,3.5370625161850898e-06,6.732191963435572e-06,1.3243913439348616e-06,8.148725667966606e-05,9.722461798408192e-07,1.09267566285061e-06,1.2544391726935584e-06,1.2472978993098084e-06
329,3.451183527368935e-05,4.0678406112566115e-06,4.0046227780302586e-06,4.3182897687020436e-05,5.457199803900249e-07,6.920185092598145e-07,1.0310483138321338e-06,1.0117093394104924e-06,3.4383643652675487e-06,6.838119235916589e-06,1.3493270639047025e-06,8.30325918665986e-05,9.840432044486416e-07,1.1072305676486703e-06,1.2580539532511362e-06,1.2077003834648605e-06
330,3.341744381202655e-05,4.034473812167557e-06,4.034325686945969e-06,4.3065518437733785e-05,5.434839693005755e-07,7.198289077689937e-07,1.058489388289833e-06,1.0226969229862403e-06,3.335931642313184e-06,6.930143887359627e-06,1.3787571734711811e-06,8.483334163670544e-05,9.933580854112468e-07,1.1205319841878633e-06,1.2607353944225842e-06,1.1697271630010907e-06
331,3.2185692397604113e-05,3.994079681244242e-06,4.073924794631031e-06,4.2917909723771435e-05,5.417742956368028e-07,7.479217171305768e-07,1.0853335227961164e-06,1.030098353972594e-06,3.2303555848657476e-06,7.0079153153648205e-06,1.4122828946983492e-06,8.683934836454033e-05,1.0002361616509287e-06,1.132069803921466e-06,1.26225204925999e-06,1.1337943466337078e-06
