,EMG1,EMG2,EMG3,EMG4,EMG5,EMG6,EMG7,EMG8,EMG9,EMG10,EMG11,EMG12,EMG13,EMG14,EMG15,EMG16
0,1.272498204383797e-07,8.892491942493124e-08,8.059994503839117e-08,3.689444950947369e-06,2.7078368466078207e-07,1.0286666641360608e-07,4.3276900431270245e-07,1.5830038311140288e-06,1.466790422413524e-06,5.892798500004474e-07,1.063666368164094e-07,-8.004957101498836e-08,-1.1930119614330904e-07,3.8975685038080054e-08,3.333446949005923e-08,4.692688012800018e-07
1,1.6267968021571941e-07,1.9228809477956823e-07,2.3850695029174947e-07,4.1806335520713515e-06,3.7355179608557903e-07,1.9781632970301625e-07,4.87469524439063e-07,1.8874509095763905e-06,2.0471097575746445e-06,6.462116469548672e-07,1.5606003977351786e-07,5.823985065901176e-07,2.2011741601492322e-08,9.493994325673679e-08,7.926467391572205e-08,5.614639204788066e-07
2,1.9978659662246893e-07,2.921208973314012e-07,3.877174441759287e-07,4.691629004251874e-06,4.772438958394877e-07,2.923384971811711e-07,5.435664600990469e-07,2.2168608912573456e-06,2.626950455657757e-06,7.040398915779755e-07,2.0579513883576052e-07,1.2217309801460374e-06,1.586075089183205e-07,1.506541874222246e-07,1.2560483788792885e-07,6.549085754641183e-07
3,2.3815749949174963e-07,3.8825341975062616e-07,5.272737277178082e-07,5.217916770191283e-06,5.811313502780473e-07,3.853151561212046e-07,5.998820190853041e-07,2.5712240138218433e-06,3.2032980516354514e-06,7.609385671397049e-07,2.551530692630315e-07,1.8188771386323661e-06,2.892484873272876e-07,2.0489117595772814e-07,1.7153527778636165e-07,7.483622299184415e-07
4,2.774114706627812e-07,4.804659016297499e-07,6.564266366908417e-07,5.755428735819344e-06,6.844227460157745e-07,4.7562191037664025e-07,6.55333987701546e-07,2.950030996509829e-06,3.7731733147292963e-06,8.154080666617776e-07,3.037322584590421e-07,2.359105691265506e-06,4.127531817435553e-07,2.5680302546695056e-07,2.1642690031253238e-07,8.408712587666145e-07
5,3.1723697266895383e-07,5.684598546112614e-07,7.746804800138905e-07,6.300677350792683e-06,7.863087894820048e-07,5.62146637023227e-07,7.090275494790987e-07,3.3522847574549767e-06,4.333648548833741e-06,8.664381884652421e-07,3.511684562075991e-07,2.8335162166775573e-06,5.280645982449619e-07,3.059739054652956e-07,2.597954700567804e-07,9.316548487365576e-07
6,3.5741376215930515e-07,6.518358029084629e-07,8.817572277190366e-07,6.850749962887137e-06,8.85997765535255e-07,6.438554200140916e-07,7.603994205134472e-07,3.776665165121579e-06,4.881953353715455e-06,9.135788892871607e-07,3.971886487640493e-07,3.23938348003308e-06,6.343978578746132e-07,3.5234577490080654e-07,3.0131824377687663e-07,1.0199610007710318e-06
7,3.977995628957292e-07,7.300898324714771e-07,9.775029254737208e-07,7.403222933509436e-06,9.82692864315026e-07,7.199065862150192e-07,8.092689298270962e-07,4.221770504849073e-06,5.4156804245568045e-06,9.567794799028364e-07,4.4164362172590727e-07,3.578996986915599e-06,7.313221224120161e-07,3.960774181547361e-07,3.408773086337825e-07,1.1051001300523533e-06
8,4.3827740731603185e-07,8.026729614292755e-07,1.0618262873054196e-06,7.95597742920806e-06,1.0755184106994622e-06,7.897346751229565e-07,8.557161969843771e-07,4.68627247687888e-06,5.933033614866662e-06,9.961209049258666e-07,4.844561402047163e-07,3.857436453538523e-06,8.186546618682532e-07,4.374226991930362e-07,3.785288145292864e-07,1.1865843629717806e-06
9,4.786944151418652e-07,8.691432493027511e-07,1.1347950260569802e-06,8.506867386892796e-06,1.1634661992559395e-06,8.530165144641936e-07,8.998772706986881e-07,5.16884290535721e-06,6.433008300227327e-06,1.0316418009549634e-06,5.255407409774119e-07,4.080593433235905e-06,8.962974855766143e-07,4.7666256343402377e-07,4.144248884166217e-07,1.2641465013915244e-06
10,5.188280065036189e-07,9.293322540047084e-07,1.1968808932719105e-06,9.053245738127676e-06,1.2454249993952704e-06,9.095756576094556e-07,9.417987297932329e-07,5.667876186439107e-06,6.9154332271257025e-06,1.063249742115226e-06,5.647920432801848e-07,4.2543304265864485e-06,9.642374083808461e-07,5.140663648208245e-07,4.4875394645027134e-07,1.3376035316979595e-06
11,5.583951416529753e-07,9.834089517566934e-07,1.249139019943587e-06,9.59143514827465e-06,1.3202965832163547e-06,9.59388327461732e-07,9.81426760112437e-07,6.181267442101642e-06,7.380830455197415e-06,1.0906894229615782e-06,6.021410424299337e-07,4.384410729051533e-06,1.0226761678744872e-06,5.498599376364063e-07,4.817066126132313e-07,1.4067361367248082e-06
12,5.971126332599782e-07,1.0318430280331917e-06,1.2931466568905357e-06,1.0116465915465959e-05,1.3871894790638967e-06,1.0026996605072277e-06,1.0186828564740803e-06,6.70653338370694e-06,7.829954544808187e-06,1.1135979801800871e-06,6.375976538026176e-07,4.476545168113024e-06,1.072089416149501e-06,5.842233270379963e-07,5.134554798472458e-07,1.4713143095930092e-06
13,6.34779105783584e-07,1.0753197852585521e-06,1.3307434289608094e-06,1.062246856841025e-05,1.4456557685704625e-06,1.0400669193234696e-06,1.0535142311081661e-06,7.241253312994076e-06,8.263083349828794e-06,1.1315940083995393e-06,6.712266539921388e-07,4.53636546679196e-06,1.1131873549836255e-06,6.173271739127264e-07,5.441324694558747e-07,1.5312194241228672e-06
14,6.713025994500581e-07,1.114610428099624e-06,1.3637398506174725e-06,1.1103624263758822e-05,1.495819123257563e-06,1.0722290581697916e-06,1.0858789420873057e-06,7.78354304385052e-06,8.67972194086635e-06,1.1443452222612279e-06,7.030819975896509e-07,4.5692831158703495e-06,1.1468766592000126e-06,6.493488080260965e-07,5.738039934186318e-07,1.5865320508282131e-06
15,7.066469739925641e-07,1.1504497145412523e-06,1.3937269934358157e-06,1.1555179162469171e-05,1.538236352462505e-06,1.0998996746430368e-06,1.1157212246023233e-06,8.332276083700009e-06,9.079242531391934e-06,1.1516535060626983e-06,7.331507183134388e-07,4.580233956040981e-06,1.1742264499577711e-06,6.804502656923859e-07,6.024606864516324e-07,1.637529685937187e-06
16,7.407614457211629e-07,1.183484878688834e-06,1.4220020306956845e-06,1.1974147796568264e-05,1.5735731557595577e-06,1.1236270924449212e-06,1.1429882464010305e-06,8.886791434509824e-06,9.462008497648318e-06,1.153571278372637e-06,7.61322978963964e-07,4.573493296427261e-06,1.1963803882274441e-06,7.107743023106124e-07,6.300282326888565e-07,1.6845900838411067e-06
17,7.735439300621845e-07,1.2142683306219022e-06,1.4495526336601354e-06,1.2359504286268937e-05,1.6023419886355698e-06,1.1437882901602174e-06,1.1676791961625903e-06,9.446107409192184e-06,9.830124869233117e-06,1.1504575534819396e-06,7.873719579324368e-07,4.55265711136615e-06,1.2144197839757373e-06,7.404479814628181e-07,6.564219359128209e-07,1.7280291299768002e-06
18,8.048136695007524e-07,1.2432510407176811e-06,1.4770581167345354e-06,1.271175452423163e-05,1.624801823789269e-06,1.1606726300783599e-06,1.1898767851116963e-06,1.0008349062211913e-05,1.0187365373254722e-05,1.1428961532193972e-06,8.109357242049722e-07,4.520619246554485e-06,1.229247889854162e-06,7.695492583628694e-07,6.816446943891412e-07,1.7679878186488763e-06
19,8.342714617454135e-07,1.2707610880504339e-06,1.5049027606352587e-06,1.3032040736812794e-05,1.6409567422232155e-06,1.1745355652337852e-06,1.2097076559667392e-06,1.0571018526459242e-05,1.0538312945630787e-05,1.1315420518966308e-06,8.315168167846557e-07,4.479508820842492e-06,1.2415515776517384e-06,7.980844736016891e-07,7.058287365381338e-07,1.8044240967275365e-06
20,8.614655711817254e-07,1.2969882039064793e-06,1.533219505714059e-06,1.332124082961841e-05,1.6506459021909333e-06,1.1855850782814724e-06,1.227239353174419e-06,1.1131705737096616e-05,1.088709618808666e-05,1.1170469220550976e-06,8.485351063924904e-07,4.430763978843115e-06,1.2518231998811919e-06,8.260325485631488e-07,7.291566155076985e-07,1.8371451292291962e-06
21,8.857846841634445e-07,1.3219981546868324e-06,1.5619601522391315e-06,1.3579545600677495e-05,1.6537607680560163e-06,1.1939994125059462e-06,1.2423907227365862e-06,1.1688517485107398e-05,1.1236223007773964e-05,1.1001136558714228e-06,8.614649537060255e-07,4.375339177577529e-06,1.2603823827889376e-06,8.534075733523578e-07,7.517577303329114e-07,1.8659119396400795e-06
22,9.065147386852586e-07,1.345739643869899e-06,1.5909527196675215e-06,1.3806624969441072e-05,1.6505163723760742e-06,1.2000203216017983e-06,1.2549065257506464e-06,1.2240060297573347e-05,1.1585829579686596e-05,1.0815528207355847e-06,8.700040106836328e-07,4.313899665193183e-06,1.2673820550794781e-06,8.802533947469969e-07,7.736735013671731e-07,1.8906396907466514e-06
23,9.229874450307515e-07,1.3680292957695486e-06,1.619925693377201e-06,1.4001985281338e-05,1.6416002978188329e-06,1.2040326450978403e-06,1.2644021848427042e-06,1.2785132811096055e-05,1.19333875082915e-05,1.0622365039615752e-06,8.741462628354181e-07,4.24697450602479e-06,1.2728598865363011e-06,9.065629934989136e-07,7.948727510719263e-07,1.911471880789211e-06
24,9.347608928420207e-07,1.3885586991159318e-06,1.6485160982061178e-06,1.4164891156685304e-05,1.628070761353343e-06,1.2065493026156923e-06,1.270460434160481e-06,1.3322267275001592e-05,1.2273824468072223e-05,1.0430525827120224e-06,8.740964133248745e-07,4.175106351463176e-06,1.2768532134406962e-06,9.322007828196098e-07,8.153143063932081e-07,1.9286257886841777e-06
25,9.417199027856707e-07,1.4069380982357474e-06,1.6762835808868355e-06,1.429360619755128e-05,1.6110649500335118e-06,1.208112335082576e-06,1.2727160576600327e-06,1.3849176703333475e-05,1.260000130692881e-05,1.0249402333630498e-06,8.701041505264652e-07,4.098989277044306e-06,1.2794639486718588e-06,9.568861163923765e-07,8.350580737218135e-07,1.9422614228171014e-06
26,9.440320734517051e-07,1.4227482783267147e-06,1.7027466185767544e-06,1.4384531239625406e-05,1.5915262353464698e-06,1.2091769115500634e-06,1.270879716710206e-06,1.4362074789831726e-05,1.2903339843175944e-05,1.0088781539677026e-06,8.62374203533105e-07,4.019579184928399e-06,1.280808288958114e-06,9.802188870585725e-07,8.543183466462876e-07,1.9525178403918475e-06
27,9.419978895120195e-07,1.435580215782446e-06,1.7274502264975578e-06,1.4432160916269018e-05,1.570094702350828e-06,1.2100436748710792e-06,1.2646912553260777e-06,1.4855042429743935e-05,1.3174347719868847e-05,9.957652889399522e-07,8.511278867940283e-07,3.938161940908284e-06,1.2809365298711452e-06,1.001700874644023e-06,8.7339449148009e-07,1.9595865492561466e-06
28,9.35939788599386e-07,1.4450836632248268e-06,1.7500514025786945e-06,1.4430120494006099e-05,1.5471504971559596e-06,1.2108616746817072e-06,1.2538206066817575e-06,1.532004479730895e-05,1.3402974592379672e-05,9.863141139478208e-07,8.367297074429757e-07,3.856288568491401e-06,1.2797836220248692e-06,1.0207431067654818e-06,8.925766956164671e-07,1.9637741386881767e-06
29,9.26235056544106e-07,1.451052089136236e-06,1.7703788105150295e-06,1.4372820885572545e-05,1.5229120027929147e-06,1.211673682684694e-06,1.2378217838657608e-06,1.5747932034004615e-05,1.3578947912456114e-05,9.810315101723134e-07,8.197363143701642e-07,3.7755071243708735e-06,1.2771667880793147e-06,1.0367180048949827e-06,9.121011500902919e-07,1.9655899511967936e-06
30,9.134049026988108e-07,1.4535026092693922e-06,1.7884165193066335e-06,1.4257208922008934e-05,1.4974794616303344e-06,1.2124527849276267e-06,1.2162428586057996e-06,1.612987972730926e-05,1.3692394703929841e-05,9.802502659815546e-07,8.008259725784766e-07,3.697061600173568e-06,1.2728777077418025e-06,1.0491000413396357e-06,9.321068480882246e-07,1.965775423775966e-06
31,8.981127989620366e-07,1.4526676352052527e-06,1.8041852077589358e-06,1.4084170889575681e-05,1.4708292037184367e-06,1.2131036072177596e-06,1.188843238887592e-06,1.6458601878279198e-05,1.3734970185296739e-05,9.841408855300783e-07,7.807066708454908e-07,3.621801487904173e-06,1.2668416784971356e-06,1.0575747779182705e-06,9.525699869745691e-07,1.965219128839253e-06
32,8.810572119548824e-07,1.4488810560259047e-06,1.817566626682492e-06,1.3859123309263247e-05,1.4428758306378738e-06,1.2134427582596753e-06,1.1557867730991073e-06,1.6729254897085178e-05,1.3701006992163594e-05,9.926808908131258e-07,7.600704919062245e-07,3.550234588494267e-06,1.2592308227318493e-06,1.0619837349968572e-06,9.732745944273531e-07,1.9648156895692738e-06
33,8.628470379573962e-07,1.4424177052789035e-06,1.828207131459279e-06,1.3591562050575944e-05,1.413622164528492e-06,1.2131696700919096e-06,1.1177148308312175e-06,1.694011514414381e-05,1.3587531189380746e-05,1.005629802735047e-06,7.395406225334213e-07,3.482564794181881e-06,1.2504608964023372e-06,1.0622289763174225e-06,9.938756546779596e-07,1.9653086490066674e-06
34,8.439332908765977e-07,1.4333572470285333e-06,1.835587387664017e-06,1.3293773204471955e-05,1.383278552705836e-06,1.211833296846646e-06,1.0756664017425765e-06,1.709274701286658e-05,1.3393220535228734e-05,1.022548079694514e-06,7.196050144858063e-07,3.418805065396333e-06,1.241076491162674e-06,1.0582848741510227e-06,1.0140323343181269e-06,1.9671797067362278e-06
35,8.246085182524725e-07,1.4215531724977405e-06,1.839189171737942e-06,1.2979104380167105e-05,1.35226006464337e-06,1.2088654528907178e-06,1.0308838090318107e-06,1.7191149867039448e-05,1.3118414791636333e-05,1.0428448902246676e-06,7.006054322495325e-07,3.3589420408622954e-06,1.2315916862771658e-06,1.0502516718365376e-06,1.0334926335840963e-06,1.970688586668123e-06
36,8.05059976719749e-07,1.4067795778361015e-06,1.838635863788995e-06,1.2660203630061947e-05,1.3210918030493674e-06,1.2037417054737995e-06,9.84603159212936e-07,1.7239813944956396e-05,1.2766935654215572e-05,1.0658178198390922e-06,6.82785124697717e-07,3.3028992573234907e-06,1.2223886022327914e-06,1.0383939191766978e-06,1.0520425282100213e-06,1.9760413214312703e-06
37,7.854597293429776e-07,1.3890182180351796e-06,1.833699199777659e-06,1.2347746194271163e-05,1.2903328723587987e-06,1.1961605997953535e-06,9.379295027797722e-07,1.72416165673254e-05,1.234728127978487e-05,1.0906747109121439e-06,6.663234072635384e-07,3.2503286107284524e-06,1.2137094401093262e-06,1.0231393737606968e-06,1.0694038604816114e-06,1.983516904808202e-06
38,7.660400736120007e-07,1.3687099286889702e-06,1.8241542856950785e-06,1.2050029213563177e-05,1.2605721094529026e-06,1.1860733782093526e-06,8.918163281338991e-07,1.719695525247643e-05,1.1871363887208968e-05,1.1165740734289374e-06,6.513266782415957e-07,3.200511713021876e-06,1.2056725842232199e-06,1.0049848279947439e-06,1.0852346474007529e-06,1.993432641575346e-06
39,7.470915567643193e-07,1.3468082613784877e-06,1.809679823859172e-06,1.1773254524393858e-05,1.2324255835635319e-06,1.1735587925476802e-06,8.470885841505049e-07,1.710462359625814e-05,1.1352009525097522e-05,1.142713506996788e-06,6.37836005102348e-07,3.1524393974090133e-06,1.1982542295350098e-06,9.843749859944794e-07,1.099229868220742e-06,2.005998707433698e-06
40,7.288912513628845e-07,1.3246427125755959e-06,1.789976364622297e-06,1.1521988230905106e-05,1.2064743559124413e-06,1.158665866172149e-06,8.044536677597781e-07,1.696366567554032e-05,1.0801088183449496e-05,1.1684335822708805e-06,6.258817852322761e-07,3.1049877445162055e-06,1.1912806758198642e-06,9.616786973836762e-07,1.111169949457467e-06,2.0211646376619136e-06
41,7.116375602586917e-07,1.303717033107256e-06,1.7649606090727387e-06,1.1299424049383931e-05,1.1831913534960407e-06,1.141342669451916e-06,7.64495387328836e-07,1.6775078210037704e-05,1.0228712218216106e-05,1.1932368077978172e-06,6.155283657598351e-07,3.057184881415392e-06,1.1845312011078845e-06,9.372877152956371e-07,1.1208519322646259e-06,2.038515894394048e-06
42,6.954345567031562e-07,1.2855305582294999e-06,1.7348099856127053e-06,1.110733712929251e-05,1.162914388757836e-06,1.1215190030965433e-06,7.276724212747407e-07,1.6542577347225727e-05,9.643203177918579e-06,1.2166694691349034e-06,6.068663936961829e-07,3.008502580940372e-06,1.1779486988619552e-06,9.117470393029675e-07,1.1280053078130664e-06,2.0572673582366167e-06
43,6.802887899215949e-07,1.2714382840961408e-06,1.6998296837001852e-06,1.0945791745946058e-05,1.145834650603228e-06,1.099293017444625e-06,6.943390916301565e-07,1.627206998355184e-05,9.051444522587514e-06,1.2381887559138122e-06,5.999793109326848e-07,2.9589979501367932e-06,1.1717790615834957e-06,8.857806523277762e-07,1.1322968396020014e-06,2.076361494184778e-06
44,6.660962396995299e-07,1.262555330255098e-06,1.6602989110039654e-06,1.0812802840249235e-05,1.1319581999913843e-06,1.0750378778916525e-06,6.647885694661072e-07,1.5970047425690587e-05,8.4591018637508e-06,1.2571386296839436e-06,5.949391298189318e-07,2.9092258109461018e-06,1.1664904768452734e-06,8.601804080580939e-07,1.1334109043342635e-06,2.094609810164314e-06
45,6.526814701928453e-07,1.259716546318179e-06,1.616490315585834e-06,1.0704196916946133e-05,1.1210638310773338e-06,1.0493066425699592e-06,6.392833607305438e-07,1.564203686707809e-05,7.870820552457511e-06,1.2728122765890985e-06,5.918418897241304e-07,2.8600083368193683e-06,1.1625661629278922e-06,8.356652316917276e-07,1.1311351960186166e-06,2.110829878828173e-06
46,6.399260291021677e-07,1.2634760325217714e-06,1.5688569530805714e-06,1.0613668406201433e-05,1.112694872126534e-06,1.0226404659854744e-06,6.180342706081821e-07,1.5292408956460336e-05,7.290858606196978e-06,1.2845921607757667e-06,5.908215364069883e-07,2.8121758211081985e-06,1.160368760342039e-06,8.128032047343648e-07,1.125419078523779e-06,2.1239971931122257e-06
47,6.278850262068903e-07,1.2741105149126482e-06,1.5181636860656282e-06,1.0532907297136854e-05,1.1061996721570208e-06,9.954626051176772e-07,6.011525092623068e-07,1.492535224824744e-05,6.7236843443768505e-06,1.2921379056834817e-06,5.920047935932047e-07,2.766328604082019e-06,1.1601304087001074e-06,7.919972291523416e-07,1.1164012948729372e-06,2.133393792402183e-06
48,6.167667124196462e-07,1.2916130382922513e-06,1.4654150971023567e-06,1.0452057736032822e-05,1.1008429835883979e-06,9.680955019784204e-07,5.886278291019349e-07,1.4545594061189688e-05,6.17383983430237e-06,1.2954485356357415e-06,5.954575605630378e-07,2.7226872570664443e-06,1.1619929182199048e-06,7.73511687237686e-07,1.1044001234545682e-06,2.138649196570378e-06
49,6.068092301951014e-07,1.315702958240523e-06,1.4116522898509988e-06,1.0360836429426676e-05,1.095986469349149e-06,9.408065701167289e-07,5.80337775091289e-07,1.4158124169071884e-05,5.645303040648437e-06,1.2947116907023154e-06,6.011911987766458e-07,2.6810968914063724e-06,1.1660393978453959e-06,7.575185143183836e-07,1.0898540002135363e-06,2.1396555610910565e-06
50,5.981868197584772e-07,1.3458749067775154e-06,1.3577792832950324e-06,1.0250089012543167e-05,1.0912590742322499e-06,9.137951693372043e-07,5.760649444319029e-07,1.3767241738119958e-05,5.141032635321293e-06,1.290103271872928e-06,6.092290577402078e-07,2.641084000020447e-06,1.1723073449356253e-06,7.441503753922363e-07,1.0732149703865103e-06,2.136493202827147e-06
51,5.909964360677363e-07,1.3814523455579068e-06,1.304515145543551e-06,1.0113239013177785e-05,1.0866109144337356e-06,8.871396478402645e-07,5.755236469883128e-07,1.3375500253220414e-05,4.662988996361853e-06,1.2817193862151266e-06,6.196515556869346e-07,2.601809320979658e-06,1.180793115111571e-06,7.33553377517554e-07,1.0548554235087956e-06,2.129443116200106e-06
52,5.852798579299545e-07,1.4215870252778828e-06,1.2524474674046986e-06,9.947188485233038e-06,1.0822122760191542e-06,8.608167710379088e-07,5.784009327168444e-07,1.2983191538217833e-05,4.212429482076009e-06,1.2696226195271597e-06,6.325579909990333e-07,2.561998765800712e-06,1.1914650457602147e-06,7.258948575405728e-07,1.0350890595063108e-06,2.1189974502981745e-06
53,5.81034470595914e-07,1.465205077642146e-06,1.2020817186592568e-06,9.75243396659841e-06,1.0782698103463879e-06,8.348390723048186e-07,5.843795186426124e-07,1.2588757353545226e-05,3.7901906549733107e-06,1.2538970098593044e-06,6.479961346384647e-07,2.520126759515863e-06,1.2042821499709073e-06,7.213185644151946e-07,1.0143133934306614e-06,2.105760219532381e-06
54,5.782250865273202e-07,1.5109685116100738e-06,1.1538203744722927e-06,9.532432864669677e-06,1.0748968130531863e-06,8.09386681969992e-07,5.931344135144561e-07,1.2189768953754962e-05,3.3968366834033435e-06,1.2346921148611492e-06,6.659310616134902e-07,2.47490715944894e-06,1.2191833496674003e-06,7.199046018337038e-07,9.931293533021959e-07,2.0902576184039266e-06
55,5.768351492318725e-07,1.5573494990668195e-06,1.107931337410341e-06,9.29248238092121e-06,1.0720859655116675e-06,7.847920930939772e-07,6.043552921691974e-07,1.1783861200082607e-05,3.032688067285745e-06,1.2122903951277444e-06,6.862376357389299e-07,2.425679761744356e-06,1.236039923311178e-06,7.21667148384684e-07,9.723063326515652e-07,2.072824014572295e-06
56,5.769377591957713e-07,1.6028604419684055e-06,1.064587716082152e-06,9.038392929106042e-06,1.0697020378651662e-06,7.614057630751722e-07,6.177964082481985e-07,1.1369382292530088e-05,2.697851096745799e-06,1.1871899417247598e-06,7.086797461640447e-07,2.372310116706132e-06,1.254628595138936e-06,7.265913850751297e-07,9.526353072367826e-07,2.0536835275209142e-06
57,5.787116129928735e-07,1.6463266831013351e-06,1.023938626691677e-06,8.775270340645277e-06,1.067463483512908e-06,7.394804214930231e-07,6.332807644155032e-07,1.0945755402403144e-05,2.39237074810506e-06,1.1601478507327808e-06,7.329009908798362e-07,2.314885177460859e-06,1.2746729258138758e-06,7.346765506097301e-07,9.348191921720701e-07,2.0331394976256216e-06
58,5.823744700702377e-07,1.687024408558227e-06,9.861219530697797e-07,8.506887349389645e-06,1.0649646695521529e-06,7.191526659327911e-07,6.50648266137237e-07,1.051357526692234e-05,2.116490136400461e-06,1.1321346597271663e-06,7.584624380746298e-07,2.253667363426239e-06,1.2959181890139836e-06,7.459307305745532e-07,9.194602030969632e-07,2.0117218616886316e-06
59,5.881025212185394e-07,1.7246291019434954e-06,9.512234275599146e-07,8.235874356681594e-06,1.0617158185633196e-06,7.004995614928495e-07,6.697312627255629e-07,1.0074517611618784e-05,1.870883350695166e-06,1.1042007678587892e-06,7.848960789070176e-07,2.189183521213894e-06,1.3181515466554158e-06,7.603247746437405e-07,9.070686625023327e-07,1.9902040644779468e-06
60,5.959966312009885e-07,1.7590409192736928e-06,9.19259084472314e-07,7.964322683321875e-06,1.0571570956973115e-06,6.836014416381026e-07,6.903942255090592e-07,9.631172624105655e-06,1.6567299033574484e-06,1.0773296455272559e-06,8.117197931827522e-07,2.1221278718773817e-06,1.341130753702013e-06,7.777672004526223e-07,8.98049586396872e-07,1.9694726503876286e-06
61,6.060856838327976e-07,1.790185777443391e-06,8.90227059536877e-07,7.694259159290351e-06,1.0507188780434344e-06,6.68554067685191e-07,7.125662007475667e-07,9.186830470578387e-06,1.4756143322154037e-06,1.052371204508826e-06,8.384229677514034e-07,2.0531714566837884e-06,1.36450110582758e-06,7.981277973547207e-07,8.927054631406604e-07,1.950328354140153e-06
62,6.183617486396252e-07,1.817886498169887e-06,8.641921783983165e-07,7.427816209073092e-06,1.041989209695311e-06,6.554241461780305e-07,7.362000130011692e-07,8.74509638200504e-06,1.3293632156848414e-06,1.0300463790575107e-06,8.644796898536014e-07,1.9829483045723406e-06,1.3877734808470029e-06,8.212738940486924e-07,8.912471919670363e-07,1.9333217413904586e-06
63,6.32833469194654e-07,1.8418205709617987e-06,8.413126199099642e-07,7.167219721817066e-06,1.030879076046784e-06,6.441903304087622e-07,7.611889340776027e-07,8.309243969120847e-06,1.219899853538339e-06,1.010939295218922e-06,8.894080763598056e-07,1.9121697112324877e-06,1.4103204496096063e-06,8.470717598696602e-07,8.937788815708751e-07,1.9186644171669357e-06
64,6.495276838669378e-07,1.861488290501714e-06,8.217690934407695e-07,6.914836171308849e-06,1.0176190263462213e-06,6.347232630972335e-07,7.873051038592586e-07,7.881589201457829e-06,1.1491069006364806e-06,9.954682854270629e-07,9.12816379111501e-07,1.8415918516177416e-06,1.431368287054109e-06,8.753541732636424e-07,9.002832400651672e-07,1.906195978133722e-06
65,6.684258079544183e-07,1.876184359695921e-06,8.056704018557533e-07,6.673380281565313e-06,1.0025873977091293e-06,6.268361452252738e-07,8.141790284252385e-07,7.463379486463182e-06,1.118718073114511e-06,9.83895541657219e-07,9.343903571196644e-07,1.7718283336574688e-06,1.4500576461151943e-06,9.058954953082739e-07,9.106252237541867e-07,1.8954046936353625e-06
66,6.894174954462031e-07,1.8850672803280415e-06,7.930168499244309e-07,6.44605025453095e-06,9.861385855994288e-07,6.203783843254945e-07,8.413093989105653e-07,7.055245076603357e-06,1.1302830599249721e-06,9.763725645149006e-07,9.53850415572251e-07,1.7032779437976511e-06,1.465605102905568e-06,9.384000162397346e-07,9.245466013701886e-07,1.8855667859333313e-06
67,7.123055350867749e-07,1.8873304597886114e-06,7.837277131416264e-07,6.236270567066438e-06,9.685293457954386e-07,6.152860184715974e-07,8.681043769957845e-07,6.657752856136186e-06,1.1851831380676774e-06,9.729613085440868e-07,9.709030157493136e-07,1.6362951913794942e-06,1.477483376169664e-06,9.724767356052658e-07,9.416604036234667e-07,1.8760133716798496e-06
68,7.368270850627058e-07,1.8823709377987858e-06,7.77690176082572e-07,6.047077385685156e-06,9.49898564458416e-07,6.115591880887107e-07,8.939788254730235e-07,6.271685207984133e-06,1.2846580166884882e-06,9.736252858201575e-07,9.852124335001279e-07,1.571396579190413e-06,1.4855023825154479e-06,1.0076301049791392e-06,9.614713552706702e-07,1.8663895480241184e-06
69,7.626777226693234e-07,1.8698986831046368e-06,7.747606150173195e-07,5.880555902756347e-06,9.302694896288495e-07,6.092438820298229e-07,9.184601251201266e-07,5.898024642472167e-06,1.4298356993425338e-06,9.782135743118099e-07,9.964521983206843e-07,1.5092448315305801e-06,1.4897586197817289e-06,1.0432887668499676e-06,9.83401891985378e-07,1.8567544057357034e-06
70,7.895230456443903e-07,1.8500021685794742e-06,7.747046632575198e-07,5.737683723686122e-06,9.095803939786925e-07,6.084403354145994e-07,9.411877356733576e-07,5.537837124692683e-06,1.6217253355451457e-06,9.864441085990106e-07,1.0044306391730873e-06,1.4505086363182747e-06,1.4905037320883495e-06,1.0788206654417762e-06,1.0068227647855803e-06,1.8474694718860342e-06
71,8.169856371890213e-07,1.823190292387595e-06,7.771428099740217e-07,5.6185762537943196e-06,8.87734622372379e-07,6.092636480203182e-07,9.618571170878734e-07,5.192255177409803e-06,1.861142828619772e-06,9.979142442832396e-07,1.0092044717168864e-06,1.3958471828077794e-06,1.4879922616879046e-06,1.11353967483781e-06,1.0311093458185139e-06,1.838947887559797e-06
72,8.446444139734475e-07,1.7904000437602393e-06,7.815417961162437e-07,5.522864419216863e-06,8.646618961701417e-07,6.117715303445952e-07,9.802487704140573e-07,4.862606765747134e-06,2.1486332863266997e-06,1.0121397480853064e-06,1.0111096269897361e-06,1.345980334756361e-06,1.4824073476200079e-06,1.1467345212011415e-06,1.0556897753529169e-06,1.831469124336061e-06
73,8.720572022682679e-07,1.7529315480789222e-06,7.872520900055344e-07,5.449920653775235e-06,8.403716623033006e-07,6.159683522802255e-07,9.96292795820304e-07,4.550567502105896e-06,2.48443305905285e-06,1.0285677545463097e-06,1.0106933531703746e-06,1.301686175001453e-06,1.4739307243387194e-06,1.1776777119213505e-06,1.0800640036509895e-06,1.825185826255794e-06
74,8.987725498485293e-07,1.7122796151742317e-06,7.936005221518656e-07,5.398820033452837e-06,8.149817459471974e-07,6.218978315954837e-07,1.010056042632679e-06,4.258221377303514e-06,2.8684190273421276e-06,1.0465555811375694e-06,1.008592264026298e-06,1.263725789655075e-06,1.4628518753430816e-06,1.2056563623095516e-06,1.1038088235241542e-06,1.82018114215258e-06
75,9.243359761520646e-07,1.6699002772045376e-06,8.000306050670789e-07,5.368151797716457e-06,7.887424571229302e-07,6.297059308205803e-07,1.0216683516359879e-06,3.988066196137458e-06,3.3000216518760972e-06,1.0654124328623985e-06,1.0054273436536574e-06,1.2327531585592647e-06,1.4495879147420272e-06,1.2301091833838576e-06,1.1265484232831868e-06,1.8164256873029627e-06
76,9.482961685546023e-07,1.6270331143464158e-06,8.062404792278394e-07,5.3559244374442504e-06,7.620568065211727e-07,6.395916761512093e-07,1.0312674350797383e-06,3.743053416498713e-06,3.7781257954267453e-06,1.084544140651638e-06,1.0017590322530252e-06,1.2092330456817462e-06,1.43461418046388e-06,1.2507778152983219e-06,1.147917819042244e-06,1.8137312245822819e-06
77,9.702000353952117e-07,1.5846650163279335e-06,8.12228463162886e-07,5.3597326908810425e-06,7.354450853589217e-07,6.517086103437194e-07,1.0390207537769292e-06,3.5266250223452042e-06,4.300967885729518e-06,1.1035514557269591e-06,9.981039497560288e-07,1.1933867173810457e-06,1.4183506751189096e-06,1.2677180814931032e-06,1.1675895060472592e-06,1.8118517987754077e-06
78,9.896557394624051e-07,1.5435924671362703e-06,8.18182030316282e-07,5.377161977453022e-06,7.094528077124474e-07,6.661079378466389e-07,1.0452066992686797e-06,3.342611870160863e-06,4.866038440873143e-06,1.122197792483131e-06,9.949526370475406e-07,1.1851824078363664e-06,1.4010798616534579e-06,1.2811558663952937e-06,1.1853153049631922e-06,1.8106614446636596e-06
79,1.0065016834626643e-06,1.5044960502535333e-06,8.243008204645543e-07,5.406284277767109e-06,6.845984968915898e-07,6.827245077288056e-07,1.0502512972732776e-06,3.1949457716393873e-06,5.469968883648007e-06,1.140364159182767e-06,9.927300679098313e-07,1.1843571174710636e-06,1.3829910173574586e-06,1.2913321828217787e-06,1.200920911200273e-06,1.810193639684599e-06
80,1.020892299150911e-06,1.4679887683790884e-06,8.307241681704366e-07,5.4460912238491966e-06,6.613958969157381e-07,7.013752612963444e-07,1.054645023377451e-06,3.0873035841114563e-06,6.1083849206227464e-06,1.1580183071287494e-06,9.917395938125216e-07,1.1904293395627658e-06,1.3643165034960056e-06,1.2984747473898712e-06,1.2143122051647842e-06,1.810516674123573e-06
81,1.0331701004122472e-06,1.4346281674315838e-06,8.375738859815572e-07,5.496719341017807e-06,6.403593970580813e-07,7.217701524248887e-07,1.0587945613351718e-06,3.022870067168012e-06,6.775762397766281e-06,1.175124580807795e-06,9.92139704806055e-07,1.2026859290413708e-06,1.3453982299997643e-06,1.3028547290839152e-06,1.2254977699068934e-06,1.8116683821031403e-06
82,1.0437160563905077e-06,1.4048848008806312e-06,8.449831394894084e-07,5.559346027770311e-06,6.219569206255779e-07,7.435323037831238e-07,1.062925853534139e-06,3.0042980029940985e-06,7.4652932446957215e-06,1.1915681392376856e-06,9.939286212202716e-07,1.2201839262273431e-06,1.3266039245435563e-06,1.3048249722201512e-06,1.2345646509072997e-06,1.8137517541890777e-06
83,1.0529537545566955e-06,1.3790834813748074e-06,8.530764159869483e-07,5.635740233760166e-06,6.06567266549827e-07,7.66206601620233e-07,1.0670834284318493e-06,3.0337632165223284e-06,8.168842100808822e-06,1.2071894824540478e-06,9.969312432222099e-07,1.2418286032163697e-06,1.3081793995070324e-06,1.3047956762805146e-06,1.241668669527496e-06,1.8170014584596345e-06
84,1.0613794804529102e-06,1.3573749873908777e-06,8.619843217195283e-07,5.72759677409373e-06,5.944659534233825e-07,7.892674394527981e-07,1.0711657805654097e-06,3.112980373240479e-06,8.877224582130851e-06,1.2218610050722174e-06,1.0008389604656808e-06,1.2665215696541289e-06,1.2901633052882685e-06,1.3031552619763402e-06,1.2470762228998395e-06,1.8216856890696766e-06
85,1.0694783794991014e-06,1.3397803357271395e-06,8.718960791187044e-07,5.8358884288594685e-06,5.858256336062003e-07,8.121476146708244e-07,1.0749168262909725e-06,3.2431521423046845e-06,9.580844703039539e-06,1.235507896016151e-06,1.005300430397723e-06,1.2932555504673541e-06,1.272400111585095e-06,1.300222453756048e-06,1.2511722243232875e-06,1.8279883499918545e-06
86,1.0776093814239244e-06,1.326264515116037e-06,8.830583836444269e-07,5.96047601344318e-06,5.807158373767882e-07,8.342662079521603e-07,1.0778816124042523e-06,3.4248806063588093e-06,1.0270305183069542e-05,1.2480684793895575e-06,1.009993044267302e-06,1.3210694676119498e-06,1.2545881842639051e-06,1.2962691238925556e-06,1.2544326057226415e-06,1.8359969100521873e-06
87,1.0859689870549495e-06,1.3167571213378535e-06,8.957296829665356e-07,6.100032311005959e-06,5.791008397319635e-07,8.550243542710999e-07,1.0794021015095135e-06,3.658071512244776e-06,1.0936507691115654e-05,1.2594262294890691e-06,1.0146405535660177e-06,1.348972838626304e-06,1.2363012779868431e-06,1.2915409418305904e-06,1.257386893998097e-06,1.8457233700360254e-06
88,1.0946130145856389e-06,1.3110955411980533e-06,9.101832988644787e-07,6.252128460703431e-06,5.808508731881936e-07,8.737996307130391e-07,1.0787034245236687e-06,3.941895320689006e-06,1.1570118002242934e-05,1.2693780786258053e-06,1.0189909626610513e-06,1.3759390486569727e-06,1.2170254180928761e-06,1.286255313226815e-06,1.26055600958729e-06,1.8571187144110658e-06
89,1.1034680063039765e-06,1.308943196872529e-06,9.267431221271871e-07,6.4133987172668855e-06,5.857634790477084e-07,8.900282711885858e-07,1.0750708180193508e-06,4.274877805826715e-06,1.216070501709332e-05,1.2777232929007493e-06,1.0227940826516202e-06,1.4009151676240406e-06,1.1963010401676056e-06,1.2805960323456537e-06,1.2644018829936122e-06,1.8700645627788602e-06
90,1.1123106860743955e-06,1.3097447032816916e-06,9.457510372015643e-07,6.579862138661359e-06,5.935913563566903e-07,9.03338445405056e-07,1.0680555042234383e-06,4.6550758499271424e-06,1.2696136163059723e-05,1.2844251723072836e-06,1.0258204895592496e-06,1.4228699548562891e-06,1.1739157266399465e-06,1.274712895121057e-06,1.2693087207649802e-06,1.8842840366411097e-06
91,1.1207581108381863e-06,1.3127326809599032e-06,9.67465793604656e-07,6.747427308584224e-06,6.04101949687011e-07,9.135605618475694e-07,1.0575880275941116e-06,5.080166130466424e-06,1.316281259927097e-05,1.289686189148768e-06,1.0279032484211849e-06,1.440975265882469e-06,1.1499635408775095e-06,1.2687540824557813e-06,1.275591427628729e-06,1.8992786706652024e-06
92,1.128324910192122e-06,1.3170146237558433e-06,9.919910180436383e-07,6.912447153483949e-06,6.171577885858949e-07,9.206273377485659e-07,1.0439209082272809e-06,5.547376137842366e-06,1.3546898275333437e-05,1.293889845168064e-06,1.028975509445825e-06,1.454852965528082e-06,1.1247385097826329e-06,1.2628820785621984e-06,1.2835089498091905e-06,1.914437305777458e-06
93,1.1345299530532706e-06,1.3217792566890938e-06,1.019278662438565e-06,7.072125874648239e-06,6.327510376919645e-07,9.245129337596164e-07,1.02746194128418e-06,6.0534026055962675e-06,1.383622621406226e-05,1.2974772347785284e-06,1.0291103162707009e-06,1.4646848815008722e-06,1.098622765503511e-06,1.2572034082521677e-06,1.2932300933910245e-06,1.929219408002399e-06
94,1.1389785172019048e-06,1.3265291418467135e-06,1.049156219394565e-06,7.2246406418727605e-06,6.509604830905506e-07,9.252434912216102e-07,1.0086288660491384e-06,6.5944384918903865e-06,1.4022328511374036e-05,1.3008002867254487e-06,1.0285213310345009e-06,1.4710621169701066e-06,1.0720608835977742e-06,1.2516767257000905e-06,1.304773564184266e-06,1.9432220123995485e-06
95,1.1413831087619389e-06,1.3311652529868419e-06,1.081324361640071e-06,7.369001230605457e-06,6.718727673485116e-07,9.229738968948667e-07,9.87786287711252e-07,7.166231006434494e-06,1.4101678485498112e-05,1.3039950992522047e-06,1.0274852115036224e-06,1.474697278499227e-06,1.045553918694522e-06,1.246116243583266e-06,1.3179790675159808e-06,1.9560968550146964e-06
96,1.1415314066459696e-06,1.33586322472606e-06,1.1153579605622803e-06,7.504811533043026e-06,6.955241754371679e-07,9.180758988704918e-07,9.652314647626542e-07,7.764052017072674e-06,1.4075123119343462e-05,1.3069381146173506e-06,1.0262524609340168e-06,1.4762662539835025e-06,1.019613048429907e-06,1.2403030869666103e-06,1.3325334074109028e-06,1.9674736432243964e-06
97,1.1392293929347698e-06,1.3408468536964506e-06,1.15075914875722e-06,7.63208097830115e-06,7.218688072946066e-07,9.111134339184639e-07,9.411787466827239e-07,8.382572522403184e-06,1.3945602026795392e-05,1.3092662836811855e-06,1.0250138931656028e-06,1.4764378941036258e-06,9.947062898973044e-07,1.2340931692124198e-06,1.3480722545700873e-06,1.9770719304756057e-06
98,1.1342873576978652e-06,1.3462615447141498e-06,1.1870351120846236e-06,7.751137066494897e-06,7.507514721843634e-07,9.027122004421583e-07,9.157574141575073e-07,9.0156817160348e-06,1.3716053979899405e-05,1.3104067349871433e-06,1.0239068967161849e-06,1.4759124842554616e-06,9.712283814525304e-07,1.22741932344854e-06,1.3642899090032223e-06,1.984934871846318e-06
99,1.1266045108921665e-06,1.3522489486757958e-06,1.2237303495478585e-06,7.862618231135373e-06,7.818813952248216e-07,8.934692337235613e-07,8.890885179692099e-07,9.656253168015078e-06,1.3389541545647362e-05,1.309669391469795e-06,1.0230814171526028e-06,1.4753574677664836e-06,9.494937742668974e-07,1.2202267397586106e-06,1.3809428416000179e-06,1.9915056550745264e-06
100,1.1162761668942764e-06,1.35908727119701e-06,1.260380836908807e-06,7.967448447359994e-06,8.148127196220702e-07,8.839602779703787e-07,8.61433298966006e-07,1.0295840805182764e-05,1.2971434580519235e-05,1.306448989078636e-06,1.0228145947748507e-06,1.4752855818441363e-06,9.297665878095786e-07,1.2124540317479793e-06,1.3977929707810092e-06,1.997433045894845e-06
101,1.1035765429536066e-06,1.3672169223283915e-06,1.2964650037915228e-06,8.066681260916875e-06,8.489547770324008e-07,8.747515797372733e-07,8.332986878615604e-07,1.0924313290720839e-05,1.2471538636920576e-05,1.3004123907068663e-06,1.0235192032406646e-06,1.4759697447674896e-06,9.122918277744362e-07,1.204060328358953e-06,1.414615494310842e-06,2.0032886354694887e-06
102,1.0888233006673316e-06,1.3771384260626755e-06,1.3314224597044795e-06,8.161247241638745e-06,8.836419659759557e-07,8.663601967987783e-07,8.054079232503599e-07,1.1529497035830387e-05,1.1904247745911351e-05,1.2915298722755036e-06,1.0255986131166861e-06,1.4774616907658588e-06,8.972587105229371e-07,1.195014530112622e-06,1.4312531464000147e-06,2.009407371240537e-06
103,1.0722879444829722e-06,1.3892864136303754e-06,1.3646730865986116e-06,8.251791782686875e-06,9.18265155687349e-07,8.592269459817242e-07,7.785642182543097e-07,1.2097091898875424e-05,1.1286553965038416e-05,1.2799698654973761e-06,1.0293015940765804e-06,1.47969441833797e-06,8.847199960526154e-07,1.1853103119970286e-06,1.4476093313342896e-06,2.0158588497789744e-06
104,1.054224919009596e-06,1.4039715752562664e-06,1.3956295026191422e-06,8.338739916890594e-06,9.524163716897407e-07,8.537438963085713e-07,7.5351174902507e-07,1.2611365386179924e-05,1.0635382579599186e-05,1.2659633983409064e-06,1.0346840065704655e-06,1.4825723000338924e-06,8.745523157625907e-07,1.1751154544172746e-06,1.4635734543288882e-06,2.022491543207908e-06
105,1.034933672522191e-06,1.421410633753048e-06,1.4238127011554153e-06,8.422496657268307e-06,9.859423983234415e-07,8.502749120286212e-07,7.308673124084903e-07,1.3056940502496305e-05,9.965814098992427e-06,1.2497014556125697e-06,1.0416511508184195e-06,1.4860212562364425e-06,8.664824054448741e-07,1.1649052017313746e-06,1.478986133686155e-06,2.029063029120672e-06
106,1.0147843084345085e-06,1.4417860332811596e-06,1.4490132813483806e-06,8.503495233113571e-06,1.0188441377519497e-06,8.491114014621184e-07,7.111247331715932e-07,1.342123934258746e-05,9.290573662879077e-06,1.2313077840613424e-06,1.0500053889319113e-06,1.4901059827430707e-06,8.601463801815748e-07,1.1553769334418192e-06,1.4936874039828364e-06,2.035373213438063e-06
107,9.942132086855497e-07,1.4652480135792951e-06,1.4713226863841563e-06,8.581839336803898e-06,1.0511067744154936e-06,8.504060836513226e-07,6.946926000586573e-07,1.3696490975652623e-05,8.620214083752291e-06,1.2109213296196553e-06,1.05948356319508e-06,1.4952134691612439e-06,8.551524183426941e-07,1.14722895341543e-06,1.5075419743194392e-06,2.041247463945815e-06
108,9.736931342424185e-07,1.4918325479576098e-06,1.4910343273787524e-06,8.656645854976215e-06,1.0826022511680825e-06,8.541586672438578e-07,6.819155040232696e-07,1.3880293370343793e-05,7.963365280165736e-06,1.1887828232546969e-06,1.0698388526502145e-06,1.5020793612151531e-06,8.511196404951311e-07,1.1410094938381478e-06,1.5203525496138317e-06,2.0463801220754805e-06
109,9.536682113085662e-07,1.521363326244648e-06,1.5085386885988288e-06,8.725620870008451e-06,1.1130938414838407e-06,8.602673546671657e-07,6.73072436924785e-07,1.397445255985665e-05,7.326833441416888e-06,1.1651819558572604e-06,1.0809364839881105e-06,1.511585237236073e-06,8.4767066737925e-07,1.137096186323406e-06,1.5317191081434731e-06,2.0502102474425543e-06
110,9.344781934308622e-07,1.5534297197358359e-06,1.5242372725971168e-06,8.785258775799745e-06,1.142274160752803e-06,8.686049778319956e-07,6.683781124747144e-07,1.3982643275963758e-05,6.715658583462465e-06,1.1403431300378553e-06,1.0927425916134748e-06,1.5245538513920898e-06,8.444168131149594e-07,1.1357310663417306e-06,1.540963831040832e-06,2.051994613897242e-06
111,9.163229225377456e-07,1.5874700889352472e-06,1.53843477722828e-06,8.831450548791888e-06,1.1697943600169539e-06,8.790620891115271e-07,6.679720778131548e-07,1.390805586512828e-05,6.133268401473796e-06,1.1143875281297343e-06,1.1051983860266937e-06,1.5416619654321357e-06,8.410008354420809e-07,1.1370375059177332e-06,1.547211988210576e-06,2.051070416750669e-06
112,8.992735816894616e-07,1.6229176421656136e-06,1.551272526238881e-06,8.860075518511092e-06,1.19529463172378e-06,8.915274316302164e-07,6.718837165264643e-07,1.3752385903474698e-05,5.581712693969088e-06,1.0873421290931063e-06,1.118127468264124e-06,1.5633684217333826e-06,8.371736018478284e-07,1.1410306499624682e-06,1.549621832881136e-06,2.0470828428904253e-06
113,8.832849288525729e-07,1.6593423241440351e-06,1.5627869758774738e-06,8.867407454413628e-06,1.2184541879317305e-06,9.058276448620922e-07,6.800073907256518e-07,1.351659007124113e-05,5.061890614934977e-06,1.0591641691714675e-06,1.1312950084258579e-06,1.5898405822696638e-06,8.328091310839011e-07,1.1476655878233855e-06,1.5476128090741774e-06,2.039943603464294e-06
114,8.681941969116768e-07,1.6965311949476006e-06,1.5730217552982084e-06,8.85041015068373e-06,1.2390634246824197e-06,9.21681530890692e-07,6.921011218052462e-07,1.3202417207869399e-05,4.573776818173411e-06,1.029823833116411e-06,1.1445707892664338e-06,1.6209713314565386e-06,8.278453439464138e-07,1.1568943676810457e-06,1.5409462720563098e-06,2.029558721689666e-06
115,8.537524478373267e-07,1.7344475944642248e-06,1.58206871603328e-06,8.807042421172451e-06,1.2570731635135548e-06,9.387079360932311e-07,7.077954784626666e-07,1.2813579386461125e-05,4.116724004746839e-06,9.994359413335107e-07,1.1580336194365829e-06,1.6564609638528094e-06,8.222841506538875e-07,1.1686636654426138e-06,1.529664324549082e-06,2.0156314368120614e-06
116,8.397118982174807e-07,1.7730729706662003e-06,1.5900136695712957e-06,8.73653139210338e-06,1.2725377161569085e-06,9.564518005937008e-07,7.266303527226107e-07,1.2356264765925916e-05,3.6898371410801473e-06,9.683811682807857e-07,1.1719062698009744e-06,1.6958433822806383e-06,8.162958431163032e-07,1.182846556190545e-06,1.5139954067519187e-06,1.9977880127934406e-06
117,8.259267243004175e-07,1.8122886396367174e-06,1.5968283729926723e-06,8.639405732406915e-06,1.2854584453192278e-06,9.743627668818498e-07,7.481403532590689e-07,1.183913636122824e-05,3.292308743271192e-06,9.373460870705729e-07,1.1863909773909412e-06,1.7385058754866077e-06,8.10249502314664e-07,1.1991623563587192e-06,1.4943455850283664e-06,1.9759282169246765e-06
118,8.124077685244352e-07,1.8519082325139114e-06,1.6022848165727468e-06,8.51716667510975e-06,1.2956725628960947e-06,9.917577715257273e-07,7.719434186209961e-07,1.1272934907761213e-05,2.923551157032535e-06,9.072508461233576e-07,1.2015579140514234e-06,1.7838942968677582e-06,8.04583480487378e-07,1.2171429590717511e-06,1.4713771636273076e-06,1.950434923099017e-06
119,7.992921469475316e-07,1.891764744686912e-06,1.606001747513835e-06,8.371775282201234e-06,1.3028884917772359e-06,1.0078812606202074e-06,7.977611216971058e-07,1.0669808922753416e-05,2.583044691817429e-06,8.79125793601666e-07,1.2173223206208324e-06,1.8318779024044511e-06,7.996696025037988e-07,1.236171876039733e-06,1.4460063091330775e-06,1.9220240060101636e-06
120,7.867490878774298e-07,1.93176913960034e-06,1.6076489120575998e-06,8.205301762720879e-06,1.3068131294648898e-06,1.0220821322040529e-06,8.253642871241346e-07,1.004260009166163e-05,2.2701365001938964e-06,8.539968663847161e-07,1.233466106836284e-06,1.8830037973231294e-06,7.957860365309715e-07,1.2555864974770588e-06,1.4192286817498614e-06,1.8914378432296664e-06
121,7.749012335418078e-07,1.9719300057634855e-06,1.6071563427385776e-06,8.019877798655841e-06,1.3072818399007626e-06,1.0339646152960978e-06,8.54488665068034e-07,9.404295050640677e-06,1.984049007534795e-06,8.327965361165331e-07,1.2496796716308715e-06,1.9384884605641966e-06,7.931364226558027e-07,1.274808504028821e-06,1.3919355485063848e-06,1.8593225543200764e-06
122,7.63810577476565e-07,2.0122828574468405e-06,1.6047497289539662e-06,7.817769859363275e-06,1.3043352552371633e-06,1.0433762294823913e-06,8.847560506827619e-07,8.767687128230356e-06,1.7239372476435621e-06,8.163236901598735e-07,1.2655799978302553e-06,2.0000671512769197e-06,7.91842385746516e-07,1.2934398124651528e-06,1.3648664679591992e-06,1.8263069419953834e-06
123,7.535410564256212e-07,2.0527423374089213e-06,1.6008208335089773e-06,7.6013036756138315e-06,1.2981810842001451e-06,1.0502716522511872e-06,9.156210762063133e-07,8.145139458755444e-06,1.4887939606981478e-06,8.05250103317011e-07,1.280674663624532e-06,2.069858388526855e-06,7.919405948008239e-07,1.3112489147755286e-06,1.3386345609468145e-06,1.7930340801089354e-06
124,7.442659611619407e-07,2.0930024343612657e-06,1.5957992551390269e-06,7.3725083082744075e-06,1.289038305437687e-06,1.0546048159177776e-06,9.463544860584944e-07,7.5482985289151335e-06,1.2773195300275448e-06,8.001491373391315e-07,1.2943397851703085e-06,2.1502039832341215e-06,7.93410860690327e-07,1.328046443294932e-06,1.3137328089593612e-06,1.760047969862263e-06
125,7.363015319042965e-07,2.13258153435744e-06,1.590138571820061e-06,7.132676363378458e-06,1.2769806527297622e-06,1.0563157727175146e-06,9.760763547380023e-07,6.987724837821989e-06,1.0879063266115881e-06,8.015409209723606e-07,1.3059061842510674e-06,2.2433999060937385e-06,7.961864748210165e-07,1.3435827115185534e-06,1.290517946683198e-06,1.7276910847997667e-06
126,7.300116850611285e-07,2.1709977360518125e-06,1.5843604165420374e-06,6.8823432879040876e-06,1.2619078865443925e-06,1.0553469782493606e-06,1.003851594110664e-06,6.472617591871742e-06,9.18764447260662e-07,8.099351575548415e-07,1.3148021651909354e-06,2.3514238173834255e-06,8.00122751936948e-07,1.3575413130415224e-06,1.2692216520979816e-06,1.6961250022949322e-06
127,7.256935382179696e-07,2.2079679585386963e-06,1.5790205212024227e-06,6.6218414493758105e-06,1.243668316471121e-06,1.0516683747063373e-06,1.0287961075168413e-06,6.010846118411406e-06,7.681325670238047e-07,8.258460792147776e-07,1.3205843111684165e-06,2.475810266391502e-06,8.049768891036938e-07,1.369534909969377e-06,1.2500057146833164e-06,1.665416587719531e-06
128,7.235457328581199e-07,2.2434938226023743e-06,1.5745664732906407e-06,6.35188763458343e-06,1.2222559607026331e-06,1.045367257304257e-06,1.0500991546821716e-06,5.6092338419872455e-06,6.344305345349397e-07,8.497925994697319e-07,1.3228541403207978e-06,2.617664900413935e-06,8.104472287267712e-07,1.3790651848615369e-06,1.2329793078044775e-06,1.6356325092788677e-06
129,7.237050451211771e-07,2.2777459516271552e-06,1.5712072960484868e-06,6.07371157591338e-06,1.1979611493683162e-06,1.036738382325836e-06,1.06697338034413e-06,5.273811347913216e-06,5.162704297290394e-07,8.822839446206287e-07,1.3212489714953025e-06,2.777747782469812e-06,8.162334996013809e-07,1.3855062380690947e-06,1.2181558826406609e-06,1.6069233195533334e-06
130,7.262833664853152e-07,2.3108014956039125e-06,1.5688891488791217e-06,5.788839835102622e-06,1.171376525020642e-06,1.0262435749402842e-06,1.0786583237440903e-06,5.009886423978763e-06,4.123833788862802e-07,9.23765675010213e-07,1.3155611354085345e-06,2.9565735068370943e-06,8.220436005201221e-07,1.388171889346374e-06,1.205460947325891e-06,1.5795608495334423e-06
131,7.313602889585559e-07,2.342425440612524e-06,1.5673521743212444e-06,5.498891138008658e-06,1.1432521601182399e-06,1.0143759568850743e-06,1.0845373060403374e-06,4.82200143834218e-06,3.215322598781563e-07,9.74554790434874e-07,1.305853118584354e-06,3.1544222980991757e-06,8.275652057354645e-07,1.386484988692244e-06,1.1948149076348975e-06,1.5539291548016497e-06
132,7.389725944518317e-07,2.3720014509895745e-06,1.5662307581250529e-06,5.205526470571652e-06,1.1142911127089736e-06,1.0015526541456112e-06,1.0843083519821828e-06,4.713846536533708e-06,2.424516208294401e-07,1.0348212932888466e-06,1.292476621425129e-06,3.3711945421199516e-06,8.324928423602675e-07,1.3801442630473903e-06,1.1861729107483622e-06,1.530505637213568e-06
133,7.49161382429236e-07,2.398570866901446e-06,1.5651593027326588e-06,4.91045114044759e-06,1.085005572858956e-06,9.88066772593224e-07,1.0781202053397854e-06,4.688150071368275e-06,1.7383884976843634e-07,1.1046352781747832e-06,1.275995402483284e-06,3.6062424443004334e-06,8.365998611605199e-07,1.3691973078135248e-06,1.179458472830869e-06,1.509846000914647e-06
134,7.620295506260604e-07,2.420971536421671e-06,1.5638004739979688e-06,4.615363652666973e-06,1.0557015931047232e-06,9.740877469045725e-07,1.0665932923534422e-06,4.746619066527234e-06,1.1438134886233506e-07,1.1840388918143239e-06,1.2570401384149882e-06,3.858408785990098e-06,8.39754741488204e-07,1.3540364794956546e-06,1.174461089005509e-06,1.4925719326330982e-06
135,7.777241536064985e-07,2.438020768149704e-06,1.5617606618029984e-06,4.321905651912044e-06,1.0265712763104291e-06,9.597134724085982e-07,1.0507079761102037e-06,4.889977501325287e-06,6.280612431410684e-08,1.2730647668204374e-06,1.236159227490053e-06,4.126384975559755e-06,8.41905835428267e-07,1.33531300985297e-06,1.1707925054524493e-06,1.4793343371675422e-06
136,7.963498577902605e-07,2.448563396975063e-06,1.5584655707780047e-06,4.031703540663197e-06,9.978009811358853e-07,9.450166071755792e-07,1.0316427648544275e-06,5.1180381072710025e-06,1.7939843703362468e-08,1.3716955837299932e-06,1.2137621841073775e-06,4.40928852211258e-06,8.431139035782642e-07,1.3137753831585834e-06,1.167915389564511e-06,1.4707154601420473e-06
137,8.178858939397771e-07,2.45139309496666e-06,1.5530999221314558e-06,3.7464630294211834e-06,9.69601756535836e-07,9.300189356158532e-07,1.0106434304717475e-06,5.429720392082239e-06,-2.123999129083454e-08,1.4798307822663138e-06,1.1901840612833198e-06,4.707207525748643e-06,8.435597853119229e-07,1.2901320641603721e-06,1.1652306101986582e-06,1.4671248709879325e-06
138,8.421506947357789e-07,2.4452943231915438e-06,1.5446735806864409e-06,3.467999922801945e-06,9.42159276230305e-07,9.1465154601672e-07,9.889210929774394e-07,5.822989737914196e-06,-5.554340325128001e-08,1.5972680968851581e-06,1.165778641900917e-06,5.021512812291644e-06,8.434834090462468e-07,1.265000436476087e-06,1.1622260685602396e-06,1.468770769326755e-06
139,8.688044707265484e-07,2.4292790466237315e-06,1.5322133710086599e-06,3.198133563099181e-06,9.155793810105663e-07,8.987898425961933e-07,9.67559768421175e-07,6.294748459763987e-06,-8.55026784404335e-08,1.7236531058980853e-06,1.1409509054037207e-06,5.3548414009539855e-06,8.431490507685441e-07,1.2388757427144075e-06,1.1586132852894414e-06,1.4757018193179593e-06
140,8.973589378445501e-07,2.4028349654646655e-06,1.515001513529138e-06,2.9384649916008704e-06,8.89871651865751e-07,8.823446401945391e-07,9.474554474758137e-07,6.8407256584124755e-06,-1.113706782957198e-07,1.858398203319151e-06,1.1161378795458296e-06,5.710686641470848e-06,8.428488910544086e-07,1.2120948225808438e-06,1.1543325386381548e-06,1.4878607164421796e-06
141,9.271755109265968e-07,2.3660643862913762e-06,1.4927348543105053e-06,2.690193603924779e-06,8.649840824690403e-07,8.653441995514951e-07,9.293111715472119e-07,7.455378789229115e-06,-1.33182203731966e-07,2.000661374218594e-06,1.0917720840932283e-06,6.092685990981317e-06,8.428797218458158e-07,1.1848574163304394e-06,1.1494377965530317e-06,1.5050947817374277e-06
142,9.574786607454271e-07,2.319719000575427e-06,1.4655300714269395e-06,2.454145221720165e-06,8.408776948845672e-07,8.479717306360011e-07,9.136632088685241e-07,8.131789000338146e-06,-1.508083922296194e-07,2.14944935919287e-06,1.0682376882449724e-06,6.50389607143922e-06,8.435078236643467e-07,1.1572708722186081e-06,1.1440299529257323e-06,1.5271685271952845e-06
143,9.874299759293322e-07,2.265121160080572e-06,1.4337925632426073e-06,2.2310040900281034e-06,8.175604594132048e-07,8.305471073861337e-07,9.008913362747156e-07,8.86153331788019e-06,-1.6397570595671233e-07,2.3037520094721897e-06,1.0458505861032498e-06,6.946346488287039e-06,8.449676063824151e-07,1.1293437214468887e-06,1.1382889535269824e-06,1.55380914061211e-06
144,1.0162557009065975e-06,2.203967038341534e-06,1.3980213381847403e-06,2.0215867749875963e-06,7.95070778063628e-07,8.13456074008485e-07,8.91216929544398e-07,9.63450184553104e-06,-1.7224404803878093e-07,2.4625681488255704e-06,1.0248644408424226e-06,7.420972560575768e-06,8.474709041395776e-07,1.1009898668458926e-06,1.1324504729834722e-06,1.5846674731770482e-06
145,1.0433715110918274e-06,2.138073445105464e-06,1.3586697891532757e-06,1.8269972784441425e-06,7.734984356917717e-07,7.970585554784605e-07,8.847138857702018e-07,1.0438665302410462e-05,-1.7496202361628196e-07,2.624822337500764e-06,1.0054459433403159e-06,7.927744585699377e-06,8.512039827654263e-07,1.0721204283466405e-06,1.126724424532425e-06,1.6192011488238997e-06
146,1.0684589834914458e-06,2.069139353845302e-06,1.3161578248967022e-06,1.6486008045355107e-06,7.530173389648081e-07,7.816559350472952e-07,8.813150227038505e-07,1.1259931571816634e-05,-1.7126593732551823e-07,2.7892851784585154e-06,9.876210386850211e-07,8.46567638408078e-06,8.563549212153696e-07,1.0427474337565328e-06,1.1212698392622473e-06,1.6566855977431318e-06
147,1.091482747786243e-06,1.998555501917867e-06,1.2709793299137265e-06,1.4878842240222752e-06,7.338437647602021e-07,7.675600104413822e-07,8.808027844987947e-07,1.2082256736441487e-05,-1.6012206653204676e-07,2.95459037198983e-06,9.71258013348404e-07,9.032611291150907e-06,8.631418299765703e-07,1.0129880848618205e-06,1.1161688349971732e-06,1.6964244467465555e-06
148,1.1126395537947928e-06,1.9272957897207624e-06,1.2237776907885229e-06,1.3463067193210774e-06,7.161790247402288e-07,7.551787763781367e-07,8.828197390341559e-07,1.288811218938578e-05,-1.4035445708970521e-07,3.1193662832067323e-06,9.561255868556997e-07,9.625065929552957e-06,8.71752022940646e-07,9.830169500854201e-07,1.1113689114191064e-06,1.7379667673160815e-06
149,1.1322372493037094e-06,1.8559134233534245e-06,1.1753468431094333e-06,1.2251904454287235e-06,7.002217125886139e-07,7.450123492959892e-07,8.869423950606145e-07,1.3659467021341148e-05,-1.106595418655376e-07,3.282425976830161e-06,9.419957838075123e-07,1.0238550536337903e-05,8.822480866294263e-07,9.530808549135042e-07,1.1067164389090957e-06,1.7810983278322435e-06
150,1.1505843642880936e-06,1.7846119011756523e-06,1.12657306033394e-06,1.1257057943989086e-06,6.861890950804359e-07,7.375629208238292e-07,8.928036795329343e-07,1.437939147013005e-05,-6.960084727422227e-08,3.44292826697975e-06,9.286924503748643e-07,1.0868464977503396e-05,8.945725354856986e-07,9.235333781468542e-07,1.1021062369608273e-06,1.825624412328996e-06
151,1.1679963771819058e-06,1.7133409780033409e-06,1.0783325858053473e-06,1.0489825392585923e-06,6.742753581729854e-07,7.332395548998086e-07,9.001574833799369e-07,1.5033980944890642e-05,-1.5570459913859265e-08,3.6004228318928958e-06,9.160394289908877e-07,1.151116640601223e-05,9.086415933421753e-07,8.947733061557209e-07,1.097582478251141e-06,1.8712105081458946e-06
152,1.1848632964647815e-06,1.6418921604633798e-06,1.0313925027343722e-06,9.962392131490642e-07,6.645842826268262e-07,7.323114385054672e-07,9.088114308421613e-07,1.5613886426812622e-05,5.321629333202984e-08,3.754679639432234e-06,9.037851390134171e-07,1.2164658151016968e-05,9.243954903918015e-07,8.671271304728214e-07,1.0932830817735534e-06,1.9174362976391396e-06
153,1.201625593893926e-06,1.5700073416886768e-06,9.863784102369895e-07,9.687938737594682e-07,6.57090876457538e-07,7.349076674692982e-07,9.18520014396884e-07,1.6114743602184234e-05,1.38665011586862e-07,3.905368722209963e-06,8.915606718447332e-07,1.2828611732857142e-05,9.417514015469386e-07,8.40797172381349e-07,1.0893561173466595e-06,1.963904884486613e-06
154,1.2186541370354664e-06,1.4975280635974387e-06,9.437960359557584e-07,9.679668479602946e-07,6.51640147182169e-07,7.41039972143963e-07,9.289461724699443e-07,1.6536201247896913e-05,2.427455993738137e-07,4.051921202040801e-06,8.788710348592793e-07,1.3503598931097806e-05,9.605362181997787e-07,8.158825094553749e-07,1.0859686097307006e-06,2.01021198493817e-06
155,1.2361560080532727e-06,1.4245583284521734e-06,9.040343712293417e-07,9.94989302084397e-07,6.47979317322569e-07,7.506214949051012e-07,9.396599273211222e-07,1.6879751529366877e-05,3.6745238242763113e-07,4.193682915334214e-06,8.651543783063754e-07,1.4189814600147474e-05,9.804446320246432e-07,7.924132544615568e-07,1.0833093336300235e-06,2.0558157320447926e-06
156,1.2541761050243435e-06,1.3515545561748407e-06,8.673404421618777e-07,1.0510020846372992e-06,6.458112112609655e-07,7.634652665696033e-07,9.501507550614273e-07,1.7146247751420014e-05,5.147595233209084e-07,4.3300157215400265e-06,8.499214217064802e-07,1.4886619575767318e-05,1.0010090490618575e-06,7.704009078831076e-07,1.081511685768621e-06,2.099980123646826e-06
157,1.2726471108981608e-06,1.2792854346329611e-06,8.338166493252711e-07,1.1371052049070487e-06,6.448362240383516e-07,7.792691125611255e-07,9.599122835931942e-07,1.733466778670969e-05,6.865937129116159e-07,4.460139664918912e-06,8.328660070410087e-07,1.55939520300718e-05,1.0216062321705213e-06,7.498952966634686e-07,1.0805987043912232e-06,2.141875521732839e-06
158,1.2913832284791813e-06,1.208685773214701e-06,8.034493365070466e-07,1.2543398249521703e-06,6.447717456475989e-07,7.976179885612645e-07,9.685865945387574e-07,1.744291737178148e-05,8.848835546993986e-07,4.5829461913943186e-06,8.138539988498385e-07,1.6314387441379614e-05,1.041540891563566e-06,7.309737257520422e-07,1.0805051089507555e-06,2.1807424135717033e-06
159,1.3100141305885758e-06,1.1406747295212847e-06,7.761329307505094e-07,1.403590686498838e-06,6.453842350454684e-07,8.180198124664411e-07,9.760670477618628e-07,1.746964190124538e-05,1.1116859274544247e-06,4.6970409740150084e-06,7.929143170772062e-07,1.7053568291160384e-05,1.0601768435277163e-06,7.136613196102738e-07,1.081103131596844e-06,2.215923838477569e-06
160,1.3279605793777725e-06,1.076008439182681e-06,7.516892530623018e-07,1.585502081070132e-06,6.46558506600855e-07,8.399382640063614e-07,9.825047638377505e-07,1.741561869703039e-05,1.3692474545170348e-06,4.8010368522216725e-06,7.703467026426389e-07,1.781847710548728e-05,1.077020494001467e-06,6.978724322245311e-07,1.08223458202054e-06,2.246715503231991e-06
161,1.344521814240895e-06,1.015207082956814e-06,7.299014444695569e-07,1.8004680438575745e-06,6.483602024552462e-07,8.628035627687118e-07,9.882524440748697e-07,1.7284273857825522e-05,1.6598745631371701e-06,4.8939579171891134e-06,7.467797687043322e-07,1.861550953497671e-05,1.0917201239766005e-06,6.834259292867852e-07,1.083826500662906e-06,2.2722883626928164e-06
162,1.3590445896462867e-06,9.585563108903582e-07,7.105482683647549e-07,2.0487005947794357e-06,6.510186261722397e-07,8.860464227996474e-07,9.937956773661364e-07,1.7081514819042243e-05,1.9857011404799215e-06,4.975553827256779e-06,7.230324718463222e-07,1.9450390978680324e-05,1.1040463548658768e-06,6.701026700425673e-07,1.0860084834304558e-06,2.291908324693224e-06
163,1.3710183245826283e-06,9.06168415311347e-07,6.934378738572686e-07,2.330315235529637e-06,6.548284741503754e-07,9.091732426647015e-07,9.996732130969572e-07,1.681515415619138e-05,2.3485323050901186e-06,5.046349822760236e-06,6.999130681597917e-07,2.0329419364991516e-05,1.1138909035636987e-06,6.576794913243554e-07,1.0890674258519237e-06,2.3052688937026154e-06
164,1.380007443369406e-06,8.580783515515256e-07,6.78454554114092e-07,2.645343205234821e-06,6.600557512230459e-07,9.318161777124757e-07,1.0063813457097418e-06,1.6494118293930815e-05,2.7498293958298677e-06,5.107388834534574e-06,6.781207664371644e-07,2.125995369123859e-05,1.1212302703270458e-06,6.459327356894211e-07,1.0932770097943853e-06,2.3126156989725587e-06
165,1.3855973614068468e-06,8.143173975636218e-07,6.655902252243339e-07,2.993657521082957e-06,6.669034828696519e-07,9.536965775771202e-07,1.0143108500758655e-06,1.6127639075686898e-05,3.19080285307187e-06,5.159765202643971e-06,6.58234617868444e-07,2.2249132245701572e-05,1.1260180855902256e-06,6.346666636970727e-07,1.098781007139916e-06,2.3145812201973137e-06
166,1.387507994036741e-06,7.749132162972824e-07,6.549280192243168e-07,3.3748949602706296e-06,6.755120196524456e-07,9.74562442517395e-07,1.0237415411348295e-06,1.5724640318799415e-05,3.6725325914134395e-06,5.204120057508621e-06,6.407136730220459e-07,2.33015581117401e-05,1.1280677533861546e-06,6.237804190914889e-07,1.105595619349609e-06,2.3118774883330766e-06
167,1.385742052717005e-06,7.398360701411914e-07,6.465887683072796e-07,3.788456343432946e-06,6.859862245600372e-07,9.942307775961762e-07,1.0348385256617196e-06,1.5293313025636733e-05,4.196017158075698e-06,5.240321943314847e-06,6.258948491737248e-07,2.441738832328784e-05,1.1270325813700904e-06,6.133145608958244e-07,1.1136513501841455e-06,2.3050814840086486e-06
168,1.380615265468054e-06,7.089655959640619e-07,6.406728882357843e-07,4.233579077558705e-06,6.984422401554766e-07,1.0127305237733683e-06,1.0476182206483761e-06,1.4840627675598888e-05,4.762155858069106e-06,5.267539159233997e-06,6.139955557245772e-07,2.5591417287859004e-05,1.1225514431907317e-06,6.03443794829232e-07,1.1227993805670258e-06,2.294600900343714e-06
169,1.3726951270664851e-06,6.821204543505836e-07,6.372151166049607e-07,4.709423264851664e-06,7.130120614625444e-07,1.0303792938249475e-06,1.0619330688688475e-06,1.4371660067422075e-05,5.371770745409964e-06,5.284641803687665e-06,6.05123729553108e-07,2.6812644864686068e-05,1.114505612894108e-06,5.944464106956572e-07,1.1327924224288748e-06,2.2807309831569195e-06
170,1.3627031999645344e-06,6.591217588838011e-07,6.361530668644247e-07,5.215149625832152e-06,7.298169578712889e-07,1.0476920037042163e-06,1.07751068062963e-06,1.3889099530588983e-05,6.025645571828004e-06,5.290613379449454e-06,5.99302904632641e-07,2.8063883791582783e-05,1.1031947763825196e-06,5.866589623733478e-07,1.1432709131216049e-06,2.2637880328415256e-06
171,1.3513903258106193e-06,6.39846146592417e-07,6.373131111811845e-07,5.749968862466471e-06,7.489741426064939e-07,1.0652090044028298e-06,1.09402102649093e-06,1.339356014604382e-05,6.724399957978612e-06,5.284793685774604e-06,5.964942044825072e-07,2.9321470977534055e-05,1.0892818969713669e-06,5.804110166614017e-07,1.1537621900582519e-06,2.244317470186522e-06
172,1.3394184977316862e-06,6.242478597440444e-07,6.404087700246431e-07,6.313089419509973e-06,7.706093046417636e-07,1.0833903146569862e-06,1.1111370988870647e-06,1.288479084835879e-05,7.4681427654756545e-06,5.267014836164043e-06,5.965955622774048e-07,3.055542737188079e-05,1.0735812280968206e-06,5.759782802015309e-07,1.163710298678389e-06,2.223200147767094e-06
173,1.3272992616687477e-06,6.123343247854141e-07,6.450453088165845e-07,6.9035471056373315e-06,7.94838375033768e-07,1.1026037487334205e-06,1.1285535300521568e-06,1.2363197765756525e-05,8.256037542252263e-06,5.237664303851704e-06,5.994346956788326e-07,3.1730739092199304e-05,1.0568820079324133e-06,5.73572376809946e-07,1.1725687066266464e-06,2.2015208285460057e-06
174,1.3153816783120723e-06,6.041098440793772e-07,6.507594185605859e-07,7.520019648014844e-06,8.217656765392212e-07,1.1231211656256337e-06,1.1459377357429314e-06,1.1831080563232405e-05,9.08588092252212e-06,5.19764912713756e-06,6.047669348056314e-07,3.281027925964613e-05,1.0398838683023523e-06,5.733424943443852e-07,1.1799717704901824e-06,2.180353706782147e-06
175,1.3038354114422862e-06,5.995393168389797e-07,6.571062310126271e-07,8.16069188324124e-06,8.515383545364332e-07,1.145086805948375e-06,1.1628834350393193e-06,1.129325585238809e-05,9.953743552093493e-06,5.148296698664817e-06,6.122853364695853e-07,3.375879748573669e-05,1.0232147174658899e-06,5.753754521012942e-07,1.1859090758571928e-06,2.160717890819626e-06
176,1.2926138747030927e-06,5.985533790837462e-07,6.637202498928895e-07,8.823102612764543e-06,8.844036823332904e-07,1.1685288451327786e-06,1.1789688936929297e-06,1.0756847713246028e-05,1.0853787996467944e-05,5.091190937108701e-06,6.216639795337411e-07,3.4546465798053406e-05,1.0074912304658144e-06,5.796936879973418e-07,1.1907598724325562e-06,2.143666825928594e-06
177,1.2814507217237947e-06,6.010790787636417e-07,6.702891710971737e-07,9.503902957271415e-06,9.206832055492962e-07,1.1934452050085373e-06,1.1938883713231248e-06,1.0230209247485155e-05,1.1778295866324431e-05,5.027870491865434e-06,6.326152589256999e-07,3.5150812770599725e-05,9.933357057135542e-07,5.862552587193595e-07,1.1951703438615667e-06,2.1302619701360285e-06
178,1.269935157243089e-06,6.070706493750911e-07,6.765166512787481e-07,1.0198574214632736e-05,9.606746580893708e-07,1.2198703623591583e-06,1.2075456475291008e-06,9.721443401075109e-06,1.2717733513607312e-05,4.9595004693255e-06,6.449261724345756e-07,3.5556732577378754e-05,9.813043555412327e-07,5.949643903966483e-07,1.1998882896930726e-06,2.121390150166818e-06
179,1.2576480713023169e-06,6.165040737068582e-07,6.821885868879263e-07,1.0901206984603073e-05,1.004570398608805e-06,1.2478519176693925e-06,1.2200758467732594e-06,9.237495688843628e-06,1.366074282825607e-05,4.88677769623319e-06,6.584780252062315e-07,3.5754342160039685e-05,9.718124585630254e-07,6.056972013930067e-07,1.2056201779611708e-06,2.1176019867665094e-06
180,1.2443066807711597e-06,6.293324932075683e-07,6.873103139811895e-07,1.160436049774949e-05,1.052420541595598e-06,1.2773870638971576e-06,1.2318182129490782e-06,8.784265394857857e-06,1.4594190098857159e-05,4.8100568032505015e-06,6.7323705213068e-07,3.573512989875705e-05,9.651319849637556e-07,6.183219320075812e-07,1.2129234738953117e-06,2.119061121753765e-06
181,1.2298515028793554e-06,6.454469783862732e-07,6.921645574941709e-07,1.2298870048893798e-05,1.1041112455918812e-06,1.3083895564538467e-06,1.2432311378308673e-06,8.36700136364473e-06,1.5503484237821045e-05,4.729482120598383e-06,6.891860404573219e-07,3.548949244314567e-05,9.6141870337522e-07,6.326727183427322e-07,1.2221497374999214e-06,2.1255647945803133e-06
182,1.2144236402564377e-06,6.646779013854141e-07,6.972176342705856e-07,1.2973608713904465e-05,1.1593484825014123e-06,1.3406963547751705e-06,1.2547470708374014e-06,7.990203996203393e-06,1.6373314843863407e-05,4.645107390163729e-06,7.062355116412089e-07,3.500907793476806e-05,9.607047748712536e-07,6.484942899428594e-07,1.233414589195457e-06,2.136603659448586e-06
183,1.1982648728273626e-06,6.868201752955155e-07,7.029551302065896e-07,1.3615771597453675e-05,1.2176504924242237e-06,1.374079723191809e-06,1.2666424222073802e-06,7.657142067583913e-06,1.7188859111533665e-05,4.557084944643227e-06,7.241829271035357e-07,3.429270103558284e-05,9.628725270960375e-07,6.65414430644097e-07,1.2465669925832116e-06,2.151424873595549e-06
184,1.1816459185090312e-06,7.11638192282369e-07,7.097669211595614e-07,1.421224837395222e-05,1.2783717433452578e-06,1.4082195486685617e-06,1.2790152877231629e-06,7.369467319218774e-06,1.793718814841083e-05,4.465854260986842e-06,7.427431628926148e-07,3.3351197759245875e-05,9.676540867553246e-07,6.829406607094298e-07,1.2611775161733219e-06,2.1690501494941264e-06
185,1.164881433836016e-06,7.38846429041299e-07,7.179113783698894e-07,1.4751710781480677e-05,1.340773522100947e-06,1.4426357388145965e-06,1.2918709734726045e-06,7.127146236222442e-06,1.860822206408125e-05,4.372202467047962e-06,7.616370119872066e-07,3.220820504239751e-05,9.746966247859392e-07,7.004586100443395e-07,1.2765785406114753e-06,2.1883092886001242e-06
186,1.1483737000477676e-06,7.68095397743127e-07,7.275163217758174e-07,1.5226504548228202e-05,1.4040789056808005e-06,1.476655645809094e-06,1.3052167652913348e-06,6.928697629059955e-06,1.919472109363386e-05,4.277187994975451e-06,7.806758853187138e-07,3.089696764477487e-05,9.836884334489688e-07,7.172658339220812e-07,1.2919576717707932e-06,2.207967140064373e-06
187,1.1325846339331277e-06,7.990021823782805e-07,7.386005832411142e-07,1.563377896370611e-05,1.4674418433003075e-06,1.5094708919223648e-06,1.319061012478029e-06,6.771716617400978e-06,1.9691439004930653e-05,4.182019820825e-06,7.997674234232971e-07,2.9455186966140356e-05,9.9442968055794e-07,7.326749707162637e-07,1.306452318010453e-06,2.2269026869426905e-06
188,1.1179311374476704e-06,8.312444172859446e-07,7.511100622030421e-07,1.5975684778162175e-05,1.5298621328205331e-06,1.5402505688912808e-06,1.3333113165739442e-06,6.653501621829288e-06,2.0093888026567007e-05,4.087947752889856e-06,8.188488735536773e-07,2.792017473468722e-05,1.0067677742657666e-06,7.461279596110291e-07,1.319201130753821e-06,2.2442973840365657e-06
189,1.1047108962319076e-06,8.646483312661015e-07,7.649354710304332e-07,1.625860130283082e-05,1.590159544939051e-06,1.5682599174951901e-06,1.3476693013910503e-06,6.571334309183944e-06,2.039691978953967e-05,3.996119842436973e-06,8.378153159883853e-07,2.6325565146194358e-05,1.0204873454710532e-06,7.57217801645769e-07,1.32939534021643e-06,2.25978400115744e-06
190,1.093115466985587e-06,8.991857556264032e-07,7.79945798003474e-07,1.64914356905732e-05,1.64709074397458e-06,1.59294922029923e-06,1.361608952124772e-06,6.522212269381611e-06,2.0593496454613294e-05,3.907365578446572e-06,8.564805473598446e-07,2.46999111898407e-05,1.035257001934842e-06,7.656336099961767e-07,1.336370138134051e-06,2.2734404095360046e-06
191,1.0832592557868468e-06,9.348887167328302e-07,7.960960924812786e-07,1.6683348488880283e-05,1.6995583001203102e-06,1.6139838380133392e-06,1.3744522667088626e-06,6.5025460135345624e-06,2.067459273714177e-05,3.822012138114181e-06,8.745705559707462e-07,2.3066968952036796e-05,1.050639356652929e-06,7.711530727294576e-07,1.3396423811791104e-06,2.2856221163859624e-06
192,1.0751665222068827e-06,9.7174180443809e-07,8.135326123024105e-07,1.6841802652730034e-05,1.7467626443789532e-06,1.6312319864473494e-06,1.3854819568637588e-06,6.508420922980174e-06,2.0630654324595734e-05,3.739890673099888e-06,8.917578816945393e-07,2.1446840018255578e-05,1.0661619219106691e-06,7.737090377317485e-07,1.3388072009598822e-06,2.2968008066537455e-06
193,1.0687588955390775e-06,1.0096064465699286e-06,8.32579809114758e-07,1.6971845375549837e-05,1.7882395908365873e-06,1.644757552912754e-06,1.393986137874644e-06,6.536288972952973e-06,2.0454176869038998e-05,3.660484249845539e-06,9.077288394872033e-07,1.9856999279576032e-05,1.0814198219138102e-06,7.734436173168153e-07,1.3334172452249408e-06,2.3074855209497598e-06
194,1.063898075461654e-06,1.048225091431685e-06,8.536303412994381e-07,1.7076569456895284e-05,1.823883841675453e-06,1.654809214947023e-06,1.399232058245847e-06,6.583602780328638e-06,2.014298679276201e-05,3.5830639764000713e-06,9.222286195400466e-07,1.831291673710178e-05,1.096130426541654e-06,7.706986056693803e-07,1.3230147431462878e-06,2.318137509520561e-06
195,1.0604550613186423e-06,1.0873049413682213e-06,8.770377095361491e-07,1.715791812680919e-05,1.854023082744108e-06,1.6617366083372472e-06,1.4005007258696612e-06,6.649198732177131e-06,1.9703156417233808e-05,3.5068026652723815e-06,9.350782214391134e-07,1.6828422618468702e-05,1.1101511168968246e-06,7.659351572082792e-07,1.3072839792871365e-06,2.329108213981998e-06
196,1.058329013379843e-06,1.1265888447702351e-06,9.030547409203788e-07,1.7217316799702317e-05,1.8794521507299603e-06,1.6658296385421554e-06,1.3972349574914811e-06,6.733435033793246e-06,1.9149490123883996e-05,3.430880576723843e-06,9.462260278653134e-07,1.5415765046453198e-05,1.1235318604545002e-06,7.596118408355217e-07,1.2861853779576845e-06,2.34065275808874e-06
197,1.0574300885178403e-06,1.1658275258462163e-06,9.317924905897965e-07,1.725624202092571e-05,1.9013193373567938e-06,1.6672214521565412e-06,1.3892123426164692e-06,6.83808425023069e-06,1.8502758020468426e-05,3.35453680913277e-06,9.558190044172937e-07,1.408525736675704e-05,1.136526284683613e-06,7.521190178675307e-07,1.2600041095425949e-06,2.352876277141067e-06
198,1.0577069784553649e-06,1.2047097864581794e-06,9.631826861882224e-07,1.7276915653304987e-05,1.9208760686139203e-06,1.6659722616376418e-06,1.3766456106223362e-06,6.9660155675688226e-06,1.7785362729001637e-05,3.2771372476545596e-06,9.641963717790233e-07,1.284476047692755e-05,1.1494535178158297e-06,7.438058143372048e-07,1.2293231079825232e-06,2.365588215288339e-06
199,1.0591758114035718e-06,1.242884960033177e-06,9.969712282875264e-07,1.728299996966693e-05,1.9392085784811045e-06,1.6622272487413439e-06,1.360147270890071e-06,7.120767899006687e-06,1.7017832563682414e-05,3.1983786025463424e-06,9.718156348400758e-07,1.1699400574872449e-05,1.1625220245689865e-06,7.350077732253983e-07,1.1949433325407755e-06,2.378259211734797e-06
200,1.0618634760831185e-06,1.2800828536076485e-06,1.0327764995683185e-06,1.728002205329829e-05,1.9570623420997676e-06,1.6562497528382824e-06,1.340573935105089e-06,7.306086653009449e-06,1.621721594563892e-05,3.118538923659902e-06,9.791971217401106e-07,1.0651635410185734e-05,1.1757812561792682e-06,7.260444326522566e-07,1.1577621870649061e-06,2.3901688473686433e-06
201,1.0657439935943762e-06,1.316192592797977e-06,1.0702130901845742e-06,1.7275406791807636e-05,1.9747662719300924e-06,1.6482974473914714e-06,1.3188587625426304e-06,7.5254232832205825e-06,1.539698538566829e-05,3.0385580939663417e-06,9.868629143730093e-07,9.701472443727717e-06,1.1891849141536064e-06,7.172371190520158e-07,1.1186509463026965e-06,2.400595254763893e-06
202,1.0707654952414561e-06,1.351231302625587e-06,1.109017838095151e-06,1.7278094133178838e-05,1.99221557799799e-06,1.638465636501397e-06,1.2958964118234276e-06,7.781420536795568e-06,1.4567579590529041e-05,2.959869366244324e-06,9.952380391197769e-07,8.846678686982986e-06,1.2026564581401208e-06,7.089227130549572e-07,1.0783882203469034e-06,2.4088395957009078e-06
203,1.076891331967318e-06,1.385265010091427e-06,1.1490762081738779e-06,1.7297718247620302e-05,2.008894563217215e-06,1.6266063941966816e-06,1.2724786130390329e-06,8.075455724506131e-06,1.3737023241324224e-05,2.8840751197591377e-06,1.0045782384885296e-06,8.08304667038063e-06,1.2160926727160418e-06,7.014393886776777e-07,1.0376540649766265e-06,2.4141134420501106e-06
204,1.0840552736473803e-06,1.4183210372678492e-06,1.1903540618031011e-06,1.7343466291348994e-05,2.023924834778731e-06,1.6123674084208584e-06,1.2493148733758695e-06,8.407296842632803e-06,1.2911445804859525e-05,2.8126104895485845e-06,1.0149628145105108e-06,7.4048355098886585e-06,1.229317928621454e-06,6.951284864387146e-07,9.970641560493225e-07,2.4155104595122376e-06
205,1.09208117749735e-06,1.4502865111132962e-06,1.2328507362442226e-06,1.7422893505945295e-05,2.0361359356884704e-06,1.5953516419931858e-06,1.2271307069926191e-06,8.774889260739196e-06,1.2095514071722323e-05,2.746506407864628e-06,1.0263402043791425e-06,6.805371379760786e-06,1.2420617573733465e-06,6.903455159937546e-07,9.572196567787668e-07,2.412140560283375e-06
206,1.1006638707642322e-06,1.4808553799306342e-06,1.276579236604822e-06,1.7540970339663415e-05,2.044174395014089e-06,1.575312357478564e-06,1.206717135724473e-06,9.174257309161183e-06,1.1292865782310674e-05,2.686294967427688e-06,1.038583687781159e-06,6.277674843786785e-06,1.2540246619194002e-06,6.874292322775803e-07,9.187197366546511e-07,2.4033578047695006e-06
207,1.1094211825795131e-06,1.5095888649685214e-06,1.3214833321996783e-06,1.7699540916465795e-05,2.046649213457165e-06,1.5522431682361073e-06,1.1888498684347998e-06,9.599526845274811e-06,1.0506525346507701e-05,2.631993986067632e-06,1.051497457699653e-06,5.8149764774928626e-06,1.2649916899488908e-06,6.866560105971695e-07,8.821340873650902e-07,2.3890326570822707e-06
208,1.1179878113691228e-06,1.5360379505004197e-06,1.3673177481400855e-06,1.789723414387783e-05,2.0422913856257806e-06,1.5263136128774507e-06,1.1741520325529992e-06,1.0043020515879147e-05,9.739156442507531e-06,2.5830819689841177e-06,1.0648083250544782e-06,5.41106974275767e-06,1.2748552566785206e-06,6.882464934060633e-07,8.48006409015926e-07,2.3697408842154026e-06
209,1.1261002280695339e-06,1.5598425537424472e-06,1.4135871605887465e-06,1.812969917078302e-05,2.030112318770077e-06,1.4977221056846744e-06,1.1630190563461212e-06,1.0495245923184659e-05,8.993146429367228e-06,2.5385007041619077e-06,1.0781944955526218e-06,5.060532892110724e-06,1.2835014689493597e-06,6.923963367633895e-07,8.168847759028077e-07,2.3466722518213744e-06
210,1.1335902896964373e-06,1.5807778696271579e-06,1.4595594953380592e-06,1.8389886527454365e-05,2.009546127651571e-06,1.4665850708801086e-06,1.1556436211634197e-06,1.094482809556484e-05,8.270759694099e-06,2.4967852939750017e-06,1.0912977981752523e-06,4.758839534942293e-06,1.2906918688295958e-06,6.992556990707772e-07,7.892940692043686e-07,2.3212643939909223e-06
211,1.140290449278503e-06,1.5987460242987044e-06,1.5043275691920993e-06,1.8668014794921793e-05,1.980539827300588e-06,1.432958076876512e-06,1.152074228268313e-06,1.1378750665361822e-05,7.57448467351356e-06,2.4563216580851125e-06,1.1037345298487091e-06,4.50234455221655e-06,1.2960663855203843e-06,7.088761627080931e-07,7.656535890880971e-07,2.294804237666307e-06
212,1.1459595833244828e-06,1.6137280300146813e-06,1.5469188650353478e-06,1.8951237553775118e-05,1.943559979855779e-06,1.3969545322018399e-06,1.152228051436004e-06,1.1783050741875376e-05,6.907302209768424e-06,2.4156277976795366e-06,1.1151572327202078e-06,4.288161621553599e-06,1.2992509197741e-06,7.211939934718931e-07,7.462268046880305e-07,2.2681970797904065e-06
213,1.1502826471739465e-06,1.625738025933479e-06,1.5864190496611523e-06,1.9223901951979852e-05,1.899527152701595e-06,1.3588248544076043e-06,1.1558858018646534e-06,1.2143790375659471e-05,6.272501442611828e-06,2.3735416173766937e-06,1.1252933500891278e-06,4.113956895690117e-06,1.2999762995940906e-06,7.360506357232275e-07,7.311330839608705e-07,2.2419321442325967e-06
214,1.1528802670396669e-06,1.6348103961280458e-06,1.6220036896684177e-06,1.9469232616837003e-05,1.8497060634445715e-06,1.3189546301668705e-06,1.162712575906667e-06,1.2448164494971448e-05,5.6730568554933796e-06,2.3292570635555266e-06,1.1339597170467043e-06,3.977641856238349e-06,1.2981324996164242e-06,7.53212663413772e-07,7.203801496299425e-07,2.2162143305791225e-06
215,1.1532754383151012e-06,1.64098418665637e-06,1.6528607502778347e-06,1.9671928697205847e-05,1.7955536019903447e-06,1.2778546839424232e-06,1.1722526990664555e-06,1.268571315048514e-05,5.111006175936965e-06,2.282250762747048e-06,1.1411357526496426e-06,3.876978295390982e-06,1.2937505628784638e-06,7.723924094271221e-07,7.138843795391076e-07,2.1912002766190142e-06
216,1.150878622570322e-06,1.6442230245416828e-06,1.6781740697336823e-06,1.982046696096931e-05,1.7385270984326153e-06,1.2361732139164387e-06,1.1838859295976121e-06,1.284949931325672e-05,4.587242936738879e-06,2.232213127005009e-06,1.1470056800299691e-06,3.809242672458544e-06,1.2869765411508829e-06,7.932833580732333e-07,7.114763884067174e-07,2.1672037366460297e-06
217,1.1450716951563817e-06,1.6443009871967604e-06,1.6972720977954246e-06,1.9908394344036395e-05,1.679895412164035e-06,1.1946885745133338e-06,1.1968241248388516e-06,1.2936829893357635e-05,4.101748565978061e-06,2.179056533107145e-06,1.151859914535339e-06,3.771188834916975e-06,1.2780796000494822e-06,8.155852017504828e-07,7.128990543128759e-07,2.1447584468789534e-06
218,1.1353511831446377e-06,1.6407644259173736e-06,1.7098172099025693e-06,1.9934457719132564e-05,1.620615440808363e-06,1.1542465722152506e-06,1.2102192226507275e-06,1.294896837623346e-05,3.6540023934101793e-06,2.1229553040761922e-06,1.155970280695377e-06,3.759415676177749e-06,1.267443349976708e-06,8.389872079110809e-07,7.178090296751798e-07,2.124541653766422e-06
219,1.1214403535283467e-06,1.6330252022331405e-06,1.7158954076143434e-06,1.9901689943069532e-05,1.5613035014899544e-06,1.115654266807473e-06,1.2233767965593106e-06,1.2889633044205509e-05,3.2433133140866e-06,2.0643096384084138e-06,1.159552023419657e-06,3.7709549744094726e-06,1.2554849298296569e-06,8.631318705523943e-07,7.25788882045955e-07,2.1072170519630024e-06
220,1.1033602809141633e-06,1.620552846361337e-06,1.7159557992098795e-06,1.9815677354494938e-05,1.5022770297095457e-06,1.0795950445806864e-06,1.2359391923832381e-06,1.2762870151899261e-05,2.8689637978723726e-06,2.0036055503534344e-06,1.1627451592989966e-06,3.803724701188688e-06,1.2425570351275808e-06,8.876073879391371e-07,7.36383054230696e-07,2.093253084636897e-06
221,1.0814852100436509e-06,1.603082188625967e-06,1.710596526432335e-06,1.9682310900471565e-05,1.4436302478055245e-06,1.0466058876844144e-06,1.2478844963550864e-06,1.257158466502922e-05,2.5301600491987234e-06,1.941260463498887e-06,1.165587265054689e-06,3.856567221767496e-06,1.2289211266558578e-06,9.120005212350661e-07,7.491528029073035e-07,2.0827794899537322e-06
222,1.0565468259305626e-06,1.5807195537876437e-06,1.7003177069412193e-06,1.9505572075725916e-05,1.3853437771256224e-06,1.0170829207572685e-06,1.259346460112392e-06,1.2317544225479419e-05,2.2258626868584324e-06,1.8775122201089054e-06,1.1680273860005723e-06,3.9288424955777706e-06,1.2147657063789228e-06,9.35987914150188e-07,7.636826360932219e-07,2.0755153348003028e-06
223,1.0295295012446096e-06,1.553866410198838e-06,1.6854054925655033e-06,1.928623921192389e-05,1.3274432330644156e-06,9.912914676987603e-07,1.2703957090698558e-06,1.2002353307923599e-05,1.9546852542253736e-06,1.8123602666585754e-06,1.1699638604063196e-06,4.019832196715066e-06,1.2002184314131052e-06,9.593721830856794e-07,7.795184216513923e-07,2.0707650626972574e-06
224,1.001485353812286e-06,1.5230422658205663e-06,1.6659379193711491e-06,1.9022210977011464e-05,1.2701726880173707e-06,9.69375999427336e-07,1.2809282470588076e-06,1.1628498251577542e-05,1.7150092534852627e-06,1.7456667593722878e-06,1.1712923915246674e-06,4.128303338319905e-06,1.1853966111523853e-06,9.820493159433894e-07,7.961341365141603e-07,2.0675337495953736e-06
225,9.733875806776724e-07,1.4888226096013805e-06,1.6418300932290969e-06,1.8710171999800157e-05,1.2140716628306228e-06,9.513436652972771e-07,1.2906998420068674e-06,1.1200089363514568e-05,1.5052278554064826e-06,1.677449201011134e-06,1.1719649371913087e-06,4.252346683136574e-06,1.1705105792220707e-06,1.003995726503543e-06,8.129673998395131e-07,2.064779221269514e-06
226,9.460917559300644e-07,1.451932268800981e-06,1.6129393066578383e-06,1.8347483198806737e-05,1.1598733414860282e-06,9.370279458660917e-07,1.2994361543692465e-06,1.0723175033550766e-05,1.3238837244539438e-06,1.6080901154496101e-06,1.1720070028490973e-06,4.389336836759431e-06,1.1559109692172797e-06,1.0252713883710897e-06,8.294622969160124e-07,2.06159982955049e-06
227,9.203497606409444e-07,1.4132778512122983e-06,1.579222292936607e-06,1.7933413830388285e-05,1.108318848294387e-06,9.260674570536606e-07,1.3069655608686102e-06,1.0205589073318077e-05,1.1696297791135462e-06,1.538231909898727e-06,1.171466991020412e-06,4.5359297192699545e-06,1.142004941503937e-06,1.045985752605964e-06,8.451182539052321e-07,2.0572046054254715e-06
228,8.968022062021739e-07,1.37381549058223e-06,1.5408477189288697e-06,1.7469700793080323e-05,1.0600373485592401e-06,9.17916469221016e-07,1.31335610059743e-06,9.656510570039876e-06,1.0411918934208375e-06,1.4685311252446142e-06,1.1703463546286093e-06,4.688114619371467e-06,1.129149887331169e-06,1.0662344744428671e-06,8.595740039171502e-07,2.050888506376762e-06
229,8.759533679668492e-07,1.3343997705817252e-06,1.498226225746335e-06,1.6960772883496295e-05,1.015501070611631e-06,9.118751322343012e-07,1.3189755074075492e-06,9.085910880409206e-06,9.374306825542635e-07,1.3995646864799182e-06,1.16858824744256e-06,4.841287875355138e-06,1.117642680062704e-06,1.0860380762405e-06,8.726621071476743e-07,2.0422267498690715e-06
230,8.581592658343149e-07,1.295747717876409e-06,1.4519982479312796e-06,1.641370320909378e-05,9.750222681694852e-07,9.071205110739726e-07,1.3243902915805833e-06,8.503905809014025e-06,8.573606507420098e-07,1.3319107649481763e-06,1.1661160336957465e-06,4.990449817927579e-06,1.1077303714547709e-06,1.1053271083280215e-06,8.843655754484369e-07,2.031265191859727e-06
231,8.436270950142208e-07,1.258475147455297e-06,1.4030134581705211e-06,1.5837796319723165e-05,9.387881265329942e-07,9.027915479417974e-07,1.3301755552011474e-06,7.920088928324377e-06,8.000486062654328e-07,1.2662540753672803e-06,1.1628130062883178e-06,5.130599336616602e-06,1.0995503452663874e-06,1.1239965806819467e-06,8.947404773041128e-07,2.0184261770837872e-06
232,8.324297753178773e-07,1.2230936642805264e-06,1.3522844369254246e-06,1.5243817495105758e-05,9.068860141039114e-07,8.981824252668746e-07,1.3368050452503504e-06,7.3430399525128114e-06,7.645005549780751e-07,1.203425205525165e-06,1.1584422840072596e-06,5.257095440280087e-06,1.0930626295809685e-06,1.1419901524133293e-06,9.03909732284372e-07,2.0042923252756e-06
233,8.245550603689211e-07,1.189970554284886e-06,1.3008868730545926e-06,1.4642957002474286e-05,8.793036126840284e-07,8.929347768004047e-07,1.3446468313782677e-06,6.780105727550565e-06,7.49611727928377e-07,1.1443447652682916e-06,1.1526359629644755e-06,5.3658337125597505e-06,1.0880710315285535e-06,1.1593557714477535e-06,9.120906018836632e-07,1.9895514412320166e-06
234,8.199735585999407e-07,1.159344214364356e-06,1.2498794583682684e-06,1.4045708059128196e-05,8.559660928677125e-07,8.870726532053855e-07,1.3539446839280604e-06,6.237388703394856e-06,7.541489178480031e-07,1.089890430910095e-06,1.1449930690298081e-06,5.453319197168393e-06,1.0843065678451116e-06,1.1762280347884787e-06,9.195497882219651e-07,1.974987430746318e-06
235,8.186819554165031e-07,1.1313986580899192e-06,1.2003100858818788e-06,1.3460918925198536e-05,8.368230566889286e-07,8.808762664782143e-07,1.3647692217378196e-06,5.71984251807268e-06,7.767526526128774e-07,1.0407720049802862e-06,1.1351968194224561e-06,5.516554868888949e-06,1.081467863070828e-06,1.1927343132284392e-06,9.265066982150957e-07,1.961310608248328e-06
236,8.206889220670793e-07,1.1062937847364793e-06,1.1532075511995821e-06,1.2895216275765008e-05,8.219053207913828e-07,8.74701842717584e-07,1.377029181680303e-06,5.231400604773701e-06,8.159784887442326e-07,9.974799194826676e-07,1.1230627969105638e-06,5.552625486740092e-06,1.0792378442794798e-06,1.2089068924808157e-06,9.330799092987371e-07,1.9489355493531896e-06
237,8.259489617742639e-07,1.084117832314616e-06,1.1094923093825913e-06,1.2352782291638564e-05,8.112901152250243e-07,8.688540047474877e-07,1.3905381936892904e-06,4.775059897758983e-06,8.703491731400941e-07,9.602969342027499e-07,1.108494846639956e-06,5.5583818958744566e-06,1.0773452065280547e-06,1.2247027295594652e-06,9.392862749739707e-07,1.9378861903492213e-06
238,8.342997316355543e-07,1.0648735088654375e-06,1.0698952449115578e-06,1.1835281231478705e-05,8.050251766895275e-07,8.635427994172275e-07,1.4050477259615487e-06,4.352886162217294e-06,9.383926306051071e-07,9.29332399777656e-07,1.091414168975691e-06,5.530826585215369e-06,1.0755824348878779e-06,1.240112826696681e-06,9.450374456926375e-07,1.9278719185134203e-06
239,8.454520865695517e-07,1.048571099329277e-06,1.0349354185326973e-06,1.1341833295832168e-05,8.031109571253263e-07,8.588786758269087e-07,1.4202110792747597e-06,3.966050826215224e-06,1.0187322016034264e-06,9.04542450211541e-07,1.071773106557993e-06,5.468119230399732e-06,1.073735399516275e-06,1.2552311002591794e-06,9.501532750495574e-07,1.9184906336812903e-06
240,8.590130734569733e-07,1.0353314812391435e-06,1.0049304598335204e-06,1.0869251086316044e-05,8.055426766984491e-07,8.548826347070769e-07,1.4355299854927698e-06,3.615034901039357e-06,1.110252108194284e-06,8.8572171502922e-07,1.0496375881883645e-06,5.370543121897092e-06,1.0715328875467564e-06,1.2702002127879902e-06,9.54470226643846e-07,1.90943519166967e-06
241,8.744966914109337e-07,1.0253885791332778e-06,9.800158766093194e-07,1.041277008470197e-05,8.123219536800216e-07,8.515282865544105e-07,1.4503377039812614e-06,3.2999209655478326e-06,1.2122187684238626e-06,8.724888938456837e-07,1.0252126921705086e-06,5.240841906928474e-06,1.0686463554766673e-06,1.2850834204134385e-06,9.579957529545426e-07,1.9005982094767601e-06
242,8.913214250234077e-07,1.0190000190386523e-06,9.601501845740555e-07,9.967142982874047e-06,8.234024945810825e-07,8.487752424192925e-07,1.4638068068621684e-06,3.020533359313586e-06,1.3242917854837038e-06,8.642998955725644e-07,9.988113832173438e-07,5.083666415411689e-06,1.0647098366609164e-06,1.29977139476857e-06,9.609492976157148e-07,1.8920931267460227e-06
243,9.088177095389984e-07,1.016332344007408e-06,9.451137451818904e-07,9.52773662284847e-06,8.386205897701727e-07,8.46544324232298e-07,1.474988688216225e-06,2.7763470098601244e-06,1.4465029947756491e-06,8.605188380266705e-07,9.708492214899686e-07,4.904413584440473e-06,1.0593882812092276e-06,1.3140131904374845e-06,9.636601750313076e-07,1.8842333165362005e-06
244,9.262527948244874e-07,1.0173796829449171e-06,9.34543815578579e-07,9.091337464493346e-06,8.576529042809367e-07,8.44700461994122e-07,1.482950580046107e-06,2.5663585921411663e-06,1.5792590307049433e-06,8.605403892522034e-07,9.418510538152056e-07,4.7082405115844444e-06,1.0524453140558755e-06,1.327568410643157e-06,9.664401124755726e-07,1.877432858587476e-06
245,9.428848248656228e-07,1.0219317748064725e-06,9.280124871761826e-07,8.656542730051623e-06,8.800101003012437e-07,8.431291976578985e-07,1.4869825396447077e-06,2.3890767724022764e-06,1.7233291267259406e-06,8.63860825409181e-07,9.124378669713003e-07,4.499739610532133e-06,1.0437110235808477e-06,1.3403413785103976e-06,9.69520818433247e-07,1.8720238503595315e-06
246,9.580622990792386e-07,1.0295696397829783e-06,9.250890582048404e-07,8.223765548530283e-06,9.05056686903786e-07,8.418516504758016e-07,1.486744784771968e-06,2.2425879360275872e-06,1.8797732154646163e-06,8.700183984402625e-07,8.83302167500397e-07,4.282991730038975e-06,1.0330326127643547e-06,1.352372407510941e-06,9.73082431212946e-07,1.8681231995978536e-06
247,9.713197176761588e-07,1.0396893556739585e-06,9.253465180830761e-07,7.794965747299597e-06,9.320217554829202e-07,8.410553078938804e-07,1.4823040529126872e-06,2.1247040382477053e-06,2.049807083330783e-06,8.785023713920402e-07,8.55148908281149e-07,4.061610502728993e-06,1.0203287647560836e-06,1.3637163812162718e-06,9.77333521489107e-07,1.8656529315552276e-06
248,9.823690195202066e-07,1.051567985837161e-06,9.283928260645605e-07,7.37323893531868e-06,9.59990624472941e-07,8.410086905918301e-07,1.4741024081714628e-06,2.0332498167821843e-06,2.2346325648727918e-06,8.887398042179326e-07,8.286031542970279e-07,3.838782163002438e-06,1.0056591422936574e-06,1.3743200956235404e-06,9.825328034544186e-07,1.8644068866265177e-06
249,9.910000328478027e-07,1.0644511383422364e-06,9.339726180781309e-07,6.96236237489242e-06,9.879254355169702e-07,8.419431531097123e-07,1.4628827446669327e-06,1.966377932875292e-06,2.435316575983651e-06,9.001090493566459e-07,8.041415962578187e-07,3.6173368681315192e-06,9.892190648038265e-07,1.384001450240332e-06,9.889168906000469e-07,1.8640310854342622e-06
250,9.9703643559304e-07,1.0776325912467265e-06,9.420035577948028e-07,6.566314285444031e-06,1.0147446878866074e-06,8.440002873829464e-07,1.449560316909888e-06,1.922729130521233e-06,2.65282093279344e-06,9.119520246766353e-07,7.820736681497676e-07,3.3997102924106893e-06,9.713138206123481e-07,1.3925442280213348e-06,9.96635562333348e-07,1.8640058372268483e-06
251,1.0004044121665755e-06,1.0905295147677097e-06,9.524939041697175e-07,6.1887486971692665e-06,1.039434994928953e-06,8.472597696442882e-07,1.4350800328057507e-06,1.9013853985927887e-06,2.8880856875155095e-06,9.23645724904118e-07,7.625591008084765e-07,3.1877749465655785e-06,9.523310357508498e-07,1.3997840376190506e-06,1.0057497814016942e-06,1.8637328091724046e-06
252,1.0012193742870993e-06,1.1027514018867027e-06,9.65468507873212e-07,5.832550504429551e-06,1.0611681377751855e-06,8.517957326510889e-07,1.420340962497609e-06,1.9017122765413066e-06,3.141933107685872e-06,9.347101150150871e-07,7.456532838082296e-07,2.9827618907893793e-06,9.326920804439809e-07,1.4055887702280914e-06,1.0162344411468075e-06,1.8626179804627267e-06
253,9.998185287111606e-07,1.1141048879706992e-06,9.809365851451586e-07,5.4997341876496926e-06,1.0794120659929738e-06,8.576977689886919e-07,1.4061669460569042e-06,1.9232167176465636e-06,3.414864638072833e-06,9.448875985553866e-07,7.313818270809653e-07,2.78543145765666e-06,9.128063739454268e-07,1.4097977115251559e-06,1.027956865180532e-06,1.860078105676228e-06
254,9.967503445965401e-07,1.124495804773519e-06,9.988386152565755e-07,5.1917201198108405e-06,1.093997606367735e-06,8.650228387933754e-07,1.393270159658863e-06,1.9654481937236927e-06,3.707062621927648e-06,9.54170508532118e-07,7.198128672077915e-07,2.5963808815639383e-06,8.930251667890069e-07,1.4121825533322386e-06,1.040649752726605e-06,1.8555660663447598e-06
255,9.92733479528376e-07,1.1338200032816633e-06,1.0189899964457782e-06,4.909652837428437e-06,1.105080665409226e-06,8.737215694325288e-07,1.3822755084313958e-06,2.0278926313750816e-06,4.018626039388428e-06,9.6273361977888e-07,7.11058393207302e-07,2.4162900459821633e-06,8.735988040320094e-07,1.4124091898368057e-06,1.0538899138146982e-06,1.8486447515168957e-06
256,9.885764731793127e-07,1.1419785374259854e-06,1.0410862317636453e-06,4.654447008042625e-06,1.1129841825046406e-06,8.836111972139352e-07,1.3738068115317649e-06,2.1098643017689898e-06,4.349764386674482e-06,9.707696776437365e-07,7.052067109781092e-07,2.2460221266069463e-06,8.546941906857523e-07,1.4100583314688016e-06,1.0671090829125582e-06,1.839041360574878e-06
257,9.850725720706404e-07,1.1489950482064365e-06,1.0648017980595508e-06,4.426651239647449e-06,1.1179928532728157e-06,8.944153220129206e-07,1.3684878167642757e-06,2.210458992569181e-06,4.700769790502037e-06,9.78328219902884e-07,7.022839098804255e-07,2.0865538892645877e-06,8.364698446426825e-07,1.4047777957967811e-06,1.0796403497529862e-06,1.826655369330245e-06
258,9.829114052391203e-07,1.1550853278876408e-06,1.0899364724546056e-06,4.226491659898821e-06,1.120215533449722e-06,9.058479610213676e-07,1.3668242960845057e-06,2.3285652337764273e-06,5.071828934686993e-06,9.852449584381542e-07,7.023088259216605e-07,1.9387877331603063e-06,8.191200891524452e-07,1.3964453813033221e-06,1.0907722757258178e-06,1.8115004742377608e-06
259,9.826382549850402e-07,1.1606253066245206e-06,1.1164939955238202e-06,4.054153915569683e-06,1.1195646350773601e-06,9.176884449994333e-07,1.3690850935412928e-06,2.46284912563753e-06,5.462825280694116e-06,9.911818006932988e-07,7.053708558007907e-07,1.803441907601792e-06,8.028387446484229e-07,1.3851829743651074e-06,1.0998307640049162e-06,1.7935838461835416e-06
260,9.846506073161118e-07,1.1661000453413918e-06,1.1446362257121567e-06,3.909962094755582e-06,1.1157935996288465e-06,9.297843310085239e-07,1.3752600596541359e-06,2.6116586356896855e-06,5.873255039174936e-06,9.957796863074256e-07,7.116102067949728e-07,1.681101871935176e-06,7.877613077243037e-07,1.3712636993156822e-06,1.106288159537045e-06,1.7728598847288409e-06
261,9.891929295436025e-07,1.1720949567669696e-06,1.1745711803258068e-06,3.7943023163538664e-06,1.1085321789412193e-06,9.419763443795791e-07,1.3850940670196076e-06,2.772890604753329e-06,6.302298460982236e-06,9.988677037112423e-07,7.211149134204664e-07,1.5722877380552659e-06,7.739531555775786e-07,1.3550614575590007e-06,1.109819497078598e-06,1.7493228916011072e-06
262,9.9634790908748e-07,1.1793026664706806e-06,1.2064462066321406e-06,3.707481470100183e-06,1.0973548978039836e-06,9.540014508731767e-07,1.3981555426335634e-06,2.943909074304941e-06,6.7489430517265445e-06,1.0005944322793292e-06,7.338436872717758e-07,1.4774716296372605e-06,7.614206353901721e-07,1.3370899637887484e-06,1.1102802038170163e-06,1.7230707583246096e-06
263,1.0060566585738823e-06,1.1885090218775839e-06,1.2402626485658155e-06,3.6496669964221287e-06,1.0819222903522991e-06,9.654414851708463e-07,1.4138682071404515e-06,3.1215488189267705e-06,7.211958655212842e-06,1.0014012258603093e-06,7.496076469376071e-07,1.397167399035854e-06,7.501016821683314e-07,1.318037885678781e-06,1.1076514645233227e-06,1.6942976422662266e-06
264,1.0181640997932785e-06,1.2005564140083569e-06,1.2758160482653423e-06,3.620873924123927e-06,1.0621447919967101e-06,9.757528011172953e-07,1.431491529598567e-06,3.302166694271448e-06,7.689594210005741e-06,1.0018784533417246e-06,7.680817357623358e-07,1.3321429782495183e-06,7.398536414256796e-07,1.2986970443159763e-06,1.1019683178610697e-06,1.6633817762710889e-06
265,1.0324676212129915e-06,1.216278803627525e-06,1.3126703354803357e-06,3.620919904554509e-06,1.0382843476944683e-06,9.843576785622563e-07,1.4501413401882034e-06,3.481678496522417e-06,8.17916084666884e-06,1.0026017665199611e-06,7.88833586269652e-07,1.2835609329721895e-06,7.304888090950144e-07,1.2798082617965557e-06,1.0932655934631392e-06,1.6310197418012486e-06
266,1.0487648385578525e-06,1.2364046739441796e-06,1.35015207631993e-06,3.6493094894907717e-06,1.0109446945044594e-06,9.907413971200907e-07,1.4689018671260636e-06,3.6555352361771767e-06,8.676941309944994e-06,1.0040341482022914e-06,8.113697214681359e-07,1.2528490343134404e-06,7.218561614686795e-07,1.2619353822803865e-06,1.0816253552445483e-06,1.5981944090044932e-06
267,1.0668767335301826e-06,1.2614651806760782e-06,1.3873685529248167e-06,3.705052491509246e-06,9.809693785611033e-07,9.945022356965282e-07,1.4869412609675391e-06,3.818729096849595e-06,9.178564757873225e-06,1.0065067907559927e-06,8.351834287400448e-07,1.241438857794097e-06,7.138871434846164e-07,1.245406956637821e-06,1.0672957783183271e-06,1.565992150202369e-06
268,1.0866091421387817e-06,1.2917421339045002e-06,1.423312012730937e-06,3.786474443902154e-06,9.493193819781038e-07,9.953428008676316e-07,1.5035480850079294e-06,3.966074207953481e-06,9.679411740866967e-06,1.0102245610310551e-06,8.597727252212708e-07,1.250674445360493e-06,7.065540116935105e-07,1.2302986102366408e-06,1.0507281881103836e-06,1.5354480845704761e-06
269,1.10767643930452e-06,1.3272421171508119e-06,1.4570752242639517e-06,3.891134400873065e-06,9.16979543716829e-07,9.93051897392997e-07,1.5181378182049749e-06,4.0928567809319215e-06,1.0174723078114473e-05,1.015255222324262e-06,8.84632888918393e-07,1.281917282436897e-06,6.997966386604776e-07,1.2164500066873865e-06,1.0324865203503058e-06,1.507492192915676e-06
270,1.1296404766327506e-06,1.3676779545107974e-06,1.4880703845322468e-06,4.015925393764557e-06,8.848867608305243e-07,9.875402386867706e-07,1.5303180317811453e-06,4.195592506241002e-06,1.0659621100929278e-05,1.0215191800742958e-06,9.092766542133717e-07,1.3366164517899024e-06,6.935045635476989e-07,1.2034910291453464e-06,1.013143697650593e-06,1.482930603980313e-06
271,1.1518779891980022e-06,1.4124595121348645e-06,1.5161012897947823e-06,4.157292828313271e-06,8.538675067001596e-07,9.78917906301229e-07,1.5399852506477104e-06,4.27248387435057e-06,1.1129226848831003e-05,1.028844851482044e-06,9.332870247655538e-07,1.4162388013736679e-06,6.875702561099361e-07,1.1908674396554248e-06,9.932403432480934e-07,1.4623891724589164e-06
272,1.1736100746360961e-06,1.4606877202749943e-06,1.5412505426946605e-06,4.311437752255253e-06,8.246038247225277e-07,9.675238471713578e-07,1.5473258303091805e-06,4.323318749338615e-06,1.1578538729559201e-05,1.0370957640792944e-06,9.56349644352524e-07,1.5221655028463312e-06,6.819403075195017e-07,1.1779515347123682e-06,9.7325911628469e-07,1.4462425224267732e-06
273,1.1940263752004211e-06,1.5111415551519519e-06,1.5636830137435779e-06,4.47444470724096e-06,7.976390598088981e-07,9.53851138003196e-07,1.5526751735923736e-06,4.348833216051893e-06,1.2001758105072461e-05,1.0462377892323371e-06,9.782397479968651e-07,1.655614343114295e-06,6.766091610846007e-07,1.1642458408654907e-06,9.535907994371763e-07,1.4345975581946946e-06
274,1.2124356047760137e-06,1.5622768735518038e-06,1.58351031031023e-06,4.642364919751846e-06,7.733952365540769e-07,9.38410393069606e-07,1.556336087385416e-06,4.34990843705737e-06,1.2391458305441797e-05,1.0562595032094256e-06,9.987720330722542e-07,1.8175512817547055e-06,6.715920639037043e-07,1.1495246446620191e-06,9.345510292620961e-07,1.4273526934611854e-06
275,1.2283612075005841e-06,1.612300269627766e-06,1.6007834356497953e-06,4.811294746701021e-06,7.521832685987913e-07,9.216148227267197e-07,1.5584517150750809e-06,4.327165299323075e-06,1.2738290176337295e-05,1.0670710336685176e-06,1.017763242981506e-06,2.008651974635688e-06,6.669224362670939e-07,1.1338364643717407e-06,9.164489225280851e-07,1.424273733996635e-06
276,1.2415994510397988e-06,1.6593811261006367e-06,1.6155563078493772e-06,4.977458535297882e-06,7.342107959323666e-07,9.037332716103797e-07,1.5589298408701293e-06,4.281133758224729e-06,1.3031718860914521e-05,1.0785464573805638e-06,1.0350448752714892e-06,2.2294404640241146e-06,6.626614410512979e-07,1.1174243863143566e-06,8.996148747858502e-07,1.424999331731157e-06
277,1.2522719411335005e-06,1.7019497870452966e-06,1.6279010619192426e-06,5.137322260233696e-06,7.195741423477528e-07,8.849006838354421e-07,1.557409735881777e-06,4.2125856355001516e-06,1.3261769781478465e-05,1.090643176544198e-06,1.0504546652303355e-06,2.480513175251191e-06,6.588711985623029e-07,1.1005950855981475e-06,8.843619644987546e-07,1.4289835808498342e-06
278,1.2608183919076466e-06,1.7388864819494403e-06,1.6378218038477654e-06,5.28781064055814e-06,7.082333490293505e-07,8.651727128836865e-07,1.553319593820216e-06,4.122679026514126e-06,1.3420708465258668e-05,1.1033949552701064e-06,1.0637766227345173e-06,2.7625461782671777e-06,6.55566665745048e-07,1.08358098312282e-06,8.709499975249628e-07,1.4354424010372796e-06
279,1.267865690448234e-06,1.7694393488764449e-06,1.645151459621628e-06,5.426636317984832e-06,7.0000521465086e-07,8.446347263622087e-07,1.5460482581373109e-06,4.01295970017724e-06,1.350331921572681e-05,1.116798084687545e-06,1.074745424646672e-06,3.076031488903385e-06,6.52753214925198e-07,1.0664970442004594e-06,8.595662767298874e-07,1.4433196374316156e-06
280,1.2740438157836283e-06,1.7929697013297973e-06,1.6495378186836346e-06,5.552560342870463e-06,6.945890423127983e-07,8.235026850318611e-07,1.5351669291588326e-06,3.885339873684827e-06,1.3505691843499721e-05,1.1307707505405286e-06,1.0831719102277399e-06,3.421026552241443e-06,6.505306460415898e-07,1.0494264765941762e-06,8.503087167269407e-07,1.4512868469576636e-06
281,1.279908180208011e-06,1.8088417256172054e-06,1.6505077988020206e-06,5.665355638164412e-06,6.915991790379123e-07,8.021045773473016e-07,1.5206001228855684e-06,3.7420845847364555e-06,1.3424011698545343e-05,1.1451854540662793e-06,1.0890880340284009e-06,3.797049545034301e-06,6.490995480946882e-07,1.032533412340347e-06,8.432136511735687e-07,1.4578280243481168e-06
282,1.2859949107590019e-06,1.8166173064655348e-06,1.6475617420599958e-06,5.765462167609192e-06,6.905757529445984e-07,7.80781831806476e-07,1.5026798066572057e-06,3.585805416314041e-06,1.3255114177140349e-05,1.1598574055492912e-06,1.0927872931943501e-06,4.202986996380729e-06,6.486620455047638e-07,1.016078885742346e-06,8.383181068854577e-07,1.461456018596855e-06
283,1.2928672883557636e-06,1.8163719956936535e-06,1.6402955481440082e-06,5.853492072299187e-06,6.909853236648534e-07,7.598556469466367e-07,1.4820589536931267e-06,3.419446150168513e-06,1.2998721873821042e-05,1.1744920725379205e-06,1.0947291989894138e-06,4.636985561853934e-06,6.493625544023844e-07,1.0003722860360254e-06,8.3567891064181e-07,1.4610425994466129e-06
284,1.3010633822062202e-06,1.8088738149217034e-06,1.6285155283735036e-06,5.929710752423356e-06,6.922597590421931e-07,7.396586108198358e-07,1.4595152053443989e-06,3.2462442832988592e-06,1.2659462103001931e-05,1.188685481808025e-06,1.0953985302927641e-06,5.096454048816879e-06,6.513170468166805e-07,9.85743249687834e-07,8.353381940147814e-07,1.4561079351203693e-06
285,1.31099416420833e-06,1.795523348925687e-06,1.6122538300751837e-06,5.993670145512199e-06,6.938916333142999e-07,7.205273919034359e-07,1.4357726644009331e-06,3.0696616982430207e-06,1.2247152208563612e-05,1.2020007239184047e-06,1.0952417645181658e-06,5.578208751262714e-06,6.546717301802564e-07,9.725017123626585e-07,8.372828045210397e-07,1.4468745757436787e-06
286,1.3228694395463609e-06,1.7780859814968789e-06,1.5916450092966329e-06,6.044258537965046e-06,6.955321078992008e-07,7.027652827020312e-07,1.411468737358669e-06,2.893259442183785e-06,1.1775375312951373e-05,1.2140543102632225e-06,1.0946764682403594e-06,6.078653163569863e-06,6.596491309891508e-07,9.608772422590835e-07,8.414298614849421e-07,1.4340895311898042e-06
287,1.336700207135093e-06,1.7583555760931298e-06,1.566775492254999e-06,6.0801699212398775e-06,6.970168769538993e-07,6.866320469467094e-07,1.3872206132766413e-06,2.7204928989184636e-06,1.125929279787437e-05,1.224559350976158e-06,1.0940838907645354e-06,6.5937988735974605e-06,6.665638734004165e-07,9.509923859667976e-07,8.476520715028163e-07,1.418801422929475e-06
288,1.3523767865862461e-06,1.7379460162990594e-06,1.5376849035650073e-06,6.1004469301564324e-06,6.983179645342975e-07,6.723333329063745e-07,1.3636451554801082e-06,2.5544781862430812e-06,1.0713644275832306e-05,1.2333294596488215e-06,1.0937658502107948e-06,7.119028812729978e-06,6.75784423932067e-07,9.428638572161001e-07,8.558076407387526e-07,1.4021876307130917e-06
289,1.3697538697000639e-06,1.7182647409040911e-06,1.5045361242464755e-06,6.104839308620445e-06,6.994937752579237e-07,6.599922983503742e-07,1.3412865804029245e-06,2.3978513170833555e-06,1.0151447626981305e-05,1.2402523871158008e-06,1.093896900418467e-06,7.648905870954885e-06,6.876553983373753e-07,9.364000021609433e-07,8.657186086528616e-07,1.3853896552444236e-06
290,1.3886829911855722e-06,1.70053414242015e-06,1.467771612971875e-06,6.094028132311133e-06,7.006723129463312e-07,6.496380624422013e-07,1.3205397676968193e-06,2.25279117167917e-06,9.583483351848337e-06,1.2452282046289582e-06,1.0944861603100575e-06,8.17742424423548e-06,7.024320350811534e-07,9.313768182386824e-07,8.771184502152997e-07,1.369371381634778e-06
291,1.409012708691828e-06,1.6857588989402305e-06,1.4280975356501092e-06,6.069839301038147e-06,7.020197747894832e-07,6.412162321616727e-07,1.3016756437956623e-06,2.121147314514449e-06,9.018356144042592e-06,1.2481412510156873e-06,1.0953533923974465e-06,8.698547648039777e-06,7.202470741782238e-07,9.27409540719159e-07,8.896301824821425e-07,1.3548665858022704e-06
292,1.4306070316825435e-06,1.6746669089660329e-06,1.3863105465530345e-06,6.035400055520123e-06,7.036699458699566e-07,6.346092508569014e-07,1.2849541846312174e-06,2.0045397848929306e-06,8.462834589019042e-06,1.2489626329490521e-06,1.096129628228806e-06,9.206535888775054e-06,7.411049795106693e-07,9.239875771701902e-07,9.028129204744564e-07,1.3424317643918958e-06
293,1.4533779654118252e-06,1.6676959637146877e-06,1.3430939992704227e-06,5.9950365823965894e-06,7.056794440693852e-07,6.29673141797997e-07,1.2706794168671494e-06,1.9043668327270745e-06,7.922266405045942e-06,1.2478945049306018e-06,1.096314872914133e-06,9.695808377322303e-06,7.648923162417146e-07,9.20558915918191e-07,9.162846381261162e-07,1.3325595638425618e-06
294,1.4772690988333842e-06,1.6650501522988393e-06,1.2989028913270076e-06,5.953768643857193e-06,7.080739018169198e-07,6.262746301836942e-07,1.2591113720141638e-06,1.8218332501646395e-06,7.400937213631201e-06,1.2453559846732639e-06,1.095368556766072e-06,1.0160366947821722e-05,7.91375992638799e-07,9.165613225048022e-07,9.298356795271972e-07,1.3257376478719018e-06
295,1.5021563065579695e-06,1.6667752362446676e-06,1.2539968899034128e-06,5.916546769539856e-06,7.109334992077609e-07,6.242965221862979e-07,1.2503383988165117e-06,1.7580877029121766e-06,6.902289234253136e-06,1.241805965684939e-06,1.0927379706220875e-06,1.0593090558111926e-05,8.201878243386255e-07,9.114091631801318e-07,9.434142629769953e-07,1.3223937060911086e-06
296,1.5277279651376483e-06,1.6728091405973327e-06,1.2086045668554412e-06,5.887687938760314e-06,7.144032286843088e-07,6.236331464096305e-07,1.244258942729019e-06,1.7143169176830185e-06,6.429051154807589e-06,1.2375790667831325e-06,1.0878494210479056e-06,1.0985706688981423e-05,8.508473986104298e-07,9.045534388617017e-07,9.570092727680192e-07,1.3228114810358662e-06
297,1.5534480495253518e-06,1.6829908050128243e-06,1.1631106285080425e-06,5.870875125902063e-06,7.186235450828221e-07,6.242170875137849e-07,1.2406928346253728e-06,1.6916769534254886e-06,5.98337914293197e-06,1.2328300799836158e-06,1.080178950059182e-06,1.132999908384882e-05,8.828674901468629e-07,8.956256718331166e-07,9.705611106715212e-07,1.3270883476072828e-06
298,1.5786260769502606e-06,1.6970135224621902e-06,1.1181338241115303e-06,5.8695862951569624e-06,7.236730004070299e-07,6.260551002496514e-07,1.2395145752816433e-06,1.6911869713257963e-06,5.5669940540879526e-06,1.2275847175009084e-06,1.069404972859664e-06,1.1619518116484705e-05,9.158989815501075e-07,8.845215914678854e-07,9.839780362731507e-07,1.3351295784354375e-06
299,1.6025294600173917e-06,1.7143930745042778e-06,1.0744588193004822e-06,5.887554141343764e-06,7.295722290896761e-07,6.29221246634595e-07,1.2406917619787778e-06,1.7137154614176847e-06,5.181234532490684e-06,1.2218865301736066e-06,1.0555577636648716e-06,1.18503958138151e-05,9.497858188844109e-07,8.713621190127673e-07,9.97248417304885e-07,1.3466580818018277e-06
300,1.6244959577082476e-06,1.7345631891568498e-06,1.0328905876624578e-06,5.929057512309076e-06,7.363421852282266e-07,6.338021794884239e-07,1.244238304594758e-06,1.7600391301603613e-06,4.82700593559792e-06,1.2159295088142487e-06,1.0390509292744352e-06,1.2020747607524908e-05,9.844696755490854e-07,8.564528654576057e-07,1.0105377658469736e-06,1.3612216975324786e-06
301,1.6440496119832546e-06,1.757063067349008e-06,9.941178200491923e-07,5.999061092461246e-06,7.440664779150072e-07,6.39836317221622e-07,1.250184555624549e-06,1.8309089679623719e-06,4.504677520966175e-06,1.2100157882120163e-06,1.0205283929995587e-06,1.2129431263255119e-05,1.0198620919024005e-06,8.402771868034873e-07,1.0241451459810666e-06,1.378236683555997e-06
302,1.6610006810773825e-06,1.7816662195761645e-06,9.586376644986367e-07,6.1032423030960824e-06,7.528919305460527e-07,6.473036358929561e-07,1.258569211585199e-06,1.92706955788522e-06,4.214026462445206e-06,1.2043766550763445e-06,1.0006749606386006e-06,1.2175256187420447e-05,1.05578872116817e-06,8.23433265021255e-07,1.0383703897141097e-06,1.3971066320034233e-06
303,1.6754955158011733e-06,1.8083894034096219e-06,9.267543588302903e-07,6.247923792426545e-06,7.629611666050388e-07,6.562091529271555e-07,1.269386608284747e-06,2.0491874680326634e-06,3.9543079948495575e-06,1.1990587594659658e-06,9.801569869142761e-07,1.2156824401546178e-05,1.0919688163783483e-06,8.065530807992494e-07,1.0534170134816843e-06,1.4173252805044756e-06
304,1.6880148182062709e-06,1.837430998178717e-06,8.986303269429772e-07,6.439913356398496e-06,7.743331760257286e-07,6.667154761659417e-07,1.2825524825259804e-06,2.197733274008802e-06,3.7244232953376195e-06,1.1939697268892162e-06,9.596056447313018e-07,1.2072381471542408e-05,1.1280411436683047e-06,7.902771917970499e-07,1.0693367978155882e-06,1.438457152066142e-06
305,1.699326005094069e-06,1.8690589280765215e-06,8.743378608982509e-07,6.686205776452193e-06,7.869532227483913e-07,6.791870593263066e-07,1.2979660883328102e-06,2.3729365714617032e-06,3.5230516453213563e-06,1.1890070767204642e-06,9.3954570890728e-07,1.1919792205738593e-05,1.16371086737735e-06,7.752549998963064e-07,1.0860042961634271e-06,1.4600959366629427e-06
306,1.7103755682489443e-06,1.9034577308880442e-06,8.538742734688073e-07,6.993528844209775e-06,8.006775122130766e-07,6.940873858390909e-07,1.3155535880837876e-06,2.5748372257491915e-06,3.3486073534497744e-06,1.1841302973932741e-06,9.203690953053918e-07,1.1697541975220806e-05,1.198931457044219e-06,7.621369039458612e-07,1.1031596468140912e-06,1.4819090413909726e-06
307,1.7221403171902692e-06,1.9406743055372867e-06,8.37187631664718e-07,7.367854656582983e-06,8.153008472400354e-07,7.118376956022524e-07,1.3351958237997231e-06,2.8033439857466004e-06,3.1990468755085472e-06,1.1792945575604742e-06,9.024106846233059e-07,1.1406583319135372e-05,1.2339160904867467e-06,7.515415233253081e-07,1.1204781560459772e-06,1.5036400249570492e-06
308,1.7355068085029538e-06,1.980765025550513e-06,8.24261119322e-07,7.814037802672917e-06,8.305788369692016e-07,7.327483689205464e-07,1.3566395959900623e-06,3.0582433503504172e-06,3.0717653717469656e-06,1.1743302384934021e-06,8.860210011417976e-07,1.1051725860892398e-05,1.2689400157540804e-06,7.440056368769636e-07,1.1375737006198975e-06,1.5250375497995794e-06
309,1.7512024894537673e-06,2.023974522817763e-06,8.151947870012068e-07,8.335636237727605e-06,8.462771158618684e-07,7.570108216473424e-07,1.3794742485008146e-06,3.3391742888137006e-06,2.963803197560734e-06,1.1689248846285893e-06,8.715413219361065e-07,1.0641734673309088e-05,1.3041216259047452e-06,7.399589535881317e-07,1.153982371157705e-06,1.5458577719945167e-06
310,1.7697462492587918e-06,2.0707222694227712e-06,8.102067559901822e-07,8.934913227062284e-06,8.622118099504426e-07,7.847053799778645e-07,1.4031648514816852e-06,3.6456078558078633e-06,2.872315856057644e-06,1.1627610917748773e-06,8.592313235604269e-07,1.0188132036626878e-05,1.3393293271422567e-06,7.397285292182888e-07,1.1692325489663471e-06,1.5659004030542378e-06
311,1.791431521125288e-06,2.121398831999833e-06,8.095569151538415e-07,9.612986787666943e-06,8.782386135377869e-07,8.158174895498935e-07,1.427179065744728e-06,3.976878495887328e-06,2.794987232791839e-06,1.1557360659843866e-06,8.492593613292758e-07,9.703283602644854e-06,1.3741785247011245e-06,7.435432798173276e-07,1.1829447571802467e-06,1.584984463131719e-06
312,1.8163523473190673e-06,2.1761347450199433e-06,8.13445596351733e-07,1.0369981965967581e-05,8.942294634229607e-07,8.502457590503591e-07,1.4512010641521786e-06,4.332324240633543e-06,2.7300650104380976e-06,1.1481202528960112e-06,8.417409589567565e-07,9.198776327216214e-06,1.4080672452648138e-06,7.515256112877294e-07,1.1948357539562335e-06,1.602916166319987e-06
313,1.8444093675838173e-06,2.234674627424105e-06,8.219394866378545e-07,1.1205022181647016e-05,9.100673318955283e-07,8.877929718208085e-07,1.4752835382982455e-06,4.711545107984911e-06,2.6760183500291288e-06,1.1405513396596768e-06,8.36739110895381e-07,8.684802684139862e-06,1.4402814394870646e-06,7.636730128818703e-07,1.2046525174268507e-06,1.6194855443388617e-06
314,1.8752900042774247e-06,2.2963992158539663e-06,8.349456789196607e-07,1.2116071066726584e-05,9.256351382498742e-07,9.281664637105301e-07,1.4998115153861788e-06,5.114662435925057e-06,2.6311081348008266e-06,1.1338770386965283e-06,8.342578229699242e-07,8.170375261772768e-06,1.4701613662773188e-06,7.79841581883384e-07,1.212162017764511e-06,1.6345012367900044e-06
315,1.9085034844920363e-06,2.360499993536021e-06,8.52220158223099e-07,1.3099792737055546e-05,9.407851605548957e-07,9.709882226970867e-07,1.5253094973347253e-06,5.542376899372712e-06,2.5931643737767862e-06,1.1289548059042451e-06,8.342922759127084e-07,7.66372069564552e-06,1.4972256156695576e-06,7.997648858183298e-07,1.217221261535086e-06,1.6478833821460772e-06
316,1.9434432610583043e-06,2.4262225665131674e-06,8.733916450019751e-07,1.4151566693705683e-05,9.553171504109634e-07,1.0157831244446604e-06,1.5522257045572312e-06,5.995682420642942e-06,2.559669081199491e-06,1.1265411250130483e-06,8.368764634829737e-07,7.17247237852995e-06,1.5211782096962272e-06,8.231250039678507e-07,1.2198433834229556e-06,1.6597612303294909e-06
317,1.9793891104604053e-06,2.492981940750202e-06,8.979851356139441e-07,1.5265647165832927e-05,9.690007364496679e-07,1.0619616940410778e-06,1.5808128054062283e-06,6.475308449712455e-06,2.5280079201629464e-06,1.1272896602054031e-06,8.420529001010286e-07,6.703624817127849e-06,1.541841174925603e-06,8.496107340421925e-07,1.2202045177006603e-06,1.6705023290615012e-06
318,2.0155264958480325e-06,2.560231780355487e-06,9.254264140579068e-07,1.6435315292606745e-05,9.816138830712504e-07,1.108878051944e-06,1.6111318294382011e-06,6.981249370230794e-06,2.495681160696341e-06,1.1317469827224514e-06,8.497936533126952e-07,6.2633000181051495e-06,1.5591113628720638e-06,8.788954122501724e-07,1.2186050747898881e-06,1.6806593066298e-06
319,2.0510692923794302e-06,2.627197618767602e-06,9.55042620401781e-07,1.765278889937117e-05,9.929432463069876e-07,1.1559871622644713e-06,1.6431142921195904e-06,7.512731240036903e-06,2.460429140015949e-06,1.140298416734345e-06,8.599350951913122e-07,5.856472583656305e-06,1.5729688516145127e-06,9.10592252068476e-07,1.215414050444075e-06,1.690838391106884e-06
320,2.0853819701314773e-06,2.6927231436164764e-06,9.860792686165993e-07,1.8908678189674178e-05,1.0027749914913729e-06,1.202990601201841e-06,1.6765930179433924e-06,8.068518028902626e-06,2.420393695269882e-06,1.1531224357643132e-06,8.721518658424349e-07,5.486843189063397e-06,1.5834636978310694e-06,9.442519666344806e-07,1.2110074437721499e-06,1.701535983976721e-06
321,2.1179980356990695e-06,2.755389456132949e-06,1.0177031554383194e-06,2.019103326150026e-05,1.0109247413807468e-06,1.2498538128566606e-06,1.711255808738542e-06,8.647162775963627e-06,2.374366582375543e-06,1.1702070818739934e-06,8.859896298835321e-07,5.156863772587574e-06,1.5906473089159231e-06,9.79359260085226e-07,1.2057257117902245e-06,1.7130599020078215e-06
322,2.1485653541728726e-06,2.813846298983491e-06,1.049010831428289e-06,2.1484533185354124e-05,1.0172775119513834e-06,1.296685315412741e-06,1.7465540785644933e-06,9.247026694007305e-06,2.3219914308040723e-06,1.1914415106153054e-06,9.009370007512733e-07,4.867796059632092e-06,1.594516250145554e-06,1.0153266741889322e-06,1.1998778069383765e-06,1.7255877656078482e-06
323,2.176781551838464e-06,2.8671691203744424e-06,1.0791205639385681e-06,2.277053522590932e-05,1.0217963764374522e-06,1.34355223491202e-06,1.781656782213704e-06,9.866181571592026e-06,2.263764946749223e-06,1.2167255779057368e-06,9.164608841667491e-07,4.619769181995269e-06,1.5949962836368033e-06,1.0515394432677709e-06,1.19376092221952e-06,1.7392451736973216e-06
324,2.2023442828692637e-06,2.9150565734829165e-06,1.1073148346416522e-06,2.402806174511125e-05,1.024513631731873e-06,1.3903384337811643e-06,1.8155029169544158e-06,1.050232760802507e-05,2.2008269141265e-06,1.245994011671386e-06,9.319892669689986e-07,4.411829644664307e-06,1.5919044897828076e-06,1.0874272102968425e-06,1.1876581226908244e-06,1.7540863893186935e-06
325,2.224910255936542e-06,2.957728403589368e-06,1.1331161561673097e-06,2.52351307080435e-05,1.0255291129645074e-06,1.436688259433616e-06,1.8469306796370046e-06,1.1152758564344213e-05,2.13463435136845e-06,1.2791305769544383e-06,9.469076997887925e-07,4.241965407020127e-06,1.5849018995598433e-06,1.1225147883168597e-06,1.1818494309980714e-06,1.7700433981376584e-06
326,2.24406056579051e-06,2.995559575573555e-06,1.1562610408494734e-06,2.636998411051071e-05,1.0249926219977726e-06,1.482001186004179e-06,1.8748533783792746e-06,1.1814373764888396e-05,2.0666475881678863e-06,1.3158787078001765e-06,9.606469043268491e-07,4.107164135026534e-06,1.573567032334159e-06,1.1564427128117953e-06,1.1766550945412774e-06,1.7869067753558988e-06
327,2.259295902197579e-06,3.0287630171362216e-06,1.17660308154283e-06,2.7412304778028947e-05,1.0230444503634518e-06,1.5254599331256333e-06,1.8984321268065274e-06,1.2483734969165464e-05,1.9982003188844916e-06,1.355870285674917e-06,9.728593511147235e-07,4.003610871999295e-06,1.5576156305953575e-06,1.1889780038887064e-06,1.1724434960713208e-06,1.8042734656950547e-06
328,2.270079310564863e-06,3.057393290007242e-06,1.1939820263659463e-06,2.834466807501485e-05,1.0197824513873786e-06,1.566070214596265e-06,1.9171396465896453e-06,1.3157139068732038e-05,1.9306536043218812e-06,1.3987875273186746e-06,9.835256440313504e-07,3.927020490577245e-06,1.5371003139288964e-06,1.2200598958538258e-06,1.169603068903875e-06,1.8214626056593576e-06
329,2.27588933765092e-06,3.0815534323024622e-06,1.2081592786648298e-06,2.9154126152155263e-05,1.0153381259836532e-06,1.6026909383893583e-06,1.9306571112574624e-06,1.3830644427548237e-05,1.8656792588451027e-06,1.4445676795825576e-06,9.928602811231477e-07,3.8728917490991006e-06,1.5124634743613421e-06,1.2498498415759538e-06,1.1685493891866266e-06,1.8374999667639755e-06
330,2.276202709809572e-06,3.1015441473678614e-06,1.2188990590555204e-06,2.9833393789926056e-05,1.0099898014189927e-06,1.6341327506346563e-06,1.938686199412497e-06,1.4499963563540151e-05,1.8053870700383888e-06,1.4934855085234208e-06,1.0011453949366666e-06,3.836520723694249e-06,1.4844831191857528e-06,1.2786705238250108e-06,1.1697166886697752e-06,1.851289808754839e-06
