,EMG1,EMG2,EMG3,EMG4,EMG5,EMG6,EMG7,EMG8,EMG9,EMG10,EMG11,EMG12,EMG13,EMG14,EMG15,EMG16
0,1.6610090862670718e-07,8.818861219440426e-08,2.1007639818545482e-07,7.253869631314609e-07,5.8133720153239476e-08,1.929779320714202e-07,1.1679182182309805e-07,-2.4035150883311214e-07,-1.6356636673113064e-08,2.1974766925412397e-07,4.046408636315076e-07,5.841549476661951e-06,1.504628522747151e-07,7.421601214873947e-09,7.01691641694404e-08,1.5114032563664932e-07
1,2.4057441431505524e-07,1.6715373602026075e-07,3.3893156281612745e-07,8.467065624317746e-07,1.3392158117061977e-07,3.16326818166463e-07,1.7695118072531492e-07,5.705868777910488e-07,1.0110334846473247e-07,3.3872559891945435e-07,4.639813849663273e-07,1.5778362856347417e-05,1.957549618889478e-07,9.353696750521956e-08,1.5506720462723551e-07,2.879890780521359e-07
2,3.1208260733445266e-07,2.439703951302914e-07,4.669878537389457e-07,9.724232338314898e-07,2.0826678885739554e-07,4.337883999908464e-07,2.3477745068383646e-07,1.3442415685438828e-06,2.1681799147436873e-07,4.581184540171598e-07,5.258470159800644e-07,2.541749912944675e-05,2.4156385872264274e-07,1.777065497343192e-07,2.3679719790819624e-07,4.2491121046703693e-07
3,3.7982798730164573e-07,3.182487707938748e-07,5.913388677716996e-07,1.1019740343115968e-06,2.7979203542246733e-07,5.43909383550809e-07,2.9013425720702576e-07,2.0657121965187714e-06,3.283601228359933e-07,5.764475944721263e-07,5.893345548542604e-07,3.4595018558395235e-05,2.8732387105935675e-07,2.5844886237605975e-07,3.1461971007038383e-07,5.591024099368502e-07
4,4.431431439293225e-07,3.897000618360067e-07,7.094100426912805e-07,1.234607678397476e-06,3.472793551037706e-07,6.452890927986555e-07,3.428951415098315e-07,2.7223728919148168e-06,4.336790188786228e-07,6.923406983373423e-07,6.537262801049294e-07,4.315818112234361e-05,3.3260468030534525e-07,3.3462412665414544e-07,3.8780020455326134e-07,6.883012535674919e-07
5,5.0153510797775e-07,4.5814029267816343e-07,8.191985792829613e-07,1.3693621134245753e-06,4.09767677467662e-07,7.366741876393556e-07,3.9294276941589996e-07,3.3046114293007504e-06,5.312982642736831e-07,8.045948213540096e-07,7.185368249386041e-07,5.097759800087605e-05,3.771247586445341e-07,4.054923599139608e-07,4.556744484823411e-07,8.109658583645402e-07
6,5.546641780938319e-07,5.234475928899471e-07,9.194568154138355e-07,1.5051060204975167e-06,4.666070223569785e-07,8.17062157585663e-07,4.401614020150078e-07,3.806226630385512e-06,6.205490650823071e-07,9.122558323091396e-07,7.834573680998142e-07,5.7959512785685515e-05,4.206851004857689e-07,4.7068897542338707e-07,5.177667957697214e-07,9.263015818454015e-07
7,6.022954791424158e-07,5.855049290583022e-07,1.0097116807459494e-06,1.6405846342191166e-06,5.174768426019509e-07,8.857938511877914e-07,4.844290527128497e-07,4.2245106656131096e-06,7.015851540345152e-07,1.0146953849698697e-06,8.482490376622956e-07,6.405065538521188e-05,4.631069318094033e-07,5.301719282152507e-07,5.738571394631971e-07,1.0341657423405907e-06
8,6.44322807126651e-07,6.44173566387318e-07,1.0900834353245389e-06,1.774370951769948e-06,5.623625013146981e-07,9.426467476219742e-07,5.256174274465864e-07,4.5600615737889485e-06,7.751095893437546e-07,1.1115886316511602e-06,9.126411392127056e-07,6.923003511684246e-05,5.042285476970903e-07,5.841775428212408e-07,6.239407461621213e-07,1.1348824936429298e-06
9,6.808602104785904e-07,6.993101738655042e-07,1.160996920043412e-06,1.9047563944899062e-06,6.014736980472536e-07,9.879142417194691e-07,5.636304382838508e-07,4.8163524812782665e-06,8.420323568287044e-07,1.2027577004196885e-06,9.762553231225095e-07,7.349166929227918e-05,5.439145303700849e-07,6.3319158332319e-07,6.681677839797291e-07,1.2289921844817816e-06
10,7.122823444469118e-07,7.508411313593494e-07,1.2229190388537463e-06,2.029738590815067e-06,6.351409531712915e-07,1.0223735443939922e-06,5.984922411197294e-07,4.9991068806217405e-06,9.032730368647603e-07,1.2880133574150348e-06,1.0385637316901742e-06,7.683320819174156e-05,5.820444580106378e-07,6.778966320035641e-07,7.068471855433542e-07,1.3170501330344443e-06
11,7.391479973374823e-07,7.988580871863559e-07,1.2761821375558227e-06,2.1471791686344986e-06,6.637478560861175e-07,1.0470955959498457e-06,6.30401926487004e-07,5.115562950498356e-06,9.597341064635756e-07,1.367101783065223e-06,1.09887895868738e-06,7.925941473746754e-05,6.185316704051057e-07,7.190597675399161e-07,7.404482101070207e-07,1.399611171132068e-06
12,7.62062477707921e-07,8.43622539158715e-07,1.320910493505627e-06,2.2550277153640525e-06,6.876929238912078e-07,1.0632756645119531e-06,6.596891099084624e-07,5.1737495064974226e-06,1.0123173537476722e-06,1.4396878944647633e-06,1.1563574033921987e-06,8.079171556046396e-05,6.533682809086713e-07,7.574062979788086e-07,7.695160011653117e-07,1.4773104953867142e-06
13,7.815886337581232e-07,8.854587444791866e-07,1.3570835971322578e-06,2.3514667927898723e-06,7.073403900533751e-07,1.0722132015107615e-06,6.867174151371737e-07,5.18189478857486e-06,1.0618881722864655e-06,1.5053230572064167e-06,1.2100110188886862e-06,8.147297299971705e-05,6.866155386953095e-07,7.935451533347124e-07,7.945710245974792e-07,1.5508243783219961e-06
14,7.982602613625134e-07,9.246508694655945e-07,1.3847175196666691e-06,2.434970555118966e-06,7.229736946439613e-07,1.0752859396136837e-06,7.118138218933019e-07,5.147987415563972e-06,1.1092248804508688e-06,1.5635158138141075e-06,1.2587843819186112e-06,8.136652321550882e-05,7.183600976802559e-07,8.279478594717203e-07,8.161086425985153e-07,1.6207464458660664e-06
15,8.126613423073611e-07,9.613990207482275e-07,1.4040356324081398e-06,2.504394755751645e-06,7.348028371267656e-07,1.0738323426991901e-06,7.352437828888499e-07,5.079411340805269e-06,1.155001576592165e-06,1.6139871332481266e-06,1.301735551200472e-06,8.055149303469285e-05,7.487004828992372e-07,8.609400177004223e-07,8.346903966131941e-07,1.687554652500091e-06
16,8.255199007802916e-07,9.95784756439683e-07,1.4154850161603085e-06,2.5591409438391104e-06,7.430339261023302e-07,1.069054223998508e-06,7.57200176546458e-07,4.982622936162397e-06,1.1998122168151648e-06,1.6569120298880296e-06,1.3382342722494874e-06,7.91149975484791e-05,7.777391221934827e-07,8.926910503258357e-07,8.510014830266822e-07,1.7516247625673062e-06
17,8.377670720084361e-07,1.0277412821514984e-06,1.4196003661444631e-06,2.5992392736605837e-06,7.479286043071665e-07,1.061981134192809e-06,7.777885660086799e-07,4.862935418380784e-06,1.2442400395525579e-06,1.6929002145467808e-06,1.3680434476809518e-06,7.714254488654637e-05,8.055835915811466e-07,9.232406064037782e-07,8.657798765565811e-07,1.8131943523635843e-06
18,8.505132734590433e-07,1.0570646015099645e-06,1.4169093562816577e-06,2.6251746628811392e-06,7.497722707265525e-07,1.0534576339560426e-06,7.97030374093801e-07,4.724458389744969e-06,1.2888949995256058e-06,1.7227755363867049e-06,1.3912215185208175e-06,7.471012061774802e-05,8.323902716341973e-07,9.525483370437864e-07,8.796848986710136e-07,1.8723899568517093e-06
19,8.649604694672965e-07,1.0834608430971733e-06,1.408011870344612e-06,2.637593421010157e-06,7.487840374324144e-07,1.0441349925031386e-06,8.149194727938091e-07,4.570195173196919e-06,1.3343296137657545e-06,1.747352557182146e-06,1.4079363510383868e-06,7.188245672025733e-05,8.583863879137323e-07,9.805009926730854e-07,8.9323159987128e-07,1.929416560092393e-06
20,8.82311349000714e-07,1.1066024746065976e-06,1.3936884147239461e-06,2.6372320941870923e-06,7.450744465156885e-07,1.0344666547889953e-06,8.31518041473517e-07,4.402332115943351e-06,1.380912293300011e-06,1.7672908725586116e-06,1.418362026544211e-06,6.87186020228149e-05,8.838092366038388e-07,1.0068938911853903e-06,9.068017717177983e-07,1.9847593930046706e-06
21,9.0369691441018e-07,1.1261481284541393e-06,1.374866822588952e-06,2.6250951542767376e-06,7.386809084653649e-07,1.024726148412717e-06,8.469933830652207e-07,4.222725510938375e-06,1.4288041805375907e-06,1.7830664893064277e-06,1.4226851803364084e-06,6.527997680560404e-05,9.088306416874918e-07,1.0314360304180766e-06,9.206801075517583e-07,2.0391752840598e-06
22,9.301230840071997e-07,1.141700717952967e-06,1.352479164788664e-06,2.6025954181040817e-06,7.296178485705776e-07,1.0150642085998704e-06,8.61550904129492e-07,4.0334479147363776e-06,1.4780641825585386e-06,1.7950300569433897e-06,1.4211446302329588e-06,6.163461669637825e-05,9.335323569326479e-07,1.0538073032443706e-06,9.350958895381675e-07,2.093455948417491e-06
23,9.624434818238915e-07,1.1527966204455768e-06,1.3273269162169779e-06,2.57152881077535e-06,7.179095264782749e-07,1.0055834840371508e-06,8.75356188378378e-07,3.837162380931953e-06,1.528789856815837e-06,1.803395091857783e-06,1.4141035845098427e-06,5.7854968998333076e-05,9.578933408199048e-07,1.0737704010574173e-06,9.502462342834337e-07,2.148167914313791e-06
24,1.001354763571769e-06,1.1590288380339798e-06,1.3000439739878219e-06,2.533950593001606e-06,7.03661775694396e-07,9.963854481908033e-07,8.885105700657855e-07,3.6371725313473242e-06,1.5811606226514815e-06,1.808120558507473e-06,1.4021589862279986e-06,5.4011555684288706e-05,9.81760679487105e-07,1.0912248571470467e-06,9.66276597558641e-07,2.203536162672594e-06
25,1.0474102474387293e-06,1.1602286065863996e-06,1.2711563974050146e-06,2.491975199397582e-06,6.871796397348001e-07,9.87569688445688e-07,9.010494993831476e-07,3.4371735820382067e-06,1.6353253627456216e-06,1.8088546357387277e-06,1.386203909226524e-06,5.0168324336621455e-05,1.004833699021878e-06,1.1061309269787642e-06,9.832433980564046e-07,2.2594336633150193e-06
26,1.1010401216596556e-06,1.156530879048132e-06,1.2411258592628404e-06,2.447510031871018e-06,6.690253512617428e-07,9.79205540463631e-07,9.129441516744928e-07,3.2408505518892775e-06,1.691248851502517e-06,1.8050366308859875e-06,1.3673482235824905e-06,4.6382761742007075e-05,1.0267004708699073e-06,1.1184286141413713e-06,1.00108850809016e-06,2.3153984181629622e-06
27,1.1625524554507387e-06,1.1482596230472583e-06,1.210308902453834e-06,2.4020290083536725e-06,6.499538573487248e-07,9.713130464176413e-07,9.240864464339387e-07,3.0515088236156382e-06,1.7486419378511138e-06,1.796087344865762e-06,1.3467233443947408e-06,4.27073685414676e-05,1.0469227540525036e-06,1.1280382567239486e-06,1.0196523257614942e-06,2.370679474870511e-06
28,1.2321126661062493e-06,1.135762032009584e-06,1.1789334541666347e-06,2.3564780221097292e-06,6.307801846195449e-07,9.638826032827126e-07,9.342493560073582e-07,2.871886355096544e-06,1.8069504970989664e-06,1.7816013716500135e-06,1.3253235330307799e-06,3.9188969459359224e-05,1.0650953143840593e-06,1.134857578227611e-06,1.0387516719795663e-06,2.4243370616270656e-06
29,1.3097125909963126e-06,1.1193571052648564e-06,1.1472052263428329e-06,2.3112895414870684e-06,6.122669040818564e-07,9.569297290445919e-07,9.431110102970534e-07,2.704156326249292e-06,1.8653805999823846e-06,1.761507056018171e-06,1.3039769351844308e-06,3.586711677362659e-05,1.0808752031807287e-06,1.1387470219757216e-06,1.0582441852935708e-06,2.475428472333254e-06
30,1.395131800503505e-06,1.0993761087349052e-06,1.1154798242315392e-06,2.2664865209410003e-06,5.950715393725255e-07,9.505413313107853e-07,9.504113010482586e-07,2.550010690270349e-06,1.9229660413416876e-06,1.7361461318471483e-06,1.2833871416918888e-06,3.277387808307878e-05,1.0940576124499395e-06,1.1396316806549996e-06,1.0779880607781389e-06,2.523275686077621e-06
31,1.4879117194124026e-06,1.0761634954551642e-06,1.0843357473648469e-06,2.2219140809680038e-06,5.797361635977561e-07,9.448654557099782e-07,9.56133838336529e-07,2.4107211902786976e-06,1.9786017569292955e-06,1.7061909342730623e-06,1.2641751588466291e-06,2.9934885120347748e-05,1.104639244564814e-06,1.1376838702533053e-06,1.0977795510653807e-06,2.567720005615585e-06
32,1.5873544137137135e-06,1.0500402446430162e-06,1.0544762348745598e-06,2.177524452762942e-06,5.666924906530562e-07,9.400402885823687e-07,9.605413415724809e-07,2.2871309886970317e-06,2.0310849117629543e-06,1.6724023465681686e-06,1.246902944792496e-06,2.737047356468736e-05,1.112762869438567e-06,1.1333591911927683e-06,1.117352272135346e-06,2.6092359497151904e-06
33,1.6925364990613608e-06,1.0213477035668656e-06,1.0265530845997062e-06,2.1334837823118625e-06,5.562725519896514e-07,9.361099058268661e-07,9.64041224181056e-07,2.1796060242487377e-06,2.0793590002196592e-06,1.635374975447676e-06,1.2320552136271276e-06,2.50965132574711e-05,1.1186207129604434e-06,1.1272226009078463e-06,1.1363635987202166e-06,2.6488356578322463e-06
34,1.8023889673561024e-06,9.90582030714646e-07,1.0010529483688581e-06,2.0900182804386433e-06,5.487393677794038e-07,9.329897543692278e-07,9.670210102254721e-07,2.08801205772046e-06,2.122923125312817e-06,1.5954344827897377e-06,1.219995648929807e-06,2.3125031379873427e-05,1.122443339406258e-06,1.1197631914031325e-06,1.1543703016778854e-06,2.6877885829159202e-06
35,1.9158978215553235e-06,9.584781219765828e-07,9.782831752752979e-07,2.0472712118926602e-06,5.443538042621564e-07,9.30496978091957e-07,9.69783376307027e-07,2.011726046377191e-06,2.162071486124876e-06,1.5527442472017879e-06,1.2109577269747368e-06,2.1464650252789713e-05,1.124550588423286e-06,1.111344671634987e-06,1.1709469707450443e-06,2.7272639406119675e-06
36,2.0323514045931964e-06,9.259422580229334e-07,9.583986103791835e-07,2.005409550353825e-06,5.434343010137256e-07,9.283926990671006e-07,9.72571936961585e-07,1.9496598919043564e-06,2.1977217664938576e-06,1.5075228225251862e-06,1.205055630866773e-06,2.012084671337911e-05,1.1253530578134774e-06,1.102222922380462e-06,1.1859322280261246e-06,2.768044630669075e-06
37,2.151515636366684e-06,8.93891503258798e-07,9.414217573925919e-07,1.964808709319595e-06,5.463438088600722e-07,9.264177502230499e-07,9.755985181107758e-07,1.9003198390966898e-06,2.2309455241284145e-06,1.4601853849163663e-06,1.2022569710391253e-06,1.9095997181945672e-05,1.1252622240395831e-06,1.0925525343124835e-06,1.1995444343321097e-06,2.8104344225804217e-06
38,2.273685987041011e-06,8.63124810550349e-07,9.272807462206105e-07,1.9260501393856187e-06,5.53418918270229e-07,9.243789022073465e-07,9.790230434962763e-07,1.8619213351717907e-06,2.2625584272795995e-06,1.4113333383809782e-06,1.2023382342733588e-06,1.8389116261708617e-05,1.124586047792808e-06,1.08241487114727e-06,1.2122283379438486e-06,2.854370474157895e-06
39,2.3996009727647047e-06,8.342709637641056e-07,9.158770498672099e-07,1.8897422540501184e-06,5.649144453708811e-07,9.222665406725361e-07,9.829009601706795e-07,1.8324985006832018e-06,2.293029663190456e-06,1.361673944028722e-06,1.2048893589628529e-06,1.7995482074579494e-05,1.1234757071827215e-06,1.0718614594005603e-06,1.224390954727862e-06,2.899612353022905e-06
40,2.530234854403556e-06,8.077779339560121e-07,9.071187904310385e-07,1.8563315818901459e-06,5.809886754366004e-07,9.202827422113821e-07,9.871501093238093e-07,1.8099381810818053e-06,2.3226233243965494e-06,1.3119552304393144e-06,1.209427008368966e-06,1.7906562650455118e-05,1.1219120741176808e-06,1.060895645735281e-06,1.2362288841834414e-06,2.9458514642327297e-06
41,2.6665581836952057e-06,7.839260124032745e-07,9.009067294784465e-07,1.8260131398203172e-06,6.016970078895948e-07,9.187547681293111e-07,9.915648508730133e-07,1.7919979164198387e-06,2.351487349469446e-06,1.2629470191754864e-06,1.2155854080111023e-06,1.8110311322015077e-05,1.1197396398198078e-06,1.0494115150608087e-06,1.2476795133584189e-06,2.9926875924427975e-06
42,2.809374087210901e-06,7.6287782523106e-07,8.971291560567875e-07,1.7987488791994949e-06,6.2697813336321e-07,9.180419515339385e-07,9.95831244570048e-07,1.7764541927194335e-06,2.3795771744606335e-06,1.2154448207688736e-06,1.22320142355266e-06,1.8591543597997977e-05,1.116725548045325e-06,1.0371977652532267e-06,1.2584270775672651e-06,3.039500462039191e-06
43,2.9592373073543193e-06,7.447396015936587e-07,8.956568344567078e-07,1.7743526526345654e-06,6.566482529427641e-07,9.184961114471612e-07,9.995206118494684e-07,1.7614154795252126e-06,2.406584608125699e-06,1.1702205876028508e-06,1.2322070741836874e-06,1.9332158601479335e-05,1.1125664213631e-06,1.0240399064467156e-06,1.2679395761502509e-06,3.08528903825876e-06
44,3.1163601745530038e-06,7.295721359517799e-07,8.963081041401626e-07,1.7525970191686015e-06,6.904102650520471e-07,9.204312640858218e-07,1.002144127068483e-06,1.7456514566192649e-06,2.432049947757866e-06,1.1279195620461856e-06,1.2424878377191483e-06,2.0311158758108526e-05,1.1068640521948152e-06,1.0098438760735258e-06,1.2755797511167805e-06,3.128612200372987e-06
45,3.2804712938361326e-06,7.173584189704277e-07,8.988248596322505e-07,1.7333042273097343e-06,7.278647285760706e-07,9.240799269602422e-07,1.003313281648683e-06,1.7287446221994912e-06,2.4555853042300434e-06,1.089002649858117e-06,1.2538445062308117e-06,2.1504573222453336e-05,1.0991740237053801e-06,9.947043849051083e-07,1.2807719917426868e-06,3.1677333776817828e-06
46,3.4507053103838087e-06,7.080035710854147e-07,9.028740948643548e-07,1.7163732266645226e-06,7.685174495517941e-07,9.295778889885671e-07,1.0028895115416364e-06,1.7109923824777856e-06,2.477046552023747e-06,1.05377358976892e-06,1.2660149764999463e-06,2.2885383125473284e-05,1.0891685236773358e-06,9.789378066052154e-07,1.2831046994473395e-06,3.2009047213963227e-06
47,3.6255648384844014e-06,7.013954941459064e-07,9.080272917244762e-07,1.7017080476359214e-06,8.118052597373732e-07,9.369777356210414e-07,1.0009958180658965e-06,1.6931481701464778e-06,2.496634628280084e-06,1.0224281985490687e-06,1.278701859167801e-06,2.4423424463997296e-05,1.0768024516143942e-06,9.630878980577171e-07,1.2823334859301102e-06,3.2266132282903297e-06
48,3.8029005515406396e-06,6.974636930953021e-07,9.137426611106896e-07,1.6891167552366038e-06,8.571503203269836e-07,9.462455908491118e-07,9.979178783821091e-07,1.6761343180505123e-06,2.51493128047954e-06,9.950834830625334e-07,1.291651096617184e-06,2.6085144099586784e-05,1.062318392214254e-06,9.478380245548611e-07,1.2783785571379602e-06,3.243687225899841e-06
49,3.979846751519404e-06,6.961597691122235e-07,9.194325532612117e-07,1.6783006171641278e-06,9.040097345360084e-07,9.572708062898624e-07,9.939844570263184e-07,1.6608101215495849e-06,2.532791411600999e-06,9.71807874184454e-07,1.3047826775117745e-06,2.7833024864517457e-05,1.0461264710470643e-06,9.338731872212759e-07,1.2713447643528872e-06,3.251320977333842e-06
50,4.152721134277282e-06,6.973828609596214e-07,9.245806388507533e-07,1.668896948783541e-06,9.518685405278713e-07,9.6993971309152e-07,9.894695548554242e-07,1.6478611597420885e-06,2.5510745465841717e-06,9.526420825802716e-07,1.318254435271462e-06,2.962526194620771e-05,1.0287200376448137e-06,9.217993221159639e-07,1.2615300248858717e-06,3.2491286274693203e-06
51,4.317014239540043e-06,7.009341027697828e-07,9.287847636051211e-07,1.660445575105309e-06,1.0001660218517376e-06,9.842061760563292e-07,9.84564913353309e-07,1.6378081159786044e-06,2.570342672618803e-06,9.375967199530781e-07,1.3323907906187842e-06,3.1418041763699564e-05,1.0106481124804468e-06,9.121067324851725e-07,1.249419314151438e-06,3.237236461041016e-06
52,4.467655994784471e-06,7.06538074998549e-07,9.317380452014938e-07,1.6523212270535764e-06,1.0482386871162758e-06,1.0000643978948853e-06,9.79442130106471e-07,1.6310238609133483e-06,2.590695675188606e-06,9.266505076117281e-07,1.3475714204712532e-06,3.3172065943967084e-05,9.924879037376982e-07,9.05166050835146e-07,1.2356353313396693e-06,3.216303310125826e-06
53,4.599635362130279e-06,7.139187261970161e-07,9.332714485714509e-07,1.6437873889549238e-06,1.0953801218920796e-06,1.0174600150995508e-06,9.743060349498126e-07,1.6276920987260945e-06,2.6117974444317392e-06,9.19730909298563e-07,1.3641718611372654e-06,3.4860045651600435e-05,9.748077835860383e-07,9.012821619109314e-07,1.2208352048677724e-06,3.187361367414035e-06
54,4.708792274747298e-06,7.228655204073045e-07,9.334423752305583e-07,1.6341881260301813e-06,1.1409932075232743e-06,1.036266986572494e-06,9.693518056075896e-07,1.6277430512728442e-06,2.6330036239101675e-06,9.16683053276853e-07,1.3825110780248166e-06,3.6468877037842636e-05,9.581338549751464e-07,9.007417633458673e-07,1.2056261690051435e-06,3.151489225526059e-06
55,4.792406368591068e-06,7.3322082046608e-07,9.325567775710743e-07,1.6231496749977169e-06,1.1846927216633592e-06,1.0563835406429803e-06,9.646694191372735e-07,1.6308083713812886e-06,2.653480330888849e-06,9.172869155053343e-07,1.402768356359949e-06,3.799446735993332e-05,9.429302724782104e-07,9.037958236951346e-07,1.1905163274674452e-06,3.1094698378461484e-06
56,4.8493036790004724e-06,7.44812323177881e-07,9.311098307186815e-07,1.6106655830661656e-06,1.2262474145831206e-06,1.0778577857880567e-06,9.60187844486446e-07,1.6362214202308433e-06,2.6722604562241947e-06,9.213083324373536e-07,1.424919749404185e-06,3.943427446192896e-05,9.295704665479661e-07,9.106208231656029e-07,1.1758467930341666e-06,3.061653847848884e-06
57,4.879511658654109e-06,7.574118697406459e-07,9.296861262872358e-07,1.597014488580036e-06,1.2654132172251665e-06,1.1009187154929011e-06,9.55718251166355e-07,1.643079636716908e-06,2.6883524914335154e-06,9.285152528988346e-07,1.4487323057301608e-06,4.0783618958912985e-05,9.182870614861705e-07,9.213030825550519e-07,1.16172423771878e-06,3.0081196251932302e-06
58,4.8836588001877855e-06,7.707462453799081e-07,9.288415499368757e-07,1.5825512294009044e-06,1.3018273710849877e-06,1.1258800505892913e-06,9.510945831808841e-07,1.6503564554838536e-06,2.701096656694018e-06,9.386678007427585e-07,1.4737907045933505e-06,4.2036110270960144e-05,9.091383631271559e-07,9.358225141536331e-07,1.1479997254608402e-06,2.948919508895241e-06
59,4.862327330519737e-06,7.845169372005385e-07,9.290060724841028e-07,1.5674927413319036e-06,1.335047873539528e-06,1.152998867681004e-06,9.463321219682233e-07,1.6570263205564902e-06,2.710558563264284e-06,9.515325018850747e-07,1.4995125685322974e-06,4.3185081589037807e-05,9.020093695022452e-07,9.540144722234635e-07,1.1342946558908295e-06,2.8841134087133694e-06
60,4.815699072044274e-06,7.983865533953503e-07,9.304531784532662e-07,1.551830435960124e-06,1.3646474799229606e-06,1.1823872260783412e-06,9.416997616994396e-07,1.6621796244862009e-06,2.7174730715102514e-06,9.668925757049678e-07,1.5251702994638418e-06,4.422498611544662e-05,8.966342870257082e-07,9.755342235266033e-07,1.120102780950929e-06,2.8136108839305528e-06
61,4.743800577407849e-06,8.119411446624126e-07,9.333360870802562e-07,1.5354040554893762e-06,1.3902333477840755e-06,1.2139947035503219e-06,9.376552778763635e-07,1.6651362700785886e-06,2.7227965782574926e-06,9.845338683060886e-07,1.5499393200082532e-06,4.515332543480824e-05,8.926213037990734e-07,9.998488475544227e-07,1.1049974248431976e-06,2.7371440006717975e-06
62,4.647183535874991e-06,8.246984515306419e-07,9.37747676057796e-07,1.5180554018905194e-06,1.41137165607863e-06,1.247620809953766e-06,9.34687484116452e-07,1.6655511063470407e-06,2.7273660991053936e-06,1.0042597691073755e-06,1.5729380122938838e-06,4.597255678531438e-05,8.894748265798932e-07,1.0262793071805544e-06,1.088837640852911e-06,2.6545641657816885e-06
63,4.527530775316606e-06,8.36212773837401e-07,9.437531496764357e-07,1.499746886057796e-06,1.4275171869326978e-06,1.2829162695695874e-06,9.331755625509521e-07,1.6634499159358233e-06,2.731792797004778e-06,1.0259199014611617e-06,1.5932885590141575e-06,4.66905434431e-05,8.866444793976467e-07,1.0541071865094522e-06,1.0718118081759521e-06,2.566278455314977e-06
64,4.387817022889068e-06,8.462066036813798e-07,9.513682329786535e-07,1.4805559469000747e-06,1.4380745614372081e-06,1.3193687749722886e-06,9.333264159331735e-07,1.6591462723747065e-06,2.7363976565738133e-06,1.0493787775821016e-06,1.610266379872085e-06,4.7318785409658585e-05,8.835934873653496e-07,1.0826805487612603e-06,1.0543236536923687e-06,2.473467763502954e-06
65,4.231973405402827e-06,8.546123142680425e-07,9.605105304864396e-07,1.4605588835786102e-06,1.442585370028815e-06,1.356293353391047e-06,9.351603524974309e-07,1.653062975742769e-06,2.7411287936927248e-06,1.074435344933266e-06,1.6234599361706864e-06,4.786877499403312e-05,8.798410671455987e-07,1.1114339590181861e-06,1.0368642397214626e-06,2.37793076182287e-06
66,4.064260659053957e-06,8.614963753871528e-07,9.70981915471782e-07,1.4397538460854254e-06,1.4408777923140067e-06,1.3928714236449155e-06,9.385154933911676e-07,1.6455362070479007e-06,2.745505583313225e-06,1.1007810416998439e-06,1.6327544453515569e-06,4.834766830835958e-05,8.749972021592596e-07,1.1398556841918865e-06,1.0199304836825926e-06,2.281715945968121e-06
67,3.888662887730444e-06,8.66940576651728e-07,9.82501362983922e-07,1.4180917967531515e-06,1.4330673882055787e-06,1.4282816234503165e-06,9.430960563836557e-07,1.636718155740324e-06,2.7486677163929964e-06,1.128049498379655e-06,1.638123107851716e-06,4.875523122391502e-05,8.688082571574768e-07,1.1674914629329638e-06,1.0039469483108807e-06,2.186782354383141e-06
68,3.7085365908066563e-06,8.710047572209047e-07,9.94777312238279e-07,1.3954959649852418e-06,1.4194815794248113e-06,1.4618465801352812e-06,9.485913958173078e-07,1.626636285106822e-06,2.7495482501878643e-06,1.1559199135895895e-06,1.6394481298636464e-06,4.908356630431807e-05,8.61146512629951e-07,1.1939997243814244e-06,9.892017248086733e-07,2.0947836864584627e-06
69,3.5265717313767593e-06,8.738142202746244e-07,1.007608804256683e-06,1.3718391637748323e-06,1.4006283532173535e-06,1.4930437673428948e-06,9.548167206140083e-07,1.6153155510430068e-06,2.7470019741788805e-06,1.1841857286878021e-06,1.6365182658967222e-06,4.931886046438128e-05,8.51954682999068e-07,1.2192206828399123e-06,9.75857555512068e-07,2.006970120849651e-06
70,3.344963408199395e-06,8.756549861695866e-07,1.020964608601769e-06,1.3470044200770098e-06,1.3772092876655534e-06,1.5213702113485329e-06,9.617751032743915e-07,1.602845082740779e-06,2.7398390358839863e-06,1.2127125831474607e-06,1.629109842053758e-06,4.944371711821298e-05,8.412585595570386e-07,1.2432132713642794e-06,9.640355440977505e-07,1.924196467056264e-06
71,3.1656236962786173e-06,8.769615685767137e-07,1.034964479073072e-06,1.3210092739478472e-06,1.3500832694774163e-06,1.5462527902244705e-06,9.69594267875961e-07,1.5893723473246122e-06,2.726943285827337e-06,1.2412951472242039e-06,1.6170467069601918e-06,4.9441034819733966e-05,8.292326640092349e-07,1.2661955967413262e-06,9.538810620939599e-07,1.8470096726443875e-06
72,2.9902813731428145e-06,8.782167179514969e-07,1.0497705706318921e-06,1.2940200174918973e-06,1.3201507249033857e-06,1.567147326424584e-06,9.784009212401163e-07,1.5750739313595648e-06,2.707453756592045e-06,1.2695384777936002e-06,1.6002523508103415e-06,4.9300448560685915e-05,8.161972043437425e-07,1.288380819050612e-06,9.45536495467933e-07,1.7757677244004014e-06
73,2.8204184227111335e-06,8.798532592732471e-07,1.0654810910292668e-06,1.2662509233558455e-06,1.2882397938491165e-06,1.58369801557524e-06,9.88228020465405e-07,1.5601679902347616e-06,2.6808282982961432e-06,1.296887730239515e-06,1.5788130848062166e-06,4.902362440387137e-05,8.025228773341462e-07,1.3098116418405598e-06,9.390905842377686e-07,1.7107232067873615e-06
74,2.657165056235213e-06,8.822074232592428e-07,1.0820779153266892e-06,1.2379269243122056e-06,1.2550489930149063e-06,1.5957729735325156e-06,9.989749121351315e-07,1.54498679114492e-06,2.6468457706511308e-06,1.3227646771835573e-06,1.5530447188053636e-06,4.862276620702073e-05,7.885493073413791e-07,1.3302892419878016e-06,9.345873791160097e-07,1.6520031601169075e-06
75,2.5013162558069783e-06,8.854933310377249e-07,1.099429493345231e-06,1.2093614117683772e-06,1.2211138635698516e-06,1.6034058919851909e-06,1.0104023354715252e-06,1.5300323722320899e-06,2.6057033337783284e-06,1.3466230989565976e-06,1.5235351874906912e-06,4.81131978483337e-05,7.745963480800028e-07,1.349410313395293e-06,9.320278389038647e-07,1.5995375223863388e-06
76,2.3534390824184918e-06,8.897801009484713e-07,1.1173515014743688e-06,1.1810280102683027e-06,1.1868049811440843e-06,1.6067470852458873e-06,1.0221665383964759e-06,1.5159147961761785e-06,2.5581528813295187e-06,1.367849964189532e-06,1.4910970373881517e-06,4.750747193990816e-05,7.609918105055226e-07,1.3666729460821307e-06,9.313349803051897e-07,1.5530894476154966e-06
77,2.2139346946892828e-06,8.950143183223824e-07,1.1356861299685057e-06,1.153547641975667e-06,1.1523981780414876e-06,1.6059981854211544e-06,1.0338938717411844e-06,1.503189495706082e-06,2.5055010419723043e-06,1.3856756878166426e-06,1.4566177675053205e-06,4.681475427926168e-05,7.480272542752787e-07,1.3815640741069442e-06,9.323949493798304e-07,1.5124023467752701e-06
78,2.083044933186949e-06,9.010911296961438e-07,1.1543314566903681e-06,1.1276051321200436e-06,1.1181782923579428e-06,1.6012971191963571e-06,1.0452808310526374e-06,1.492249357336938e-06,2.4494351695712867e-06,1.3992415503665023e-06,1.4208853935366984e-06,4.604239190615113e-05,7.358976597182056e-07,1.3935735980521339e-06,9.35186941036909e-07,1.4773449844265429e-06
79,1.9608726655672774e-06,9.079103821487077e-07,1.1732029898984023e-06,1.103844786325487e-06,1.0845159729654169e-06,1.592648377883556e-06,1.056176816591042e-06,1.4833625224950906e-06,2.3917664769391783e-06,1.4077901543396134e-06,1.3844675005149002e-06,4.51976205540494e-05,7.246930514596848e-07,1.4021887261296033e-06,9.398408071162673e-07,1.4479843323890372e-06
80,1.8474240124780594e-06,9.153974265347618e-07,1.1921659499021981e-06,1.082817667171201e-06,1.0518828088948634e-06,1.5799533911764013e-06,1.0665909565982984e-06,1.47674028515016e-06,2.3341618045349114e-06,1.4108745941906771e-06,1.347670480168578e-06,4.429054597425193e-05,7.144203020246605e-07,1.4069597450266612e-06,9.465582722757645e-07,1.4245453755347919e-06
81,1.7426226168596867e-06,9.2353282930829e-07,1.2109833529774882e-06,1.0649972734716012e-06,1.02077816213769e-06,1.5630707401925294e-06,1.076610497044582e-06,1.47250461499928e-06,2.2779473843906158e-06,1.4084929134408156e-06,1.3105648330436847e-06,4.33379192078078e-05,7.050511171939257e-07,1.4076590156827456e-06,9.55510928531058e-07,1.4072656863811308e-06
82,1.64626300119451e-06,9.323843455197783e-07,1.2292924457077505e-06,1.0507895714528852e-06,9.916144235531456e-07,1.5418938923238303e-06,1.0862776773043191e-06,1.4705933223158398e-06,2.224054879874173e-06,1.4010735521169922e-06,1.2730956188499553e-06,4.2364934348522167e-05,6.966338453499274e-07,1.4044216390945576e-06,9.667800113167615e-07,1.3962667709689958e-06
83,1.5579492455097025e-06,9.420745384248848e-07,1.246614542462892e-06,1.0405140909652547e-06,9.646499082928428e-07,1.516493069641355e-06,1.0954882070087022e-06,1.4706984779046029e-06,2.1730535001009522e-06,1.389309970656576e-06,1.235293307387142e-06,4.140305224048457e-05,6.894144737691013e-07,1.3977059999563028e-06,9.80312409568887e-07,1.3915196092961517e-06
84,1.4771201767526205e-06,9.526983422631813e-07,1.2624269913487996e-06,1.0343981058476475e-06,9.399781289773444e-07,1.4872540035535426e-06,1.1039732717874398e-06,1.4722654209240968e-06,2.125177557482411e-06,1.3739757817569629e-06,1.197460601568668e-06,4.048465400048615e-05,6.838324912897639e-07,1.3880972498522729e-06,9.958860929054448e-07,1.3928483835431964e-06
85,1.4032023893074438e-06,9.64287447034312e-07,1.2762807392556977e-06,1.032562940804229e-06,9.175369669859655e-07,1.4548696133217241e-06,1.1114057507575788e-06,1.4745626660778422e-06,2.0803188886583133e-06,1.3558402312948299e-06,1.1601802138186847e-06,3.963762980973652e-05,6.803807436613108e-07,1.3761576372192882e-06,1.0130926466094157e-06,1.3999083017867075e-06
86,1.3358174167625476e-06,9.768471603563746e-07,1.2878492091461054e-06,1.0349819561535923e-06,8.971363801728239e-07,1.4201599045684385e-06,1.1175678799846e-06,1.4768378225399117e-06,2.0380089893167748e-06,1.335626737504007e-06,1.1241562853458898e-06,3.8882656547182985e-05,6.794641580561791e-07,1.36239124802443e-06,1.0313327132664894e-06,1.412146329003086e-06
87,1.274915551753205e-06,9.904021776041725e-07,1.2968412427366058e-06,1.0414610587844354e-06,8.78490243253564e-07,1.3838735891197235e-06,1.1224215270382885e-06,1.4784912042299624e-06,1.9974973757763945e-06,1.3139698834060127e-06,1.090027421161504e-06,3.823335152313027e-05,6.81345386890335e-07,1.347227653831279e-06,1.0498253773282637e-06,1.4288054375596646e-06
88,1.220734596495738e-06,1.004997550637028e-06,1.3029094409936598e-06,1.0516501176868002e-06,8.612220731112774e-07,1.3466123371359913e-06,1.1260431358285132e-06,1.4791318394612416e-06,1.95801583737729e-06,1.2914131345066176e-06,1.0582714338262871e-06,3.7697720018561275e-05,6.861556493968997e-07,1.3310204063385463e-06,1.0676786538175392e-06,1.448988212472232e-06
89,1.173598335841621e-06,1.0206450191226861e-06,1.3057015560789873e-06,1.0650335135578047e-06,8.448867701164155e-07,1.3088503883821845e-06,1.1285768551365897e-06,1.4784700007633335e-06,1.9191130262503164e-06,1.2684270755273617e-06,1.0292103870174346e-06,3.727964806331143e-05,6.939164054699017e-07,1.3140806634111124e-06,1.0840609766745533e-06,1.4717242936333466e-06
90,1.1337096898752545e-06,1.0372507959337589e-06,1.3049927649251866e-06,1.080902161771552e-06,8.290692215438653e-07,1.2709806667145307e-06,1.130271186743102e-06,1.4761739074771725e-06,1.8808047555988227e-06,1.2454410991998221e-06,1.0030388317740053e-06,3.6980062786685534e-05,7.045432157280564e-07,1.296669214490603e-06,1.0983537819631047e-06,1.496039903433687e-06
91,1.1010538794816744e-06,1.0545940190136428e-06,1.3007701410282446e-06,1.0983530442893522e-06,8.134858876165987e-07,1.2333875688829951e-06,1.131487710221705e-06,1.4718590071148927e-06,1.8434718615427632e-06,1.2228786147128956e-06,9.79851752024084e-07,3.679804636595592e-05,7.178494972102734e-07,1.2789475131167538e-06,1.1101236278655824e-06,1.5210752654763841e-06
92,1.0753763386156174e-06,1.072387938424777e-06,1.2932576609321493e-06,1.1163228908134454e-06,7.979691701886307e-07,1.1965239541804936e-06,1.1326393867676142e-06,1.4652043229004049e-06,1.8077240322841361e-06,1.2011288284832122e-06,9.596818398561898e-07,3.673262928660477e-05,7.335712142702068e-07,1.2609867698739434e-06,1.11899775459714e-06,1.54619280487479e-06
93,1.0561835475833273e-06,1.0903728910713574e-06,1.2829305025856466e-06,1.133652989945982e-06,7.823949863727377e-07,1.1609161294038038e-06,1.1341106371141947e-06,1.4560409418571928e-06,1.7743983132363085e-06,1.1804879410384322e-06,9.424908082114727e-07,3.678516314376603e-05,7.514118127788004e-07,1.2428394533982576e-06,1.124629748670032e-06,1.5709518803954045e-06
94,1.0427727544953312e-06,1.1083620135543786e-06,1.2705255260377239e-06,1.1492165333160954e-06,7.666635401338742e-07,1.1270714946447256e-06,1.1361740693406456e-06,1.4443347422702716e-06,1.7445761596869113e-06,1.1611468655550891e-06,9.281030304410665e-07,3.6960460319855054e-05,7.710902890971195e-07,1.2245692695067333e-06,1.1267673204710655e-06,1.5949616982890584e-06
95,1.03429195452173e-06,1.126211574984528e-06,1.256996732475507e-06,1.162114402427697e-06,7.506994139716268e-07,1.0953570304434172e-06,1.138920669611505e-06,1.4301350922030108e-06,1.7194547544824528e-06,1.143241145046513e-06,9.161762665145215e-07,3.726490962108112e-05,7.923362533654424e-07,1.2061763858307362e-06,1.1253421845530619e-06,1.6178159875827374e-06
96,1.0298055537445324e-06,1.1437394786617267e-06,1.2433776387003391e-06,1.171853392165784e-06,7.344742220402573e-07,1.0659336317635637e-06,1.1422351258763414e-06,1.4135779979493808e-06,1.700128230665679e-06,1.1269687165122055e-06,9.062924952995593e-07,3.770239679364969e-05,8.148280500696461e-07,1.1874924470410217e-06,1.1205079417986822e-06,1.639243734460793e-06
97,1.0283695904491494e-06,1.1606375522625019e-06,1.2305977956492087e-06,1.178388354558819e-06,7.180823530471662e-07,1.0387893577708846e-06,1.145805028259401e-06,1.394917438048641e-06,1.6874408011968498e-06,1.1126821765271447e-06,8.981394417392229e-07,3.827111453665606e-05,8.381692836228513e-07,1.1681939257757634e-06,1.1126065206968494e-06,1.6592967653535113e-06
98,1.029164407838482e-06,1.1764526419354064e-06,1.2193454692144287e-06,1.1820120524979486e-06,7.017643254851035e-07,1.0138688896541219e-06,1.1491404527681968e-06,1.3744839179559234e-06,1.6819477199052973e-06,1.100829133326523e-06,8.916280837086792e-07,3.896329023018147e-05,8.619316641496081e-07,1.1479754762854444e-06,1.102142420877334e-06,1.6783112824752566e-06
99,1.0316635853288639e-06,1.1906886677491053e-06,1.2100204697255406e-06,1.1832031391658427e-06,6.858511099405711e-07,9.912058488729697e-07,1.1516187239858281e-06,1.3525774543726123e-06,1.6839185710724184e-06,1.09182254980602e-06,8.868313484846701e-07,3.976709026795154e-05,8.857037512604815e-07,1.126731773586445e-06,1.0897738514038634e-06,1.69666906084936e-06
100,1.0356953261049735e-06,1.202967602452165e-06,1.2027654406474889e-06,1.1825380195583398e-06,6.707276507303848e-07,9.70924857845956e-07,1.1525766805563716e-06,1.329417056055919e-06,1.6933584738191298e-06,1.0859792815701425e-06,8.838450044464433e-07,4.066898599560842e-05,9.091159133104498e-07,1.104561168147463e-06,1.0762298807417477e-06,1.714593364676578e-06
101,1.0413071198947721e-06,1.2131324770291327e-06,1.1975422405345723e-06,1.1806452917350635e-06,6.568089030043998e-07,9.531350442966423e-07,1.151446771457216e-06,1.3051862051444783e-06,1.7100867424198642e-06,1.0835123273082948e-06,8.827204478423675e-07,4.1655570268780684e-05,9.318426844854202e-07,1.0816054412952095e-06,1.062178451611817e-06,1.7321000350847966e-06
102,1.0485463011525237e-06,1.2212549012244922e-06,1.194192777904705e-06,1.178136151328707e-06,6.444853713104451e-07,9.378455592074514e-07,1.147927297586466e-06,1.2801032921468356e-06,1.7338673416944347e-06,1.0845652398673492e-06,8.834568629971632e-07,4.2714185772950894e-05,9.536097490147743e-07,1.057904263673008e-06,1.048144003023692e-06,1.74904997784891e-06
103,1.0573272587504424e-06,1.2275959103338514e-06,1.1924297144778094e-06,1.1755452243268606e-06,6.340747398532177e-07,9.249419864892489e-07,1.142120252123032e-06,1.2544624908471927e-06,1.7644785627956798e-06,1.089302952533472e-06,8.860046241149586e-07,4.383180499066328e-05,9.742044560656406e-07,1.0333816772098144e-06,1.034471895528704e-06,1.7652189135180072e-06
104,1.067410695282158e-06,1.2325736735468163e-06,1.1917833700739682e-06,1.1733149434452333e-06,6.258143588690116e-07,9.142087522935149e-07,1.1345065007520845e-06,1.2286508790482214e-06,1.8016793404529406e-06,1.0979563118055782e-06,8.902834552125512e-07,4.499244054999282e-05,9.934390879750066e-07,1.0079256540794752e-06,1.0213075566073016e-06,1.7803609139987009e-06
105,1.0784322329953246e-06,1.2367369477255414e-06,1.1916029698958922e-06,1.1717612508113146e-06,6.198733575615869e-07,9.053869653868563e-07,1.1257499898428954e-06,1.2031662565186564e-06,1.84516141845721e-06,1.1107369284016346e-06,8.962092691398206e-07,4.6174491735435616e-05,1.011111507512162e-06,9.814406221118395e-07,1.0086001724515937e-06,1.7942715638593488e-06
106,1.0899722632029707e-06,1.2406944119910916e-06,1.1911812457731022e-06,1.1710210565467664e-06,6.163413863970878e-07,8.982216866135784e-07,1.1165170683063527e-06,1.1786021957237747e-06,1.894508287177793e-06,1.1277109615361582e-06,9.037568535462266e-07,4.7349041346195534e-05,1.0270352304177179e-06,9.538614127184577e-07,9.961295872637889e-07,1.8067969235003483e-06
107,1.101649086916631e-06,1.2449984049594201e-06,1.1899618299465138e-06,1.1710576950855345e-06,6.151956721257434e-07,8.924652368982401e-07,1.1074539081459983e-06,1.1555505404923152e-06,1.9491292304522542e-06,1.1487424406354146e-06,9.130340553799226e-07,4.847887951966109e-05,1.0410621040181117e-06,9.252271355118695e-07,9.835608271728128e-07,1.8177616616160065e-06
108,1.1131507794622998e-06,1.2500880818177868e-06,1.1876985861553673e-06,1.171717309136016e-06,6.162950303606335e-07,8.878652773723619e-07,1.0992313111997492e-06,1.1344878850010769e-06,2.0082501935216795e-06,1.1735091318646674e-06,9.242522299382629e-07,4.9518819519424696e-05,1.053028061616798e-06,8.957826076945947e-07,9.705565065898789e-07,1.8269380563386622e-06
109,1.1241846184345356e-06,1.2563556633187783e-06,1.184448737365318e-06,1.1727669494144669e-06,6.194332291239732e-07,8.841861078783299e-07,1.0925112301304143e-06,1.1157613747311127e-06,2.071032218200833e-06,1.201566073308647e-06,9.376210854766887e-07,5.0419269020338374e-05,1.0627097620744528e-06,8.659647130005615e-07,9.569344722360418e-07,1.8341380191554207e-06
110,1.1344243249870378e-06,1.264229884441603e-06,1.1804046078310323e-06,1.1738886076793579e-06,6.244225862653643e-07,8.812614253404433e-07,1.0878573557830119e-06,1.0997007678730425e-06,2.1366914008398246e-06,1.2324378684711966e-06,9.532877529952783e-07,5.113367979315657e-05,1.0698691079911175e-06,8.36261529497228e-07,9.427655339655353e-07,1.8393280085040683e-06
111,1.1434915503795735e-06,1.2741453900252815e-06,1.1757025030714499e-06,1.1746444738473764e-06,6.31127647996191e-07,8.790184945258887e-07,1.0856871606981615e-06,1.0867595627408247e-06,2.204461978849397e-06,1.265677768165019e-06,9.713275011369144e-07,5.1627646669132555e-05,1.0743295421289938e-06,8.070765316299122e-07,9.2830975808008e-07,1.8426712457253992e-06
112,1.1509331604610787e-06,1.2864204426691784e-06,1.1703366962386468e-06,1.1744475772899472e-06,6.394123072218239e-07,8.774350304314633e-07,1.086301445859799e-06,1.077530358700082e-06,2.2734549963224093e-06,1.3008384629752268e-06,9.917672775808888e-07,5.1884958557619245e-05,1.0760098004174938e-06,7.78694079344621e-07,9.13847762338958e-07,1.8444838537238084e-06
113,1.1562278685683044e-06,1.3011737603295539e-06,1.164172412560792e-06,1.172579632662702e-06,6.49074253056014e-07,8.764593233431017e-07,1.089967661589703e-06,1.07264629956773e-06,2.342572303179891e-06,1.3374043065598012e-06,1.0146213597835716e-06,5.1905836043258785e-05,1.0749043022668622e-06,7.513209154541587e-07,8.99562419712091e-07,1.8451074168126613e-06
114,1.1588980176289274e-06,1.318339500819445e-06,1.1569936677990181e-06,1.1682344117213475e-06,6.598560136806581e-07,8.759480901977889e-07,1.0969669741640647e-06,1.0727049386088062e-06,2.4105180546780042e-06,1.3747998100621992e-06,1.0398760113949512e-06,5.169957026784839e-05,1.0710217770528944e-06,7.251372676381328e-07,8.85519221750019e-07,1.844790085114645e-06
115,1.1586717553924568e-06,1.337706869694639e-06,1.1485668313738926e-06,1.1605390702790328e-06,6.715109068784246e-07,8.756703235082136e-07,1.1075483714824374e-06,1.0782141416051922e-06,2.47588800305161e-06,1.4124821361390943e-06,1.0674178274325684e-06,5.128173983114573e-05,1.064303409438609e-06,7.003184677561662e-07,8.71686990075263e-07,1.8436962417950345e-06
116,1.1555700059410004e-06,1.358933236065972e-06,1.1387095549906528e-06,1.1486190360570827e-06,6.838343570152441e-07,8.753919409217819e-07,1.1218760721382246e-06,1.0895233477340781e-06,2.5373295310279046e-06,1.449987940229523e-06,1.0969729392488556e-06,5.067992795000642e-05,1.0545662634989125e-06,6.770174043262587e-07,8.579546081079266e-07,1.8420158993075493e-06
117,1.1498728665165781e-06,1.3815812962760999e-06,1.1273271618957362e-06,1.1317656139435814e-06,6.966280720301481e-07,8.749535733379118e-07,1.1400369291641735e-06,1.1068102825243157e-06,2.593670702672072e-06,1.4868540725232283e-06,1.128092331730939e-06,4.993886440189549e-05,1.041539836977558e-06,6.553462773284507e-07,8.441382242464536e-07,1.8400713389816976e-06
118,1.1420201659018023e-06,1.405194855042116e-06,1.1144053183298756e-06,1.1095973595392292e-06,7.096464130607583e-07,8.742458994797233e-07,1.162035776808791e-06,1.1301973806146914e-06,2.643877572904647e-06,1.5224709846179817e-06,1.1601775400181578e-06,4.911695955185872e-05,1.025045312271112e-06,6.354036596261686e-07,8.300266592969639e-07,1.8383278818576914e-06
119,1.1325436728204276e-06,1.429355081341376e-06,1.099994237846411e-06,1.082114431562474e-06,7.226014288750915e-07,8.731454078925355e-07,1.1877323058752532e-06,1.1599799632732344e-06,2.686879426927474e-06,1.555986733712189e-06,1.1925521080557694e-06,4.827673734175147e-05,1.0052346127450776e-06,6.173088339935767e-07,8.154668010890228e-07,1.8372522211911618e-06
120,1.122061742766633e-06,1.4536888344397311e-06,1.084188236096894e-06,1.0496952567090477e-06,7.352294052746659e-07,8.714967136767807e-07,1.2167885097666684e-06,1.1968191634715147e-06,2.7215728757611263e-06,1.5863624082675315e-06,1.2245612727021795e-06,4.7475925197334925e-05,9.826753057075326e-07,6.011837821158358e-07,8.003894383495164e-07,1.8371313038244774e-06
121,1.1112698645273051e-06,1.4778208223439422e-06,1.067073439174806e-06,1.0130973851098365e-06,7.473174597046727e-07,8.691150927547402e-07,1.2486773720159355e-06,1.2417227013625987e-06,2.7472907427473e-06,1.6125624362728794e-06,1.255643107758302e-06,4.676278465878502e-05,9.58185423000512e-07,5.871180924814343e-07,7.847902361610304e-07,1.838016357925262e-06
122,1.1008739019914768e-06,1.5012832022251263e-06,1.048708458455714e-06,9.734345349313102e-07,7.586440958661129e-07,8.658074163387484e-07,1.282708726172043e-06,1.2958228338383137e-06,2.7644598036291595e-06,1.6337376041236939e-06,1.2853120969532045e-06,4.617493413204418e-05,9.325895628161307e-07,5.751635433406882e-07,7.687423116603246e-07,1.839786518878771e-06
123,1.0914942910174753e-06,1.5234957376142389e-06,1.0292280767938181e-06,9.320876498902465e-07,7.689083755731145e-07,8.614314459189677e-07,1.3180387817209194e-06,1.3601613837100242e-06,2.774765746937583e-06,1.6493242839541965e-06,1.3130548155670035e-06,4.5739378816578214e-05,9.065994066164166e-07,5.653325038024727e-07,7.523745746243628e-07,1.8422467565546714e-06
124,1.083611340242903e-06,1.5438777802725896e-06,1.0089783663461405e-06,8.905668260964509e-07,7.777097233506329e-07,8.559350960977365e-07,1.353706987074657e-06,1.4356078528315034e-06,2.7806709574866627e-06,1.6590535644895942e-06,1.3382465275759776e-06,4.547258058556368e-05,8.808140869338155e-07,5.575976645153426e-07,7.357958458015215e-07,1.8452289695611639e-06
125,1.0775947545663822e-06,1.5619399224016673e-06,9.885064019983513e-07,8.503793930999645e-07,7.84600091523606e-07,8.493309494879642e-07,1.3887261078344449e-06,1.522821954893465e-06,2.7848443593098655e-06,1.6628334105503142e-06,1.3601603169560727e-06,4.538073234034678e-05,8.557558920831884e-07,5.519168792949973e-07,7.190545556308778e-07,1.8486871275837876e-06
126,1.0737636642392528e-06,1.5772404152415525e-06,9.684190839929081e-07,8.129699875477529e-07,7.892152666895298e-07,8.416525858780929e-07,1.4221739459650593e-06,1.6221882567815487e-06,2.7899251550480603e-06,1.660618347716726e-06,1.3780386082692388e-06,4.546022910094313e-05,8.319047687510047e-07,5.482610760533007e-07,7.021500423333981e-07,1.8527298412939162e-06
127,1.0723760666555437e-06,1.5893376805964743e-06,9.49294877818196e-07,7.797523234106934e-07,7.913982875605712e-07,8.329505562751336e-07,1.4532355434896068e-06,1.7337782054203944e-06,2.798524023839042e-06,1.6524746177258687e-06,1.391255794586289e-06,4.569765457438415e-05,8.09686741134407e-07,5.466383761349359e-07,6.850464228730751e-07,1.857551243686796e-06
128,1.0735550230745596e-06,1.5978826220383092e-06,9.317093531895433e-07,7.521526273176836e-07,7.911920994611711e-07,8.233020497361964e-07,1.4811936416787485e-06,1.8573804275768121e-06,2.8132027225681956e-06,1.638775129995949e-06,1.3995510331773552e-06,4.606937380217662e-05,7.894214564326497e-07,5.471110313341589e-07,6.676604702609505e-07,1.8633361866605707e-06
129,1.0772324625029013e-06,1.6027845275733704e-06,9.162439942421791e-07,7.315860569746326e-07,7.887459637632978e-07,8.127896102618868e-07,1.505373830976689e-06,1.9925595093424484e-06,2.836352334387923e-06,1.6202944006023363e-06,1.4031314211500656e-06,4.654205453222871e-05,7.713074605333432e-07,5.497710280999391e-07,6.498667282831644e-07,1.8702144827254042e-06
130,1.0831408982583772e-06,1.604290094862946e-06,9.034136562182115e-07,7.193978550723892e-07,7.842809589512305e-07,8.014978678020678e-07,1.5250975482968787e-06,2.138696598999482e-06,2.870078980524553e-06,1.5981399237861587e-06,1.402525834230928e-06,4.7075445213753985e-05,7.554781280132447e-07,5.546925737563829e-07,6.315762489289074e-07,1.8782252011481898e-06
131,1.0908740361619225e-06,1.6029091838142423e-06,8.935970719451383e-07,7.168324786585952e-07,7.781090452046547e-07,7.895729213023537e-07,1.5397744090073892e-06,2.2950219341948216e-06,2.916132094768955e-06,1.5735891813431882e-06,1.3983249412023015e-06,4.762754375673284e-05,7.420942063202999e-07,5.619019198125297e-07,6.128247141387822e-07,1.8872354615285076e-06
132,1.100019300759604e-06,1.5992427168575269e-06,8.87049932433338e-07,7.250303803094375e-07,7.706028374667808e-07,7.772767783617368e-07,1.549138864958965e-06,2.4606467927533195e-06,2.975845577435401e-06,1.5479106601400151e-06,1.3910347079314446e-06,4.8160394218914274e-05,7.314020066577833e-07,5.713601190951277e-07,5.937865165415187e-07,1.8968475611445443e-06
133,1.110270647882132e-06,1.593818235024365e-06,8.840091997465168e-07,7.450371357474692e-07,7.621232808090363e-07,7.649645506836565e-07,1.5534193498252845e-06,2.6345374615991464e-06,3.0501342008768767e-06,1.522222458449232e-06,1.3811069725101653e-06,4.8643801066353206e-05,7.237005750740517e-07,5.829423590477443e-07,5.747373944845891e-07,1.9063773789513495e-06
134,1.1214210038940912e-06,1.586997853970452e-06,8.847945510069401e-07,7.778209607337211e-07,7.529812783571872e-07,7.529990329065751e-07,1.553291920586563e-06,2.815406120558644e-06,3.1395053020756885e-06,1.4973970055001212e-06,1.3690071548372153e-06,4.905563929697014e-05,7.192513894707154e-07,5.964169601017853e-07,5.559991339807794e-07,1.9149077512393316e-06
135,1.133275556213689e-06,1.5789390619360847e-06,8.897829076818002e-07,8.242796936252006e-07,7.434441471014859e-07,7.416622046335204e-07,1.5496903697100623e-06,3.0016077310533004e-06,3.243984117829135e-06,1.4740088749053082e-06,1.3552181013671105e-06,4.937947065759228e-05,7.182025222112889e-07,6.11441038013769e-07,5.378845092306551e-07,1.9213896251881704e-06
136,1.1456384580507869e-06,1.569567415300526e-06,8.993016400698223e-07,8.852544703178952e-07,7.337496343805807e-07,7.311177923974778e-07,1.5435993949439725e-06,3.191108029053903e-06,3.3629980895843587e-06,1.4523212535447514e-06,1.3402226315925738e-06,4.9600443677460175e-05,7.205592491643155e-07,6.275647676993889e-07,5.206675739103572e-07,1.9248571386653136e-06
137,1.1584139259302965e-06,1.558559433118352e-06,9.1356537434661e-07,9.615744679320025e-07,7.241133384665535e-07,7.214437472140873e-07,1.53588779654127e-06,3.381480470429958e-06,3.495340515813283e-06,1.4322956602530271e-06,1.3244767633911976e-06,4.970052060766669e-05,7.262090181731681e-07,6.442357918237921e-07,5.045710281645484e-07,1.924723993763166e-06
138,1.1716717349866717e-06,1.54534769598003e-06,9.32652087488868e-07,1.0540733824177977e-06,7.147327106836241e-07,7.126976275684381e-07,1.527212288873316e-06,3.570012491947533e-06,3.63925049449935e-06,1.4136568707985547e-06,1.3083291250463053e-06,4.965612526021874e-05,7.349783564218482e-07,6.608465722462603e-07,4.897569966725177e-07,1.9209294777385045e-06
139,1.185567086367106e-06,1.5291898668525583e-06,9.564774329343834e-07,1.1635368527557002e-06,7.057743864899684e-07,7.049549114421476e-07,1.518012928161067e-06,3.7541364393635604e-06,3.7925856045190696e-06,1.3960540558798694e-06,1.2919304049410344e-06,4.9441306388813466e-05,7.466609360465806e-07,6.768387398206188e-07,4.763248171283144e-07,1.913789223171955e-06
140,1.2002130225922662e-06,1.509388369798331e-06,9.847818441937114e-07,1.2906593657011958e-06,6.973448645956954e-07,6.983084696647956e-07,1.5085423671845296e-06,3.9320973673655094e-06,3.953028933272045e-06,1.3792396789544871e-06,1.275234649259045e-06,4.9035455855872887e-05,7.610005143517823e-07,6.917937607110402e-07,4.643165679772856e-07,1.9036560513319704e-06
141,1.2156324237794563e-06,1.4856368466275555e-06,1.0171362889432469e-06,1.436055008519736e-06,6.894928198575075e-07,6.928569854659073e-07,1.4988545178627666e-06,4.103412207586426e-06,4.1182236164649465e-06,1.3631389862733868e-06,1.2581271555465696e-06,4.8431753112545204e-05,7.776811089054988e-07,7.054537228542261e-07,4.5373999020250874e-07,1.8906319716953456e-06
142,1.2317585639200956e-06,1.4582867457630142e-06,1.0529792789324589e-06,1.60023718962807e-06,6.822671523685648e-07,6.886861956904955e-07,1.4888043701806563e-06,4.268818713458978e-06,4.285772952923813e-06,1.3478134539769248e-06,1.2405879786116106e-06,4.764220586037647e-05,7.963444496246139e-07,7.176841867066444e-07,4.446163199540917e-07,1.8745151231435872e-06
143,1.2484164300129237e-06,1.428364883239093e-06,1.0917206230176012e-06,1.7835230837335673e-06,6.757627199777299e-07,6.85842142606671e-07,1.478114665754755e-06,4.42979896624582e-06,4.453179253693859e-06,1.3334232152234577e-06,1.2227212817507242e-06,4.6696055488256115e-05,8.166142281350832e-07,7.284013230920893e-07,4.370233281833484e-07,1.855005005310024e-06
144,1.2653049677951838e-06,1.3973786101401912e-06,1.1328686496803164e-06,1.9859437008497066e-06,6.700923915908122e-07,6.843162019544914e-07,1.466424991337781e-06,4.587932937233412e-06,4.6178382593629045e-06,1.3202397073808915e-06,1.2046220170240566e-06,4.563184605380246e-05,8.381326538936835e-07,7.37493296505917e-07,4.3109818700722384e-07,1.8320473305974665e-06
145,1.2820107066103737e-06,1.3670515376384052e-06,1.176051594454852e-06,2.207268881095159e-06,6.653374924167451e-07,6.840554166769895e-07,1.4533014003252468e-06,4.744338028752275e-06,4.777105806132352e-06,1.3086572666516056e-06,1.1862799732841678e-06,4.448771803057884e-05,8.605888380989795e-07,7.448072090593136e-07,4.270015012408687e-07,1.806100561142347e-06
146,1.2980377773915624e-06,1.3390974344150678e-06,1.2208971042782877e-06,2.4471915872126782e-06,6.615475814808798e-07,6.849833123046837e-07,1.4383194451931243e-06,4.899468861990516e-06,4.928374333549042e-06,1.2991220534382327e-06,1.1676788587562653e-06,4.329492339765556e-05,8.836884789301244e-07,7.50243746585193e-07,4.248688780096651e-07,1.7781437432360826e-06
147,1.3128334684296158e-06,1.315093821385007e-06,1.2669115343429986e-06,2.7055717716448667e-06,6.587656656718381e-07,6.869985723814725e-07,1.4212041196167743e-06,5.053405162072338e-06,5.0691220197588685e-06,1.2919956972036547e-06,1.148974944713959e-06,4.2075979070180696e-05,9.071029430033424e-07,7.538962065897516e-07,4.2478904588943437e-07,1.7494476267467304e-06
148,1.3258120181699564e-06,1.296471709042746e-06,1.3135015819759523e-06,2.982562207900652e-06,6.570363225497698e-07,6.899803071081732e-07,1.401873540260563e-06,5.206398361136203e-06,5.196944017196671e-06,1.2874798067644106e-06,1.130532042762786e-06,4.084549662237553e-05,9.304624846918078e-07,7.561085398729698e-07,4.2683383236867156e-07,1.7212946647883573e-06
149,1.3363905365609315e-06,1.2845416775721922e-06,1.36008282986335e-06,3.27854970603221e-06,6.564112433549485e-07,6.938498502510579e-07,1.3803618132901209e-06,5.359298849680316e-06,5.309604832281526e-06,1.2856349568565133e-06,1.1127853287918717e-06,3.9611324978751934e-05,9.533485592076164e-07,7.573907258550527e-07,4.31105528797173e-07,1.6947926357815792e-06
150,1.3440352972850727e-06,1.2804677580010169e-06,1.4061049759441354e-06,3.593972795180241e-06,6.569630894932226e-07,6.986242441410869e-07,1.3567454903389624e-06,5.513686365092023e-06,5.405109588074331e-06,1.2863906082719324e-06,1.0960976890135288e-06,3.8375006149721714e-05,9.752384700267891e-07,7.582845787740175e-07,4.3773929447520473e-07,1.670777813846344e-06
151,1.3482938510987436e-06,1.2852369020465477e-06,1.4509724713946718e-06,3.9290959677681366e-06,6.587783578145086e-07,7.043781381625379e-07,1.3311389582679986e-06,5.671803395309089e-06,5.48161054531868e-06,1.2895396017746263e-06,1.0807479853048008e-06,3.713189547108093e-05,9.954568197950497e-07,7.592930370111818e-07,4.468628048934945e-07,1.649760784599286e-06
152,1.3487959341081508e-06,1.2996965658734095e-06,1.4939966695640383e-06,4.2838020258572266e-06,6.619207229254328e-07,7.111611877104015e-07,1.3036845423157092e-06,5.836494164185476e-06,5.5370417060633496e-06,1.2947960774241047e-06,1.0670489308060691e-06,3.5871952132925436e-05,1.01319236896867e-06,7.608516210368304e-07,4.5856496460143744e-07,1.631915593575209e-06
153,1.3452603808182854e-06,1.3245948336023717e-06,1.5344327315340339e-06,4.65742774318934e-06,6.664017233608128e-07,7.189678763739589e-07,1.27448198090138e-06,6.011182847271778e-06,5.5689329277027e-06,1.3018523068843792e-06,1.0554396611134843e-06,3.4581884468259706e-05,1.0276015898957988e-06,7.632997030387088e-07,4.728849351384015e-07,1.6171334968168357e-06
154,1.3375819604798347e-06,1.3605407657574976e-06,1.5715538480438536e-06,5.0486204432017e-06,6.721683572784554e-07,7.277647679983321e-07,1.2435524813035075e-06,6.199707981876775e-06,5.574907130210857e-06,1.3103493484705122e-06,1.0464286958085436e-06,3.324851455946539e-05,1.038007617261068e-06,7.668572308920902e-07,4.897977929733235e-07,1.60519076236103e-06
155,1.3259905598109363e-06,1.407929258475526e-06,1.6047660320733718e-06,5.455182940947231e-06,6.790812300244079e-07,7.374971611252319e-07,1.2109192574788324e-06,6.405903465644484e-06,5.5535995521628604e-06,1.319866736043916e-06,1.0404782294502782e-06,3.186245649409405e-05,1.0441096312847498e-06,7.716052137343572e-07,5.091973564851654e-07,1.5960289679535916e-06
156,1.3111307734412825e-06,1.4669011557759279e-06,1.633758065912683e-06,5.873911696127896e-06,6.868865480447531e-07,7.480431750703639e-07,1.1767241806408257e-06,6.633075456929389e-06,5.505370266853363e-06,1.3300333752683176e-06,1.0379326548961754e-06,3.0420633632351425e-05,1.046025804585999e-06,7.774776749761265e-07,5.308920926436566e-07,1.5899690471177307e-06
157,1.2939353571420608e-06,1.537347641824866e-06,1.6585820422646656e-06,6.300524069608837e-06,6.952076945201971e-07,7.591783207392122e-07,1.1412881475930542e-06,6.883587415575827e-06,5.432478548392864e-06,1.3406401602371823e-06,1.038958661361539e-06,2.892630946177705e-05,1.0441150455752568e-06,7.842765037561164e-07,5.546028737249679e-07,1.5876670330797384e-06
158,1.2753951627839183e-06,1.6189595423285633e-06,1.6796015989285809e-06,6.729809645395041e-06,7.035761242685617e-07,7.706100746242012e-07,1.1051153157002764e-06,7.1586169571423176e-06,5.338729098240355e-06,1.3516325393861434e-06,1.0434907919921271e-06,2.7386398907463947e-05,1.0387423432139617e-06,7.917251869445814e-07,5.799462973208421e-07,1.589862623624922e-06
159,1.2564183660747094e-06,1.7112913844500173e-06,1.6973863278471986e-06,7.156023261697172e-06,7.114998221429604e-07,7.820638632536291e-07,1.0688503947021474e-06,7.458045359159409e-06,5.228836966190185e-06,1.3630667887521417e-06,1.0512142935096445e-06,2.580782245061473e-05,1.0301727372224982e-06,7.995803827043147e-07,6.064308027781769e-07,1.5971491263654865e-06
160,1.237793365585003e-06,1.8137527715112212e-06,1.712623214448167e-06,7.573406830919335e-06,7.185334138236568e-07,7.933660232759442e-07,1.0331785673931732e-06,7.780428405027117e-06,5.10780409221419e-06,1.3750759408505203e-06,1.0615818671681158e-06,2.4196470371504943e-05,1.0186147059972165e-06,8.077478958903125e-07,6.335067019894175e-07,1.6099100842952956e-06
161,1.2201646138721653e-06,1.925502455755279e-06,1.7260055807342907e-06,7.976656725005622e-06,7.243294908364121e-07,8.044856841545964e-07,9.986934876211098e-07,8.12297525421852e-06,4.980428082453202e-06,1.387775324428686e-06,1.0738517403782081e-06,2.256012623326076e-05,1.0043201492675432e-06,8.162967226412248e-07,6.606599305424868e-07,1.628374233619291e-06
162,1.2040199835471217e-06,2.045347112415579e-06,1.7380835871104116e-06,8.361089309403856e-06,7.286854499109013e-07,8.155175410435312e-07,9.65808250119614e-07,8.481441726225124e-06,4.850923813236883e-06,1.4011678501572852e-06,1.0871351028166234e-06,2.091160834830323e-05,9.87657692061215e-07,8.253569730996162e-07,6.874996263342264e-07,1.652645427982426e-06
163,1.189738858880536e-06,2.1717732168846234e-06,1.749154717417191e-06,8.722272576082316e-06,7.3155776737048e-07,8.266083450969076e-07,9.347651810873742e-07,8.849910539597539e-06,4.722676206116016e-06,1.4151488615771739e-06,1.1004722287419284e-06,1.9268121579405336e-05,9.6913096514769e-07,8.350176719003894e-07,7.138058476341327e-07,1.6826445875697854e-06
164,1.1777044622974389e-06,2.303132294340034e-06,1.7592269272041097e-06,9.055276514149345e-06,7.330000283156045e-07,8.378580093490662e-07,9.057137044005599e-07,9.220571498353478e-06,4.5981865410138215e-06,1.429550231056282e-06,1.1129778374428506e-06,1.7647679389092766e-05,9.493451081703299e-07,8.452968956801418e-07,7.395383341529854e-07,1.718026204485521e-06
165,1.1684307052956833e-06,2.437844558699372e-06,1.7680101952615012e-06,9.354375399085527e-06,7.330942057951239e-07,8.492419801648997e-07,8.787701010498127e-07,9.58370658144792e-06,4.479170700066634e-06,1.444125651024326e-06,1.1240225197152607e-06,1.6066177678384956e-05,9.289299725528977e-07,8.561366828380559e-07,7.64817206320405e-07,1.7581397062480227e-06
166,1.162619331705215e-06,2.5744398124157003e-06,1.7749195739171407e-06,9.613841998780819e-06,7.319583474861579e-07,8.605987058944446e-07,8.540068802784991e-07,9.928114609416611e-06,4.366640558486136e-06,1.4584913695777839e-06,1.1333208736742884e-06,1.4536648466221051e-05,9.084514125280491e-07,8.674029088590625e-07,7.898652738570477e-07,1.8020627552481893e-06
167,1.1610939142510486e-06,2.7113815929624943e-06,1.7791198575489879e-06,9.829289655243914e-06,7.297654128122433e-07,8.717069632664214e-07,8.313979780726618e-07,1.0242195788328907e-05,4.260878476756667e-06,1.4721369349931e-06,1.1408345972695902e-06,1.3069567349391203e-05,8.883596226119394e-07,8.789262827471759e-07,8.149287157016135e-07,1.848680947139998e-06
168,1.1646576950497113e-06,2.8468047337723455e-06,1.7796754505950694e-06,9.9985983157277e-06,7.266977784102983e-07,8.824088450557956e-07,8.107953914286924e-07,1.0515659569532612e-05,4.161471885811514e-06,1.4845804076564953e-06,1.1465998108805976e-06,1.1673203608349256e-05,8.689985902659664e-07,8.905805921594229e-07,8.402387697651017e-07,1.8967515980899788e-06
169,1.1739682025730658e-06,2.978382600709445e-06,1.7758021138642232e-06,1.0122058194828106e-05,7.228814307989684e-07,8.926652184665221e-07,7.91972148693866e-07,1.0741323443809428e-05,4.067555910550186e-06,1.4955817983400424e-06,1.1506620428069825e-06,1.0353966148584258e-05,8.506648751919112e-07,9.023358971511373e-07,8.660076359952668e-07,1.9449813399753074e-06
170,1.1894717776345126e-06,3.103451943759498e-06,1.7670617367254512e-06,1.0201791187218594e-05,7.183646907843378e-07,9.025112986928374e-07,7.7466829485374e-07,1.0916231446189388e-05,3.9780811490078564e-06,1.5052702876358582e-06,1.1531173762552142e-06,9.11664121937514e-06,8.336640892351595e-07,9.142252693629863e-07,8.923936592264685e-07,1.9922103167716177e-06
171,1.2113910187232888e-06,3.2193336084577266e-06,1.7533701589750848e-06,1.0240610011109239e-05,7.131400476663166e-07,9.12011148777035e-07,7.585719684518272e-07,1.104163120924011e-05,3.891910734485393e-06,1.514118780084197e-06,1.154148771112256e-06,7.9643842577991e-06,8.183128136499984e-07,9.262661992425661e-07,9.194515270873917e-07,2.0376580975289856e-06
172,1.2397392396424464e-06,3.3236754236425583e-06,1.7348866733639833e-06,1.024078633881517e-05,7.071643481646717e-07,9.212456175195186e-07,7.432691571739413e-07,1.112185594677704e-05,3.80784040044868e-06,1.522768906631646e-06,1.1540002902306416e-06,6.898738736718771e-06,8.049151521387944e-07,9.384253436427175e-07,9.471262087932972e-07,2.081019321244359e-06
173,1.2743559937895408e-06,3.4146777552019123e-06,1.7119297990103243e-06,1.0203568198383559e-05,7.003678498920438e-07,9.302675816406949e-07,7.282398392588535e-07,1.1162503113029933e-05,3.724665387672835e-06,1.5317934544958587e-06,1.1528863288576558e-06,5.919920203206029e-06,7.937606511505626e-07,9.506036749467691e-07,9.752700037215767e-07,2.1222933144729384e-06
174,1.3149960187437037e-06,3.4911636045276522e-06,1.6849611131237564e-06,1.0129783059950569e-05,6.926679778432486e-07,9.390359052872227e-07,7.129456260277295e-07,1.1168622380557158e-05,3.6412407888264358e-06,1.54153794878468e-06,1.1508918855091167e-06,5.027110290475452e-06,7.851114252191813e-07,9.625889027786034e-07,1.0036242382762103e-06,2.161564283915946e-06
175,1.3614500187606656e-06,3.552535624573367e-06,1.6545746858573369e-06,1.0020861058527733e-05,6.839675161641496e-07,9.47390412391725e-07,6.96995927168882e-07,1.1143780275551597e-05,3.556489659491378e-06,1.552070762278953e-06,1.1479246412574387e-06,4.218533525370575e-06,7.791628533091831e-07,9.740293239348784e-07,1.0317885575563955e-06,2.198943243647445e-06
176,1.4135920115159005e-06,3.5986817452174055e-06,1.6214451976763575e-06,9.87954580098598e-06,6.741615970835809e-07,9.550761450246043e-07,6.80285932332842e-07,1.1090237628035422e-05,3.4694599399237225e-06,1.563162337671647e-06,1.1437404866053762e-06,3.4914984093863156e-06,7.76014282386801e-07,9.84492530449023e-07,1.0592655854642507e-06,2.234510064933005e-06
177,1.4712988755814018e-06,3.629865951480407e-06,1.5862544714010585e-06,9.71014327326354e-06,6.632138565357976e-07,9.618151307014653e-07,6.629828306050969e-07,1.100960474149448e-05,3.379508814949048e-06,1.5742904804474597e-06,1.1380568445115832e-06,2.8425388560050956e-06,7.75649775474063e-07,9.935753574701598e-07,1.0855923893850847e-06,2.268135620113345e-06
178,1.534305540728374e-06,3.6466123333365356e-06,1.549613571365128e-06,9.51838951478797e-06,6.512427302964741e-07,9.67402003791837e-07,6.453797628927345e-07,1.090338627021153e-05,3.2865019487575067e-06,1.584713086061106e-06,1.130687605401663e-06,2.2675802118789746e-06,7.779256117558679e-07,1.0009897084485331e-06,1.1104562936913974e-06,2.2994129350016877e-06
179,1.6020924160053449e-06,3.6495565031960975e-06,1.5119863594153604e-06,9.31099872116493e-06,6.385119055244618e-07,9.717593298321026e-07,6.27777167209542e-07,1.0773372403761447e-05,3.1907904616908367e-06,1.5935408556581227e-06,1.1215600066748593e-06,1.7620859907840622e-06,7.825824732353597e-07,1.0065972244780003e-06,1.1337194350537723e-06,2.3278587743728948e-06
180,1.6738391422448572e-06,3.639223937024815e-06,1.473689120753217e-06,9.095020580746226e-06,6.253513235467102e-07,9.749430702223994e-07,6.104803308584251e-07,1.0621962777555531e-05,3.092893742785599e-06,1.5997582313013495e-06,1.1106307987677754e-06,1.3211754246817484e-06,7.892701543292888e-07,1.0104206711769056e-06,1.1553792459706076e-06,2.353225380517894e-06
181,1.7484194641204364e-06,3.6158213960987715e-06,1.4350113017487128e-06,8.87723977001656e-06,6.121058651912883e-07,9.771449508563494e-07,5.938252559935832e-07,1.0452357031392292e-05,2.9932148029048697e-06,1.602308874553915e-06,1.097903328213362e-06,9.39711767909018e-07,7.975867818934985e-07,1.0126377487240384e-06,1.1754988592183604e-06,2.3756701184981153e-06
182,1.8244071207164972e-06,3.5792715751469726e-06,1.3963462111143218e-06,8.66378493486796e-06,5.991153337891213e-07,9.786932036749682e-07,5.781433335842627e-07,1.026855114192651e-05,2.89215215439439e-06,1.6003317496276104e-06,1.0835615065676665e-06,6.123883013943913e-07,8.071677593072719e-07,1.0135236235215844e-06,1.1941027726674307e-06,2.3956494971660564e-06
183,1.9000744214347038e-06,3.5295416538385826e-06,1.358215068078521e-06,8.459896725464977e-06,5.866702216360193e-07,9.800027336215316e-07,5.636969866207408e-07,1.0075245607565084e-05,2.790461414671605e-06,1.5934254774249866e-06,1.0679777182553909e-06,3.337993917651329e-07,8.177779193639661e-07,1.0133569060425425e-06,1.2110675034348395e-06,2.4136079515005505e-06
184,1.9734222952424358e-06,3.4670085914143464e-06,1.3211885105407623e-06,8.26972194031828e-06,5.749609956667606e-07,9.814654725768122e-07,5.506519656752744e-07,9.877799245528481e-06,2.6894346296954456e-06,1.5817497910815675e-06,1.0515418971893826e-06,9.852555371410752e-08,8.29300399834924e-07,1.0123404247114864e-06,1.2260671963430695e-06,2.4297270637724757e-06
185,2.0423438448552036e-06,3.3926303193937283e-06,1.2857729010089564e-06,8.09607585131055e-06,5.640806036813377e-07,9.833468851146306e-07,5.390991411782765e-07,9.682215581901362e-06,2.5907363114248448e-06,1.5658788119997134e-06,1.03451974338833e-06,-9.866275944993413e-08,8.416382834409255e-07,1.0105458888956864e-06,1.2386074866517598e-06,2.4438814465577753e-06
186,2.104927099598473e-06,3.307926357397019e-06,1.252347276815025e-06,7.94020919596301e-06,5.540853845200451e-07,9.857436284451453e-07,5.290885180270812e-07,9.495064898862209e-06,2.496065994413983e-06,1.546499937395577e-06,1.017061878785035e-06,-2.6252359269066437e-07,8.546341696340073e-07,1.0078898261047984e-06,1.2481558316810587e-06,2.455660476422199e-06
187,2.159733928445428e-06,3.21487891868831e-06,1.221199116026068e-06,7.801751214357652e-06,5.45063314956389e-07,9.885768724929502e-07,5.206526844353548e-07,9.323244527844506e-06,2.4069223598829574e-06,1.5241931319087847e-06,9.993198038035393e-07,-3.9718528272520437e-07,8.680483179601432e-07,1.0041745248455203e-06,1.2543224303429165e-06,2.464433005179322e-06
188,2.205909829824335e-06,3.115822212658596e-06,1.192610887257399e-06,7.678951394233064e-06,5.371496046370378e-07,9.915819754380265e-07,5.138355126137041e-07,9.173490425669359e-06,2.3245687973598327e-06,1.4994401708264352e-06,9.815507501433183e-07,-5.061654596770116e-07,8.816111791841852e-07,9.99203080731383e-07,1.2570019514330382e-06,2.469630257936661e-06
189,2.2431384253901554e-06,3.013308582179271e-06,1.1668961402452296e-06,7.569023124938033e-06,5.30481350664468e-07,9.943172158666136e-07,5.087086297271981e-07,9.051680132694945e-06,2.250036686180834e-06,1.4727606280121964e-06,9.641136735429832e-07,-5.924361589141067e-07,8.951214696475794e-07,9.92901908319038e-07,1.256430729090535e-06,2.4711661975073654e-06
190,2.27150413052047e-06,2.909920764659044e-06,1.1443390968368433e-06,7.468302435169559e-06,5.251499038523597e-07,9.962229420519929e-07,5.053356210605819e-07,8.962188881331477e-06,2.1840781965090186e-06,1.444774179002275e-06,9.473737517117642e-07,-6.584833584874339e-07,9.084651374666515e-07,9.85332336387524e-07,1.2531476820365646e-06,2.4696791122083314e-06
191,2.2912695863964898e-06,2.808040093929055e-06,1.125098735495758e-06,7.3722322112546185e-06,5.211900890550558e-07,9.96686982632439e-07,5.037196211992017e-07,8.907567230444665e-06,2.127192820012284e-06,1.4161296757580145e-06,9.316028587081191e-07,-7.063878960663331e-07,9.215517026267157e-07,9.765755344551115e-07,1.2478475685176717e-06,2.4664452293470716e-06
192,2.302638680919874e-06,2.709633652225603e-06,1.1091573161883391e-06,7.275449739898913e-06,5.185850337368941e-07,9.950744784953374e-07,5.038089127612258e-07,8.88850451615762e-06,2.0797567730320185e-06,1.3873979649791996e-06,9.169418903410476e-07,-7.378816736541419e-07,9.342990199200038e-07,9.666267984962006e-07,1.2411855821875732e-06,2.463066389760674e-06
193,2.305695199912497e-06,2.61616956664817e-06,1.0963299827500546e-06,7.172225096485241e-06,5.172830391582303e-07,9.907903487054148e-07,5.055604718483791e-07,8.90383954731542e-06,2.0421087450352956e-06,1.3590224194010349e-06,9.034510574123506e-07,-7.543457011130124e-07,9.466799000984208e-07,9.554204447369306e-07,1.233652957897144e-06,2.461107366515987e-06
194,2.3005721409985826e-06,2.5287231783216155e-06,1.0863302951934464e-06,7.0572454619860645e-06,5.172382774772809e-07,9.834196577430978e-07,5.089915922480313e-07,8.950577412939018e-06,2.0145003063204266e-06,1.3313099598873785e-06,8.912145107679558e-07,-7.567860034076477e-07,9.587615280446327e-07,9.429617998859819e-07,1.225567799091936e-06,2.4618143515195293e-06
195,2.2876686554002904e-06,2.448176929221731e-06,1.0788666721031108e-06,6.926484571858651e-06,5.184291582497219e-07,9.72845612029655e-07,5.141677087803639e-07,9.024069596371155e-06,1.996963627056967e-06,1.3044240672518347e-06,8.804006546205069e-07,-7.458042952147334e-07,9.707072259020913e-07,9.294250859389307e-07,1.2171393119083663e-06,2.465973145804867e-06
196,2.2677543138359024e-06,2.375323843189807e-06,1.0736967058927293e-06,6.777794237146575e-06,5.208191419146427e-07,9.59232765589078e-07,5.211436158362208e-07,9.118335898120372e-06,1.989200153322559e-06,1.2784144541502342e-06,8.712169396449706e-07,-7.215933190785157e-07,9.827291421260112e-07,9.151046772322493e-07,1.2085802386227414e-06,2.4738729869453995e-06
197,2.2419443929738848e-06,2.3107813043573585e-06,1.0705969761056106e-06,6.610984210498648e-06,5.24324400163006e-07,9.428919400326391e-07,5.299209467570688e-07,9.226329090805765e-06,1.990541672454891e-06,1.2532993965132108e-06,8.638308655418156e-07,-6.839948599755706e-07,9.950040661732614e-07,9.00272906924863e-07,1.2002261880220803e-06,2.4853100996790295e-06
198,2.2115699377397895e-06,2.2548050530608957e-06,1.069316807097782e-06,6.427447134703841e-06,5.288627576352794e-07,9.241700422461979e-07,5.404601983341919e-07,9.34010091557127e-06,1.9999665147515975e-06,1.229143553714477e-06,8.583437681308925e-07,-6.325375644472307e-07,1.007589692163049e-06,8.850859806491309e-07,1.1925493483480415e-06,2.499611274950183e-06
199,2.1779880252919064e-06,2.2071600522506364e-06,1.0696223389122314e-06,6.2295499258059866e-06,5.344469327788936e-07,9.034641464225451e-07,5.527377502589031e-07,9.451037705431096e-06,2.0161812794525932e-06,1.206073797304012e-06,8.547853686344728e-07,-5.663268223568249e-07,1.020384777547238e-06,8.695976641001406e-07,1.1860224731628597e-06,2.5157135563974816e-06
200,2.1424179364371493e-06,2.167114730072337e-06,1.0713949551920974e-06,6.019928525185683e-06,5.412147468666765e-07,8.812578605606086e-07,5.668182338507812e-07,9.550339639652721e-06,2.037785529361792e-06,1.1842208242410482e-06,8.53095044792923e-07,-4.838548296715415e-07,1.033163249158297e-06,8.538454593280428e-07,1.180952168105422e-06,2.532321780756666e-06
201,2.105857874468211e-06,2.1335374539983048e-06,1.074632562223642e-06,5.8007958707788104e-06,5.493641328376292e-07,8.580663641291472e-07,5.828862606004647e-07,9.62978213893799e-06,2.063423413478928e-06,1.1636330925152098e-06,8.531295589639993e-07,-3.829547213266575e-07,1.045664077492894e-06,8.37946639571052e-07,1.1774006444095967e-06,2.5480689274330742e-06
202,2.0690447985291877e-06,2.1050558102859473e-06,1.0793428356680759e-06,5.573552957399528e-06,5.59063894742676e-07,8.343779626749849e-07,6.011901246556574e-07,9.68260937826529e-06,2.0918195572393543e-06,1.14422965504695e-06,8.54691508331268e-07,-2.6094646168896876e-07,1.0576851826150477e-06,8.22146908911101e-07,1.1752010483955262e-06,2.5616197121184263e-06
203,2.032398434081087e-06,2.0802374330769468e-06,1.085452245890031e-06,5.33893066089326e-06,5.704008765537993e-07,8.10683262848688e-07,6.219389839264484e-07,9.704244404814104e-06,2.121715294657692e-06,1.1258296251880401e-06,8.57532645822884e-07,-1.1478539923605008e-07,1.0691696465299706e-06,8.067818686025371e-07,1.1740633261201587e-06,2.5717483288381406e-06
204,1.9959767323662413e-06,2.0577599877932513e-06,1.0927633422947026e-06,5.0974612566192285e-06,5.833710273123838e-07,7.875027368608393e-07,6.452347455702785e-07,9.692499489851777e-06,2.1517489536964607e-06,1.108270989936653e-06,8.61347180262526e-07,5.894839312806126e-08,1.0802999890685107e-06,7.921674012004161e-07,1.1737713700152983e-06,2.577387900110063e-06
205,1.959487264845155e-06,2.0365542981152318e-06,1.1009440475164639e-06,4.849872986793952e-06,5.978961348189587e-07,7.653397685343926e-07,6.710529317924844e-07,9.647141838487516e-06,2.1803138371177696e-06,1.0915449658284925e-06,8.658067351081923e-07,2.6419927776141774e-07,1.0915308217126397e-06,7.785066926987103e-07,1.1743351656742462e-06,2.5776468137415477e-06
206,1.9223234315275594e-06,2.015894619258921e-06,1.1096013763690523e-06,4.597204958203642e-06,6.138354927484107e-07,7.446358826730915e-07,6.99238050248399e-07,9.568855401858088e-06,2.2055026137417183e-06,1.0758085790866094e-06,8.706625285167329e-07,5.055386514739617e-07,1.103490247294418e-06,7.658698073340992e-07,1.1759369175770844e-06,2.571878192927352e-06
207,1.8836540695061354e-06,1.9953799454502327e-06,1.1184162864462815e-06,4.3407108287641945e-06,6.309984349223646e-07,7.257857410886297e-07,7.295118973030517e-07,9.457984943487111e-06,2.2252970399435863e-06,1.0612960214879344e-06,8.758371328175173e-07,7.88061082794634e-07,1.1168690382751823e-06,7.542068060074667e-07,1.1787731025655015e-06,2.5598314110264297e-06
208,1.842669528597039e-06,1.9747781503214772e-06,1.1271834690929378e-06,4.0817708538916314e-06,6.491784592524389e-07,7.091548801984474e-07,7.615416853369601e-07,9.313880988393636e-06,2.238025746172742e-06,1.04828497981962e-06,8.813825695827164e-07,1.1171374868284267e-06,1.132399607542959e-06,7.433697415302595e-07,1.1830043006635756e-06,2.5417525222722e-06
209,1.7989131086336744e-06,1.9538511694747e-06,1.13571902200734e-06,3.821991120903556e-06,6.681749326919878e-07,6.950533393539756e-07,7.950790115198451e-07,9.1353087053139e-06,2.242860240927142e-06,1.0371324004102132e-06,8.873760393015973e-07,1.4981963824228993e-06,1.1508146466493952e-06,7.331881833504727e-07,1.1887735413390787e-06,2.518315177031725e-06
210,1.7524624978580822e-06,1.9323517200201006e-06,1.1438099706281083e-06,3.563461635978335e-06,6.877988397441617e-07,6.837058152701082e-07,8.300799491558628e-07,8.921442363440903e-06,2.240055885299545e-06,1.0282620956473394e-06,8.939046333579283e-07,1.936586728595142e-06,1.1727432246701986e-06,7.235851922020167e-07,1.1961499933304621e-06,2.4904064701734057e-06
211,1.7038570438270676e-06,1.9101636094278676e-06,1.1513174398515217e-06,3.3089814364769583e-06,7.07922352226702e-07,6.752497238433563e-07,8.666979097604295e-07,8.67273333852607e-06,2.2308605535196183e-06,1.022071096419291e-06,9.010777268412775e-07,2.437483730277683e-06,1.1986529878191273e-06,7.14622393196312e-07,1.2050323651505926e-06,2.4588704076031266e-06
212,1.6538953889822598e-06,1.887356578235458e-06,1.158313405854584e-06,3.0620791244417353e-06,7.285478587813723e-07,6.697275019922817e-07,9.051572179913666e-07,8.391333106810759e-06,2.217192313937231e-06,1.0188250282730333e-06,9.089634360803317e-07,3.0058137184265667e-06,1.2288534138395997e-06,7.064430775284103e-07,1.2151071826893229e-06,2.424349882298383e-06
213,1.6034692101400591e-06,1.8640824851127172e-06,1.1650756327840524e-06,2.8267929488746242e-06,7.49794705593939e-07,6.670691672064952e-07,9.456388975534909e-07,8.081042174470941e-06,2.2012022085867213e-06,1.0186061761676217e-06,9.175054964758214e-07,3.646155322451955e-06,1.2634914865333867e-06,6.992262770501369e-07,1.2258892043200984e-06,2.3873082270892784e-06
214,1.553460104480469e-06,1.840462365078385e-06,1.171938694294129e-06,2.6073217681336074e-06,7.717957604963741e-07,6.671211644656995e-07,9.882595042415257e-07,7.746887149703088e-06,2.184869127087918e-06,1.0213457035896412e-06,9.265027759187877e-07,4.362603051436412e-06,1.3025388035820748e-06,6.931951653623754e-07,1.2368354353938297e-06,2.348103307522042e-06
215,1.504638428929955e-06,1.8165781042263339e-06,1.1791473012695217e-06,2.407750112303565e-06,7.946002579502022e-07,6.697356838888677e-07,1.033078181339468e-06,7.39449018771024e-06,2.1697697411615806e-06,1.026924948787461e-06,9.35668741047033e-07,5.158684652741516e-06,1.3458345414381692e-06,6.885929243028493e-07,1.2474400185935728e-06,2.3069493244376493e-06
216,1.4575776181711446e-06,1.7925378541249391e-06,1.186802568473143e-06,2.231993063321844e-06,8.181555471876551e-07,6.748539948828124e-07,1.0800647161139936e-06,7.029449933046548e-06,2.157029107701412e-06,1.0352402515497511e-06,9.447334722606279e-07,6.037389159183384e-06,1.393190898887713e-06,6.856087417432547e-07,1.2572060068780225e-06,2.2638147002788744e-06
217,1.4126695788790241e-06,1.7685515982938491e-06,1.1948732543674765e-06,2.0838953787720236e-06,8.42371755172861e-07,6.825172731886898e-07,1.1290376536079628e-06,6.656939745610891e-06,2.147363664180246e-06,1.0461522361574854e-06,9.535111829694394e-07,7.0012677526778645e-06,1.4444516438804943e-06,6.843324326289142e-07,1.2656034498948201e-06,2.2184018408307027e-06
218,1.370247316953093e-06,1.7449891188029105e-06,1.2032382481440585e-06,1.9672789006784657e-06,8.672170331605973e-07,6.928036542361909e-07,1.1796095664254207e-06,6.281523179994497e-06,2.1411648894094828e-06,1.0594172508175791e-06,9.618925831038229e-07,8.052557371216e-06,1.49943588095061e-06,6.847780215520037e-07,1.272208668679736e-06,2.1702805829895707e-06
219,1.3306988115757112e-06,1.722386971401163e-06,1.2117553634072555e-06,1.885881904514642e-06,8.927530530591493e-07,7.057393991360464e-07,1.2311995255061278e-06,5.907005277786656e-06,2.138614224531994e-06,1.074746733922779e-06,9.697820625350652e-07,9.193254583401723e-06,1.5578454676423189e-06,6.869301016373945e-07,1.2769623103833918e-06,2.1191608282051177e-06
220,1.2944588299446686e-06,1.7013737623665612e-06,1.2203069498693854e-06,1.8433478308860052e-06,9.190702665891153e-07,7.212343631764076e-07,1.2831518209223755e-06,5.5363068817653795e-06,2.139811665925881e-06,1.0919675522411322e-06,9.77026738354078e-07,1.0425113496002335e-05,1.61921694603159e-06,6.907486340725266e-07,1.280284040955972e-06,2.0651791709684485e-06
221,1.2618992855656384e-06,1.6825481554611534e-06,1.22875499883863e-06,1.8432997448869616e-06,9.461877907932499e-07,7.390574073883662e-07,1.3349057050459367e-06,5.1715897330266355e-06,2.1448873159709224e-06,1.1111033878420936e-06,9.834164779147788e-07,1.1749667907732643e-05,1.6829081389038446e-06,6.96144658004703e-07,1.2829243360762963e-06,2.0090228712237516e-06
222,1.2332474396677592e-06,1.6663789258674483e-06,1.2368374631573607e-06,1.8893204806137067e-06,9.740048085098577e-07,7.588331294691895e-07,1.3861007684898633e-06,4.814651128003745e-06,2.154067166139885e-06,1.132292836539361e-06,9.887867588342048e-07,1.3168325011308985e-05,1.7480860452591232e-06,7.029809280746214e-07,1.2856974964533497e-06,1.9518318091322305e-06
223,1.208589272668037e-06,1.6531410056443571e-06,1.244110817829304e-06,1.9847873912933637e-06,1.0023023254796127e-06,7.8004013682467e-07,1.4365377838798924e-06,4.4672636395720855e-06,2.167668821823545e-06,1.1557023853189438e-06,9.93106639674295e-07,1.4682396405382865e-05,1.813705810396547e-06,7.111280588847074e-07,1.2892882567497593e-06,1.8949751332563973e-06
224,1.187883689916317e-06,1.6428543196698963e-06,1.2499822816364295e-06,2.1327218103705223e-06,1.030744887170288e-06,8.020164345798402e-07,1.486022867140745e-06,4.131232064051524e-06,2.186040284291872e-06,1.1815517871008837e-06,9.964349572380338e-07,1.6292911574730958e-05,1.8784894376498945e-06,7.205525007842928e-07,1.2941737836614397e-06,1.8398340106198823e-06
225,1.1709471903754124e-06,1.635226742766423e-06,1.2538013456418217e-06,2.3357582956739034e-06,1.0589020964832106e-06,8.240100087519566e-07,1.5342320089825296e-06,3.8082565497309927e-06,2.209523099211864e-06,1.210113986171792e-06,9.988231886362546e-07,1.800015636839606e-05,1.9409227949155793e-06,7.313403030639092e-07,1.300617307715599e-06,1.7876524241544673e-06
226,1.1574709687323714e-06,1.629653269961819e-06,1.2549771112601178e-06,2.596184231922944e-06,1.0863283025923285e-06,8.452885509309452e-07,1.580675319240698e-06,3.499804917381618e-06,2.2385171400245086e-06,1.2416111726519534e-06,1.000304181651959e-06,1.980294843920113e-05,1.9993378542225223e-06,7.436185258453458e-07,1.3087026257778411e-06,1.739444658749587e-06
227,1.1471057681015169e-06,1.6253070612623808e-06,1.2530998403622518e-06,2.915961076490993e-06,1.1126407207071735e-06,8.652193568976344e-07,1.6246892815976428e-06,3.2070976398353403e-06,2.273605739217749e-06,1.27611548343253e-06,1.0009408983585996e-06,2.1697753373211152e-05,2.05216316021977e-06,7.574680979122064e-07,1.3184060388327046e-06,1.6959288922086174e-06
228,1.1395742108153864e-06,1.6212667539087406e-06,1.248043414248237e-06,3.296710843163584e-06,1.1375094518317844e-06,8.832417367249041e-07,1.6654406374912496e-06,2.9311535188486217e-06,2.315574529787346e-06,1.3135090128161157e-06,1.0008218574744138e-06,2.3677804367965945e-05,2.098243338303817e-06,7.729171066016647e-07,1.3296801439162582e-06,1.6574946208195956e-06
229,1.1347624010934879e-06,1.6165844526238699e-06,1.2400125951478427e-06,3.739721712425428e-06,1.160587635999084e-06,8.988420711957735e-07,1.702021415735211e-06,2.6727835749519223e-06,2.365209014744437e-06,1.353497439068255e-06,1.000025715655104e-06,2.5732316053434407e-05,2.136994893376536e-06,7.899880831516829e-07,1.3424756517441478e-06,1.6242553050301065e-06
230,1.1327476496992332e-06,1.6103047103868995e-06,1.2295049812754344e-06,4.246002199773805e-06,1.1814938522940477e-06,9.116501237372465e-07,1.733597326421435e-06,2.4325188053332087e-06,2.423001089544995e-06,1.3956935024198132e-06,9.986669367355185e-07,2.7845818263133556e-05,2.16835379922356e-06,8.087153341072753e-07,1.3566954900873668e-06,1.5961911495552092e-06
231,1.1337339901246082e-06,1.6015266152655848e-06,1.2172134824092937e-06,4.816319628842221e-06,1.1998585278944462e-06,9.21552888999574e-07,1.7594949950567739e-06,2.2105898587167787e-06,2.489016369363494e-06,1.4397495521445054e-06,9.969949076941742e-07,2.999765276717311e-05,2.1926714314950327e-06,8.291193076030774e-07,1.3721557885391105e-06,1.5733165715640283e-06
232,1.1379390002184298e-06,1.5895375795427942e-06,1.2039164043609576e-06,5.451091805551566e-06,1.2153310049516272e-06,9.286816300716859e-07,1.7791802746807454e-06,2.0070388379157787e-06,2.5629661391331484e-06,1.4854726799245791e-06,9.954155435031272e-07,3.216163774051629e-05,2.210644155592437e-06,8.5116025027415e-07,1.3886280602146778e-06,1.5558157521222355e-06
233,1.1455261070341537e-06,1.5739769909504172e-06,1.1903736753505323e-06,6.1500874241136124e-06,1.2275353370374194e-06,9.332855057754234e-07,1.7921480678240764e-06,1.821861539099247e-06,2.6442797971165773e-06,1.5328529741531728e-06,9.944073894052483e-07,3.4305865250066044e-05,2.223185731642489e-06,8.74678472236307e-07,1.4059676842605315e-06,1.5441005143108796e-06
234,1.1566201802762316e-06,1.554959759162835e-06,1.1772606612638606e-06,6.912112710369813e-06,1.2360938165640366e-06,9.355997908282334e-07,1.7978580301739437e-06,1.655031974958461e-06,2.732042619186255e-06,1.5819783007430642e-06,9.944039534062264e-07,3.639352091283586e-05,2.2311748119796776e-06,8.993634118146426e-07,1.4241800661285637e-06,1.5387782398893392e-06
235,1.1713405933038422e-06,1.5330494435897972e-06,1.1651441298999898e-06,7.734886554042026e-06,1.2407780527361087e-06,9.357950677779219e-07,1.7958650193902764e-06,1.506427814562199e-06,2.824901000613641e-06,1.6329138736810876e-06,9.957139154249234e-07,3.838708042498952e-05,2.2352003889886204e-06,9.247612716208291e-07,1.4433268624938239e-06,1.540562808775116e-06
236,1.1897664186070964e-06,1.509043074153042e-06,1.1544515705242994e-06,8.615097273058469e-06,1.241685258588195e-06,9.340066121154945e-07,1.7860637282676178e-06,1.3757898836079925e-06,2.921055666674468e-06,1.68565097879303e-06,9.985089330881145e-07,4.025602391872897e-05,2.2354578450583723e-06,9.503076494212352e-07,1.4634144737187063e-06,1.5501426044763507e-06
237,1.2118387922175798e-06,1.4837425022963051e-06,1.1454269463557238e-06,9.54858586137962e-06,1.2392907075292247e-06,9.304006503895692e-07,1.7688400657920644e-06,1.2627608798895577e-06,3.0183365623450328e-06,1.7400959316358084e-06,1.0028455691549335e-06,4.198291157355883e-05,2.2318229174067172e-06,9.754015762530803e-07,1.4843735445369135e-06,1.5680464560282645e-06
238,1.237276247247087e-06,1.45789823172686e-06,1.1380985161507213e-06,1.0530644520480983e-05,1.2343460653336818e-06,9.252543999514827e-07,1.7450618561893364e-06,1.1669213083078395e-06,3.1143573910993247e-06,1.7960275344851383e-06,1.0086744976445757e-06,4.35626230605822e-05,2.224042545544889e-06,9.994578568490387e-07,1.50605353272615e-06,1.594571434768407e-06
239,1.265549368439251e-06,1.4322581096935237e-06,1.1322629463417661e-06,1.1556295234120252e-05,1.2277134789422777e-06,9.190138122177495e-07,1.7159676611028108e-06,1.0877575486224766e-06,3.2067687109214517e-06,1.8530699336489096e-06,1.01582624523477e-06,4.499572466216966e-05,2.2119334901841074e-06,1.0218810415606749e-06,1.528198052721234e-06,1.6297567895808733e-06
240,1.2959293137684803e-06,1.4075672242683195e-06,1.1274879532461768e-06,1.2620342780697398e-05,1.220225476936668e-06,9.122821294968688e-07,1.6830076509334867e-06,1.0246151150239517e-06,3.293528376469016e-06,1.9107286434359878e-06,1.0239857069648602e-06,4.628101196915694e-05,2.1954973869603067e-06,1.0420687896516348e-06,1.5504610165245091e-06,1.6733493232927424e-06
241,1.3276261703012046e-06,1.3845251028412736e-06,1.1231605043306393e-06,1.3717152992785757e-05,1.2125932006310613e-06,9.057460365463147e-07,1.6476551902303606e-06,9.766981894811427e-07,3.3730627018323975e-06,1.9684488739811477e-06,1.032684407128244e-06,4.741080567504198e-05,2.174941439081889e-06,1.0595082996987748e-06,1.5724796317310365e-06,1.7247574528715436e-06
242,1.3599855025723813e-06,1.3637834012801415e-06,1.1186036827500578e-06,1.484029594054571e-05,1.2053440017926432e-06,9.000946403145603e-07,1.6112283314386041e-06,9.430788748112792e-07,3.444287347136687e-06,2.02569326467855e-06,1.0413600041785135e-06,4.836897838960624e-05,2.1506477496273775e-06,1.0738508603031512e-06,1.593974059488451e-06,1.7830499841595841e-06
243,1.392644566223171e-06,1.345986538850268e-06,1.1132150807170168e-06,1.598223472315269e-05,1.198782154721112e-06,8.959683534062707e-07,1.5748054349753895e-06,9.22687484697632e-07,3.5065357353794364e-06,2.0820453151503592e-06,1.0495075630963033e-06,4.9130449423459764e-05,2.1231366668855266e-06,1.0849102826608322e-06,1.6148382102691016e-06,1.8470820952778774e-06
244,1.4255498615821703e-06,1.3317851413836724e-06,1.1065474374947487e-06,1.7134153010429968e-05,1.1929709996049331e-06,8.939258761179182e-07,1.5392591226016157e-06,9.143120474856045e-07,3.5594265863700207e-06,2.1372233642757004e-06,1.0568135607319593e-06,4.966306263117775e-05,2.0930341766863487e-06,1.0926738520012605e-06,1.635167573529219e-06,1.9157528374837857e-06
245,1.4588307084237343e-06,1.3217742676091566e-06,1.098307336460936e-06,1.8285893828146414e-05,1.1877295552831991e-06,8.944099157976364e-07,1.505316079454536e-06,9.166191859938239e-07,3.60264267626925e-06,2.190939848689123e-06,1.063152863729757e-06,4.9933529754199585e-05,2.061020845238193e-06,1.0973498089398156e-06,1.655190626007579e-06,1.988238559324867e-06
246,1.4926400087520441e-06,1.316385991668149e-06,1.088314088121627e-06,1.942588110739302e-05,1.1826839866343517e-06,8.977219497787925e-07,1.4735557980807935e-06,9.281811035799826e-07,3.6356422911542855e-06,2.242785956406144e-06,1.0685688506694316e-06,4.991585100839717e-05,2.027772915125552e-06,1.099353446694436e-06,1.675140066219278e-06,2.064038374128956e-06
247,1.5270735274055644e-06,1.3158082660864995e-06,1.076482140060454e-06,2.0540826593965353e-05,1.1774273088833278e-06,9.040101685999698e-07,1.4443586189937597e-06,9.474919399745284e-07,3.6575507305885534e-06,2.2923132728230136e-06,1.0733539813805338e-06,4.959807995523868e-05,1.9939587195865806e-06,1.0991823296845364e-06,1.6951277915745774e-06,2.1428344401842797e-06
248,1.5621699497802188e-06,1.3199594749344159e-06,1.062815887277928e-06,2.161503652408722e-05,1.171750865182995e-06,9.132629717966916e-07,1.417860554630843e-06,9.729896504645736e-07,3.6674459443042903e-06,2.339242736033259e-06,1.0780677319056028e-06,4.898388755104358e-05,1.9602893499977878e-06,1.0972649769535351e-06,1.7150600400949467e-06,2.224284700055441e-06
249,1.5979146254362385e-06,1.3285095484583458e-06,1.0473580507528359e-06,2.2629635748664375e-05,1.1658316161855312e-06,9.25335160885706e-07,1.3939379857112376e-06,1.0030918530801178e-06,3.664825902214539e-06,2.383661660392926e-06,1.083374651742861e-06,4.808784738003393e-05,1.9274960578971677e-06,1.0938865350802936e-06,1.7346025615342363e-06,2.3078766905919175e-06
250,1.6341838212927507e-06,1.3409646381601413e-06,1.0301661927009965e-06,2.356300250442456e-05,1.1602692872731135e-06,9.400358872701622e-07,1.37220997174235e-06,1.0362347657664625e-06,3.649877428371127e-06,2.4260838337649534e-06,1.0898531499997394e-06,4.6928428053051035e-05,1.8961662759550922e-06,1.0892045916507228e-06,1.753222106722279e-06,2.392907087928158e-06
251,1.6706533338331719e-06,1.3568007284147355e-06,1.0114252633577556e-06,2.4393485407751864e-05,1.1559455239902386e-06,9.572197868440642e-07,1.3520694081377247e-06,1.0709658919172556e-06,3.623411729974258e-06,2.4672673096518985e-06,1.0979119820994952e-06,4.5525666183112244e-05,1.8665913451312682e-06,1.0833278929955333e-06,1.7703342977845901e-06,2.4785162063479046e-06
252,1.7067551617540997e-06,1.3755367740568643e-06,9.915846359947932e-07,2.5103530501508123e-05,1.1538047886581212e-06,9.767811988491625e-07,1.3327367721419163e-06,1.1060877006420107e-06,3.5865952789185434e-06,2.507904718129375e-06,1.1077751186880084e-06,4.3904157424723456e-05,1.8387977656469067e-06,1.0764437324440818e-06,1.7854559099417058e-06,2.5636507563847713e-06
253,1.741735896168784e-06,1.3966784470908826e-06,9.713370293923781e-07,2.5683065846523774e-05,1.1547391156926104e-06,9.985741336434155e-07,1.3132978238114915e-06,1.1407182625076035e-06,3.5407549920337202e-06,2.5484674323187303e-06,1.119478901527497e-06,4.2094336131010924e-05,1.812670402255046e-06,1.0689176944789479e-06,1.798195280622084e-06,2.646962088115295e-06
254,1.7748376069194218e-06,1.4196282563728715e-06,9.51451550934158e-07,2.613065510711708e-05,1.1596391489702608e-06,1.0223525440154805e-06,1.2927792938823249e-06,1.174211754451513e-06,3.4874349584366783e-06,2.5892748406938667e-06,1.1328946798988572e-06,4.012861746199532e-05,1.7879877795276805e-06,1.0612569005653183e-06,1.8081469953876853e-06,2.7267923319970032e-06
255,1.805595892045543e-06,1.44367844066491e-06,9.326145841009088e-07,2.645232316607512e-05,1.1694699277836245e-06,1.0477341575034654e-06,1.2703273734359e-06,1.206027076708235e-06,3.428527133518917e-06,2.63060093689348e-06,1.1477646925363164e-06,3.803750573573933e-05,1.7644242350450858e-06,1.053965285707243e-06,1.814880712848494e-06,2.8013026876429767e-06
256,1.8341746108652968e-06,1.4680449963761376e-06,9.153766888482656e-07,2.6658821613141726e-05,1.1852317309740633e-06,1.0741851500365882e-06,1.2453888992807334e-06,1.2356260549791374e-06,3.366160176345586e-06,2.672681291843836e-06,1.1636978290162518e-06,3.585031607738975e-05,1.741618643408671e-06,1.0474257479841064e-06,1.8180054000195018e-06,2.8685944704265586e-06
257,1.861603387291758e-06,1.4918698831376481e-06,9.001823208155493e-07,2.6762168473689103e-05,1.2078377359200375e-06,1.1010834633009247e-06,1.2177572533534368e-06,1.2624108225926093e-06,3.302331237893758e-06,2.715670960515862e-06,1.1801425390402866e-06,3.3597764796298845e-05,1.719241290262328e-06,1.0418788979593505e-06,1.8171846824525139e-06,2.9267836234181277e-06
258,1.8898070836729095e-06,1.5142596700685367e-06,8.874150380795801e-07,2.6772311193293116e-05,1.2380351059387791e-06,1.127839241312702e-06,1.1874618068054773e-06,1.2856747407285471e-06,3.2385784990473037e-06,2.7596839084722455e-06,1.196392897305022e-06,3.1311650133936655e-05,1.6970555763173426e-06,1.0374781142421384e-06,1.8120749593436367e-06,2.9741849879794946e-06
259,1.9213936641588973e-06,1.5344284851406875e-06,8.774085500545103e-07,2.6695210437933102e-05,1.2764383177821961e-06,1.153956063726017e-06,1.154600458125338e-06,1.3045818745239632e-06,3.175920769654815e-06,2.8049819339671666e-06,1.2116162112565557e-06,2.9021662165624557e-05,1.6750481236209698e-06,1.0343541905081834e-06,1.8022464878602753e-06,3.009557601283537e-06
260,1.959276354040534e-06,1.5518846997646387e-06,8.704198677339744e-07,2.653336176457652e-05,1.3236226536892079e-06,1.1789814834854485e-06,1.1192917874671986e-06,1.3182769606756333e-06,3.114993248951816e-06,2.8522112374108114e-06,1.2249030769590734e-06,2.6752807689932806e-05,1.6535103355361778e-06,1.0326200506114798e-06,1.7872091624749845e-06,3.0322085403841786e-06
261,2.0062989065760203e-06,1.5665710148119944e-06,8.666259717883335e-07,2.6288171667252502e-05,1.38015904693883e-06,1.2024218008066634e-06,1.0817817076969105e-06,1.32615352720165e-06,3.05619105494931e-06,2.9024347779076163e-06,1.235369896006502e-06,2.4525355243285695e-05,1.6329063076478034e-06,1.0323267307006814e-06,1.7665983645774674e-06,3.0419958583082906e-06
262,2.0650240715912357e-06,1.578880120894107e-06,8.661752039520529e-07,2.5962421650693388e-05,1.4465319096068755e-06,1.223709883009843e-06,1.0425019095446551e-06,1.3280896806167773e-06,2.9997642267128516e-06,2.956829046557588e-06,1.2422888096237867e-06,2.2356137859677667e-05,1.6136270480469394e-06,1.0334337306792705e-06,1.740388385727625e-06,3.0393758549136093e-06
263,2.1376945154956727e-06,1.589508999811233e-06,8.69215959510585e-07,2.556159447897348e-05,1.5230290566351701e-06,1.2422132935198834e-06,1.001975696598849e-06,1.3244627608092297e-06,2.94589147124524e-06,3.016257126940933e-06,1.245223676007292e-06,2.0259593143236137e-05,1.5958372020387525e-06,1.0357924444702187e-06,1.7089570101753858e-06,3.025453765656244e-06
264,2.2262284254987923e-06,1.5992394505482571e-06,8.758476645092602e-07,2.5094099869432955e-05,1.6097444600949926e-06,1.2572454965146922e-06,9.607255308682698e-07,1.3159641621123953e-06,2.8946775078185814e-06,3.081001911891785e-06,1.2441335603459033e-06,1.8248213927209716e-05,1.57945953030345e-06,1.0391275155044978e-06,1.6729638282856635e-06,3.0018945929396453e-06
265,2.3321558381302974e-06,1.6087884248359837e-06,8.860563282490462e-07,2.4570902237800157e-05,1.7066954231376993e-06,1.268152986703134e-06,9.192719155590168e-07,1.3033538888424652e-06,2.84603397673722e-06,3.1506835477172488e-06,1.239326709747165e-06,1.6332716460407578e-05,1.5642484494556377e-06,1.043057733925266e-06,1.63313559723952e-06,2.970642764710344e-06
266,2.4565431842299615e-06,1.6187743617398946e-06,8.996978745839961e-07,2.400478224867312e-05,1.8139121710903603e-06,1.2745168940651897e-06,8.781268090657586e-07,1.2872969771215726e-06,2.7995608212234442e-06,3.224265357734357e-06,1.2312383450396348e-06,1.4522165280424988e-05,1.5498737800837982e-06,1.0471456869508445e-06,1.5901155814294196e-06,2.933550855367613e-06
267,2.5999874393102224e-06,1.6297204213566912e-06,9.165131737141777e-07,2.3409388435195483e-05,1.931389789996072e-06,1.2763142030427016e-06,8.377566824150835e-07,1.2683151333604315e-06,2.754549389528562e-06,3.3001481742516357e-06,1.2201966287750155e-06,1.2824086645941218e-05,1.5359417355313834e-06,1.050908318468822e-06,1.5444611187666487e-06,2.8920876460883804e-06
268,2.7626811311467142e-06,1.6420360090013711e-06,9.361506073519371e-07,2.279830317420387e-05,2.0589427555204705e-06,1.2738919113483008e-06,7.985723090649106e-07,1.2467650484134418e-06,2.710105268918949e-06,3.376355884644462e-06,1.2063289841993582e-06,1.1244495526560681e-05,1.5220081817942447e-06,1.0538298715348554e-06,1.4966760966694784e-06,2.8472518026209447e-06
269,2.9444773307947647e-06,1.6560565725218228e-06,9.582043670581717e-07,2.2184211967502168e-05,2.1961014733444123e-06,1.2677863222513804e-06,7.60917592933453e-07,1.222808247601872e-06,2.665331339143946e-06,3.4507062552988165e-06,1.1896146983252932e-06,9.787809101354632e-06,1.5076849351343323e-06,1.055481734525759e-06,1.4471622795383883e-06,2.7997213811792135e-06
270,3.144889505683773e-06,1.672176377207834e-06,9.822613327114228e-07,2.157815519143228e-05,2.3421065855999687e-06,1.2585166709641698e-06,7.25040210036459e-07,1.1964093469622567e-06,2.6194863065695485e-06,3.5209319193337614e-06,1.1700477704635232e-06,8.456689146587456e-06,1.4928050362471708e-06,1.0557082578244581e-06,1.39618475274922e-06,2.7501171901290586e-06
271,3.3630100062706676e-06,1.6909103605646822e-06,1.0079167798923876e-06,2.098882877913916e-05,2.4959182737034247e-06,1.2464969474093874e-06,6.911072788622889e-07,1.1673962696612405e-06,2.572075483174361e-06,3.584899713454233e-06,1.1478291737828404e-06,7.25193591506576e-06,1.4775046991721627e-06,1.0547164207421308e-06,1.343978171357718e-06,2.6991228396308046e-06
272,3.5973811393585973e-06,1.7127710785202811e-06,1.0347332327099484e-06,2.0421864469425232e-05,2.6561956244350347e-06,1.2320992030375854e-06,6.592935130651759e-07,1.1356043995447819e-06,2.5229274246113926e-06,3.640986537572954e-06,1.1234406704267897e-06,6.17258510024921e-06,1.4621287717175913e-06,1.0529818491440187e-06,1.2909006317505498e-06,2.6473365389740894e-06
273,3.845882772350688e-06,1.7380745075336239e-06,1.0621798815436214e-06,1.987916842923169e-05,2.8213035178323364e-06,1.2157137475066283e-06,6.298737452211048e-07,1.1010381794959958e-06,2.4722584649666117e-06,3.6883735924144295e-06,1.0975573986476045e-06,5.216178432898089e-06,1.447015032222804e-06,1.0510583105025679e-06,1.2374479334264238e-06,2.5950485709017347e-06
274,4.105665963389495e-06,1.766815621217083e-06,1.089615119267903e-06,1.9358872089224508e-05,2.9893759302990114e-06,1.1976860038962629e-06,6.032245954702928e-07,1.0639329491768508e-06,2.420589532477864e-06,3.726968145073596e-06,1.0708912463747623e-06,4.3790082786174045e-06,1.4322972288922577e-06,1.0494465668998181e-06,1.1841690575853852e-06,2.5421755861259578e-06
275,4.3730989433881425e-06,1.7986231406367739e-06,1.1163173361871026e-06,1.885656074249551e-05,3.158391197497343e-06,1.1782152901595158e-06,5.79737786509028e-07,1.0247024753418188e-06,2.3684948030180996e-06,3.7569639871496467e-06,1.0440506182634746e-06,3.656248956783073e-06,1.4178049677519653e-06,1.0485548397428434e-06,1.131646891739677e-06,2.4883132547128256e-06
276,4.6437100873049e-06,1.8327619456338656e-06,1.1415330479156292e-06,1.836763259033374e-05,3.326215235886686e-06,1.15732329851415e-06,5.597397865867685e-07,9.838524286925346e-07,2.3164425318666373e-06,3.7783250340058342e-06,1.0174663083238965e-06,3.0420570520667137e-06,1.4030447696430346e-06,1.048689887972053e-06,1.0804997915505541e-06,2.4327668273478462e-06
277,4.912213133827341e-06,1.8681827038702982e-06,1.1645335688434437e-06,1.7889738556127088e-05,3.4906055002287507e-06,1.1348997318887859e-06,5.434682098541065e-07,9.419361060347333e-07,2.2648757186630615e-06,3.7904757067353734e-06,9.914065304245083e-07,2.529718627833581e-06,1.387240963567173e-06,1.0500789404637581e-06,1.0312971178216628e-06,2.3745928919337906e-06
278,5.172756145764847e-06,1.903604970924846e-06,1.1846883691436196e-06,1.7424196499504125e-05,3.6491889486664327e-06,1.1108365101418148e-06,5.310760290652576e-07,8.995818656264476e-07,2.214314152405574e-06,3.792356771671132e-06,9.660341347853176e-07,2.111844182612022e-06,1.3694450456648745e-06,1.0529232704776385e-06,9.844559936091482e-07,2.3127923947032227e-06
279,5.419450863784767e-06,1.9376026830095414e-06,1.2015636842348977e-06,1.6975899162042036e-05,3.7994450724194914e-06,1.0852158980484527e-06,5.226302754701678e-07,8.575660737289603e-07,2.1653169664601817e-06,3.782808017008402e-06,9.414327791639266e-07,1.780569184518509e-06,1.3487072286798933e-06,1.0574051972676238e-06,9.402088515478152e-07,2.2466696726991542e-06
280,5.647055485930578e-06,1.9686934780549273e-06,1.2150113900289825e-06,1.655192994764179e-05,3.938739115888789e-06,1.0583825995871221e-06,5.181081108029123e-07,8.168673416271999e-07,2.118421940504483e-06,3.7610016082069763e-06,9.176139065306001e-07,1.52770772075879e-06,1.3242807250694735e-06,1.0636165542359607e-06,8.986426469391283e-07,2.1761709119863267e-06
281,5.851548122081083e-06,1.995474554481629e-06,1.2251434458726045e-06,1.6159520914757383e-05,4.064433755898783e-06,1.030823189278025e-06,5.174043582524695e-07,7.786505723660125e-07,2.074150852260066e-06,3.7266601489011343e-06,8.945465049049391e-07,1.3448431054435232e-06,1.2958086137950103e-06,1.071487692723729e-06,8.598129333254182e-07,2.101960246349914e-06
282,6.030344883750369e-06,2.0168184760625614e-06,1.2321581838506924e-06,1.5804306442961416e-05,4.174073709895739e-06,1.0030280813384018e-06,5.203455697313042e-07,7.441820459655028e-07,2.0330025109950484e-06,3.680065522096624e-06,8.721951772106756e-07,1.2233847478941822e-06,1.2634078164702539e-06,1.08079859658672e-06,8.239040699438701e-07,2.0251929293762526e-06
283,6.182054707992011e-06,2.032030100452933e-06,1.2361694837088021e-06,1.5489911740307e-05,4.265620157815464e-06,9.75472643053503e-07,5.267006552569838e-07,7.147189705375355e-07,1.995359296590855e-06,3.6219901585721465e-06,8.505597380397061e-07,1.1546258817469627e-06,1.2275904804932272e-06,1.0912391065083741e-06,7.913023764330881e-07,1.9472099069571946e-06
284,6.305823258514948e-06,2.040798791710432e-06,1.2371734120156298e-06,1.5219073070006232e-05,4.337709461251595e-06,9.486173362912968e-07,5.361952481993575e-07,6.91421753910149e-07,1.9613654241350144e-06,3.5535831667606876e-06,8.297060277107766e-07,1.1298795447858847e-06,1.1890799069439246e-06,1.1024065299602047e-06,7.625099889273585e-07,1.869367852128532e-06
285,6.400523410825752e-06,2.0429362533812598e-06,1.235111420928076e-06,1.4995330555564022e-05,4.389853073520865e-06,9.22841878004245e-07,5.485440251495367e-07,6.753160513220099e-07,1.930886473360561e-06,3.476242640682902e-06,8.097603477560518e-07,1.1407527902061545e-06,1.1486596630760845e-06,1.1137334904300632e-06,7.380128035736255e-07,1.7930151997496847e-06
286,6.464310492013932e-06,2.038175569719172e-06,1.2299701094775586e-06,1.4824271126445077e-05,4.422390658398759e-06,8.983957225643939e-07,5.634887735019881e-07,6.672928807335583e-07,1.9035718108862077e-06,3.391546957457095e-06,7.908877261299784e-07,1.1794183546663358e-06,1.1071267332560937e-06,1.1244506472166888e-06,7.182147524881685e-07,1.7195445032421144e-06
287,6.494997882793652e-06,2.026280198010356e-06,1.2218919906259297e-06,1.4713999230175537e-05,4.436237884580407e-06,8.754200378014576e-07,5.808022113613212e-07,6.6810942654373e-07,1.8789233936539374e-06,3.301204000953305e-06,7.732677139561454e-07,1.2386991564908094e-06,1.0652895587166515e-06,1.133637386802212e-06,7.034133651243489e-07,1.6504280513525596e-06
288,6.491116018189132e-06,2.007340066320499e-06,1.211208157146137e-06,1.4674929069351473e-05,4.432843623872259e-06,8.539864856565235e-07,6.002612689575757e-07,6.783809381637033e-07,1.8563078533107958e-06,3.2069239280375622e-06,7.570738303490664e-07,1.3120625509779425e-06,1.0239357023725174e-06,1.140369873825665e-06,6.937738851694558e-07,1.5871359050971974e-06
289,6.4529671129683365e-06,1.981955951881538e-06,1.1983317950280968e-06,1.4719068909632287e-05,4.4143428514776384e-06,8.341510929169927e-07,6.216491120633812e-07,6.985865480038118e-07,1.8350322333839663e-06,3.110228536630489e-06,7.424770821503267e-07,1.3937720903533937e-06,9.83785068247188e-07,1.1439593771961007e-06,6.893169922782039e-07,1.530991968442332e-06
290,6.383044231079695e-06,1.951196888135618e-06,1.1836184261692252e-06,1.4858970722660307e-05,4.383431213944238e-06,8.160524746054391e-07,6.447946139787955e-07,7.290933984486863e-07,1.814545877424693e-06,3.0122809931786455e-06,7.296536135435343e-07,1.4791714632457974e-06,9.454620450363115e-07,1.144179836775854e-06,6.899436074111159e-07,1.4830827887094226e-06
291,6.2856765867022574e-06,1.9164225109991166e-06,1.1673462841683431e-06,1.5106508924931186e-05,4.3430571916318995e-06,7.999558907100789e-07,6.695855241664129e-07,7.701934299737034e-07,1.794537167747841e-06,2.913813688960125e-06,7.188049001066208e-07,1.5647370739473944e-06,9.094658267262576e-07,1.1413343430163144e-06,6.954840350089677e-07,1.4442094762490685e-06
292,6.166179701876205e-06,1.8790702433681117e-06,1.1498165402301912e-06,1.5471660771958567e-05,4.296281250656119e-06,7.861609710286002e-07,6.95934687424471e-07,8.221536229974516e-07,1.7747872752729615e-06,2.815224504197892e-06,7.101908291274925e-07,1.6476858923434947e-06,8.761507592882998e-07,1.1361000283418012e-06,7.057298782522167e-07,1.4148665141056016e-06
293,6.029947051725115e-06,1.8404396856683605e-06,1.1314448718861666e-06,1.596152493065403e-05,4.246183183973484e-06,7.748704341974846e-07,7.237529232403664e-07,8.852494496480851e-07,1.7550519883402286e-06,2.7168239619032158e-06,7.040964539739221e-07,1.7254554028044567e-06,8.457519414848376e-07,1.1292565201342028e-06,7.204469298265642e-07,1.3952541573323531e-06
294,5.881867997599121e-06,1.801537513232331e-06,1.1127490937731866e-06,1.657980672947199e-05,4.195708463625652e-06,7.661428811458338e-07,7.529386628043554e-07,9.597722245145993e-07,1.7351906490616885e-06,2.619093128199235e-06,7.007365772473114e-07,1.7955185485564457e-06,8.184223022085241e-07,1.1214762478980634e-06,7.394116207249104e-07,1.3852956102782061e-06
295,5.726159708390246e-06,1.7630459021707667e-06,1.094265544156203e-06,1.7326725001083714e-05,4.147557862738318e-06,7.599303853548715e-07,7.83338082852846e-07,1.046059800040219e-06,1.715312498194266e-06,2.5228566914823486e-06,7.002010257990757e-07,1.8556016727966974e-06,7.942465354839874e-07,1.1132550235719296e-06,7.624771937524649e-07,1.3846508806955046e-06
296,5.566397661495252e-06,1.72540087942118e-06,1.0764951904524536e-06,1.819898971207205e-05,4.104113727176575e-06,7.561332872402866e-07,8.146954891026852e-07,1.1445323272794348e-06,1.6956771030726686e-06,2.4293754206681e-06,7.024698577286855e-07,1.9039502033337316e-06,7.732494545232739e-07,1.1049264095036415e-06,7.896127090087213e-07,1.392745685193403e-06
297,5.405557359747362e-06,1.6889640069396786e-06,1.0599046753378352e-06,1.9189574939666004e-05,4.0673582899048955e-06,7.546313527628118e-07,8.466521233977801e-07,1.2556499757381232e-06,1.6764878918555814e-06,2.3403728265477063e-06,7.074395981804891e-07,1.939281277865725e-06,7.554146978550126e-07,1.0966718281765012e-06,8.208614343395369e-07,1.4088121144538615e-06
298,5.246055889095592e-06,1.6542398858790126e-06,1.0449228232435328e-06,2.028736637122693e-05,4.038812778531365e-06,7.552961762873057e-07,8.787815597658373e-07,1.3798152382409903e-06,1.6578225540678127e-06,2.257989816594193e-06,7.14914660857398e-07,1.9605956083364606e-06,7.40702849346933e-07,1.0885273283485342e-06,8.56257751738587e-07,1.4319461468870503e-06
299,5.089786350224072e-06,1.621988071829879e-06,1.0318981921356526e-06,2.1476945253629075e-05,4.0195020705350405e-06,7.579984174198182e-07,9.106169365593363e-07,1.5173100712419392e-06,1.6396511579901823e-06,2.184635412859245e-06,7.245797119191566e-07,1.967260032901502e-06,7.290362438443004e-07,1.0804241184915678e-06,8.957817404381707e-07,1.4612450308037885e-06
300,4.93805739723145e-06,1.5931212754978479e-06,1.021046223016574e-06,2.2738585306736724e-05,4.009928166889126e-06,7.626076057482349e-07,9.416621942501773e-07,1.6682524049908362e-06,1.6218062192535865e-06,2.122743307704736e-06,7.359971304527006e-07,1.959268395349656e-06,7.202545625301006e-07,1.0722427642312396e-06,9.393435223264892e-07,1.4959977309491552e-06
301,4.791410929399652e-06,1.568481328271392e-06,1.0124457421657033e-06,2.4048274235041645e-05,4.010059706538458e-06,7.689738761600761e-07,9.714108641967509e-07,1.8325156272059487e-06,1.6039971006915254e-06,2.0745566971852956e-06,7.486469454850357e-07,1.93733374389482e-06,7.140964244725935e-07,1.0639094646274849e-06,9.867483994861191e-07,1.5357444075122074e-06
302,4.649460087378448e-06,1.5486793484706364e-06,1.0061230506579146e-06,2.537750626407548e-05,4.0193411015508955e-06,7.768923070519249e-07,9.994034324239648e-07,2.0096736292507374e-06,1.5859875877772801e-06,2.0420866929987564e-06,7.619896367100025e-07,1.9027812636712636e-06,7.102201103208613e-07,1.0555376342030804e-06,1.0376539509435024e-06,1.5801430071983636e-06
303,4.5109271423873565e-06,1.5340662664489811e-06,1.0021831501877342e-06,2.6692957901270157e-05,4.0367155109086304e-06,7.86083292692468e-07,1.02532849818548e-06,2.1990546914238882e-06,1.5678016113562437e-06,2.0272253410530956e-06,7.755306475830713e-07,1.857398399707e-06,7.082274547246269e-07,1.0474537927968283e-06,1.0915630179526034e-06,1.6287961768159255e-06
304,4.3739268316525e-06,1.5247594164025524e-06,1.0009053219293598e-06,2.7957056366104574e-05,4.060663078259436e-06,7.962232127551367e-07,1.0491102597742356e-06,2.399830619981081e-06,1.5497453746375727e-06,2.031833252129463e-06,7.888652077920493e-07,1.803269105850972e-06,7.076906999399093e-07,1.0400537838309037e-06,1.147842233253397e-06,1.6811596900674384e-06
305,4.236419150006864e-06,1.5206549469610698e-06,1.0027627748368823e-06,2.9130614676622678e-05,4.089256157968696e-06,8.069996405068043e-07,1.0708989849921114e-06,2.610991373321979e-06,1.532234857028786e-06,2.0577594244281762e-06,8.016722510796673e-07,1.742553227876206e-06,7.082102224261671e-07,1.0336499728909706e-06,1.2057110486832075e-06,1.7365334907629695e-06
306,4.09667166299172e-06,1.5214474712204624e-06,1.0083663506059357e-06,3.0177261522398334e-05,4.120229599361631e-06,8.181465301755922e-07,1.0909589718864023e-06,2.831197903004433e-06,1.5155762743263278e-06,2.106916150533495e-06,8.136836280188212e-07,1.6773477659647781e-06,7.094729548562858e-07,1.0284031366504825e-06,1.2642274564578192e-06,1.7940957648198298e-06
307,3.953520091850999e-06,1.5267247844275054e-06,1.0183497784876544e-06,3.1067959831836135e-05,4.151066070974432e-06,8.294630516875872e-07,1.1095444858062164e-06,3.058672067681703e-06,1.4998261897108729e-06,2.181345504260525e-06,8.246801835039098e-07,1.6098027388208467e-06,7.112576486983629e-07,1.02430540276703e-06,1.3223536125397064e-06,1.8529399837501016e-06
308,3.806349514382633e-06,1.5361228379895513e-06,1.0332443588102659e-06,3.1783871029307624e-05,4.179096913320983e-06,8.408177328405125e-07,1.1268301776019942e-06,3.2912410409667193e-06,1.4847847854445836e-06,2.283126010490702e-06,8.344739501977535e-07,1.5423794522345314e-06,7.134154593117829e-07,1.0211809043259216e-06,1.3790899943061187e-06,1.912130309144145e-06
309,3.6549833221274535e-06,1.549435269557219e-06,1.0533957155648648e-06,3.231669655840797e-05,4.201617584679099e-06,8.521122219354807e-07,1.1428706100017995e-06,3.5264550284236e-06,1.4701074300037498e-06,2.414205157669563e-06,8.42837100605232e-07,1.4779861807860046e-06,7.158764400338118e-07,1.0186860534824537e-06,1.433587133452958e-06,1.97079902383709e-06
310,3.499733711304328e-06,1.5666214315756015e-06,1.078929898144743e-06,3.266651931287473e-05,4.216017041630133e-06,8.632424003658974e-07,1.157563817785399e-06,3.7615891681141803e-06,1.4554562876792353e-06,2.576285755673255e-06,8.49462465407969e-07,1.4198911707832811e-06,7.186542880431863e-07,1.0163167124708669e-06,1.4851781031081353e-06,2.0281816981835887e-06
311,3.3416214555801535e-06,1.5877249945197497e-06,1.1097398611995277e-06,3.2837711559856824e-05,4.219920498185309e-06,8.741316319658019e-07,1.1706445204244001e-06,3.993454042212751e-06,1.4406112512308612e-06,2.7707539749506305e-06,8.54033567599849e-07,1.3715124495661476e-06,7.218030578596436e-07,1.0134944962437567e-06,1.5333967018309978e-06,2.083525412726966e-06
312,3.1825195336097875e-06,1.612734071821458e-06,1.1454862287477976e-06,3.28341487082935e-05,4.211299866271637e-06,8.848037988201137e-07,1.1817194683237872e-06,4.2181636856399995e-06,1.4254857580834551e-06,2.998642140128553e-06,8.563278385589512e-07,1.3362831372707775e-06,7.253428813303551e-07,1.0097739350088088e-06,1.5781020034238186e-06,2.1360789622141866e-06
313,3.0250072179621944e-06,1.64148048938495e-06,1.1856314431655898e-06,3.265595469353575e-05,4.1884370481717666e-06,8.953867168804788e-07,1.190345713535266e-06,4.43116259753622e-06,1.4100730083837874e-06,3.260615603949492e-06,8.562369566235108e-07,1.3177363466865804e-06,7.292188471223631e-07,1.0050437419786696e-06,1.6196084186572685e-06,2.1853099547300416e-06
314,2.8719541532948558e-06,1.6736637017673895e-06,1.2294840783345703e-06,3.2299787504004177e-05,4.149806302722682e-06,9.060228530154087e-07,1.1961626664575307e-06,4.627756639571657e-06,1.3944498056178475e-06,3.556903374554025e-06,8.537439633901759e-07,1.319700961287809e-06,7.333333096427099e-07,9.995334471380871e-07,1.6585698207581558e-06,2.2311019689767993e-06
315,2.7260521095641115e-06,1.7089357194966357e-06,1.2761983268197985e-06,3.176227603950546e-05,4.0941683385931296e-06,9.167781070847245e-07,1.1990290836243937e-06,4.804014868276658e-06,1.3788662798899553e-06,3.887173136729101e-06,8.4896937090258e-07,1.3463829225948742e-06,7.376037674593694e-07,9.93642637011313e-07,1.695671523736342e-06,2.2736737496259975e-06
316,2.5895382837266865e-06,1.7469284414299921e-06,1.3247382288613518e-06,3.104394124613273e-05,4.020813384598208e-06,9.276179029123684e-07,1.1990565056692566e-06,4.95744840208396e-06,1.3637773509806668e-06,4.250479702336731e-06,8.422249536786301e-07,1.4023418727620802e-06,7.419607554462666e-07,9.877968279835428e-07,1.7313960243967547e-06,2.313292249269668e-06
317,2.4641631585948264e-06,1.7871838732314762e-06,1.3738760855940844e-06,3.015140509494999e-05,3.92963422221655e-06,9.384531391166015e-07,1.196516179502913e-06,5.086942914281523e-06,1.349745216111385e-06,4.645317173614443e-06,8.339327170336246e-07,1.4925674775450686e-06,7.463023641724622e-07,9.82414826554834e-07,1.765917914069637e-06,2.3500313945160905e-06
318,2.3512331568913675e-06,1.8290444367359967e-06,1.4222703103797274e-06,2.909778162638271e-05,3.821153382813821e-06,9.492361352496483e-07,1.1917298830411188e-06,5.192028701228828e-06,1.3373578237305167e-06,5.069629416366993e-06,8.244778797993941e-07,1.6227318728299112e-06,7.504851689419214e-07,9.778904224278196e-07,1.7990586134469996e-06,2.3837649575449676e-06
319,2.251589111805323e-06,1.8715791977201453e-06,1.4686253421165575e-06,2.790203615732055e-05,3.6966671196539344e-06,9.600164127040383e-07,1.1850351885844502e-06,5.2720377259918206e-06,1.327297936337559e-06,5.520752005206881e-06,8.141773360922046e-07,1.7994335942776843e-06,7.543472033022478e-07,9.745296483428069e-07,1.8303146928244576e-06,2.4143303023317277e-06
320,2.165557570439905e-06,1.9135534913774257e-06,1.5118794912437923e-06,2.6587681342105316e-05,3.5582630003384074e-06,9.708738134799008e-07,1.1768033872089211e-06,5.3257017029652425e-06,1.320431409246496e-06,5.995514515361794e-06,8.033768089609541e-07,2.030220911921536e-06,7.577272681777796e-07,9.724924745275993e-07,1.8590051667911866e-06,2.4416563747070593e-06
321,2.0929439938203596e-06,1.9534781634814244e-06,1.5513116782597838e-06,2.5181045293333146e-05,3.4086119794199892e-06,9.817998628553049e-07,1.167452286573135e-06,5.351361922821568e-06,1.317729721028917e-06,6.490620579355053e-06,7.925246652943675e-07,2.3234561672130476e-06,7.604823275935528e-07,9.717766438616786e-07,1.884499865433844e-06,2.4658288621840713e-06
322,2.0330936127543567e-06,1.9898221479700263e-06,1.5865130115041058e-06,2.370950063653513e-05,3.2507106692493094e-06,9.926314652764535e-07,1.1574124007835629e-06,5.347531269517126e-06,1.320118753781121e-06,7.003087184107822e-06,7.821166022592227e-07,2.688204895456796e-06,7.624853945856671e-07,9.722422347145615e-07,1.9063896408431927e-06,2.487176638820668e-06
323,1.9850675331344298e-06,2.0213431342709163e-06,1.6172839601747533e-06,2.2199887800384903e-05,3.0876531288813656e-06,1.003037359600011e-06,1.1470454046212294e-06,5.313481594405349e-06,1.3284205557054073e-06,7.53046655665308e-06,7.725881417997259e-07,3.134137778169039e-06,7.636037565898536e-07,9.736749882861773e-07,1.924511283584239e-06,2.5063048898961074e-06
324,1.9479369238049077e-06,2.047375712602089e-06,1.6435334968998596e-06,2.0677187185378785e-05,2.922427979816918e-06,1.0125355539110809e-06,1.1365990174462428e-06,5.2496545671209935e-06,1.3433438867342656e-06,8.070735934407355e-06,7.642914088952101e-07,3.671334034284383e-06,7.637189598641672e-07,9.758330101003503e-07,1.9388744490581015e-06,2.5239504281001693e-06
325,1.92104288307757e-06,2.0679415914275017e-06,1.6651777629242637e-06,1.916343370872312e-05,2.7577657834705397e-06,1.0205879565074593e-06,1.1262648093519662e-06,5.157782835400484e-06,1.3654435996294742e-06,8.621876871729193e-06,7.575633621486611e-07,4.310016713448172e-06,7.628051653606949e-07,9.784176371384979e-07,1.949562110654359e-06,2.5407663398864097e-06
326,1.904042384488222e-06,2.083634102430265e-06,1.682018901613363e-06,1.7676936509715143e-05,2.5960454496468937e-06,1.026788013918375e-06,1.1162712696038628e-06,5.040736026873713e-06,1.395077685268048e-06,9.181249884242093e-06,7.527821501912659e-07,5.060340530415736e-06,7.609832280438687e-07,9.81056615782832e-07,1.956648494165217e-06,2.5572918091241864e-06
327,1.896760744102655e-06,2.09535826447854e-06,1.693686354453085e-06,1.623213064939376e-05,2.4392380484016036e-06,1.0310049873049847e-06,1.1069110353226756e-06,4.902211145581838e-06,1.4323804823108083e-06,9.74496993536431e-06,7.503671089123893e-07,5.932274436602656e-06,7.584834141685334e-07,9.834093184348795e-07,1.960172782721624e-06,2.574124006299172e-06
328,1.8990341020100259e-06,2.104078153102609e-06,1.699742129166764e-06,1.4840220474962365e-05,2.2888696474447744e-06,1.0333583412167889e-06,1.0984818321720088e-06,4.746408821862407e-06,1.4772394522732602e-06,1.0307683594473618e-05,7.5076358504561e-07,6.935515623006767e-06,7.555666630094331e-07,9.853077794593126e-07,1.960169248966293e-06,2.5920346884574816e-06
329,1.9106336224957127e-06,2.110635453649568e-06,1.6999027385946817e-06,1.3510151417203343e-05,2.1460351780185477e-06,1.0340846010028265e-06,1.091204287621434e-06,4.577795752505897e-06,1.5292822243656025e-06,1.0863086457087782e-05,7.544105057341322e-07,8.079343444917432e-06,7.524846511020068e-07,9.867729101975592e-07,1.9567090569202213e-06,2.6118955739798387e-06
