,EMG1,EMG2,EMG3,EMG4,EMG5,EMG6,EMG7,EMG8,EMG9,EMG10,EMG11,EMG12,EMG13,EMG14,EMG15,EMG16
0,2.298944434325169e-07,4.4379970176209605e-07,4.7269143445924575e-07,1.7252390905702238e-06,6.322464481991576e-08,4.0884688761552926e-07,-1.14935225796316e-08,1.4627114582935987e-07,2.945131846971359e-06,3.31260747308458e-07,1.819322117815423e-07,6.446436852269685e-07,2.2769387477112886e-07,3.063923317749942e-07,6.1611119871523e-08,-5.470315681822016e-07
1,2.564878612608454e-07,5.747641939702385e-07,6.095922007805592e-07,1.888768968563286e-06,2.1932193930747704e-07,4.960179576624943e-07,7.612273873700463e-08,3.3925269073033456e-07,3.4893760931482833e-06,4.0402613445249686e-07,3.003587194643691e-07,5.275884009317142e-06,3.161646169304964e-07,3.617694081378328e-07,1.2241410132918747e-07,2.7053235680181594e-07
2,2.853540438664355e-07,7.034821799019266e-07,7.456521389821163e-07,2.0554599185970415e-06,3.7177092130840084e-07,5.848895782335755e-07,1.6038826099207954e-07,5.29879664073331e-07,4.041390068486874e-06,4.77437609567226e-07,4.171947266307301e-07,9.928578308280236e-06,4.018723025984138e-07,4.1702076934252127e-07,1.831148878210848e-07,1.0590546182457516e-06
3,3.1644175214007563e-07,8.285534836983064e-07,8.784237170372291e-07,2.222134670866315e-06,5.191515578313234e-07,6.737343212709458e-07,2.4082695605723215e-07,7.161476642127074e-07,4.596087441319908e-06,5.512297041074047e-07,5.31268709256336e-07,1.457582436791153e-05,4.833165680180582e-07,4.712386987223581e-07,2.43081487329093e-07,1.8083635798832352e-06
4,3.4966133514437814e-07,9.486339822722202e-07,1.0057305404187631e-06,2.3860836193947033e-06,6.60198817223277e-07,7.610727934677965e-07,3.170295618657791e-07,8.962083311278585e-07,5.148657596386834e-06,6.25108308765598e-07,6.415854834398776e-07,1.919360151870885e-05,5.592915910146316e-07,5.237576840767757e-07,3.0177603194331094e-07,2.509356325263392e-06
5,3.849016342169266e-07,1.0625962967074535e-06,1.1257772637343152e-06,2.5451047296986926e-06,7.938350285637967e-07,8.457419374483157e-07,3.88693192438082e-07,1.0685665131731083e-06,5.694600822860147e-06,6.987618996973904e-07,7.473474765347268e-07,2.376246257015472e-05,6.28894600786721e-07,5.741478682491424e-07,3.5878510194253656e-07,3.15437936471699e-06
6,4.2204574209003384e-07,1.169635098023481e-06,1.2372285377775736e-06,2.6974847962006387e-06,9.191660622337713e-07,9.268442163975819e-07,4.556099667083078e-07,1.2321931378382126e-06,6.229778388370702e-06,7.718693142266979e-07,8.479284951810202e-07,2.826897394099517e-05,6.914597657771903e-07,6.221376254175558e-07,4.1389011285450943e-07,3.737437278967146e-06
7,4.6095834674520794e-07,1.2691814950562501e-06,1.3392468450026519e-06,2.842032960323481e-06,1.035425647902034e-06,1.003677717585815e-06,5.176241828278979e-07,1.3864390604329046e-06,6.750636205889845e-06,8.44084389682812e-07,9.428308180819363e-07,3.270679531234605e-05,7.465596032576358e-07,6.675513054641054e-07,4.670734432263159e-07,4.254408055277029e-06
8,5.014466184544277e-07,1.3607214783259253e-06,1.4314756562032447e-06,2.9781206352917024e-06,1.1418670430978056e-06,1.0757323693684036e-06,5.746054887422946e-07,1.530803837377764e-06,7.2544791197368195e-06,9.15031281657343e-07,1.0317193900165644e-06,3.707750725193768e-05,7.940812014991459e-07,7.10265805103954e-07,5.184186704596974e-07,4.7033490973300625e-06
9,5.432246777534451e-07,1.443718133073439e-06,1.5139520005952405e-06,3.1055765246491817e-06,1.2377079882269858e-06,1.1426817922076193e-06,6.264818967968457e-07,1.6647564272141968e-06,7.739464585173632e-06,9.843106752673229e-07,1.1144642130248007e-06,4.13909385198604e-05,8.342657501877628e-07,7.501700767234387e-07,5.680111414149184e-07,5.084680832474693e-06
10,5.859076009906797e-07,1.517674209298743e-06,1.5869267876963825e-06,3.2243757181980365e-06,1.3222273481503356e-06,1.2042891764639392e-06,6.733389985944634e-07,1.7877601032552198e-06,8.204158919264704e-06,1.0515052903496528e-06,1.1911256322827452e-06,4.5664449470615324e-05,8.676370655523015e-07,7.871455263999228e-07,6.159119698511604e-07,5.401023931583605e-06
11,6.290448014424683e-07,1.5822147720054228e-06,1.650656673715155e-06,3.3343077283913314e-06,1.3949361883804198e-06,1.2603307790383322e-06,7.154846024589125e-07,1.8994400561624861e-06,8.646810589629813e-06,1.1161949992993969e-06,1.261955887282029e-06,4.992064948069982e-05,8.948568132777323e-07,8.210512032770793e-07,6.62172579066902e-07,5.6567348158231265e-06
12,6.721815277261813e-07,1.6371170838329788e-06,1.7053366537751456e-06,3.434899804640131e-06,1.4556957411434787e-06,1.310622621632162e-06,7.533905687682662e-07,1.9997176282594975e-06,9.064804315945103e-06,1.1779567581311154e-06,1.3274221125298032e-06,5.418355458009707e-05,9.166273095744083e-07,8.517189233753906e-07,7.06829053296927e-07,5.857327875558639e-06
13,7.148996095910261e-07,1.6822915509746196e-06,1.7512449003818682e-06,3.525611766232718e-06,1.504754172175153e-06,1.3550288009080829e-06,7.875689572223983e-07,2.0888182561312583e-06,9.454893527994553e-06,1.236358923569987e-06,1.3881470537694773e-06,5.847426471570052e-05,9.336892841961972e-07,8.789976728333503e-07,7.498772596391726e-07,6.008914634579857e-06
14,7.568087955028819e-07,1.7177024278968322e-06,1.788962628406787e-06,3.6060597027956115e-06,1.5427263313790724e-06,1.3934194233143883e-06,8.184754694644461e-07,2.16716753863263e-06,9.814345812792233e-06,1.2909637712351245e-06,1.4447501819205697e-06,6.280792728366902e-05,9.468380415442419e-07,9.028094617691101e-07,7.912619212669298e-07,6.117755930732611e-06
15,7.975462138298179e-07,1.743273663925081e-06,1.8194683250814059e-06,3.676071908473035e-06,1.5705357340702413e-06,1.4257176733536507e-06,8.46454234037958e-07,2.2352358432760916e-06,1.0142386392352796e-05,1.341303146761853e-06,1.4977303305633364e-06,6.719299442391319e-05,9.568881716818516e-07,9.231290886801274e-07,8.308835425099986e-07,6.190006134575017e-06
16,8.368040600432055e-07,1.758950023483471e-06,1.8440069380373247e-06,3.73555893789781e-06,1.5893195649903073e-06,1.4520172886637815e-06,8.717106585455432e-07,2.2934079199788943e-06,1.0441073721841754e-05,1.3868965299231291e-06,1.5474839489726693e-06,7.163212590939456e-05,9.645905342627598e-07,9.399025235733393e-07,8.686152280510828e-07,6.231610210028352e-06
17,8.74297559106796e-07,1.7649663715855957e-06,1.8638261778942773e-06,3.784308151280138e-06,1.6002807870874655e-06,1.472617054873152e-06,8.94331993344157e-07,2.3419418631095564e-06,1.0715106167217018e-05,1.4273484958694477e-06,1.5943839900487024e-06,7.612304774977544e-05,9.705544604647738e-07,9.530336098975304e-07,9.043058835606348e-07,6.248202959637522e-06
18,9.096608153119872e-07,1.7620896798014054e-06,1.8800164257548277e-06,3.821874252833277e-06,1.6045153156530705e-06,1.4879670590623525e-06,9.143747337017272e-07,2.3810317970727586e-06,1.0970670092606366e-05,1.4623744697780487e-06,1.6388594286740928e-06,8.065766659101498e-05,9.752131781209757e-07,9.624917509747048e-07,9.377653521344332e-07,6.244904242883766e-06
19,9.423864720917174e-07,1.7515985078188842e-06,1.8935727556600582e-06,3.847710932044671e-06,1.6029186976178507e-06,1.498634429735366e-06,9.319662619456879e-07,2.410922902787712e-06,1.1213886040495091e-05,1.4917447690041877e-06,1.681484303293911e-06,8.521879716664033e-05,9.788159251923048e-07,9.684037950683242e-07,9.68785658133484e-07,6.226050930366793e-06
20,9.718896325256693e-07,1.7350332589257988e-06,1.9055406502633987e-06,3.861553156225822e-06,1.5962163922754725e-06,1.5053040847334162e-06,9.47314519930479e-07,2.4319771471895943e-06,1.144946754781712e-05,1.5153232938807165e-06,1.7230074376779699e-06,8.977653553010112e-05,9.814439408871092e-07,9.710074847542097e-07,9.972291032273254e-07,6.194956151969088e-06
21,9.976611608526966e-07,1.7139131062444286e-06,1.9170550199460217e-06,3.8638825301116215e-06,1.585017747749488e-06,1.5087283234769454e-06,9.606160193317256e-07,2.444602087619795e-06,1.1679994933096787e-05,1.5331986026592781e-06,1.7642386621483098e-06,9.428804146722004e-05,9.830854025189766e-07,9.705697718842397e-07,1.0231086426774953e-06,6.153739543396933e-06
22,1.0194042257515676e-06,1.6895764523762175e-06,1.929238293068211e-06,3.8562431365845495e-06,1.5698193212324588e-06,1.5095948485422812e-06,9.71991557878129e-07,2.449111682167928e-06,1.190581731255837e-05,1.5457501989644701e-06,1.8058610835330392e-06,9.87016716115203e-05,9.837247311625804e-07,9.673904011814244e-07,1.0465626820070416e-06,6.103327738587718e-06
23,1.0370785909142097e-06,1.6631699326928717e-06,1.9430681783485736e-06,3.84127971358177e-06,1.551014690853791e-06,1.5084169028292988e-06,9.815309746469785e-07,2.4457378505702544e-06,1.2125247427815739e-05,1.5535953693148418e-06,1.8483174482896206e-06,0.00010296216732432088,9.833330143965358e-07,9.618073002224138e-07,1.067765146483068e-06,6.043724112274688e-06
24,1.0508785922842545e-06,1.6356932060567662e-06,1.959305752678855e-06,3.822519710458781e-06,1.5289714334920253e-06,1.5055368785414465e-06,9.89376580477883e-07,2.434832805365842e-06,1.2334814491782919e-05,1.5575004500621016e-06,1.891802020498545e-06,0.0001070129799654969,9.81791277515245e-07,9.541445504063896e-07,1.0868987497606995e-06,5.974465453031412e-06
25,1.061207283815454e-06,1.607992535337375e-06,1.97846804157774e-06,3.803996704456179e-06,1.5041215928944589e-06,1.5011700758008638e-06,9.957601283363789e-07,2.4170252575559894e-06,1.2529625320410725e-05,1.5583429039763368e-06,1.9362930453798194e-06,0.00011079447608959054,9.788976631736517e-07,9.446783089251236e-07,1.1042105437324546e-06,5.895129520296155e-06
26,1.0686438488661376e-06,1.5807022013734481e-06,2.0008554281171687e-06,3.7898284996966455e-06,1.4769488885398479e-06,1.4953708296375662e-06,1.0009994666745406e-06,2.3931896748066564e-06,1.2703824476060644e-05,1.55707716232381e-06,1.981578194941806e-06,0.00011424075365783497,9.744709863806424e-07,9.336262955423714e-07,1.1200556989245804e-06,5.805813526109047e-06
27,1.0738569798990112e-06,1.554223727894481e-06,2.026627355975212e-06,3.7838588851082124e-06,1.4478484325331853e-06,1.4879490590533563e-06,1.0054907711450438e-06,2.3643247746588792e-06,1.2851018408345504e-05,1.5546305015187659e-06,2.0272621087387735e-06,0.00011728037176210334,9.684169158344784e-07,9.211230038038164e-07,1.1348610780232017e-06,5.707450575848636e-06
28,1.0774708283753496e-06,1.5287818000400995e-06,2.0558121960712508e-06,3.789422932538099e-06,1.416988810625722e-06,1.4784679488329198e-06,1.0096956157024348e-06,2.331452897890759e-06,1.296468000532651e-05,1.5517986073830836e-06,2.072833941689036e-06,0.00011984400183046437,9.607058155998882e-07,9.072389452990163e-07,1.149039756275071e-06,5.6018300344421e-06
29,1.079958934610225e-06,1.504515268780171e-06,2.0882941799540405e-06,3.809202769434183e-06,1.38432058921168e-06,1.4663722889323394e-06,1.0141001374866642e-06,2.295575432144389e-06,1.3038667904205495e-05,1.5491987220873555e-06,2.1178119128822215e-06,0.00012187628242273254,9.513844373779005e-07,8.921002754375919e-07,1.1629251578405263e-06,5.491366299344587e-06
30,1.081609451547269e-06,1.4815733633204173e-06,2.1238831919541557e-06,3.845108950666846e-06,1.349718650829962e-06,1.4511471899863975e-06,1.019138367554442e-06,2.2576787270721405e-06,1.3067885235768553e-05,1.547227330892069e-06,2.1617951109084183e-06,0.00012334439995988428,9.406752282109983e-07,8.760165917904071e-07,1.1767308433308693e-06,5.378804370970548e-06
31,1.0825194912443858e-06,1.460202921872179e-06,2.1623263636222944e-06,3.898196069046563e-06,1.3131124612036229e-06,1.4324002808850895e-06,1.025103168604575e-06,2.2187460504997228e-06,1.3048922270666048e-05,1.5460350161246848e-06,2.2044572478886687e-06,0.00012423539496689376,9.290097628499175e-07,8.594644466611542e-07,1.190531394697141e-06,5.266981960937692e-06
32,1.0825753083843783e-06,1.440795744860273e-06,2.203204290183392e-06,3.968668091617388e-06,1.2745251930762212e-06,1.4099152002875096e-06,1.0320804094410357e-06,2.179724132397191e-06,1.2980303729018994e-05,1.545563367328925e-06,2.245658627436112e-06,0.00012454431197695746,9.16931965692874e-07,8.429442608379316e-07,1.204284309294408e-06,5.158618513398268e-06
33,1.0814395206489659e-06,1.4238849807267068e-06,2.245881835006529e-06,4.055979012202558e-06,1.2340896911869367e-06,1.3837639235559104e-06,1.0399270287785958e-06,2.141435626087259e-06,1.2861885294248074e-05,1.5455911223056932e-06,2.2854826611196236e-06,0.00012426888225858463,9.049940526635024e-07,8.268736751284318e-07,1.2178441026062356e-06,5.056043691999345e-06
34,1.078596292462172e-06,1.410095448234894e-06,2.289554508305352e-06,4.158986661367822e-06,1.1920756422781113e-06,1.3543762283357322e-06,1.0483102066003943e-06,2.104469229662125e-06,1.2693777042819043e-05,1.5457227044701578e-06,2.3240040716306103e-06,0.0001234177537385694,8.936967952765639e-07,8.115760127605167e-07,1.2309155333019383e-06,4.960881992634751e-06
35,1.0734798547995402e-06,1.400045227195742e-06,2.3333041497299436e-06,4.276124546564052e-06,1.1488486431134527e-06,1.3224192346705004e-06,1.056820176654936e-06,2.0691191393691237e-06,1.247637044426617e-05,1.545344825168513e-06,2.361014553272801e-06,0.0001220188754238223,8.834361202346559e-07,7.973051843302174e-07,1.242993644331919e-06,4.87387850035584e-06
36,1.065649155637247e-06,1.3942457986524754e-06,2.376117512842165e-06,4.405557496784956e-06,1.1047596633930064e-06,1.2886051657224814e-06,1.0651165162626424e-06,2.035455906192363e-06,1.2212034075277438e-05,1.5436627748668916e-06,2.3959128524765994e-06,0.0001201180922288687,8.744619166297861e-07,7.842803988685944e-07,1.2533526015708672e-06,4.794958725468086e-06
37,1.054920464856294e-06,1.3930602600216827e-06,2.4168658256663474e-06,4.545260465617119e-06,1.0600903318814015e-06,1.2536408650928397e-06,1.0730158900673628e-06,2.00349406702281e-06,1.1906632598761192e-05,1.5398808626228834e-06,2.42772088941558e-06,0.00011777381612795965,8.668710848965932e-07,7.727055584216585e-07,1.2611030749285264e-06,4.723369150608793e-06
38,1.0413888739642565e-06,1.396688523432733e-06,2.454321254945001e-06,4.692997194245582e-06,1.0150930198708863e-06,1.2182829960860897e-06,1.080458090490589e-06,1.973298063067759e-06,1.1569237870030605e-05,1.5334459649422785e-06,2.455135486194134e-06,0.00011505477896351072,8.606431632685739e-07,7.627402188481792e-07,1.2653232601868918e-06,4.657778107779679e-06
39,1.0253594304734346e-06,1.4051602673600088e-06,2.4873305249126467e-06,4.846287760250739e-06,9.700208515626556e-07,1.1833320763172889e-06,1.0873790014477818e-06,1.9449420946331493e-06,1.1210527773203712e-05,1.5241708765799696e-06,2.476577494891939e-06,0.00011204009887572689,8.55719395917986e-07,7.544789515643373e-07,1.2652272234975911e-06,4.596400490650959e-06
40,1.007283028388969e-06,1.418377141037919e-06,2.515142749415171e-06,5.002489804501949e-06,9.250883372557693e-07,1.1495330339384526e-06,1.0935897762800684e-06,1.91841117679202e-06,1.0841064107922077e-05,1.5121269855165834e-06,2.490400743284364e-06,0.00010881691186557206,8.520632284554028e-07,7.479922648142649e-07,1.2603018620965541e-06,4.53725630399278e-06
41,9.877493249232158e-07,1.4361531275618679e-06,2.537674243434194e-06,5.159031391782006e-06,8.804415091847933e-07,1.1174674888745464e-06,1.0987412520268167e-06,1.8935863743496851e-06,1.0470087172654206e-05,1.4974542998189921e-06,2.4953968581128634e-06,0.00010547281609883179,8.496373345829218e-07,7.433645937265622e-07,1.2503719568517522e-06,4.478571538500325e-06
42,9.67478451187339e-07,1.4581694023382917e-06,2.555451299842047e-06,5.313736554811846e-06,8.362303677856295e-07,1.087506261363339e-06,1.102374751833525e-06,1.8703707079736138e-06,1.0105004112549127e-05,1.480287407966133e-06,2.4912054313748293e-06,0.00010208544183643477,8.483651057819521e-07,7.406745975570574e-07,1.2355879901456337e-06,4.419159584228172e-06
43,9.472411307700063e-07,1.4839056075951175e-06,2.569228466825818e-06,5.465126024532091e-06,7.927434111484154e-07,1.059838163848659e-06,1.104023097184954e-06,1.8488873486895118e-06,9.751419516540913e-06,1.4608110841121902e-06,2.478182564875937e-06,9.871468787431213e-05,8.48146257891963e-07,7.39965885235974e-07,1.2163489705316784e-06,4.3585974833585325e-06
44,9.277410233220075e-07,1.5126483842863925e-06,2.5795679576318374e-06,5.612550620719871e-06,7.504650953660324e-07,1.0345586803208513e-06,1.1033216014781744e-06,1.8296287964543329e-06,9.4133730270722e-06,1.4394002956721059e-06,2.457038148578041e-06,9.540064200421521e-05,8.488674856048387e-07,7.412485671277615e-07,1.1931797367913933e-06,4.297176071989701e-06
45,9.095406522142842e-07,1.5435505673579179e-06,2.58665319209929e-06,5.756080817858869e-06,7.099948587567876e-07,1.0117491252949799e-06,1.1000810445942103e-06,1.8134801343999944e-06,9.093653060670565e-06,1.4167071756878043e-06,2.4287322568836255e-06,9.216476866059791e-05,8.503971224568204e-07,7.444916594688721e-07,1.1666140407324216e-06,4.235695433162108e-06
46,8.930416211717565e-07,1.5756548934402453e-06,2.5903508721817727e-06,5.896241654926106e-06,6.719097738210061e-07,9.914672224171193e-07,1.0943019575953952e-06,1.8016095402623277e-06,8.794273850224878e-06,1.3935268110523054e-06,2.3944737156017777e-06,8.901080221148538e-05,8.526255043854767e-07,7.495776416213873e-07,1.1371544682946663e-06,4.175114250288007e-06
47,8.7849040072241e-07,1.6078815144851756e-06,2.590361390324809e-06,6.033792775805641e-06,6.3667630177173e-07,9.736689967993798e-07,1.0861456519510793e-06,1.795264231673982e-06,8.516946324706954e-06,1.3705602589876767e-06,2.3555498704922638e-06,8.592496864149201e-05,8.555100560006832e-07,7.562543636007964e-07,1.1052958286309236e-06,4.116100465271387e-06
48,8.660132028817529e-07,1.6390324839214728e-06,2.586335040351294e-06,6.169676374084835e-06,6.046317550973446e-07,9.581526826657172e-07,1.0758595343021611e-06,1.7955638161901844e-06,8.263103254057826e-06,1.3483075442532187e-06,2.313105982311066e-06,8.28778688909251e-05,8.590519528139556e-07,7.641275826319746e-07,1.0715644216518315e-06,4.058737721407496e-06
49,8.556668927745216e-07,1.6678028671396646e-06,2.5779067062752043e-06,6.30507537034816e-06,5.759995344924445e-07,9.445872671365057e-07,1.0636668658431403e-06,1.803412876399732e-06,8.033512102323694e-06,1.3270769736530463e-06,2.268026115474149e-06,7.983117217150374e-05,8.632351576756851e-07,7.727201424178357e-07,1.0365708736923896e-06,4.002584734935868e-06
50,8.474495328518722e-07,1.692826373156895e-06,2.564641730338182e-06,6.44140309555276e-06,5.509079306922554e-07,9.326411467606656e-07,1.0497212308105921e-06,1.8195531484617306e-06,7.828137981057612e-06,1.3069864408454849e-06,2.2208888979490323e-06,7.675017820651263e-05,8.679763919262306e-07,7.815906797301171e-07,1.0010166827895e-06,3.946934393411737e-06
51,8.412545196077041e-07,1.7128482684222249e-06,2.545981953905287e-06,6.580066826354097e-06,5.293959175265869e-07,9.221543448757942e-07,1.0342012510561606e-06,1.844652028680577e-06,7.646565098590542e-06,1.2879667155950166e-06,2.1719410617045104e-06,7.361775013649328e-05,8.73078250587868e-07,7.904516745815942e-07,9.656188998911519e-07,3.89105543902734e-06
52,8.368243829076083e-07,1.726952399699519e-06,2.5213537717966356e-06,6.722029679642954e-06,5.114112956431698e-07,9.132329747907472e-07,1.0174488188753694e-06,1.8793590940963252e-06,7.488563562647379e-06,1.2698219569365676e-06,2.1211228060672098e-06,7.044131754809944e-05,8.781999566767449e-07,7.992215308821099e-07,9.310481351921286e-07,3.834422047834783e-06
53,8.33754673308255e-07,1.7346543217339842e-06,2.4904882522872525e-06,6.867419074535035e-06,4.968282163503479e-07,9.061985023775997e-07,9.9999494933212e-07,1.9243446870139455e-06,7.354422108355706e-06,1.252293312681304e-06,2.0681845720562386e-06,6.724836430629253e-05,8.828998512821429e-07,8.079998907094129e-07,8.979245807006256e-07,3.7769919298411933e-06
54,8.315480476659878e-07,1.7357882731136264e-06,2.453787296192146e-06,7.015433638199662e-06,4.85480263673921e-07,9.01439238000221e-07,9.82446798549401e-07,1.9803205174021786e-06,7.245030084936811e-06,1.2350413757101044e-06,2.0128557536593492e-06,6.407407263531963e-05,8.867397837204654e-07,8.169973925932422e-07,8.668224610502815e-07,3.719410720007391e-06
55,8.29690292894456e-07,1.730271381159177e-06,2.412465654855235e-06,7.164486219522609e-06,4.771685721662793e-07,8.992654106296e-07,9.653497694789862e-07,2.0480025193922292e-06,7.1617821657881855e-06,1.2175711070016728e-06,1.9549747837657246e-06,6.094940016305167e-05,8.893777682228579e-07,8.264500779737373e-07,8.382600827873993e-07,3.66288874822859e-06
56,8.276959254556354e-07,1.717956263251274e-06,2.3683281989889222e-06,7.312247046749447e-06,4.716442848515935e-07,8.998422858443506e-07,9.491245897014657e-07,2.1279929563964348e-06,7.10634280104875e-06,1.1992355084081773e-06,1.8945253478536874e-06,5.789476705920515e-05,8.906374056089356e-07,8.365543854683041e-07,8.126734850919826e-07,3.6087297542677336e-06
57,8.250781354440584e-07,1.698705396413387e-06,2.323352387368761e-06,7.455503556041584e-06,4.686177693353578e-07,9.031941917749013e-07,9.340583500984716e-07,2.2206317833079237e-06,7.080355827677965e-06,1.1794383279070229e-06,1.8317507996050305e-06,5.491814521724378e-05,8.905713087493568e-07,8.474579276133725e-07,7.903917155739823e-07,3.557852320787394e-06
58,8.21288179637727e-07,1.67256215666918e-06,2.2793739145812803e-06,7.590191845890903e-06,4.6781193088922796e-07,9.092144738958773e-07,9.203127084919758e-07,2.325921484701467e-06,7.085286376127969e-06,1.157904782702697e-06,1.7674431414503762e-06,5.201464010388353e-05,8.894474414428172e-07,8.592822639532362e-07,7.716572575648629e-07,3.51058539101641e-06
59,8.15741871929517e-07,1.6398693761922678e-06,2.2379486517887933e-06,7.711792304987148e-06,4.690024884776786e-07,9.176586226744145e-07,9.079831433053435e-07,2.4435498699536853e-06,7.1224628859354724e-06,1.1347220231267003e-06,1.7030566952259166e-06,4.9167809323859204e-05,8.876362191561841e-07,8.721220839316693e-07,7.566773575446526e-07,3.4667152449639184e-06
60,8.079649830236167e-07,1.601301552905055e-06,2.20030883033376e-06,7.815851686300687e-06,4.719944665926193e-07,9.281695309269519e-07,8.97208635166188e-07,2.572909838320672e-06,7.193121350500731e-06,1.110147741264323e-06,1.6404361264716415e-06,4.635496733982749e-05,8.85527591787822e-07,8.860239104823854e-07,7.456466432317082e-07,3.425717219769074e-06
61,7.977403493007787e-07,1.5577683332934947e-06,2.1673592491438394e-06,7.898423141725233e-06,4.765663793958962e-07,9.403644711367618e-07,8.882434750969525e-07,2.713049208934217e-06,7.2982523582675864e-06,1.084441215019303e-06,1.5814321602020027e-06,4.3556825260285836e-05,8.835272584628171e-07,9.009766485059416e-07,7.387326220047501e-07,3.3871314167105837e-06
62,7.851437071055087e-07,1.510246771715407e-06,2.1396671122836973e-06,7.956427011924634e-06,4.824476666660367e-07,9.53935110122157e-07,8.814238772361107e-07,2.8626032710297745e-06,7.438241592771663e-06,1.0578168292099308e-06,1.5276588894720191e-06,4.076729273692999e-05,8.820305061003154e-07,9.16907549692039e-07,7.360451835152556e-07,3.3508612433638046e-06
63,7.704769860723293e-07,1.4596938516911825e-06,2.117475743763035e-06,7.987957029356112e-06,4.893443275091452e-07,9.686896291206843e-07,8.770607546728432e-07,3.0197582993546585e-06,7.612449141759641e-06,1.0304861705427892e-06,1.48040446628925e-06,3.799718968589514e-05,8.81365384339315e-07,9.336905840856742e-07,7.375963956445114e-07,3.3171181320268993e-06
64,7.541589290477072e-07,1.4070270077937788e-06,2.1007737286214425e-06,7.99249780238985e-06,4.969821625806474e-07,9.845308668327107e-07,8.753406286445765e-07,3.1822162360809546e-06,7.818957038484232e-06,1.0027243166332264e-06,1.440628311660728e-06,3.526990269444895e-05,8.818037858806264e-07,9.511756257437703e-07,7.43262841794894e-07,3.2860349272317907e-06
65,7.366116733015652e-07,1.3530940076296923e-06,2.0893162516167592e-06,7.970957599013585e-06,5.051379118660927e-07,1.00142443527275e-06,8.76277814200114e-07,3.3471707849928232e-06,8.054532405978104e-06,9.748978168347536e-07,1.4090076087665788e-06,3.2613080018871806e-05,8.83627287482898e-07,9.691731363288412e-07,7.527636645452512e-07,3.2572726904773416e-06
66,7.181799971852352e-07,1.298669613040272e-06,2.082554085866078e-06,7.925437539327111e-06,5.136429230279027e-07,1.0193810247287833e-06,8.797061581617885e-07,3.511370327654863e-06,8.31468992795945e-06,9.474860896267219e-07,1.3859967507503175e-06,3.0051670157110148e-05,8.871393215041027e-07,9.873714091787475e-07,7.656572877536685e-07,3.229859860912194e-06
67,6.99129186058665e-07,1.2444852119355e-06,2.0795686034386505e-06,7.858817255149812e-06,5.223580151816355e-07,1.0384234507647448e-06,8.852946905961958e-07,3.6712575361543404e-06,8.593948674385253e-06,9.21095121002977e-07,1.371833079914583e-06,2.7604542245056675e-05,8.926173593405121e-07,1.0052785348779894e-06,7.813525193405278e-07,3.202252410651472e-06
68,6.797189330136343e-07,1.1912129635923863e-06,2.0790991741219684e-06,7.77436642871598e-06,5.311355502295608e-07,1.0585196271048776e-06,8.925851593161135e-07,3.823133457594257e-06,8.886284626566401e-06,8.963962591507913e-07,1.3664898302688022e-06,2.5284051772347992e-05,9.002767411662056e-07,1.0222564360996923e-06,7.991242434989292e-07,3.1725658933559997e-06
69,6.602695616137237e-07,1.1394003029316775e-06,2.079691729064784e-06,7.675507743059936e-06,5.397980123141378e-07,1.0795015533589463e-06,9.010435938936787e-07,3.963391276521889e-06,9.185313324349438e-06,8.740322906118327e-07,1.3696411599851354e-06,2.3097058867325737e-05,9.102447697572312e-07,1.0376200421991367e-06,8.181374283466199e-07,3.138936794261516e-06
70,6.411536167720862e-07,1.0894233236738028e-06,2.079937537285608e-06,7.56566026128292e-06,5.481475439130673e-07,1.1010039651648072e-06,9.101255392549807e-07,4.088844464458317e-06,9.483927404937686e-06,8.54562435828647e-07,1.3806617338116748e-06,2.1046211858904526e-05,9.225224240037785e-07,1.0507308427192782e-06,8.37473914399227e-07,3.0999248732609387e-06
71,6.227356180280858e-07,1.0414729234372302e-06,2.0787243211544507e-06,7.448026959722937e-06,5.559838594197357e-07,1.1224646801088982e-06,9.193796297348163e-07,4.197044419698929e-06,9.77388111730555e-06,8.384265931346583e-07,1.398671509927606e-06,1.9130933910036332e-05,9.369625643699759e-07,1.0610374020765936e-06,8.561439105854166e-07,3.0548874664582853e-06
72,6.053075930248049e-07,9.955658761094772e-07,2.075418977940697e-06,7.325304136994096e-06,5.631211223086886e-07,1.143220422584301e-06,9.285770815616998e-07,4.2864738803523755e-06,1.0045958666734507e-05,8.25915339669339e-07,1.422666957855042e-06,1.7348178902271954e-05,9.532790867989877e-07,1.0680788079007017e-06,8.731393346369759e-07,3.0042042370427082e-06
73,5.890495728083582e-07,9.516414322895746e-07,2.069899171929018e-06,7.199397475449097e-06,5.694341659403616e-07,1.1626449797680752e-06,9.377770158348226e-07,4.3565627189467275e-06,1.0290669326491516e-05,8.171839207842449e-07,1.451733730720058e-06,1.5693276446791918e-05,9.710716514042684e-07,1.071475930617031e-06,8.875923704270104e-07,2.9491685451612914e-06
74,5.740374340420651e-07,9.097619657604232e-07,2.062409557788043e-06,7.07118537504639e-06,5.749206183577571e-07,1.1801993806974143e-06,9.472551259970037e-07,4.407479935110399e-06,1.0498991577767446e-05,8.123200742167203e-07,1.4852229791627394e-06,1.4160963799808319e-05,9.898445785491736e-07,1.0708972690135916e-06,8.989143887130293e-07,2.8915387751375216e-06
75,5.602904839039215e-07,8.702572386042843e-07,2.0533354200827204e-06,6.940310914291108e-06,5.797183899284696e-07,1.1953636356960465e-06,9.573355127931415e-07,4.439685009238639e-06,1.0662989267662158e-05,8.113966859782917e-07,1.5227386881170684e-06,1.2746423701186295e-05,1.00900705775861e-06,1.0660313407128462e-06,9.067487104395089e-07,2.8330078192759615e-06
76,5.478068276207609e-07,8.336622387005581e-07,2.0430023956415797e-06,6.805105665878487e-06,5.840696742405202e-07,1.2075892604711014e-06,9.682410935550283e-07,4.453408378994804e-06,1.0776409798204839e-05,8.144497280228081e-07,1.5639360324783983e-06,1.1446067385482743e-05,1.0279177543763481e-06,1.0566508606920306e-06,9.108446906091469e-07,2.7748886626466902e-06
77,5.365493171894168e-07,8.005472545598416e-07,2.0315665295666928e-06,6.662848508407408e-06,5.882625899670868e-07,1.216384310591943e-06,9.800440210832863e-07,4.448453411634915e-06,1.0835248708014163e-05,8.214179870164185e-07,1.608332598690302e-06,1.0257844736377716e-05,1.046042792686558e-06,1.0427213019052733e-06,9.110560952599699e-07,2.7181099324276156e-06
78,5.26422799496403e-07,7.714140188363486e-07,2.0190576052157534e-06,6.5103739200641905e-06,5.925696572077908e-07,1.2214361439793837e-06,9.926983464223916e-07,4.424505134710377e-06,1.0838002504234557e-05,8.321016265927368e-07,1.6552856493264766e-06,9.181067795563807e-06,1.0631142296464878e-06,1.024400101830573e-06,9.074235781802737e-07,2.6633916802496736e-06
79,5.173015941858322e-07,7.466656090642837e-07,2.005547310112481e-06,6.344807825284974e-06,5.972208653277381e-07,1.2226031956998758e-06,1.0060712374968574e-06,4.381614429235963e-06,1.0785252109136189e-05,8.46160360699121e-07,1.7040383312773933e-06,8.215976182980208e-06,1.079106015344236e-06,1.0019574667087667e-06,9.001914237062742e-07,2.6114099728135432e-06
80,5.09081279943711e-07,7.265905418530589e-07,1.9912755866948716e-06,6.164215176876079e-06,6.024452587208374e-07,1.2198050409965724e-06,1.0199346580560587e-06,4.320444380425987e-06,1.067849566877538e-05,8.631709331720488e-07,1.753723405948913e-06,7.36319439213182e-06,1.094072131743798e-06,9.757900863698483e-07,8.897369608089956e-07,2.5628160561780138e-06
81,5.016884868288845e-07,7.113545480952983e-07,1.9766169167637664e-06,5.9680860592810735e-06,6.085238015204206e-07,1.2129945319060104e-06,1.0339832461059454e-06,4.2421953338026574e-06,1.0518835071286778e-05,8.827186102920741e-07,1.8033799698967244e-06,6.6230772939375535e-06,1.108059347666613e-06,9.465140444571592e-07,8.765232314836496e-07,2.5180929969674544e-06
82,4.950557798463917e-07,7.010022208180732e-07,1.9619552850699174e-06,5.75764737714888e-06,6.157617376460728e-07,1.2022557965322129e-06,1.0479219306594506e-06,4.148364269017179e-06,1.0306624856812942e-05,9.04427629223413e-07,1.851961669811581e-06,5.995133312282251e-06,1.1211420877353407e-06,9.149590755084133e-07,8.611390792329644e-07,2.4774045974593297e-06
83,4.891229035958281e-07,6.9547488372293e-07,1.9476394551036483e-06,5.535905395981846e-06,6.244037613982693e-07,1.1879131481704698e-06,1.0615515099140456e-06,4.040569430749307e-06,1.0042477349370018e-05,9.279127534412701e-07,1.8982655540350999e-06,5.477785225813268e-06,1.1334598153767353e-06,8.820269136510156e-07,8.443190303685707e-07,2.440637369312632e-06
84,4.8387059562113e-07,6.946427912537824e-07,1.9340605462819638e-06,5.307269457871646e-06,6.345877693833179e-07,1.1705796246377235e-06,1.0748068081689551e-06,3.920597760904727e-06,9.728699334267161e-06,9.52746703102281e-07,1.9409307564497077e-06,5.06842671577953e-06,1.1452079256132933e-06,8.485701869245009e-07,8.268643281983788e-07,2.4076689895115163e-06
85,4.793294879517147e-07,6.983187868467762e-07,1.9216779386923164e-06,5.076777035690039e-06,6.463471258252077e-07,1.1511396542102492e-06,1.0877987355564047e-06,3.7906062718653582e-06,9.370055437133989e-06,9.78469420145722e-07,1.9786667408564048e-06,4.763615248487599e-06,1.1565908900275174e-06,8.153744296082934e-07,8.095553473464075e-07,2.378713259650241e-06
86,4.7553985619461793e-07,7.06263194645523e-07,1.9108946531561664e-06,4.8492237573370435e-06,6.596049441104405e-07,1.1306588206775647e-06,1.1008607407988158e-06,3.6532295033384972e-06,8.973599147743805e-06,1.0045850515800795e-06,2.0105504277610254e-06,4.5592622548603815e-06,1.1677563041884906e-06,7.831565828201192e-07,7.931501224851004e-07,2.354503206094072e-06
87,4.7251431365191167e-07,7.182118391441233e-07,1.901941411968024e-06,4.62856462676143e-06,6.74155825126624e-07,1.1102351238901084e-06,1.1145127338868448e-06,3.511421317550095e-06,8.547914382038575e-06,1.0305749707300545e-06,2.0360667514665916e-06,4.450652081456899e-06,1.1787501894643054e-06,7.525370796311567e-07,7.784206321168134e-07,2.336142978144294e-06
88,4.702731599543934e-07,7.338951150078118e-07,1.8948886096816946e-06,4.417700631541902e-06,6.896653289856309e-07,1.0908464517615453e-06,1.1293211553090776e-06,3.3681166748950425e-06,8.102159082246933e-06,1.0559912941085148e-06,2.054870017313876e-06,4.4323861657629215e-06,1.1894755019105017e-06,7.240270766862766e-07,7.661237739373277e-07,2.324735229239712e-06
89,4.689446201243786e-07,7.530176797154246e-07,1.889676181755294e-06,4.218493532181895e-06,7.056883769058183e-07,1.0732524691773897e-06,1.1457502278240875e-06,3.225950887657894e-06,7.64520343423582e-06,1.0805692708914098e-06,2.0665940704941642e-06,4.498635003789016e-06,1.1996538465766871e-06,6.980321864980213e-07,7.569372334724723e-07,2.3210763597680992e-06
90,4.688337221566527e-07,7.752307761121601e-07,1.8860584019813919e-06,4.031852255778648e-06,7.217223280737346e-07,1.0579757801818826e-06,1.1640894170496715e-06,3.087166757328696e-06,7.185059852954787e-06,1.1042263202442963e-06,2.0708904827514935e-06,4.643904259902827e-06,1.2088883502474004e-06,6.74867609981426e-07,7.514396750454346e-07,2.325562135165314e-06
91,4.7039345302032487e-07,8.001212524851021e-07,1.8835359605330828e-06,3.8579058850077385e-06,7.373199307798858e-07,1.0453518885591463e-06,1.1844491814734514e-06,2.9536319408321343e-06,6.728591327445363e-06,1.1269248113996673e-06,2.0676013776049252e-06,4.8640671006562805e-06,1.2168382851053855e-06,6.547929236251655e-07,7.50113565040894e-07,2.33820165756878e-06
92,4.741437039175798e-07,8.272094531180221e-07,1.8814046927550532e-06,3.696296129156069e-06,7.522047216151101e-07,1.035622184298879e-06,1.2067772269749267e-06,2.826829304380801e-06,6.281367785979408e-06,1.1485221785445635e-06,2.0569606002091847e-06,5.156983447811174e-06,1.2233605971297001e-06,6.380315213780001e-07,7.533589031069058e-07,2.3586086915987384e-06
93,4.806320355119087e-07,8.559878841712352e-07,1.8789347526903013e-06,3.5464733854214037e-06,7.662967240184426e-07,1.029027367698481e-06,1.2308735026364487e-06,2.7077818757267667e-06,5.847702383078271e-06,1.1687250381200145e-06,2.0396619856962304e-06,5.522118703615494e-06,1.2285393345710969e-06,6.24748369452488e-07,7.615528975836233e-07,2.385993558816111e-06
94,4.904441171296876e-07,8.860110086300382e-07,1.8755566263520109e-06,3.407836256427202e-06,7.796356243676597e-07,1.0258331093017402e-06,1.2563959461733369e-06,2.596968591258418e-06,5.430995865132587e-06,1.187135412224799e-06,2.016658222398484e-06,5.9595086413087196e-06,1.2326773455849145e-06,6.150208363263862e-07,7.751235982147002e-07,2.4192477292622747e-06
95,5.041836121345022e-07,9.16936761759867e-07,1.870943194399211e-06,3.279667158485627e-06,7.922604340599209e-07,1.0262643316599163e-06,1.2828449691609045e-06,2.4943172872818325e-06,5.034272191645799e-06,1.203318552802389e-06,1.9888851357524055e-06,6.469024640618447e-06,1.2362924968333112e-06,6.088352368944497e-07,7.945794231559023e-07,2.4571397524043544e-06
96,5.224094102351373e-07,9.48470988711387e-07,1.8650003984109671e-06,3.160934115957933e-06,8.041129240797198e-07,1.0304311229649867e-06,1.3095548897004866e-06,2.3993260284214506e-06,4.66053255646556e-06,1.2168479055511313e-06,1.957212175935585e-06,7.050193300504049e-06,1.2400454112116988e-06,6.06113878393922e-07,8.204946466660152e-07,2.498559622685414e-06
97,5.455953032222183e-07,9.803090511239392e-07,1.8578195474440247e-06,3.050092367494916e-06,8.15000556000802e-07,1.0383134618162252e-06,1.3357357685768164e-06,2.3112669643472367e-06,4.312688680318018e-06,1.2273152784747154e-06,1.9225876157173095e-06,7.702037958704668e-06,1.2445746112900332e-06,6.067822146451037e-07,8.534723660642255e-07,2.5426920911366214e-06
98,5.741390775925638e-07,1.0121486751955268e-06,1.8495757445040284e-06,2.94505262514584e-06,8.246374219910634e-07,1.0497593973975537e-06,1.360524407007328e-06,2.2293574121025277e-06,3.993207155575092e-06,1.234323070384154e-06,1.88611490739518e-06,8.422671564868968e-06,1.2503433400720213e-06,6.108455410374349e-07,8.941429059061316e-07,2.589050975881855e-06
99,6.08394645414246e-07,1.043731210626044e-06,1.8403515617583083e-06,2.8434348366894652e-06,8.327708689234365e-07,1.0644549682603303e-06,1.3829827362225573e-06,2.1528110550844906e-06,3.703786582747767e-06,1.2374916435792493e-06,1.8489383096375648e-06,9.20898671435015e-06,1.2575784309701176e-06,6.183948675178007e-07,9.432829061984883e-07,2.637455050417574e-06
100,6.486856960407812e-07,1.0748231823090142e-06,1.8299681792870674e-06,2.7430412242028604e-06,8.393208771990503e-07,1.0818923910061886e-06,1.4021099210823343e-06,2.0807854217194435e-06,3.4452421733515734e-06,1.2365240445893233e-06,1.81209074310636e-06,1.0056728612641466e-05,1.2662632747839828e-06,6.295287820026388e-07,1.0020123226048077e-06,2.6880151166656706e-06
101,6.953043833155149e-07,1.1051160887937266e-06,1.8179419427740489e-06,2.6423002404037947e-06,8.444061554325003e-07,1.1013824833798691e-06,1.4169872828959618e-06,2.012330754802142e-06,3.2175488268747826e-06,1.2313318644243554e-06,1.7764725831423337e-06,1.0960604527301986e-05,1.2761247467568474e-06,6.44274987156411e-07,1.0719046974702541e-06,2.741026601631321e-06
102,7.485440156497761e-07,1.1341217147225486e-06,1.8035879638481568e-06,2.540444113803616e-06,8.48260453380211e-07,1.1221602816485664e-06,1.4270210276161767e-06,1.9464312422774687e-06,3.0199746173359435e-06,1.2221014925482178e-06,1.7429051719410842e-06,1.1914060018828874e-05,1.2866251958590343e-06,6.625673745254787e-07,1.154921489584291e-06,2.796703750425259e-06
103,8.08770984114175e-07,1.1611522870039334e-06,1.78618673932846e-06,2.437374572194103e-06,8.511868247559122e-07,1.143575704904628e-06,1.4320891927972865e-06,1.882139985611568e-06,2.8513139232181533e-06,1.20919032470663e-06,1.7121358917620427e-06,1.2909243381914036e-05,1.2969920100507575e-06,6.842471361293409e-07,1.2532133318417901e-06,2.8549931432889937e-06
104,8.764902473078695e-07,1.1853961938126946e-06,1.7651044484619185e-06,2.333381751443452e-06,8.535929497600784e-07,1.165239225330713e-06,1.4324576859988881e-06,1.8187289895172147e-06,2.7101918651703044e-06,1.1929799210583277e-06,1.6847807200084272e-06,1.3937912964169686e-05,1.3062725641454706e-06,7.090583825312765e-07,1.3688861007036632e-06,2.915723567594011e-06
105,9.523527845009426e-07,1.2060455411430148e-06,1.7398394119676394e-06,2.2289411823818027e-06,8.559816849194617e-07,1.186983534836183e-06,1.428531946008934e-06,1.7557585110223853e-06,2.5952681722527878e-06,1.1738443180983707e-06,1.6612879504641037e-06,1.4992900145062595e-05,1.3134317310056586e-06,7.366523472405847e-07,1.5038307072508543e-06,2.9789654756145813e-06
106,1.037077668300413e-06,1.2224382414462522e-06,1.7100639567832067e-06,2.1246701899355203e-06,8.588472891958485e-07,1.2086795955875454e-06,1.42063741402943e-06,1.6930514625109847e-06,2.505187451014357e-06,1.1521806764606309e-06,1.641982336406174e-06,1.6068849544295754e-05,1.3175380314037288e-06,7.665954212053413e-07,1.6596719783384466e-06,3.0452592516080968e-06
107,1.1313380937885746e-06,1.23414747497125e-06,1.675702514785536e-06,2.0213456677088757e-06,8.625745294111526e-07,1.2300844308074055e-06,1.408985420581086e-06,1.6306593243625853e-06,2.438429288441472e-06,1.1284352504205604e-06,1.627104536980425e-06,1.7161393938593877e-05,1.3179680916622075e-06,7.983700997746439e-07,1.837804470284969e-06,3.115545593867068e-06
108,1.2356840932519939e-06,1.2409415002484039e-06,1.6370028861047825e-06,1.919879219272632e-06,8.673984113251458e-07,1.2508163572970325e-06,1.3938196009233774e-06,1.5688641883412215e-06,2.3933120269741927e-06,1.103115368923437e-06,1.61677798045906e-06,1.8265148370421416e-05,1.3144962733771537e-06,8.313811966911564e-07,2.039427561448439e-06,3.190870312374946e-06
109,1.3505080536342211e-06,1.242704049882243e-06,1.5945515831427703e-06,1.8212425041648668e-06,8.733913838490663e-07,1.2704304999878663e-06,1.3755810961076577e-06,1.508138465146604e-06,2.3680628573254234e-06,1.0767559616084198e-06,1.6109728131829285e-06,1.9371973131549722e-05,1.3072701571639665e-06,8.649663736213763e-07,2.2655624363911633e-06,3.272022789980956e-06
110,1.4760493754132326e-06,1.2395006209051996e-06,1.5492226576847457e-06,1.7263533392170534e-06,8.804651867747689e-07,1.2885660152848156e-06,1.3549200728748445e-06,1.4490403275478277e-06,2.360733670981205e-06,1.0498728037203406e-06,1.6095244387202735e-06,2.0471075527829892e-05,1.2967616426284131e-06,8.983955037659423e-07,2.517100039481039e-06,3.359238928185932e-06
111,1.6124334402823588e-06,1.2317446501434761e-06,1.50206822806666e-06,1.6359322959239173e-06,8.884166936667673e-07,1.3051150419881743e-06,1.3325379638599639e-06,1.3921630314391368e-06,2.3690473224427704e-06,1.0229415098658033e-06,1.6122428837368655e-06,2.1551832141601676e-05,1.2836759076580288e-06,9.308492303238043e-07,2.7948282492653748e-06,3.452051565224081e-06
112,1.7596741340761796e-06,1.2202340775938328e-06,1.4541651253562913e-06,1.5503885207819659e-06,8.970197474521396e-07,1.3202876157477176e-06,1.3090185130962045e-06,1.3381401571606813e-06,2.3904257521666036e-06,9.96374216846484e-07,1.6190959233310423e-06,2.2608205866043157e-05,1.2687599472926928e-06,9.614038697989219e-07,3.099326114395736e-06,3.5493473631116813e-06
113,1.917588073332383e-06,1.2059967303052353e-06,1.406462585982354e-06,1.4697899218705875e-06,9.061209978995727e-07,1.3344914831474238e-06,1.2847700942358463e-06,1.2875739216835608e-06,2.422304909283628e-06,9.705064190621334e-07,1.6302785080015753e-06,2.3641055367642386e-05,1.2525945034465807e-06,9.890696295022618e-07,3.430742724849643e-06,3.6496232271299914e-06
114,2.0856802685007445e-06,1.190101866538429e-06,1.3597179490496758e-06,1.3939331536977444e-06,9.156899658233732e-07,1.348108417426766e-06,1.2600679339550687e-06,1.240905434592389e-06,2.462611921376987e-06,9.456401267539314e-07,1.6460519552020172e-06,2.4655886424234975e-05,1.2354884048373244e-06,1.0128852802750547e-06,3.7885931345168132e-06,3.751313960625504e-06
115,2.263085888800394e-06,1.1735639479857518e-06,1.314541633615069e-06,1.3224966446231136e-06,9.25799227137912e-07,1.3613216198125985e-06,1.2351607064186082e-06,1.1983399127979762e-06,2.510075933600499e-06,9.22102978775169e-07,1.6665088694642494e-06,2.5658477470605555e-05,1.217482074990708e-06,1.0320395643448754e-06,4.17166833308465e-06,3.85305466600168e-06
116,2.448559939614473e-06,1.1573021539499256e-06,1.271439213213182e-06,1.2552006476944084e-06,9.365501644714554e-07,1.3740655411676561e-06,1.2103709498118591e-06,1.1598333621007037e-06,2.5641016792885308e-06,9.00231032794993e-07,1.6914705504823214e-06,2.6652716022693734e-05,1.1984175063114345e-06,1.0459631228481424e-06,4.578032114783119e-06,3.953819765705519e-06
117,2.640442268747359e-06,1.1420844231746353e-06,1.2307642148452986e-06,1.191899564975699e-06,9.479872065660651e-07,1.3860972077331143e-06,1.186111708795014e-06,1.1251076764601211e-06,2.6243058015626664e-06,8.803071816219595e-07,1.7205719945521964e-06,2.764204418621575e-05,1.1780608443081898e-06,1.0543362432699997e-06,5.005020166628553e-06,4.052900852850957e-06
118,2.836572566144609e-06,1.1284730996442319e-06,1.192643728795035e-06,1.1326110797457153e-06,9.600448951185686e-07,1.3971532743817548e-06,1.162848041677136e-06,1.093690680854267e-06,2.690068421148806e-06,8.625602723419237e-07,1.753447086096915e-06,2.8632913292401696e-05,1.1562750940908207e-06,1.0570483189390808e-06,5.449218418519182e-06,4.1497809121022825e-06
119,3.0342225192457977e-06,1.116807866550036e-06,1.1569866922034807e-06,1.0775173237602783e-06,9.725402269220737e-07,1.4070722794305834e-06,1.141047671097603e-06,1.0649551566013971e-06,2.760343286216362e-06,8.471962415180199e-07,1.7898753339324236e-06,2.9638256552513998e-05,1.1331814274679432e-06,1.0541828488913563e-06,5.906424686738447e-06,4.244066319596304e-06
120,3.2301604271543317e-06,1.107213655554454e-06,1.1235970736076447e-06,1.026943205415732e-06,9.851961649836458e-07,1.4157656018548076e-06,1.1211131141649708e-06,1.0381340481052575e-06,2.8337177358293475e-06,8.343772542275757e-07,1.829785699189887e-06,3.0679644002697465e-05,1.109199446351194e-06,1.0460073807388794e-06,6.371556011994886e-06,4.335493781663354e-06
121,3.4209034081619754e-06,1.0996290982152496e-06,1.0923085244210583e-06,9.812940234399886e-07,9.97675485380064e-07,1.4230707844940994e-06,1.1033373339741869e-06,1.0123681811703478e-06,2.9085606454125773e-06,8.24178529248386e-07,1.8731177020464824e-06,3.178738434304869e-05,1.084927843322826e-06,1.0329041508147251e-06,6.838505445780804e-06,4.423879884105158e-06
122,3.603062004048238e-06,1.0938688580910206e-06,1.0630519544078322e-06,9.409528901887749e-07,1.0095826740361777e-06,1.428628092723363e-06,1.0879128667179486e-06,9.868476966967643e-07,2.9830957921583844e-06,8.165913518206578e-07,1.919712563710869e-06,3.299856785286955e-05,1.0609476475616712e-06,1.0152895358784306e-06,7.300040990926646e-06,4.509029764405346e-06
123,3.7735686623050274e-06,1.0897086051247054e-06,1.0358558381143249e-06,9.061829198901094e-07,1.020432624289747e-06,1.4318872407647194e-06,1.0749321692196507e-06,9.609943359759282e-07,3.055376331615912e-06,8.115627492870236e-07,1.969385389236515e-06,3.435373587689769e-05,1.0376740706286005e-06,9.936356500817118e-07,7.74776603905666e-06,4.590785241750688e-06
124,3.9296109224443535e-06,1.0869668437523527e-06,1.0108260602614045e-06,8.770777083796893e-07,1.0296648648053527e-06,1.4322489304365096e-06,1.0643857904907324e-06,9.345661927971439e-07,3.123331043935239e-06,8.090157733694179e-07,2.0220497324614274e-06,3.589319881986749e-05,1.0153123487767931e-06,9.685583222331286e-07,8.172037592541858e-06,4.669219487471731e-06
125,4.068383701143705e-06,1.0855586538312344e-06,9.881165583682857e-07,8.535628835440891e-07,1.03674400199762e-06,1.4292691587661993e-06,1.0562075322362156e-06,9.076327860133312e-07,3.185048202651575e-06,8.088280417302105e-07,2.0777067846673888e-06,3.765386600325865e-05,9.93883324692481e-07,9.408123201595864e-07,8.561944560901115e-06,4.7446880801101105e-06
126,4.187116105597649e-06,1.0854999226240767e-06,9.67874780567233e-07,8.354453392314208e-07,1.0412974883949228e-06,1.4228150055031489e-06,1.0503015264413734e-06,8.804738083057205e-07,3.2391656478744783e-06,8.10821089159359e-07,2.136340549492945e-06,3.9666865142641245e-05,9.733037092004504e-07,9.111632769911008e-07,8.905803552722163e-06,4.817506585200452e-06
127,4.283546491518041e-06,1.08685918590692e-06,9.501677985232796e-07,8.224883419247294e-07,1.0432103314691634e-06,1.4130664090512854e-06,1.0465263659899914e-06,8.534671949915247e-07,3.2850457940829955e-06,8.147896540261208e-07,2.197836458495615e-06,4.195572297118221e-05,9.535224802641314e-07,8.802628760463311e-07,9.192432778355698e-06,4.887447322567684e-06
128,4.356401445258337e-06,1.0896779466653242e-06,9.349328989433513e-07,8.144432750491782e-07,1.042600500011642e-06,1.4003641093796701e-06,1.044712732152569e-06,8.269906103998234e-07,3.322617140106097e-06,8.20503571325822e-07,2.2619195890829403e-06,4.453492369921833e-05,9.346254349743845e-07,8.486319572790175e-07,9.412753858283575e-06,4.953480350611775e-06
129,4.4054829463196865e-06,1.0938897955185374e-06,9.220014247519834e-07,8.110051437427034e-07,1.0396897376432151e-06,1.3850462999461866e-06,1.0446936986294771e-06,8.013825646660509e-07,3.352020578655862e-06,8.276721943256211e-07,2.328089793988074e-06,4.740894602717774e-05,9.168125411663635e-07,8.167480866777471e-07,9.560855591442026e-06,5.013934489592389e-06
130,4.4314136612176535e-06,1.0992733075234442e-06,9.111926135002878e-07,8.117526685712522e-07,1.0347116954893256e-06,1.3674166185759949e-06,1.0462635707891662e-06,7.76985411156419e-07,3.373294941365832e-06,8.359442250969176e-07,2.395588507664396e-06,5.0571861446154394e-05,9.002814696507201e-07,7.851411238462968e-07,9.633818885015594e-06,5.066893168509153e-06
131,4.435175360866031e-06,1.105475897332191e-06,9.024130156432142e-07,8.161431072213615e-07,1.0279294366060902e-06,1.3478316820909794e-06,1.04909137861191e-06,7.541886456333833e-07,3.3863880691927137e-06,8.449815491845877e-07,2.463433066700037e-06,5.400717185138997e-05,8.851301346705537e-07,7.543952098046191e-07,9.630392717215881e-06,5.110547292032634e-06
132,4.417573106610049e-06,1.1120906868955152e-06,8.956819201873065e-07,8.235593558762047e-07,1.019668346117158e-06,1.3267845879381847e-06,1.0526770402710732e-06,7.334027538195381e-07,3.3915188844221197e-06,8.545722494526749e-07,2.53054852436207e-06,5.7687352665472026e-05,8.713304792720613e-07,7.25067348323055e-07,9.549882933778251e-06,5.143389074004415e-06
133,4.378982115510822e-06,1.1186993131018967e-06,8.91059607130024e-07,8.333526846016293e-07,1.0102953839598098e-06,1.3048947429562527e-06,1.056384422900412e-06,7.149922377913966e-07,3.389405590693202e-06,8.646652536148866e-07,2.595891706159276e-06,6.157378286969076e-05,8.587376616864144e-07,6.976243257507694e-07,9.392678021787846e-06,5.1643167059858055e-06
134,4.319658193137685e-06,1.1248483660108527e-06,8.885610812292169e-07,8.448370951753798e-07,1.000174863277713e-06,1.28281156469785e-06,1.0595412022907874e-06,6.992260920521147e-07,3.3810176578361375e-06,8.752871456291834e-07,2.658358913010511e-06,6.561991287353743e-05,8.471197212060559e-07,6.724493611993881e-07,9.161979336711679e-06,5.172703157765242e-06
135,4.240382565989821e-06,1.1300396882294387e-06,8.881540139546099e-07,8.572607333351403e-07,9.896318054849449e-07,1.2611066614535578e-06,1.0615851685883636e-06,6.862822059955572e-07,3.3672503094912643e-06,8.864544622685789e-07,2.7165366910971318e-06,6.977978709304547e-05,8.362230058784319e-07,6.498740545863653e-07,8.86494633522933e-06,5.168389919111386e-06
136,4.14298438184023e-06,1.1338096809720447e-06,8.898071845741314e-07,8.698256413434093e-07,9.789258744667352e-07,1.2402168215209508e-06,1.0622160109787635e-06,6.763017501064991e-07,3.3489208809941018e-06,8.981623373942698e-07,2.7686435121172822e-06,7.40183304171556e-05,8.258382388951275e-07,6.301960116522664e-07,8.512130050255979e-06,5.15162191212558e-06
137,4.0304849826604466e-06,1.1358659754751416e-06,8.935008197866462e-07,8.81777565979686e-07,9.682230383175355e-07,1.2204239957802466e-06,1.061487514458165e-06,6.694357990688518e-07,3.326801252060705e-06,9.104119956003534e-07,2.812877519637034e-06,7.831504646492872e-05,8.158224698750037e-07,6.136927536943246e-07,8.115587670188233e-06,5.1229762053856286e-06
138,3.906837558832834e-06,1.1361752461134849e-06,8.992291127686434e-07,8.925190704766345e-07,9.575562083919494e-07,1.2018402384317436e-06,1.0597763276727644e-06,6.658315422734149e-07,3.3014154293513847e-06,9.231916778151942e-07,2.8479219177390876e-06,8.265717024766366e-05,8.060959230736834e-07,6.006392866718265e-07,7.686960228430247e-06,5.083309880181181e-06
139,3.7764143546660107e-06,1.1349368313620456e-06,9.070369981107071e-07,9.016876644238089e-07,9.468092084682402e-07,1.1844368768127872e-06,1.0576203539750805e-06,6.655881941893773e-07,3.2728493585462553e-06,9.363968152265963e-07,2.873094214791623e-06,8.702899300181127e-05,7.966563633187396e-07,5.913145645912947e-07,7.236456636173395e-06,5.033797826903703e-06
140,3.64347922370556e-06,1.1324980391172081e-06,9.170232318734278e-07,9.09148396599351e-07,9.357789917364708e-07,1.168153172098648e-06,1.0555149802275535e-06,6.687357907603479e-07,3.2408359042497207e-06,9.497631310278873e-07,2.888078989479949e-06,9.140758720127311e-05,7.875887880545788e-07,5.859837412948749e-07,6.772736754690962e-06,4.976072551180449e-06
141,3.511797193568709e-06,1.1293040994805987e-06,9.292826859511286e-07,9.148839725924918e-07,9.242974053563612e-07,1.1530151411927766e-06,1.0537733532509231e-06,6.752285206245019e-07,3.2050849568464854e-06,9.628881605357784e-07,2.8927627486887344e-06,9.576700904259868e-05,7.790266325480285e-07,5.848788675031317e-07,6.30318675103289e-06,4.912346957081721e-06
142,3.3844181725080804e-06,1.1258625642008404e-06,9.438720460424608e-07,9.188489466116001e-07,9.123054361705343e-07,1.1391738986993485e-06,1.0524872116285198e-06,6.849495350273521e-07,3.165643448143807e-06,9.753659744592162e-07,2.887418032705526e-06,0.0001000849396971047,7.711079183622317e-07,5.882061181455574e-07,5.83422953423343e-06,4.845436437579164e-06
143,3.2636444731691765e-06,1.1226551609058634e-06,9.608687958211825e-07,9.209042824795057e-07,8.998162079142779e-07,1.1268536793783996e-06,1.0515999179308604e-06,6.97747555345869e-07,3.1230149121930772e-06,9.869540406139451e-07,2.872884798684189e-06,0.00010434563352199575,7.639687800945657e-07,5.961486295400618e-07,5.371564851264134e-06,4.778645918127778e-06
144,3.151130443117408e-06,1.1200447370886158e-06,9.80470610498887e-07,9.208735977099841e-07,8.868316435765316e-07,1.1162574052680857e-06,1.0510818336236655e-06,7.134744573583984e-07,3.07793596977802e-06,9.976324657787501e-07,2.8504293593249504e-06,0.00010853666581151891,7.577227104023253e-07,6.088351391670296e-07,4.920299729257209e-06,4.715496885043822e-06
145,3.0479671532345845e-06,1.1182419933300027e-06,1.0030086289342106e-06,9.186438381493141e-07,8.733127786900181e-07,1.107494647335557e-06,1.0510880320055277e-06,7.319972454677641e-07,3.0310109324723565e-06,1.0075099880995182e-06,2.821370869328998e-06,0.0001126405883046253,7.524041161604811e-07,6.263061787522629e-07,4.484967657423199e-06,4.659401696599e-06
146,2.954676817225241e-06,1.1172972700192636e-06,1.0288532140609854e-06,9.142322819404942e-07,8.592203597972246e-07,1.1005603392923222e-06,1.051949432888916e-06,7.532183926493486e-07,2.9824945621264254e-06,1.016659411895605e-06,2.786751524660383e-06,0.00011662542587462295,7.479435777319078e-07,6.485087873328041e-07,4.069496892629239e-06,4.613456891020486e-06
147,2.871177347850004e-06,1.1171088306672054e-06,1.0583113312589376e-06,9.078233327623033e-07,8.445668554840321e-07,1.095330402755374e-06,1.0540154894597813e-06,7.771108448834347e-07,2.932269846082604e-06,1.0250102929440373e-06,2.7471897881839065e-06,0.00012043772532024795,7.442293767756132e-07,6.753037098449388e-07,3.677188977723131e-06,4.5803442236631286e-06
148,2.796757008381819e-06,1.1174895146472945e-06,1.0915802810123176e-06,8.99785971620925e-07,8.294277468421406e-07,1.0915896240218506e-06,1.0575066317323132e-06,8.037088195740782e-07,2.8798942858493382e-06,1.0323851482050052e-06,2.702883538743516e-06,0.0001240000056466239,7.412120909170164e-07,7.064557910959257e-07,3.3107278327302204e-06,4.562187155820253e-06
149,2.7300802158096757e-06,1.1182504351695947e-06,1.1287538293147528e-06,8.906352835185003e-07,8.139140858837008e-07,1.0891406493790117e-06,1.062481076804256e-06,8.330364691130657e-07,2.8247623592678017e-06,1.0386626673170981e-06,2.6537627649516745e-06,0.00012721518096370905,7.389406095003839e-07,7.416132056273925e-07,2.9722070954514653e-06,4.5603342753846784e-06
150,2.6693137029833963e-06,1.119210800391632e-06,1.169859584914502e-06,8.809447035839431e-07,7.981374468849785e-07,1.0879177799235967e-06,1.0689187321635828e-06,8.650422559649451e-07,2.7664479803667876e-06,1.0439547677898555e-06,2.599722039486085e-06,0.0001299800132661838,7.374977272198507e-07,7.802992389195992e-07,2.6631595358718112e-06,4.575199535250328e-06
151,2.612410791561774e-06,1.1201371830299883e-06,1.2148755004781425e-06,8.712820011422906e-07,7.821782243618857e-07,1.0879991294794273e-06,1.07687171934261e-06,8.995735134901175e-07,2.704948082869131e-06,1.0486626310132127e-06,2.5407134813328676e-06,0.0001322040363246381,7.369235305333138e-07,8.219133797953536e-07,2.384582913653238e-06,4.606242376764828e-06
152,2.557440482245576e-06,1.1206999849215215e-06,1.2636854689613899e-06,8.621758641802212e-07,7.660669908699022e-07,1.0895484667780654e-06,1.0865767193491923e-06,9.363524307893532e-07,2.640574660555585e-06,1.0533666668210798e-06,2.4767814145228928e-06,0.00013382659110831077,7.372076481308735e-07,8.657318212177105e-07,2.136962897460781e-06,4.652031956234948e-06
153,2.502804486430719e-06,1.120490816038859e-06,1.3160487838095691e-06,8.540645519276207e-07,7.4982571017047e-07,1.092769961046124e-06,1.0984304731602403e-06,9.749468234629436e-07,2.573747640528158e-06,1.0586577027546795e-06,2.4083096055212208e-06,0.0001348250993464771,7.383647126630704e-07,9.109060709237245e-07,1.920315261475977e-06,4.7103198360082586e-06
154,2.4472732015883664e-06,1.1190668925791308e-06,1.3716766978386816e-06,8.472432129306476e-07,7.335661693035323e-07,1.0978744515946663e-06,1.1128565360674868e-06,1.0147614541930455e-06,2.5049917592960812e-06,1.065032023105326e-06,2.336272591271142e-06,0.00013520818194920106,7.405302612398944e-07,9.5646311358766e-07,1.734254484017572e-06,4.7780885729300325e-06
155,2.3899066198137307e-06,1.115964348007003e-06,1.4303640277598594e-06,8.418547750736291e-07,7.175401457694184e-07,1.1050251596150451e-06,1.1301873044784558e-06,1.0550570370858955e-06,2.434999345052669e-06,1.0728478930352661e-06,2.2620956360769396e-06,0.0001349953653624845,7.43965515254436e-07,1.0013307504970694e-06,1.578058257430012e-06,4.851562575027345e-06
156,2.330024365106328e-06,1.1106654220165607e-06,1.4920389838877612e-06,8.379143835470791e-07,7.020774927521246e-07,1.114296500751335e-06,1.1506181616233707e-06,1.0950172922827114e-06,2.3647049354622236e-06,1.082298511886247e-06,2.187226292610139e-06,0.0001342009443957765,7.489542658560576e-07,1.0443842033208051e-06,1.450737719629743e-06,4.926268619333924e-06
157,2.2673329569830457e-06,1.1026195677437468e-06,1.5566831143720724e-06,8.353173572229913e-07,6.874729302477745e-07,1.1256613866370283e-06,1.1742222051254973e-06,1.1338692550166866e-06,2.2955625117685127e-06,1.0933929827009047e-06,2.112833993894678e-06,0.00013283477998487028,7.557052525380915e-07,1.084496416184471e-06,1.3511358772834425e-06,4.997323039134168e-06
158,2.202115654591103e-06,1.0914082202693639e-06,1.6242586914557868e-06,8.338217754736624e-07,6.739067647678158e-07,1.1389564136813988e-06,1.201024513821773e-06,1.1709893149272161e-06,2.229784841453012e-06,1.1059589520861935e-06,2.0398325615146714e-06,0.0001309099290532193,7.643693490268443e-07,1.1206170293361742e-06,1.2780115434372733e-06,5.05996788259413e-06
159,2.135268019198683e-06,1.07691894177917e-06,1.6948023129536367e-06,8.330774268398114e-07,6.614385709166271e-07,1.15383607990615e-06,1.2310792543124053e-06,1.2059100457460934e-06,2.1701316682603532e-06,1.1196703178112825e-06,1.969074849643039e-06,0.0001284456613780125,7.751554825076453e-07,1.1518313428458428e-06,1.230072107577618e-06,5.110140904006859e-06
160,2.0680780007972854e-06,1.0593315897007583e-06,1.7686095071299808e-06,8.327507918988268e-07,6.500763358737573e-07,1.1698083134432381e-06,1.264453247770469e-06,1.2382353752613837e-06,2.119410687638625e-06,1.1340749271908703e-06,1.901476053248413e-06,0.000125469163835342,7.884118880818797e-07,1.1773300623905063e-06,1.2059645436128779e-06,5.1448999465774555e-06
161,2.0018693011915245e-06,1.0389776613546841e-06,1.8463089620147743e-06,8.326559208805982e-07,6.39870345533048e-07,1.186376102241733e-06,1.301117167933952e-06,1.2675973703435163e-06,2.080122527034321e-06,1.1486386322380523e-06,1.8379790460144595e-06,0.00012202067147998833,8.045840731823312e-07,1.1964322300567244e-06,1.204229360391574e-06,5.162735887645676e-06
162,1.9377205008086047e-06,1.016284232383441e-06,1.928748658951311e-06,8.327632988899105e-07,6.309437272593573e-07,1.2031779708883784e-06,1.340834330904262e-06,1.293781274390339e-06,2.054373435293237e-06,1.1628282003442549e-06,1.7794290386698035e-06,0.00011815949847689535,8.241041268669294e-07,1.2088145229644725e-06,1.2232455225174983e-06,5.163800473948166e-06
163,1.876375381429617e-06,9.918139244168748e-07,2.0167559591717977e-06,8.331354345744501e-07,6.234475387982155e-07,1.2200221093894872e-06,1.383097446450298e-06,1.3169491855407228e-06,2.043972407286367e-06,1.1761625548162312e-06,1.7264674247181646e-06,0.00011396586339887573,8.47309481482052e-07,1.214767402042107e-06,1.261223455017041e-06,5.149866815777374e-06
164,1.8183072682219452e-06,9.662427868164497e-07,2.1108918717330658e-06,8.339307756799581e-07,6.175060611049865e-07,1.2368312525053539e-06,1.427103231967471e-06,1.3377204285271585e-06,2.0506079384027994e-06,1.1882176505726768e-06,1.679500625313635e-06,0.00010953583089091922,8.74421617381882e-07,1.21515971461854e-06,1.3162439470133586e-06,5.123855551104674e-06
165,1.7638433674752238e-06,9.402537493970977e-07,2.2113053830833066e-06,8.354429486737035e-07,6.131761230337209e-07,1.2535587602768214e-06,1.4717708845354882e-06,1.3569809867170894e-06,2.0759373265391254e-06,1.198652485153186e-06,1.638708285288435e-06,0.00010497009593782286,9.055603146220416e-07,1.2111019086543284e-06,1.3863296525186567e-06,5.089091618991287e-06
166,1.7132704246903565e-06,9.144740517869094e-07,2.317700726666701e-06,8.380546033696617e-07,6.104183322980345e-07,1.2701000356622162e-06,1.5158211469208027e-06,1.3755805182673266e-06,2.1215363766788683e-06,1.207258274434146e-06,1.6040651797351465e-06,0.00010036110160989149,9.40756828004459e-07,1.2036092546216507e-06,1.469576984291108e-06,5.04867794841878e-06
167,1.666855629703778e-06,8.894996895257327e-07,2.429351215412138e-06,8.421471512142787e-07,6.090949636560508e-07,1.286257408103777e-06,1.5579011498296995e-06,1.3941346768222773e-06,2.18891418035221e-06,1.2140464953915335e-06,1.575368338728383e-06,9.578565552879258e-05,9.799365099455326e-07,1.1934590253036865e-06,1.5642727800270705e-06,5.005227218259158e-06
168,1.6247662538786118e-06,8.659164043603898e-07,2.5451487863504287e-06,8.480573697380457e-07,6.089885953210489e-07,1.3018305059775027e-06,1.596718180151198e-06,1.4129770799148077e-06,2.2796564510218933e-06,1.2193284017771732e-06,1.5522216054216922e-06,9.130557315138816e-05,1.0228902431064893e-06,1.1811939266970713e-06,1.668854577582931e-06,4.960936761406821e-06
169,1.5869570059075988e-06,8.442630519984166e-07,2.6637417343849426e-06,8.560465830144207e-07,6.09853625185701e-07,1.3167614811439356e-06,1.6311588517137609e-06,1.4322078921931867e-06,2.3954492093574878e-06,1.2236324012835052e-06,1.5339980397103305e-06,8.697132005815801e-05,1.069280275784723e-06,1.167198088558057e-06,1.781749712910801e-06,4.917846500075084e-06
170,1.5531168699543085e-06,8.249774486096415e-07,2.7837150086181294e-06,8.662533853001261e-07,6.115172293964989e-07,1.331160972802649e-06,1.6604150040278136e-06,1.4517718336664707e-06,2.537936078412992e-06,1.2275255641637934e-06,1.5198721903755399e-06,8.282441571541117e-05,1.1186735742604423e-06,1.1517859364102707e-06,1.9012358974179885e-06,4.87802701395801e-06
171,1.5227106327501526e-06,8.083677037855971e-07,2.903701542507221e-06,8.78674370100466e-07,6.139579573333696e-07,1.345182669312537e-06,1.6841144508725439e-06,1.4715063363619303e-06,2.708608450216527e-06,1.2315127338609305e-06,1.5089195896928777e-06,7.889916068512196e-05,1.1705506636535189e-06,1.1352217063887952e-06,2.025349459380721e-06,4.843465731827373e-06
172,1.495084890020508e-06,7.94629503328614e-07,3.0224311545096104e-06,8.931883640086456e-07,6.172892799176149e-07,1.3589027472530508e-06,1.7023389454200768e-06,1.491183371332164e-06,2.9087184377387682e-06,1.2359690589321258e-06,1.5002157824825976e-06,7.522455025806033e-05,1.2242638637147179e-06,1.1176756583915356e-06,2.1518269323127857e-06,4.815686501438934e-06
173,1.4695811796946622e-06,7.839038862248597e-07,3.138812597085169e-06,9.096140865406948e-07,6.216876484274199e-07,1.372291522184571e-06,1.7154330509830048e-06,1.5105975750357424e-06,3.1391408933693086e-06,1.2410474156789175e-06,1.4929602528818654e-06,7.182551779698145e-05,1.2789893239509957e-06,1.0992169360677826e-06,2.2781020196420557e-06,4.795385058055624e-06
174,1.4456242918336588e-06,7.763139210435136e-07,3.2520743306172084e-06,9.277820277582998e-07,6.273297651046314e-07,1.385222563420259e-06,1.7237375303637294e-06,1.5296460428456198e-06,3.400305035180881e-06,1.2466227860760804e-06,1.4865925476385841e-06,6.872240905431985e-05,1.3337363029871968e-06,1.0798813045220903e-06,2.4013683790483636e-06,4.782260056828342e-06
175,1.4227955919093154e-06,7.719335845954e-07,3.3618785645216403e-06,9.475591985371132e-07,6.343507753332712e-07,1.3975109663667622e-06,1.7274718227625402e-06,1.5482937040305473e-06,3.6923022967797693e-06,1.2522921260611686e-06,1.4807766953065712e-06,6.592873518521935e-05,1.3874048005983844e-06,1.05975605928726e-06,2.518732648640464e-06,4.7750218549689725e-06
176,1.4008898047160163e-06,7.707333217789374e-07,3.4682774326128116e-06,9.68803244455617e-07,6.428356551735926e-07,1.408983622633545e-06,1.7267918511484687e-06,1.5664451413716079e-06,4.015147812547818e-06,1.2573911761680916e-06,1.4753570542795981e-06,6.344879409565118e-05,1.4388476161301047e-06,1.0390360339497735e-06,2.6273542189144205e-06,4.771607409450777e-06
177,1.3799176668639232e-06,7.72557592091158e-07,3.5714369589298785e-06,9.91337435913485e-07,6.528475299920782e-07,1.4195063437376625e-06,1.7218975051802795e-06,1.5838789193847582e-06,4.369069887377763e-06,1.2610392797365425e-06,1.4703902893603411e-06,6.127680085197882e-05,1.486939215429626e-06,1.0180397284560702e-06,2.724415882431736e-06,4.769689214849998e-06
178,1.3600491868203948e-06,7.771268732946127e-07,3.6712390386862594e-06,1.0150132225400194e-06,6.644375912011823e-07,1.4289285900405815e-06,1.713104878867431e-06,1.6003500762217008e-06,4.75455469651122e-06,1.2622999573391286e-06,1.4660886711721348e-06,5.939710302177565e-05,1.5306509381032873e-06,9.971690488286694e-07,2.8071476951037104e-06,4.767387870142697e-06
179,1.341553179631904e-06,7.84070328057444e-07,3.7670374264538954e-06,1.039786684349946e-06,6.776086615299878e-07,1.4369862416830835e-06,1.7008341445907511e-06,1.6157980323749816e-06,5.172012926752159e-06,1.2604656013726273e-06,1.4626822038039254e-06,5.778377400629264e-05,1.5690670647848007e-06,9.768135969890178e-07,2.873142881998475e-06,4.763878198913634e-06
180,1.3247690993017867e-06,7.93028335920071e-07,3.857704717776697e-06,1.0657245282375786e-06,6.922714189978624e-07,1.443246538795908e-06,1.6854923951665983e-06,1.6305000332857846e-06,5.621460375832819e-06,1.2552772743701767e-06,1.4603901017263606e-06,5.639962328894413e-05,1.6012985237295076e-06,9.572517494231587e-07,2.9206051967031058e-06,4.759573208842347e-06
181,1.310077932344874e-06,8.037693439204282e-07,3.941811463180017e-06,1.092933515990386e-06,7.082124210278258e-07,1.4471791289177598e-06,1.6673589807770026e-06,1.6450390249844833e-06,6.102588542673759e-06,1.2469172544529951e-06,1.4594394836434644e-06,5.519661146191402e-05,1.6264079105413666e-06,9.386209821379272e-07,2.948275052682036e-06,4.7557965785046905e-06
182,1.2978254497300109e-06,8.161967061192092e-07,4.017760985454313e-06,1.1214496342080317e-06,7.250747103500428e-07,1.4483341264253131e-06,1.6466392020147127e-06,1.6600896075802024e-06,6.614902183379114e-06,1.2358441472798837e-06,1.4599865386577328e-06,5.411854505439943e-05,1.6435236946998883e-06,9.209763457942561e-07,2.9555412362314255e-06,4.7541632019655735e-06
183,1.2882105184309713e-06,8.302578419049537e-07,4.0838935771527e-06,1.1511664050338662e-06,7.423810588328037e-07,1.446486021637546e-06,1.6236657769199476e-06,1.6761830706830435e-06,7.15746833965485e-06,1.2226204684690406e-06,1.4619916658593048e-06,5.310469931266621e-05,1.6521239127159683e-06,9.043643971625374e-07,2.942946762445309e-06,4.7560692279816895e-06
184,1.2812120156577499e-06,8.458664001118218e-07,4.138653930502663e-06,1.1818575939641857e-06,7.596314356951564e-07,1.4416133843967678e-06,1.5990170747677906e-06,1.6935934412194345e-06,7.728398618650083e-06,1.20778258451369e-06,1.4651597396072556e-06,5.209326678759184e-05,1.6522760029625702e-06,8.888168600401773e-07,2.9123682083369808e-06,4.762553311584593e-06
185,1.2766072574556908e-06,8.628536526084954e-07,4.180852586639722e-06,1.2132273296559764e-06,7.764554330121782e-07,1.4337584786513904e-06,1.5734008457753238e-06,1.7123554568337465e-06,8.324483011709524e-06,1.1917433260051519e-06,1.468959915059676e-06,5.102545816714346e-05,1.6446557261554689e-06,8.742687124801068e-07,2.866538192399702e-06,4.7744111359205925e-06
186,1.2740475611329262e-06,8.809280243787927e-07,4.209940715301984e-06,1.244904411699738e-06,7.92738890625482e-07,1.422962540252178e-06,1.5474236394052882e-06,1.7323991220230257e-06,8.94112193624245e-06,1.1747397712210975e-06,1.4726906350185188e-06,4.985064270411608e-05,1.630318835299468e-06,8.604936203833457e-07,2.8085191883012032e-06,4.792267390788497e-06
187,1.2731010361290775e-06,8.996670314347029e-07,4.226140598095716e-06,1.2764490662679551e-06,8.086319500594537e-07,1.4093570960177623e-06,1.5214666723268727e-06,1.753701480112369e-06,9.572427780660532e-06,1.1568421346690987e-06,1.475557823768113e-06,4.852916775028024e-05,1.6103679484798408e-06,8.471098032224541e-07,2.7414427576524556e-06,4.816495288731989e-06
188,1.2732153418715099e-06,9.185462802467716e-07,4.230294451433943e-06,1.3074850297233475e-06,8.244184730263187e-07,1.3932755195888119e-06,1.4957208222680976e-06,1.7762806974577876e-06,1.0211522500231803e-05,1.1380135233414394e-06,1.4767256295250227e-06,4.7029665897602236e-05,1.5857089655545732e-06,8.336550834554815e-07,2.6682536363807035e-06,4.847079830872532e-06
189,1.2736550080555055e-06,9.369819590653255e-07,4.223430841539205e-06,1.3379019292223007e-06,8.403425550111362e-07,1.3752517282359082e-06,1.4702564087819124e-06,1.8000998162695326e-06,1.0851170951222741e-05,1.1181841506675658e-06,1.4754209477843023e-06,4.532642010331245e-05,1.556966665225546e-06,8.197363319171556e-07,2.5914450206083112e-06,4.8835405383782496e-06
190,1.273485382994053e-06,9.543482849671436e-07,4.206288994908041e-06,1.3679658517291065e-06,8.565084548698575e-07,1.3559034650908997e-06,1.4450177305812578e-06,1.8250555643180622e-06,1.1484529096515792e-05,1.0973203135167953e-06,1.471184704709171e-06,4.3405378887381805e-05,1.5245364609297822e-06,8.052029636651653e-07,2.5129787178923557e-06,4.924959475055222e-06
191,1.271625668437883e-06,9.699530228672295e-07,4.179185243945989e-06,1.398243717553023e-06,8.728648157585454e-07,1.3357698963177581e-06,1.4197553068194832e-06,1.8509649013677504e-06,1.2105500732645137e-05,1.0755249093611466e-06,1.4640531695543387e-06,4.12748572518529e-05,1.4887304707090424e-06,7.902028261662723e-07,2.4343504593743694e-06,4.9701168277277294e-06
192,1.2669927881628342e-06,9.83060235010874e-07,4.1423267398013785e-06,1.4293783315361785e-06,8.892288934861767e-07,1.3151859190753724e-06,1.3939930425411394e-06,1.8774552658517605e-06,1.2708411836639259e-05,1.0531188206352768e-06,1.4544220395688557e-06,3.896831483450136e-05,1.449903163553588e-06,7.750832843244113e-07,2.3566456993637218e-06,5.017714713511583e-06
193,1.2587111690208182e-06,9.9305195171566e-07,4.096227704952854e-06,1.4618640307322546e-06,9.053448307279046e-07,1.2942342435105113e-06,1.3671149517031647e-06,1.9039155382440445e-06,1.3287076924266793e-05,1.0305541290969917e-06,1.442728376630863e-06,3.6535563339822193e-05,1.4084365169152134e-06,7.602682751245255e-07,2.280564400961023e-06,5.066584327520708e-06
194,1.2462856001694747e-06,9.996439333758168e-07,4.04189367341859e-06,1.4959363479069554e-06,9.209639387857725e-07,1.2727557875843606e-06,1.338563254757035e-06,1.929651728755853e-06,1.3833671496153196e-05,1.0082174639095758e-06,1.4292391249194204e-06,3.403020771336742e-05,1.3646651953172595e-06,7.461936846330245e-07,2.2064934096530485e-06,5.115717983553842e-06
195,1.2296632519879388e-06,1.0029751070398461e-06,3.980783847937457e-06,1.5315556741218734e-06,9.358972328782255e-07,1.2504122282046027e-06,1.3080525452178708e-06,1.954166861258736e-06,1.433813727223953e-05,9.863495775059024e-07,1.4140354073462367e-06,3.150135887955278e-05,1.3189110967309727e-06,7.332691340259562e-07,2.1346412041620923e-06,5.164066472693996e-06
196,1.209168328569771e-06,1.003494971427288e-06,3.914697106654456e-06,1.5684243903455291e-06,9.500147737032602e-07,1.2268311183085136e-06,1.2756955713190727e-06,1.977372012276746e-06,1.4788628148473066e-05,9.651073183954474e-07,1.397108984286063e-06,2.8991089498155585e-05,1.2715975069986695e-06,7.218357481299361e-07,2.065170311438066e-06,5.2101874157209515e-06
197,1.185327934100922e-06,1.0017576805369565e-06,3.845661800956511e-06,1.606010922390054e-06,9.632227837020864e-07,1.2017873231042585e-06,1.2419965071583537e-06,1.9996107369654624e-06,1.5172828880569192e-05,9.446197329674819e-07,1.3784900316689264e-06,2.6534840957861494e-05,1.2233168102846477e-06,7.121505554369585e-07,1.998271410120827e-06,5.251981182438591e-06
198,1.1586730088219181e-06,9.983108880905583e-07,3.775865944327059e-06,1.6436005652234554e-06,9.754610573017086e-07,1.175285333941869e-06,1.2077354940052195e-06,2.0215124719905572e-06,1.547966477615158e-05,9.249951764911509e-07,1.3583628657470052e-06,2.4162306054842307e-05,1.174826177363463e-06,7.044269466385105e-07,1.9341645018693776e-06,5.286787117901777e-06
199,1.129642304781432e-06,9.93730337829309e-07,3.707615963377257e-06,1.6803605899901763e-06,9.867183925220114e-07,1.1474855796683574e-06,1.1737982453509863e-06,2.043770765356877e-06,1.5700946079416545e-05,9.063360688215309e-07,1.3371181457315001e-06,2.1897992429344766e-05,1.1269823330171551e-06,6.988747199365436e-07,1.8730535625055396e-06,5.3118198616948945e-06
200,1.0986478899840663e-06,9.886792177111308e-07,3.6432561469332896e-06,1.7153635917785572e-06,9.970279624869278e-07,1.1185812940567562e-06,1.1410170754530874e-06,2.066944026112443e-06,1.583246567734261e-05,8.887755493487475e-07,1.3153071624199457e-06,1.9761543480706767e-05,1.0806270703968394e-06,6.95673445231873e-07,1.815102025155773e-06,5.324624662387995e-06
201,1.0662016283050429e-06,9.838791847362517e-07,3.5849980576711292e-06,1.7476373748349069e-06,1.0064259514990615e-06,1.0887755941731567e-06,1.1100865313072471e-06,2.091313731153419e-06,1.587406878923801e-05,8.725189656903419e-07,1.2935314013271488e-06,1.776808328486484e-05,1.036483368399008e-06,6.949116987637388e-07,1.7604717813445556e-06,5.323340539834934e-06
202,1.032934494739242e-06,9.8000631462591e-07,3.53468046378267e-06,1.776319612393042e-06,1.0149036371290404e-06,1.0583801448850305e-06,1.0815605766715975e-06,2.1167881092649068e-06,1.5828340992656693e-05,8.578515992857781e-07,1.2723394863956048e-06,1.5928639083368346e-05,9.951068226397087e-07,6.965519116720147e-07,1.7093476018177723e-06,5.306840881584943e-06
203,9.9947132624296e-07,9.776000141644049e-07,3.49356080508383e-06,1.8008116145495253e-06,1.0224001195401138e-06,1.0279062083506784e-06,1.0558771125079224e-06,2.142863892203189e-06,1.569848272711681e-05,8.450885765401037e-07,1.2521740650340917e-06,1.4250477724616497e-05,9.568723221011087e-07,7.004236751117504e-07,1.6618441476803505e-06,5.274857524937863e-06
204,9.662940962443283e-07,9.770372138007292e-07,3.462241811574e-06,1.8208501792822272e-06,1.0288384811009364e-06,9.980258671567004e-07,1.0333665163141116e-06,2.1686460355501188e-06,1.548728830016018e-05,8.345250352868216e-07,1.233370164714428e-06,1.273732708887599e-05,9.219866738707807e-07,7.062434132355681e-07,1.6178426632183059e-06,5.2280113922471655e-06
205,9.337327290370119e-07,9.785778772093422e-07,3.4407102904524776e-06,1.8365559712266476e-06,1.0341406003577387e-06,9.69437015401143e-07,1.0142411693479426e-06,2.192874226024811e-06,1.5198178480024843e-05,8.264156815125473e-07,1.2161859909478249e-06,1.138963994437977e-05,8.905289131805815e-07,7.136780433661743e-07,1.576894281943832e-06,5.167618265543157e-06
206,9.020801462753751e-07,9.824615849926905e-07,3.428375794896287e-06,1.8484628478333135e-06,1.0381871335252116e-06,9.427521216086234e-07,9.98573697959349e-07,2.213990162929028e-06,1.483669327113566e-05,8.209408576885071e-07,1.200822508770249e-06,1.020497075452164e-05,8.624759005331912e-07,7.224396690939092e-07,1.538270693845554e-06,5.095345563105319e-06
207,8.71702868300153e-07,9.889758881453254e-07,3.4240561556956553e-06,1.8574224279003523e-06,1.0408020903231388e-06,9.18443200116736e-07,9.862809132867093e-07,2.2303348959405163e-06,1.4410874935716948e-05,8.181583698147891e-07,1.187413604168088e-06,9.178453263650018e-06,8.37689762835746e-07,7.323435860293616e-07,1.5011617740092002e-06,5.012929900271768e-06
208,8.430375107760881e-07,9.984220340603078e-07,3.4259666591424584e-06,1.8643683507420913e-06,1.0418236143940863e-06,8.968115438025634e-07,9.77125654788568e-07,2.2403940748419025e-06,1.3930755687978285e-05,8.179700855832899e-07,1.1760450880071072e-06,8.303443202221774e-06,8.15899029201697e-07,7.43270054025387e-07,1.464933272561034e-06,4.921961422913015e-06
209,8.165069053887884e-07,1.0110085123904516e-06,3.4318353124043813e-06,1.8701465099469614e-06,1.0411909652088794e-06,8.779923607857306e-07,9.7071881984271e-07,2.242904256649857e-06,1.3407619433811443e-05,8.201160625091473e-07,1.166797566175737e-06,7.572268526390848e-06,7.966979893654778e-07,7.550798596104465e-07,1.4292836963679983e-06,4.823618763934439e-06
210,7.924589036816228e-07,1.026759525519278e-06,3.439226354671831e-06,1.8755629973927076e-06,1.0389585335155641e-06,8.619940479647569e-07,9.66517530992049e-07,2.2367547954584307e-06,1.2853249706213108e-05,8.242212343742973e-07,1.1597062776145367e-06,6.9768775194905154e-06,7.795916812018972e-07,7.675784932576669e-07,1.3941917813614604e-06,4.718548823183564e-06
211,7.711508039308806e-07,1.0454746009700877e-06,3.4460002710180125e-06,1.8814690314663606e-06,1.0352235329946639e-06,8.487188378825538e-07,9.638601788426972e-07,2.2208294001587e-06,1.2279166915908792e-05,8.29888079917201e-07,1.1546618156098332e-06,6.509360817095916e-06,7.641211796835943e-07,7.80549677318127e-07,1.3597271816279162e-06,4.607146930775851e-06
212,7.527556619470193e-07,1.0667212721363206e-06,3.4507060804182016e-06,1.8886759622150067e-06,1.030015576717557e-06,8.379425777048456e-07,9.62072106606396e-07,2.1940934605829504e-06,1.1695831835340959e-05,8.367704131092342e-07,1.1514010470399077e-06,6.162396335693846e-06,7.499897515468593e-07,7.938253392939193e-07,1.325892295079594e-06,4.490032851827053e-06
213,7.373887865854871e-07,1.0898629950842366e-06,3.452730134573014e-06,1.8978081109527645e-06,1.02323864277962e-06,8.293100688292587e-07,9.605917756912395e-07,2.1560345578511153e-06,1.1111894382895623e-05,8.445931863927017e-07,1.1496106717039448e-06,5.929427068541673e-06,7.370620014408247e-07,8.073287630548405e-07,1.2925781665218654e-06,4.36838984327702e-06
214,7.25128425689436e-07,1.1141550648652674e-06,3.4521764737057545e-06,1.9092513142410197e-06,1.0147042720690792e-06,8.223973064740128e-07,9.590126450299147e-07,2.107112956054299e-06,1.0533820826513774e-05,8.531257006009552e-07,1.149025162523387e-06,5.804422077385459e-06,7.252917064898926e-07,8.210587612950872e-07,1.2596349823900066e-06,4.244126313283094e-06
215,7.159941417004846e-07,1.1388955776777485e-06,3.449583487002409e-06,1.923136482256424e-06,1.004177524410622e-06,8.168052452736533e-07,9.570326446869363e-07,2.0488544991597565e-06,9.966097121090605e-06,8.621145390493371e-07,1.1494682299754802e-06,5.781473705669303e-06,7.146989739768862e-07,8.350667213459464e-07,1.2269856294969529e-06,4.11990853317555e-06
216,7.099128544532055e-07,1.1635308431875813e-06,3.4456178037416354e-06,1.9393056412625483e-06,9.91387113802613e-07,8.122194418248406e-07,9.544134988037688e-07,1.983623337580509e-06,9.41171895135801e-06,8.712287651442433e-07,1.1508844539551922e-06,5.85464889514578e-06,7.053796833847152e-07,8.494477669095599e-07,1.194646672152704e-06,3.999004269200714e-06
217,7.067310057443145e-07,1.1876309981181658e-06,3.440844148379453e-06,1.957342150402638e-06,9.760810523927041e-07,8.084283252840135e-07,9.510028670317661e-07,1.9143091318683056e-06,8.872629068523542e-06,8.800929325453192e-07,1.153363957117831e-06,6.01820318409471e-06,6.975015838649051e-07,8.64327613340629e-07,1.162656139748102e-06,3.884901965093137e-06
218,7.062716231485343e-07,1.2108141467191777e-06,3.4355915879164196e-06,1.9766736601618174e-06,9.581646926431968e-07,8.053339512684541e-07,9.467685880718684e-07,1.8440214171336922e-06,8.350032880486799e-06,8.88370753425432e-07,1.1571574053048828e-06,6.266865859591899e-06,6.912735700423037e-07,8.798856443755636e-07,1.131026779248383e-06,3.780848193887973e-06
219,7.083816240621936e-07,1.2327473586027113e-06,3.429876917787132e-06,1.9966236832619294e-06,9.378050034243864e-07,8.029586424703521e-07,9.417772869046973e-07,1.7757952579020825e-06,7.844745431920825e-06,8.958265780346457e-07,1.1626766017115475e-06,6.595857388602929e-06,6.86904371712973e-07,8.963984876430643e-07,1.0997347788003104e-06,3.68952541695093e-06
220,7.129236507996145e-07,1.2531630233220016e-06,3.4233350666741407e-06,2.0163323026380154e-06,9.153910624817177e-07,8.014094153905811e-07,9.361162845418714e-07,1.7123944260818473e-06,7.357786424881677e-06,9.024124010353073e-07,1.1704164137923038e-06,7.000558890504926e-06,6.84602296567209e-07,9.141962264760111e-07,1.0687280495185729e-06,3.6129841114147756e-06
221,7.197315203895104e-07,1.2717770836069987e-06,3.415121480623402e-06,2.0346439972113506e-06,8.913934843002543e-07,8.007935696589338e-07,9.298471737345571e-07,1.6562708369105202e-06,6.89100791337475e-06,9.083789473144515e-07,1.1808259225673268e-06,7.475968224099855e-06,6.845967780365154e-07,9.335405392316235e-07,1.0380081967607696e-06,3.552725558097203e-06
222,7.285985067718774e-07,1.288214649715692e-06,3.4038063448849576e-06,2.050128548793064e-06,8.662676767285245e-07,8.011411749870942e-07,9.230613394673502e-07,1.6095896846198033e-06,6.447105677642096e-06,9.142674156557026e-07,1.1942306486415842e-06,8.016217142703586e-06,6.871278914132906e-07,9.545421320800275e-07,1.00772214970777e-06,3.5097079940938682e-06
223,7.393149782651487e-07,1.3020964165310184e-06,3.387370119609203e-06,2.061285695987122e-06,8.40450880612633e-07,8.023727496910949e-07,9.15950865254951e-07,1.5742368480129157e-06,6.028896650216459e-06,9.2075072965325e-07,1.210810337649313e-06,8.614406965838325e-06,6.924105980719736e-07,9.77156579721846e-07,9.781303781104437e-07,3.48424346792289e-06
224,7.516864399129947e-07,1.3132079053631435e-06,3.363388973107135e-06,2.0668501017484423e-06,8.143580047893554e-07,8.04294779153196e-07,9.087778946323741e-07,1.5518271907023342e-06,5.638690975525277e-06,9.284597817040787e-07,1.230609594663161e-06,9.262594542198993e-06,7.005872533852019e-07,1.0012249738993928e-06,9.495298461083793e-07,3.4759372599539177e-06
225,7.654960206364861e-07,1.3215452169211793e-06,3.3293907035132525e-06,2.0660384150547072e-06,7.883442550980008e-07,8.066088270836938e-07,9.018164551895912e-07,1.5437116603884888e-06,5.2783777513438865e-06,9.378911464841972e-07,1.253627618876617e-06,9.951700506430155e-06,7.116846324507563e-07,1.0265286151023243e-06,9.222602458629247e-07,3.4837225708994424e-06
226,7.804858832864215e-07,1.3271792316387176e-06,3.2833293343013124e-06,2.0586094493270724e-06,7.626996393441384e-07,8.089576572632912e-07,8.953842445908453e-07,1.5509499039634239e-06,4.949805091456078e-06,9.494034081850844e-07,1.2799796334070785e-06,1.0672053945686985e-05,7.256002283465782e-07,1.0528220807721565e-06,8.96714191825135e-07,3.505963998579234e-06
227,7.964138142831665e-07,1.3300963973935494e-06,3.224066387133473e-06,2.044727559153903e-06,7.3767680600722e-07,8.110001133012954e-07,8.898845660894945e-07,1.574269800883036e-06,4.6548393237864535e-06,9.632682277934355e-07,1.3099766378923293e-06,1.1415431783009414e-05,7.421066481185105e-07,1.0798274220668105e-06,8.732862744507963e-07,3.540635823531578e-06
228,8.131037407294604e-07,1.3301604140791592e-06,3.1516509269185445e-06,2.0247086096742794e-06,7.135047525860321e-07,8.12436440484663e-07,8.857533317331969e-07,1.614060686507466e-06,4.395083163040346e-06,9.797064304249418e-07,1.3440244422955636e-06,1.2177518322735082e-05,7.608690321216653e-07,1.107223753785761e-06,8.523199676825825e-07,3.5855737963222844e-06
229,8.304150844904533e-07,1.3271470647527684e-06,3.0672709018831594e-06,1.998805760431314e-06,6.903722477010526e-07,8.129809069222098e-07,8.83388013601634e-07,1.670428667858694e-06,4.17166237654105e-06,9.988613101365992e-07,1.3824681257287475e-06,1.2958441336513578e-05,7.814808278117723e-07,1.1346435743575504e-06,8.340756219104854e-07,3.6387507168218085e-06
230,8.482076983015566e-07,1.3207509012981272e-06,2.9729192125079324e-06,1.967209096293372e-06,6.683894012910248e-07,8.123855937006808e-07,8.831360572250545e-07,1.7433011154954158e-06,3.985327036093478e-06,1.020737246662547e-06,1.4255155885558204e-06,1.3761166693429951e-05,8.0348760696635e-07,1.1616644586983821e-06,8.187113210245519e-07,3.698503849968455e-06
231,8.663797666056367e-07,1.3105676457709425e-06,2.8709048733213682e-06,1.93022215483715e-06,6.475612279068473e-07,8.105142321113676e-07,8.852855823393638e-07,1.8324907008480278e-06,3.836585878637508e-06,1.0451569266319908e-06,1.4731948191390738e-06,1.458983499275646e-05,8.263992208203655e-07,1.1878701750538383e-06,8.062773222934355e-07,3.763680787757723e-06
232,8.84928261104456e-07,1.2961423296753685e-06,2.7633814060983763e-06,1.8883552419580918e-06,6.278236466597102e-07,8.07349027391914e-07,8.90032037084737e-07,1.937637273139843e-06,3.725570042253247e-06,1.0717617996503888e-06,1.5253143827783391e-06,1.544887319304893e-05,8.497161872070145e-07,1.2130083574901415e-06,7.967159463590473e-07,3.833698117685915e-06
233,9.039776356199225e-07,1.2771514830895169e-06,2.6520592535611202e-06,1.842190120917144e-06,6.091439834017806e-07,8.029231906658019e-07,8.974711230362893e-07,2.0580895283057213e-06,3.651764585435477e-06,1.1000713610691342e-06,1.5815115616980616e-06,1.634257066151024e-05,8.72948694360096e-07,1.2370710004321272e-06,7.898644671822435e-07,3.908472567769059e-06
234,9.237707830947748e-07,1.25364527188685e-06,2.5381939602061558e-06,1.7921778767222247e-06,5.916050282125478e-07,7.972734374894541e-07,9.076097311481724e-07,2.1928623736343133e-06,3.613864494558104e-06,1.129592041620615e-06,1.641408817294399e-06,1.7275636577122808e-05,8.956185325136101e-07,1.260175402910301e-06,7.854844650711233e-07,3.98818352860779e-06
235,9.44604641119889e-07,1.2261641263640483e-06,2.422806464899918e-06,1.738627947967636e-06,5.753927043460487e-07,7.904202831252934e-07,9.203416060570814e-07,2.3406778053591955e-06,3.6098326327629293e-06,1.1598925627288878e-06,1.7047594220677088e-06,1.825429879914225e-05,9.172509309986621e-07,1.2823754707892233e-06,7.833247479431644e-07,4.072942175914436e-06
236,9.66726939465326e-07,1.1956322580108416e-06,2.306945862694205e-06,1.6819041159460182e-06,5.607169029786712e-07,7.823565172169476e-07,9.35397894797652e-07,2.499969296091723e-06,3.6371088657991355e-06,1.1905741100440387e-06,1.771439482553087e-06,1.9286278544286755e-05,9.373683016572766e-07,1.3035650861886278e-06,7.831590384735556e-07,4.16255198634467e-06
237,9.902694128311895e-07,1.1631162718598648e-06,2.1918308729267016e-06,1.6225658845879233e-06,5.477570215898633e-07,7.731060296912461e-07,9.523336344695219e-07,2.668823416839783e-06,3.6928606350803816e-06,1.2212070566188866e-06,1.8412854588799798e-06,2.038002395777757e-05,9.555362897725633e-07,1.323480163709994e-06,7.847452597524663e-07,4.256449180638376e-06
238,1.0152479817784772e-06,1.1296159560661505e-06,2.0788687020942035e-06,1.561272861007222e-06,5.366520628470957e-07,7.628301278122977e-07,9.705889019563698e-07,2.844973977816196e-06,3.774168251220687e-06,1.2513517954496893e-06,1.9139133338215995e-06,2.1545786302047837e-05,9.714226318856837e-07,1.3417394277711472e-06,7.877481056069048e-07,4.3537098067527714e-06
239,1.0415759684792946e-06,1.0959982348174574e-06,1.969599692137703e-06,1.4985792013043273e-06,5.2748969050737e-07,7.518394538013524e-07,9.896165864101283e-07,3.0258910694697397e-06,3.878096704446499e-06,1.2806234480823096e-06,1.988617128363136e-06,2.2798802101896923e-05,9.84767396281145e-07,1.3578788033390927e-06,7.917081465024491e-07,4.452985993069787e-06
240,1.069042909415188e-06,1.0630570781224776e-06,1.8655740842909336e-06,1.4348249505024806e-06,5.202844450413691e-07,7.405130331947159e-07,1.0090218443226815e-06,3.2088866238236533e-06,4.001617672460492e-06,1.308697806520652e-06,2.064386230829374e-06,2.4160970479502074e-05,9.953379329058543e-07,1.3713541380524796e-06,7.960788480039426e-07,4.5523593833234755e-06
241,1.0972668465494771e-06,1.0315844189405183e-06,1.768183434472855e-06,1.370169851484462e-06,5.149763671863962e-07,7.292414480934428e-07,1.0286330284071816e-06,3.3912278259738235e-06,4.141380477364342e-06,1.335293216692022e-06,2.140060023242607e-06,2.5658685860017306e-05,1.0029673492481377e-06,1.3815728195606513e-06,8.002772283943884e-07,4.64922030160149e-06
242,1.1256561523049705e-06,1.002377123380515e-06,1.6785217247494657e-06,1.30472851590752e-06,5.114495881943907e-07,7.183934754733455e-07,1.048464297840146e-06,3.570341108818228e-06,4.293512713231509e-06,1.3602048858576956e-06,2.2145369806264004e-06,2.7319218811701574e-05,1.0075724040223527e-06,1.388058949066406e-06,8.037195503513677e-07,4.740365854673281e-06
243,1.1534139553489542e-06,9.761924622096026e-07,1.5973582834247209e-06,1.2387637800179474e-06,5.095392216367346e-07,7.08276650210527e-07,1.0686187752668339e-06,3.7440923998854365e-06,4.453650244990366e-06,1.3833642020562065e-06,2.286893798646699e-06,2.916924408543078e-05,1.0090914680631727e-06,1.3906837476333165e-06,8.059231868087722e-07,4.822410463111094e-06
244,1.1795761403079591e-06,9.536807391175773e-07,1.525216402717382e-06,1.1728346952648142e-06,5.090384848706965e-07,6.991242565289643e-07,1.0892034622316749e-06,3.910987837499372e-06,4.617170738859221e-06,1.4048378070319068e-06,2.356327149453136e-06,3.1235877860233204e-05,1.0074404862154909e-06,1.3897183343962346e-06,8.066955174734876e-07,4.892349234618285e-06
245,1.2030665256600159e-06,9.353204164283941e-07,1.4624377180925824e-06,1.1077746765573204e-06,5.097361211247725e-07,6.911114944757948e-07,1.1102612117591772e-06,4.070171556993334e-06,4.779577739244746e-06,1.4247482215149425e-06,2.4219655891132075e-06,3.3547749427812514e-05,1.002537501292531e-06,1.385627792771673e-06,8.062226662475491e-07,4.947976847397067e-06
246,1.2228220222844479e-06,9.21383647672655e-07,1.409164815627462e-06,1.0445264946209913e-06,5.114486528324228e-07,6.84397775255252e-07,1.1317138535177663e-06,4.22125652635569e-06,4.9370189904384725e-06,1.4431680176868585e-06,2.4827659329228134e-06,3.6134232064489536e-05,9.943958730070013e-07,1.3788194484418508e-06,8.049345576391745e-07,4.9879607834603735e-06
247,1.2379995652204419e-06,9.119382839030162e-07,1.3653390870555015e-06,9.839949389179913e-07,5.140125796038428e-07,6.791817784734979e-07,1.1533492226790662e-06,4.36413494162138e-06,5.086695644703486e-06,1.4600106989541808e-06,2.5376516510136045e-06,3.902321293787803e-05,9.832272790408942e-07,1.3695482349814626e-06,8.032971679953578e-07,5.011690622325576e-06
248,1.2481436873290686e-06,9.068842015183862e-07,1.3307924400667078e-06,9.269808206558199e-07,5.172865869221908e-07,6.756991009640218e-07,1.1748709260578902e-06,4.498888292406783e-06,5.226832259849348e-06,1.4749435561527117e-06,2.5857421086297634e-06,4.2238764153296634e-05,9.694301075535683e-07,1.3579923264854743e-06,8.016984987690731e-07,5.0192078891244515e-06
249,1.2532383846576468e-06,9.060293117628264e-07,1.30533760064321e-06,8.741416926865752e-07,5.211940185146432e-07,6.741480967137651e-07,1.1960046326603513e-06,4.625779648127145e-06,5.3562217578359975e-06,1.4873782608017288e-06,2.6263809747228844e-06,4.579926685009182e-05,9.534918305511887e-07,1.3444124699368316e-06,8.004092135022703e-07,5.011276685408473e-06
250,1.2536814233381932e-06,9.091689563412256e-07,1.2887441899260863e-06,8.259658420462404e-07,5.257413385011533e-07,6.746213714409251e-07,1.216615467588217e-06,4.745194243782114e-06,5.473682969874083e-06,1.4965515601673945e-06,2.658962647509908e-06,4.971578301274103e-05,9.359336060869231e-07,1.3292594171188902e-06,7.995576611055986e-07,4.9894311500708905e-06
251,1.250189071876025e-06,9.160932923966725e-07,1.2806357318840504e-06,7.827708634598112e-07,5.309909853090441e-07,6.770980960583031e-07,1.2367335515614386e-06,4.857421280598179e-06,5.577705041791333e-06,1.5016690676967567e-06,2.6829273785981393e-06,5.399129125193623e-05,9.172795854268084e-07,1.3131387874517989e-06,7.991199478929477e-07,4.955905129261362e-06
252,1.2436199160910642e-06,9.265129608248444e-07,1.2804056798406904e-06,7.447086429289271e-07,5.370468181857829e-07,6.814927825593811e-07,1.2564393990973699e-06,4.962303956425048e-06,5.666338393469125e-06,1.5020987303799566e-06,2.6980697884206503e-06,5.862167811003585e-05,8.979999297201144e-07,1.2966758855334231e-06,7.989514178024497e-07,4.913421740089209e-06
253,1.2347951768003836e-06,9.39994235231179e-07,1.287195918316114e-06,7.117806103238326e-07,5.440507650376199e-07,6.877266737639105e-07,1.2756988519437178e-06,5.0588902439495555e-06,5.737259290935816e-06,1.4975907361297417e-06,2.704730237808344e-06,6.359723887024347e-05,8.784749417103835e-07,1.2803700107183893e-06,7.98893505364338e-07,4.864838718776544e-06
254,1.2244058479614404e-06,9.559859666259113e-07,1.2999421170626034e-06,6.838788547446955e-07,5.5214960934944e-07,6.95776923533543e-07,1.2942664764660104e-06,5.1452350176927795e-06,5.787797754226402e-06,1.4884164744887779e-06,2.7035904593099794e-06,6.89021665328552e-05,8.589987582164035e-07,1.2645032268241408e-06,7.989285228787136e-07,4.812742301779097e-06
255,1.2129896208489588e-06,9.739088527257586e-07,1.317462588105613e-06,6.608249710257102e-07,5.614468050583059e-07,7.056723966338197e-07,1.3117022803512179e-06,5.2184683654670925e-06,5.814834134442754e-06,1.4752923047777278e-06,2.695470306600018e-06,7.451139943828516e-05,8.397769855967504e-07,1.2491528449158055e-06,7.992495867531576e-07,4.759134046871223e-06
256,1.200925439500868e-06,9.93211252387001e-07,1.338511360123698e-06,6.423807899774607e-07,5.719698081073724e-07,7.174462094288801e-07,1.3274738114847042e-06,5.275143001521766e-06,5.815067429738395e-06,1.4591056171426953e-06,2.681424298659456e-06,8.038679912902136e-05,8.209255616981431e-07,1.2343012345633667e-06,8.001766379348871e-07,4.705252038080576e-06
257,1.1884355975212202e-06,1.0133613119520636e-06,1.361749387683345e-06,6.282736959806726e-07,5.836642992465468e-07,7.310894259672436e-07,1.3410692985556921e-06,5.311741453656597e-06,5.786106259880498e-06,1.4406235962008087e-06,2.662791560005568e-06,8.647515337550316e-05,8.025264774755769e-07,1.2199662835377558e-06,8.020485378551273e-07,4.65151529888351e-06
258,1.1755704061239313e-06,1.0338471206950386e-06,1.3857376487771387e-06,6.182715883442803e-07,5.964139110227149e-07,7.465448139962195e-07,1.352068195024006e-06,5.325210407034496e-06,5.727705783126156e-06,1.420332920620287e-06,2.640939543828347e-06,9.27084555736068e-05,7.847246216141393e-07,1.206279093759566e-06,8.052060985193244e-07,4.5976694787175255e-06
259,1.1621668461273826e-06,1.0542431787015853e-06,1.4090258228950881e-06,6.12254579041102e-07,6.100622256584485e-07,7.637424793446679e-07,1.3601604490715191e-06,5.3134715917551765e-06,5.642092827575841e-06,1.3984121757451032e-06,2.6169861669320434e-06,9.900448563235966e-05,7.67787450770675e-07,1.193483450872778e-06,8.099893738020456e-07,4.5431466592961224e-06
260,1.1478487097067323e-06,1.0742771738730177e-06,1.4302188877989332e-06,6.102231400200019e-07,6.244401578268279e-07,7.826287881837938e-07,1.3651197353661558e-06,5.275853618106622e-06,5.533216954332581e-06,1.374784885832782e-06,2.591767845490399e-06,0.00010526552429877501,7.520881340066363e-07,1.181867701680433e-06,8.166821886168272e-07,4.487403428972729e-06
261,1.132109292250084e-06,1.0937899723920298e-06,1.4480025985319948e-06,6.122512024322035e-07,6.394363683992026e-07,8.031370627926021e-07,1.3667697367139417e-06,5.213304233983492e-06,5.405557902898018e-06,1.3492407643483736e-06,2.5659053426566415e-06,0.00011137613906966857,7.380299281925982e-07,1.1716937626750353e-06,8.254626266363252e-07,4.429991066232784e-06
262,1.1144312204176887e-06,1.1126205245078944e-06,1.4612825421225482e-06,6.184185093921094e-07,6.550692492233098e-07,8.251326682801381e-07,1.3649907392355919e-06,5.128258849929676e-06,5.263242039762864e-06,1.3216135377273428e-06,2.5397556703854107e-06,0.00011720575695612148,7.259540281076874e-07,1.1632028709395999e-06,8.363947422647557e-07,4.370438714038224e-06
263,1.0943960019347458e-06,1.130530262554831e-06,1.4694001313020289e-06,6.287437144926019e-07,6.714633791422716e-07,8.484024164013786e-07,1.3597263929130508e-06,5.02420270041091e-06,5.10973234677022e-06,1.2919523610629498e-06,2.5133594668712446e-06,0.00012262199908318186,7.160801008269522e-07,1.1566533813250022e-06,8.494407158450698e-07,4.308253320971557e-06
264,1.0717751133272083e-06,1.1471764787179146e-06,1.4722320286101121e-06,6.431396465377343e-07,6.88746508827583e-07,8.726742392738405e-07,1.3509201987550675e-06,4.905096461103122e-06,4.947778800840605e-06,1.260592740195975e-06,2.4865458559234165e-06,0.00012751286750447207,7.085325509296681e-07,1.152273109132749e-06,8.644900207725262e-07,4.2431301379753555e-06
265,1.0465967974845261e-06,1.1621045792156352e-06,1.4701425229394313e-06,6.613991745751173e-07,7.069643163872484e-07,8.976129183107998e-07,1.338452510332866e-06,4.7748052226915966e-06,4.779428446226851e-06,1.2280763084481145e-06,2.459078421344479e-06,0.00013180582019072795,7.03457107825351e-07,1.1501417661413991e-06,8.813817700572275e-07,4.175153793134892e-06
266,1.019160848920121e-06,1.174784805821792e-06,1.4638685863917411e-06,6.831977416356523e-07,7.260422223396385e-07,9.228083971867729e-07,1.3221998841370127e-06,4.636628903223032e-06,4.606118744048954e-06,1.1949905498983148e-06,2.430696689080481e-06,0.00013546919485472764,7.011094805546324e-07,1.1501144335266524e-06,8.998763984980064e-07,4.1048310985674104e-06
267,9.899630664115425e-07,1.1846605476016981e-06,1.454346360310077e-06,7.081078931498132e-07,7.45771436008308e-07,9.477892836993741e-07,1.3021685718573689e-06,4.493085247890209e-06,4.428790753559711e-06,1.1618830154363877e-06,2.40107541114152e-06,0.00013849438257841092,7.018051228752694e-07,1.1518256170694796e-06,9.196100960902719e-07,4.033012419210052e-06
268,9.595455712058139e-07,1.191160832815667e-06,1.442482486094444e-06,7.356223331138061e-07,7.658213437955304e-07,9.720198441951746e-07,1.2785692809288376e-06,4.345978636900805e-06,4.248181516416447e-06,1.129307916718039e-06,2.3697647490087165e-06,0.0001408789116659294,7.058004461973568e-07,1.154745165594287e-06,9.401018934584402e-07,3.9607471065478495e-06
269,9.283867827343844e-07,1.1937611605437984e-06,1.4289607022558558e-06,7.651620322509839e-07,7.858024005603665e-07,9.948565385903215e-07,1.2517963981222344e-06,4.196550054307451e-06,4.0654479012128374e-06,1.097908185163274e-06,2.3362361831813047e-06,0.00014263088959569649,7.132219002818508e-07,1.1582519874519554e-06,9.608123605050315e-07,3.889090490330416e-06
270,8.969100382384737e-07,1.1921359916522467e-06,1.414151494946008e-06,7.960668837601034e-07,8.053692084436447e-07,1.015539709494122e-06,1.2223573994573377e-06,4.045563312843931e-06,3.882708905127214e-06,1.0684365214640515e-06,2.300123031583581e-06,0.00014378789207823982,7.240587294316795e-07,1.161702885291076e-06,9.812198157191555e-07,3.8189801191557446e-06
271,8.655362281597112e-07,1.1862647687640564e-06,1.398098439679092e-06,8.275927558395418e-07,8.242874722726702e-07,1.0332852024890711e-06,1.1908148305233545e-06,3.893381244984264e-06,3.7030555106178016e-06,1.0417063168289729e-06,2.2614698019967823e-06,0.00014442825248696132,7.381947325380913e-07,1.164489365664233e-06,1.0008888291098647e-06,3.7512641023185598e-06
272,8.346783421922825e-07,1.1763882940521897e-06,1.380568117721517e-06,8.589259803642252e-07,8.42399511437416e-07,1.0474467596590541e-06,1.1577808497653653e-06,3.740087878803034e-06,3.5301341310164584e-06,1.0185299632909012e-06,2.220781976909364e-06,0.0001446659006745755,7.554530956191762e-07,1.1660799042160522e-06,1.0194827981857992e-06,3.686796618069419e-06
273,8.046867342153277e-07,1.1628667037852567e-06,1.361179831852207e-06,8.892611727250887e-07,8.595387284530925e-07,1.0576780960429967e-06,1.123948882824837e-06,3.5856491367677176e-06,3.367660664316653e-06,9.997005228807463e-07,2.178932974062234e-06,0.00014463499959406823,7.75656586253283e-07,1.1660542123072386e-06,1.0367180729893822e-06,3.626442501796783e-06
274,7.758185298631458e-07,1.14604007209891e-06,1.3395767153292444e-06,9.17980403308235e-07,8.755044022485307e-07,1.0640256162187262e-06,1.0901094506218142e-06,3.430103231640428e-06,3.219049934600789e-06,9.859773495246902e-07,2.1370163757739525e-06,0.00014447311568842176,7.986901441171247e-07,1.1641512345427858e-06,1.052323773845987e-06,3.570906825768342e-06
275,7.482560045183974e-07,1.1261831406135254e-06,1.3155741984654037e-06,9.448081882893445e-07,8.900983527689029e-07,1.0669053142500792e-06,1.0571210374976507e-06,3.2737590091090544e-06,3.0871802818482863e-06,9.780348657608035e-07,2.0961341827359398e-06,0.00014430801437563168,8.244879590679964e-07,1.1603210869384703e-06,1.0660079965205975e-06,3.5205128210448824e-06
276,7.221335611493459e-07,1.1035775342078455e-06,1.2892490946529388e-06,9.697774631107651e-07,9.03142903689155e-07,1.0669773295060983e-06,1.025841833193351e-06,3.117326804371072e-06,2.974286622160876e-06,9.764225716211855e-07,2.0572229873312005e-06,0.00014424910429036074,8.529547438372387e-07,1.1547029630181769e-06,1.0774227567363518e-06,3.4751357626876284e-06
277,6.97546213003233e-07,1.0786127471710036e-06,1.2609448710148054e-06,9.930405377009357e-07,9.144908960319548e-07,1.064979815783366e-06,9.970422121554284e-07,2.961901152662294e-06,2.881965127061843e-06,9.81555019874474e-07,2.021067295216674e-06,0.00014438188330589098,8.839037462427809e-07,1.147495865589237e-06,1.0862017003138425e-06,3.4342801183252356e-06
278,6.745414545966864e-07,1.0518129666333033e-06,1.231203556493501e-06,1.0146908048244207e-06,9.240464609235358e-07,1.061578709752479e-06,9.713383485390515e-07,2.8088298940225386e-06,2.81122732875711e-06,9.937129619478436e-07,1.9884032866218947e-06,0.00014476349681391716,9.170171336325964e-07,1.1388510924419609e-06,1.0920747813065296e-06,3.3971758011279376e-06
279,6.531054944487535e-07,1.023772805505552e-06,1.200691509684366e-06,1.0346941840147912e-06,9.317326164992506e-07,1.0572675178995763e-06,9.491678777547212e-07,2.6596146015401434e-06,2.7625226666257016e-06,1.0130526417274424e-06,1.9598978625416976e-06,0.00014541915504694329,9.518285525428613e-07,1.1289082576277798e-06,1.094959951938214e-06,3.3628889604623675e-06
280,6.33184164833069e-07,9.95066666874875e-07,1.1701586780238773e-06,1.052913507270991e-06,9.374155193203423e-07,1.0523258765806217e-06,9.307851388888372e-07,2.5159045887273693e-06,2.735728552424487e-06,1.0395940089069633e-06,1.936018446449263e-06,0.00014634080797196284,9.877439853421914e-07,1.1178994548684185e-06,1.094980725940263e-06,3.3304152509045727e-06
281,6.147385547079652e-07,9.662171796242617e-07,1.1403838578702731e-06,1.0691692004318722e-06,9.408682998362541e-07,1.0468161185392645e-06,9.162761927105469e-07,2.379457678018964e-06,2.730155656055138e-06,1.0731769097882412e-06,1.9169492111198155e-06,0.00014748947859731884,1.0240986213278507e-06,1.1061749592784549e-06,1.092439641372438e-06,3.298657393160081e-06
282,5.977726379154988e-07,9.377242846552402e-07,1.112071362519671e-06,1.0832910819694722e-06,9.418276382315154e-07,1.0405978862567645e-06,9.056064086433296e-07,2.2519581776674006e-06,2.7445574549562396e-06,1.113431298050051e-06,1.9025881069844465e-06,0.00014880102556314963,1.0602661081670992e-06,1.0941317354069604e-06,1.0877669270757118e-06,3.2663541013522395e-06
283,5.823508531021119e-07,9.100789131937302e-07,1.0857621969283296e-06,1.0951268193786801e-06,9.401484324198303e-07,1.0333733190782485e-06,8.986672319039715e-07,2.134810709228414e-06,2.7771443156493664e-06,1.159803580663572e-06,1.8926092895905279e-06,0.00015019388413094228,1.0957872683061926e-06,1.0821650938271665e-06,1.081433223791112e-06,3.2321381825575575e-06
284,5.686379531676857e-07,8.837491338294921e-07,1.0618133881295325e-06,1.1045417383036738e-06,9.359620576423063e-07,1.0247794097206095e-06,8.953082411176187e-07,2.0290530873419395e-06,2.825667104228749e-06,1.2116348012871896e-06,1.8865898043746716e-06,0.0001515773518049748,1.1304053840487506e-06,1.0707256814512505e-06,1.0738819083936916e-06,3.1947275344638414e-06
285,5.568875579154082e-07,8.591888049944434e-07,1.0404026984658042e-06,1.1115175295545694e-06,9.297116055515658e-07,1.0144929265770191e-06,8.953789913972883e-07,1.93534237973564e-06,2.8876025238234304e-06,1.268219841171518e-06,1.8841061753414821e-06,0.0001528591525601274,1.1639579714293611e-06,1.0603761414528126e-06,1.0655570429014616e-06,3.1530860714201626e-06
286,5.47384521904401e-07,8.368617713492379e-07,1.0215123008258576e-06,1.1163281159351485e-06,9.220392847159904e-07,1.0023006298171661e-06,8.987477903478232e-07,1.8539606615241502e-06,2.9603933348559342e-06,1.3287832275839974e-06,1.8846937439460835e-06,0.00015395118466920497,1.1962230665539607e-06,1.0517164960514646e-06,1.056957944491835e-06,3.1064681466963946e-06
287,5.404358434037998e-07,8.172250403566303e-07,1.004904709675773e-06,1.119605652218033e-06,9.13605664864733e-07,9.881523490818297e-07,9.052717118657996e-07,1.7848454414803207e-06,3.0416923384596915e-06,1.3924235615691903e-06,1.887712773069097e-06,0.00015477277361511775,1.2268342114864338e-06,1.045246686623465e-06,1.0486012881880951e-06,3.054436003984773e-06
288,5.363992609623784e-07,8.006589934412101e-07,9.901305008377801e-07,1.1222321525186463e-06,9.049574107261829e-07,9.722217757239697e-07,9.147648202667065e-07,1.7275934009281967e-06,3.129616944689159e-06,1.4580870275244738e-06,1.8923042105432606e-06,0.00015525166693576106,1.255251318055734e-06,1.0412942916483493e-06,1.0409267659351285e-06,2.9969594540252644e-06
289,5.356977566392212e-07,7.873984243390999e-07,9.76610874086126e-07,1.125191640995309e-06,8.964970452674195e-07,9.549277888418895e-07,9.269708715532535e-07,1.681426480575187e-06,3.223014077521612e-06,1.524545468757479e-06,1.8975656859167476e-06,0.0001553247685331974,1.2807320719670665e-06,1.0399971883003424e-06,1.0342680975463657e-06,2.934507759274265e-06
290,5.388261863549923e-07,7.775174702238786e-07,9.638036764356906e-07,1.1294783635040288e-06,8.885202572003585e-07,9.368620833708402e-07,9.41518706401085e-07,1.645194887392802e-06,3.3216404943402555e-06,1.5903855793037508e-06,1.9028232687040611e-06,0.00015494019434926905,1.3023557849936939e-06,1.0413017855382718e-06,1.028889349880913e-06,2.867916983336664e-06
291,5.46354261483134e-07,7.709654893467331e-07,9.513742062144803e-07,1.1360245882296497e-06,8.812730822510666e-07,9.186571514924733e-07,9.578996718059497e-07,1.6174681134017372e-06,3.4261115657657847e-06,1.6540295184843005e-06,1.9077048304976944e-06,0.00015405717168605603,1.3192112429899542e-06,1.04502574668079e-06,1.0249996037384851e-06,2.798028597537638e-06
292,5.589037407707307e-07,7.676023573756143e-07,9.392379516034378e-07,1.1456110279153211e-06,8.749823465196793e-07,9.008942469849409e-07,9.755378485688894e-07,1.5967104583586985e-06,3.5375394409267522e-06,1.7137837540208014e-06,1.911917477346057e-06,0.00015263806090592947,1.3307099027380742e-06,1.0510047247918597e-06,1.0227766965605509e-06,2.7253691507733236e-06
293,5.770956967656666e-07,7.671957864508263e-07,9.27438678964701e-07,1.1587902906242628e-06,8.69831196693875e-07,8.840902617251527e-07,9.939649512546034e-07,1.5814553288674403e-06,3.6569880529694887e-06,1.7679853316739342e-06,1.914980206972236e-06,0.00015063614937357666,1.3367943378707939e-06,1.059191791305464e-06,1.0224560393950903e-06,2.6500694887677986e-06
294,6.015065541586252e-07,7.694117424152085e-07,9.160082639230805e-07,1.175861696746501e-06,8.659156837630123e-07,8.686985972919912e-07,1.012972597055651e-06,1.5703602303077529e-06,3.7850866386041196e-06,1.8152602984022936e-06,1.916155360225858e-06,0.00014799289605180925,1.3378941819274379e-06,1.069589164553831e-06,1.024373712887566e-06,2.571986080175515e-06
295,6.32656584525658e-07,7.73826232864196e-07,9.049686507397372e-07,1.1969139735850962e-06,8.63231379594689e-07,8.550783198064399e-07,1.0325906675589911e-06,1.5621760039487876e-06,3.922044547429122e-06,1.8547516147272312e-06,1.914540712584197e-06,0.00014465145904663434,1.3347209704748864e-06,1.0821006991145289e-06,1.0288722256720516e-06,2.4909272929360134e-06
296,6.709983414578467e-07,7.799312485957945e-07,8.944563593543054e-07,1.2219206289665546e-06,8.617064411211103e-07,8.434592556967108e-07,1.0529271451780192e-06,1.5557997987332062e-06,4.068015079907617e-06,1.8862253271807817e-06,1.9092195862486185e-06,0.00014057979922593987,1.3280617561567322e-06,1.0964519777921583e-06,1.0361687749241017e-06,2.406891723713302e-06
297,7.1689660354414e-07,7.871605978009765e-07,8.848277713064628e-07,1.250804082162415e-06,8.612614229519761e-07,8.339246116587164e-07,1.0740267187223486e-06,1.5504857499752457e-06,4.223551236331549e-06,1.9100645131745473e-06,1.899470445241283e-06,0.00013579269244440968,1.3186506915070673e-06,1.1122075562637294e-06,1.0462999203377838e-06,2.320214685123296e-06
298,7.706619999237971e-07,7.94999759623326e-07,8.766355584974122e-07,1.2834073436626113e-06,8.618283692719399e-07,8.264094264613533e-07,1.0958239137053074e-06,1.5460796207365668e-06,4.389724042345119e-06,1.927133756094391e-06,1.8850143016495238e-06,0.00013036128225044243,1.3071228705372579e-06,1.1288468958349323e-06,1.0591210284017623e-06,2.23161237346162e-06
299,8.326740199640834e-07,8.031349096009059e-07,8.704921946112098e-07,1.3194682700476163e-06,8.632999621797617e-07,8.207274287677154e-07,1.1181829138309284e-06,1.5430551729022054e-06,4.567707624127176e-06,1.938510850658606e-06,1.8661521771210146e-06,0.0001244012675341041,1.2940283910771651e-06,1.145822426086577e-06,1.0743110647272853e-06,2.142189063123305e-06
300,9.035028575770111e-07,8.115216955739105e-07,8.669433475021523e-07,1.3586859227066673e-06,8.654918076365758e-07,8.166206965571599e-07,1.1409720734183733e-06,1.5422812374261085e-06,4.758243725384997e-06,1.945180951421921e-06,1.8436361248998838e-06,0.00011804551964080601,1.279871161575487e-06,1.1625475640186132e-06,1.091426480856262e-06,2.053409863655262e-06
301,9.83898260425874e-07,8.203158699952575e-07,8.66419864995158e-07,1.4007699849760174e-06,8.681803099297255e-07,8.137826054253558e-07,1.1640779537705164e-06,1.5446926240648179e-06,4.9613566294435e-06,1.9478535232316666e-06,1.8183434947120066e-06,0.00011142083526112421,1.2651250060605896e-06,1.1783960622110081e-06,1.1100316702528741e-06,1.96698704842376e-06
302,1.0746671499575716e-06,8.297172881554565e-07,8.692175313415802e-07,1.4453835710736855e-06,8.711536609299978e-07,8.118550053626169e-07,1.187351515958503e-06,1.5510651653844888e-06,5.176195145514728e-06,1.9469677680009742e-06,1.7910433415392168e-06,0.00010464081432580644,1.2502226094744302e-06,1.1928172819466154e-06,1.129801607879787e-06,1.8846910107414193e-06
303,1.1765823863712496e-06,8.398343303969884e-07,8.754769815122632e-07,1.4921049850546862e-06,8.742155940204003e-07,8.104582972539181e-07,1.2105658609573123e-06,1.5619175617325656e-06,5.40088049961207e-06,1.9427765998739646e-06,1.7624258853713507e-06,9.780794727042977e-05,1.2355594927850245e-06,1.2055003309738394e-06,1.1505073105015575e-06,1.8081644170934964e-06
304,1.290364459972055e-06,8.506329563889293e-07,8.852021440805639e-07,1.5405127219655648e-06,8.771664177335996e-07,8.092334820422799e-07,1.2334062370904597e-06,1.5774851294219483e-06,5.6323994403296535e-06,1.935399614306122e-06,1.73323325634207e-06,9.101434713623887e-05,1.2215185271984398e-06,1.2164099277490169e-06,1.1719509448251544e-06,1.7388002412864038e-06
305,1.416662289625189e-06,8.619567807703125e-07,8.983018683148155e-07,1.5902958024857264e-06,8.79779947318815e-07,8.078297363908228e-07,1.2554898220394893e-06,1.5977476729912097e-06,5.866557221510823e-06,1.9248325083625004e-06,1.7042511037771954e-06,8.434007697185323e-05,1.208456760694812e-06,1.2256640695907184e-06,1.1939476630903637e-06,1.6777088580594628e-06
306,1.5559907384416191e-06,8.735677330047073e-07,9.146089322840286e-07,1.641283107121007e-06,8.817722471317133e-07,8.058705403202859e-07,1.2763982436494098e-06,1.6224660500281516e-06,6.09808125796021e-06,1.9108968849213587e-06,1.6761970783990613e-06,7.785275142376025e-05,1.1966235027617465e-06,1.2334291313118663e-06,1.2163206780808537e-06,1.6257682561724536e-06
307,1.708650155782705e-06,8.851801615499039e-07,9.339069058813961e-07,1.6934321404330315e-06,8.828209993347307e-07,8.029729835523671e-07,1.2956808236584503e-06,1.6511636621711532e-06,6.32100894161539e-06,1.893152238379307e-06,1.6496713323686506e-06,7.160963222516604e-05,1.1860850663483567e-06,1.2399329254828876e-06,1.23884814165181e-06,1.5837177517098516e-06
308,1.8746627448883595e-06,8.965054320772908e-07,9.559977273493701e-07,1.746839382136315e-06,8.826781074577154e-07,7.987974288691461e-07,1.312879846523363e-06,1.6830865498856755e-06,6.529324937088824e-06,1.8709153003784333e-06,1.6251463019673811e-06,6.566047429952056e-05,1.176756101085668e-06,1.2455028098269707e-06,1.2612304976785137e-06,1.55224913325006e-06
309,2.0537297651600276e-06,9.073174604426799e-07,9.807511630120452e-07,1.801733246526203e-06,8.812646650823871e-07,7.930629918258937e-07,1.3276227207830543e-06,1.717257959320037e-06,6.717669909456192e-06,1.8435020195422657e-06,1.6029464093997219e-06,6.0049289356465235e-05,1.168523262518126e-06,1.2505640560865341e-06,1.2831412615191288e-06,1.5320460423037583e-06
310,2.245222464404279e-06,9.175103773518621e-07,1.008071507504305e-06,1.858394085514647e-06,8.786302887106693e-07,7.85543537375982e-07,1.3396869228678105e-06,1.752659804386188e-06,6.881935526867164e-06,1.8105832227348405e-06,1.5832919769744742e-06,5.481479040985662e-05,1.16135980915972e-06,1.2556094700950557e-06,1.3042902371557505e-06,1.523736547824264e-06
311,2.4482600000779877e-06,9.271246166499033e-07,1.0378234280305818e-06,1.9170378106540388e-06,8.748415564169432e-07,7.761006426387094e-07,1.3489594667671572e-06,1.7884060514497964e-06,7.0195455181874616e-06,1.7724039237013061e-06,1.5663969735117895e-06,4.9990009272337835e-05,1.1553777115023337e-06,1.2611304457536267e-06,1.3244259241537303e-06,1.5278080520832477e-06
312,2.6618587376251323e-06,9.363461450137498e-07,1.0698169028630732e-06,1.9777229623039394e-06,8.699314632908402e-07,7.647527356657696e-07,1.3553225252907562e-06,1.8237477284709568e-06,7.129242571050613e-06,1.72974681544185e-06,1.5525007887179196e-06,4.560126676816451e-05,1.1508301447172812e-06,1.2675427221635596e-06,1.3432845261549023e-06,1.5445876026780312e-06
313,2.88500477670796e-06,9.454754735382226e-07,1.103862423223175e-06,2.0402657136256044e-06,8.639104667971741e-07,7.517170739688411e-07,1.3585597137401637e-06,1.8579222183442443e-06,7.21039334369444e-06,1.683739426781354e-06,1.5418008261238725e-06,4.166715182276588e-05,1.1480661481114957e-06,1.2751694349783133e-06,1.360525660589313e-06,1.5743042305380468e-06
314,3.116532883529413e-06,9.548584644068507e-07,1.139801853142684e-06,2.1041328542919353e-06,8.567688606893625e-07,7.373788258577951e-07,1.3583889103215115e-06,1.8900304326795305e-06,7.262096598744771e-06,1.635653321608105e-06,1.5344055502334026e-06,3.819901925576853e-05,1.1474244463377196e-06,1.2842436911558948e-06,1.3756855433176642e-06,1.617162795494541e-06
315,3.354891917828826e-06,9.648074186975614e-07,1.177447738333086e-06,2.1683437740577306e-06,8.485114028912124e-07,7.222157135269722e-07,1.3546217313307775e-06,1.919096884768885e-06,7.282584344615156e-06,1.58675293834168e-06,1.5303879307001977e-06,3.5202857395207044e-05,1.1491053345318698e-06,1.2948640575774292e-06,1.3881852829105088e-06,1.6733814027267033e-06
316,3.5979988841764622e-06,9.755506237071969e-07,1.2164724195104815e-06,2.2314370006480296e-06,8.392716459085093e-07,7.067306565564823e-07,1.3473100411861716e-06,1.9442773676523754e-06,7.269355628565368e-06,1.5381968022231434e-06,1.529827353585072e-06,3.268020652761714e-05,1.153097266015196e-06,1.3069442944136158e-06,1.397432609614898e-06,1.7431675166028954e-06
317,3.843275543591309e-06,9.87209753967727e-07,1.2563530400099015e-06,2.291552328541239e-06,8.293813191737075e-07,6.914048862602572e-07,1.3367367492677103e-06,1.9650374065492706e-06,7.220010478379805e-06,1.4909901415277823e-06,1.5327731613721538e-06,3.062759367124726e-05,1.1591716455710101e-06,1.3202215984690052e-06,1.4029674798319793e-06,1.826621954280313e-06
318,4.087757629472125e-06,9.997879487768254e-07,1.2964602791664185e-06,2.3466459896671295e-06,8.192991883758534e-07,6.76681706054097e-07,1.323255665444018e-06,1.9811712389026295e-06,7.1332352480733206e-06,1.4459660259912326e-06,1.5392305678644734e-06,2.9036355902646948e-05,1.1669053858435118e-06,1.3343145272665197e-06,1.4045437679981384e-06,1.92363041820222e-06
319,4.328132588250641e-06,1.0131639501911776e-06,1.336291315448403e-06,2.3947585189123544e-06,8.095121469805263e-07,6.630013996506279e-07,1.3071555811051203e-06,1.992688398838394e-06,7.009392215080588e-06,1.4037852773860612e-06,1.5492043870444915e-06,2.7893513276277826e-05,1.1757364279980298e-06,1.3487775024291342e-06,1.402088634065722e-06,2.033803341586454e-06
320,4.560679657600816e-06,1.0270903730247082e-06,1.3757190653857033e-06,2.4342052792680445e-06,8.00496032620136e-07,6.508426182836893e-07,1.2886750751103453e-06,1.999670176720138e-06,6.850561830138251e-06,1.3649564132384536e-06,1.5627486248311285e-06,2.7182776843705142e-05,1.1850453594118217e-06,1.3630898020100644e-06,1.3955681569048535e-06,2.1564330881341353e-06
321,4.78114685542485e-06,1.0411889422013946e-06,1.4150661764703774e-06,2.4636452232158492e-06,7.926760402516651e-07,6.406974458115176e-07,1.2680694475373713e-06,2.002133422689962e-06,6.660235514381037e-06,1.3298224722854575e-06,1.5800081865975014e-06,2.6885199418045046e-05,1.1941896215465815e-06,1.3766092907130934e-06,1.3849023287248947e-06,2.290441286806623e-06
322,4.984689209798754e-06,1.054943170345092e-06,1.4549285316327998e-06,2.48210333198171e-06,7.863742010950056e-07,6.329969179295346e-07,1.2455952256528391e-06,1.9999105473986645e-06,6.442960485452687e-06,1.2984940524681612e-06,1.6012202006035076e-06,2.6979474010210007e-05,1.2025135136199228e-06,1.3886240628859882e-06,1.370036816811202e-06,2.434336797933643e-06
323,5.1661374948036736e-06,1.067734485924856e-06,1.4958920880321244e-06,2.4890451915582336e-06,7.817987803476026e-07,6.280630596837913e-07,1.2214329019345718e-06,1.9926296315230045e-06,6.204054977735867e-06,1.2708006961561973e-06,1.6266265976019256e-06,2.7441908742552918e-05,1.209414566021803e-06,1.398502262438531e-06,1.3510692242624195e-06,2.5862240632702654e-06
324,5.320685908640051e-06,1.0789885751537533e-06,1.5383662650287077e-06,2.4845051540031513e-06,7.790726679803381e-07,6.261172432076588e-07,1.195647541809583e-06,1.979823941591983e-06,5.949254701429101e-06,1.246306172950647e-06,1.6563359469062167e-06,2.8246279769064764e-05,1.2143974753393333e-06,1.4057602664086987e-06,1.3282997115161905e-06,2.7439432460842845e-06
325,5.444672569741288e-06,1.0884026140599663e-06,1.582587393077355e-06,2.469134859504715e-06,7.782607253116814e-07,6.273089906554479e-07,1.1682450207418356e-06,1.96104774269434e-06,5.684167847021471e-06,1.2243681006192524e-06,1.6902223069160923e-06,2.9363732626894718e-05,1.2170735688864261e-06,1.4099774887594348e-06,1.3022173059585884e-06,2.905335056310463e-06
326,5.536048262058166e-06,1.096115463549226e-06,1.6286621871017739e-06,2.4440149770444394e-06,7.793686003973046e-07,6.317164351166131e-07,1.1393031109097904e-06,1.935929815285889e-06,5.413731480070513e-06,1.2042368089380921e-06,1.7279115968857503e-06,3.076237599858252e-05,1.2172079233089536e-06,1.4106676257457254e-06,1.2734559963630224e-06,3.0684569256503844e-06
327,5.594358931702755e-06,1.1027015103297303e-06,1.6765978399012783e-06,2.4102716168071893e-06,7.823254080146774e-07,6.393206800371031e-07,1.1091003971643974e-06,1.9042332379337982e-06,5.142037948063377e-06,1.1851985468344963e-06,1.7688467696723858e-06,3.24062165854636e-05,1.2148009322596438e-06,1.4072078852637042e-06,1.2427273638940452e-06,3.2316210884858686e-06
328,5.620256207968051e-06,1.1089845694389574e-06,1.7263939586635512e-06,2.3687611245740936e-06,7.870036385949549e-07,6.499927247599486e-07,1.0781568491455425e-06,1.8659533177594774e-06,4.8725911585828875e-06,1.1667341532364697e-06,1.8124014905381299e-06,3.42541278577025e-05,1.2100828004907228e-06,1.398900151872826e-06,1.2107832120632064e-06,3.3933555881677526e-06
329,5.614715595127892e-06,1.115793610698788e-06,1.7781454248895512e-06,2.320009548730923e-06,7.932812623666497e-07,6.634935369414444e-07,1.0471521894093657e-06,1.8213943459602393e-06,4.6086466468141065e-06,1.1486475579551075e-06,1.8580437183034341e-06,3.625975872392864e-05,1.2034265332453706e-06,1.385185644011447e-06,1.1784364710315345e-06,3.552483322244433e-06
330,5.578386746220715e-06,1.1238110575953866e-06,1.831999835636518e-06,2.264380042931555e-06,8.010704137465205e-07,6.794691740985356e-07,1.0167772682377434e-06,1.7711683510569176e-06,4.353342555671925e-06,1.131088524584688e-06,1.9054957708198346e-06,3.837326373240896e-05,1.195270775333261e-06,1.3658789230807534e-06,1.1465632350862088e-06,3.7082783100641937e-06
