,EMG1,EMG2,EMG3,EMG4,EMG5,EMG6,EMG7,EMG8,EMG9,EMG10,EMG11,EMG12,EMG13,EMG14,EMG15,EMG16
0,5.830680054150413e-07,-6.606769023333381e-08,-1.1167253285269741e-07,8.631137400944047e-07,1.2267393056406406e-07,1.8903416934551525e-07,6.223918543512243e-07,3.8452038569931085e-07,5.181406509876905e-07,9.41889795327129e-08,6.690653819094554e-07,1.2069748850059403e-05,2.538708878837013e-07,1.6369338081436417e-07,1.3649231693062577e-07,7.679654730475984e-07
1,7.216180146960878e-07,1.5940258196440927e-07,-1.6980595931660616e-08,1.2619977934522083e-06,1.8191989552566594e-07,2.2895986599123776e-07,6.739400859723752e-07,4.574158477017694e-07,6.012295608974644e-07,2.0673581815709765e-07,7.582082617606967e-07,1.4926383096567663e-05,3.058096785964738e-07,2.3280971605275062e-07,2.106655249208635e-07,9.976239685750232e-07
2,8.844421310269485e-07,3.8014807328816444e-07,7.504705547763523e-08,1.6733565839874537e-06,2.4124686539652294e-07,2.6943319935687955e-07,7.264640043271275e-07,5.316386119770137e-07,6.836226435068434e-07,3.1687262730248913e-07,8.491378332655957e-07,1.7796773436931722e-05,3.58775043844001e-07,3.0006260784365914e-07,2.848942565575095e-07,1.2190969225125447e-06
3,1.073812579183342e-06,5.941573275504697e-07,1.6322137458194002e-07,2.096912063117636e-06,2.9954873481058276e-07,3.094021262588437e-07,7.797895316439483e-07,6.065908038261002e-07,7.64657325495397e-07,4.2216984977825335e-07,9.408806921629626e-07,2.0664718873053177e-05,4.115561684769952e-07,3.644766976866092e-07,3.5827842763953075e-07,1.4256996203752047e-06
4,1.2921402166353781e-06,7.996395373283261e-07,2.4670883015857066e-07,2.532650481485114e-06,3.5578933822117896e-07,3.481881262622308e-07,8.336282883823583e-07,6.816992811279403e-07,8.436664455676958e-07,5.206016820037996e-07,1.0324038389837513e-06,2.3511984014068425e-05,4.6336531541820325e-07,4.2526553239884054e-07,4.299778603134317e-07,1.612041737953845e-06
5,1.5420144846847796e-06,9.949621234904877e-07,3.2510524756362906e-07,2.9812445880070485e-06,4.0912841447805923e-07,3.854202327738744e-07,8.875458289565299e-07,7.564555062597499e-07,9.199991334480549e-07,6.107695160781217e-07,1.1226924047136969e-06,2.6317795955688792e-05,5.138506973767999e-07,4.819636881172555e-07,4.99205687807592e-07,1.7746481115507921e-06
6,1.8262541366251788e-06,1.1787226111314106e-06,3.983418795639002e-07,3.4445602557641287e-06,4.590392672586656e-07,4.2090385332617546e-07,9.409507226280204e-07,8.303975471983073e-07,9.929679411445112e-07,6.920430458161021e-07,1.2108134809467415e-06,2.9058289741896906e-05,5.629942685523449e-07,5.344593987043062e-07,5.652374870361264e-07,1.912253522094595e-06
7,2.1478903512912566e-06,1.349927455543285e-06,4.6652492180937776e-07,3.925980149094673e-06,5.053095550659296e-07,4.545715016714042e-07,9.931052805714393e-07,9.030657521802619e-07,1.0617876404222449e-06,7.644817246275068e-07,1.2958980304107295e-06,3.170641237047344e-05,6.109266253289049e-07,5.829108562724501e-07,6.274521997130234e-07,2.025474066432416e-06
8,2.5100027311093697e-06,1.5081271405122328e-06,5.298759600427379e-07,4.430472619453923e-06,5.479168304572756e-07,4.864600137177703e-07,1.043185579253789e-06,9.740083078275265e-07,1.1255960599804517e-06,8.285365396199714e-07,1.3770282100167994e-06,3.423292040512324e-05,6.577521337994411e-07,6.276068015867654e-07,6.853911444639345e-07,2.1159855791284615e-06
9,2.9154689757415554e-06,1.6534535298486175e-06,5.88799589195023e-07,4.964481359853551e-06,5.868817675302905e-07,5.166298917811513e-07,1.0903805813450532e-06,1.0428187320387835e-06,1.1835284226645786e-06,8.84765342137572e-07,1.4531175624502193e-06,3.660816498846981e-05,7.034610965624867e-07,6.688484043960524e-07,7.38784503893256e-07,2.1857767598312455e-06
10,3.3668240275345364e-06,1.7865785701387922e-06,6.439371619222209e-07,5.5356589251172134e-06,6.221886515064579e-07,5.450739083308999e-07,1.1339325590539688e-06,1.1091248240624462e-06,1.234782909186306e-06,9.337276138208992e-07,1.522895189559108e-06,3.880323004274617e-05,7.479114845458419e-07,7.069174404602727e-07,7.875168062845124e-07,2.236796048635125e-06
11,3.866288848569073e-06,1.9086369675427243e-06,6.96090775478112e-07,6.152436045793515e-06,6.537815822606552e-07,5.716732632974609e-07,1.1730870734588325e-06,1.1725174755416996e-06,1.2787074467694075e-06,9.759583510839758e-07,1.5850487143368042e-06,4.078953149283519e-05,7.908444905067154e-07,7.42097835075313e-07,8.316163051011733e-07,2.2708257216959934e-06
12,4.415755685683106e-06,2.0211806568238373e-06,7.460777898850929e-07,6.823563171203471e-06,6.816259692927306e-07,5.961952248261032e-07,1.2070669160612554e-06,1.2324839303882905e-06,1.3149279052628079e-06,1.011941216469137e-06,1.638512767081366e-06,4.253798834155639e-05,8.319163670485536e-07,7.746662704487077e-07,8.712881464142154e-07,2.289479472143182e-06
13,5.016566898956607e-06,2.126181281658085e-06,7.94630295257481e-07,7.557795507817605e-06,7.058032336546517e-07,6.183197558860179e-07,1.2351404154674008e-06,1.2883999818039036e-06,1.3434577676858457e-06,1.042159461686384e-06,1.6827531754941794e-06,4.4019323364680396e-05,8.707417908277589e-07,8.04883385889119e-07,9.068692392322409e-07,2.2943854992448387e-06
14,5.669227624611638e-06,2.2259875360058632e-06,8.423506007475546e-07,8.363707038796276e-06,7.265429474832302e-07,6.377052898006023e-07,1.2567262438338222e-06,1.33955333600666e-06,1.3647650549495586e-06,1.0672377718893607e-06,1.7178061693889555e-06,4.520446151706066e-05,9.069810969542059e-07,8.330280064865184e-07,9.387083813128363e-07,2.28740635623813e-06
15,6.3731999823500766e-06,2.32313952075133e-06,8.896907077357595e-07,9.249470580928289e-06,7.441401590199942e-07,6.540762749326431e-07,1.2714914369535468e-06,1.3851372587988765e-06,1.3798000991432224e-06,1.0880402304151976e-06,1.744075333272861e-06,4.606335651780257e-05,9.40447325969623e-07,8.593959329613218e-07,9.670833662079509e-07,2.2706750451864465e-06
16,7.126717460743493e-06,2.420076463100203e-06,9.369463166461276e-07,1.0222442882406113e-05,7.588377376464084e-07,6.67276189624755e-07,1.2794389405264316e-06,1.4242679152621625e-06,1.3899299061739974e-06,1.1056148134071055e-06,1.7621629070781984e-06,4.656570944883002e-05,9.711096725487904e-07,8.842216710700876e-07,9.92168264438691e-07,2.2464489783908157e-06
17,7.926596300687129e-06,2.5188779199876165e-06,9.842518156066436e-07,1.1288541893865827e-05,7.707700299238413e-07,6.772730495116686e-07,1.2809310934011911e-06,1.4561391240603752e-06,1.3967462351051342e-06,1.1210345535936443e-06,1.772822911468602e-06,4.6688303543009654e-05,9.989829746247933e-07,9.075894313111806e-07,1.0140502882193797e-06,2.2168922662834714e-06
18,8.768142696769875e-06,2.621127584308192e-06,1.0315738925333317e-06,1.2451636304282501e-05,7.799765143803926e-07,6.841503930886797e-07,1.2765899451385083e-06,1.4802545930349301e-06,1.4018227692731056e-06,1.1352609335993444e-06,1.7769425283135805e-06,4.64253296159034e-05,1.0240481406829601e-06,9.293953367827665e-07,1.0328360381100033e-06,2.1838707025439825e-06
19,9.645190091304322e-06,2.72788975052835e-06,1.0787134866751544e-06,1.3713146752605337e-05,7.86461528460793e-07,6.880793402490268e-07,1.267126842007665e-06,1.4965376692111185e-06,1.406549696679944e-06,1.149086170794348e-06,1.7755744550459445e-06,4.579307639066558e-05,1.0462489087261755e-06,9.493938491909875e-07,1.0487860561091074e-06,2.1488454158950277e-06
20,1.0550258664937582e-05,2.8397705042445685e-06,1.1253032813771154e-06,1.5071766938173952e-05,7.90275691400934e-07,6.892702199443486e-07,1.2532326504571134e-06,1.5052434673351265e-06,1.412138463456766e-06,1.1631387409639263e-06,1.7699578476462612e-06,4.482535393776617e-05,1.0655048168999949e-06,9.67344659669902e-07,1.0623259820532947e-06,2.1129027071679064e-06
21,1.147492286372343e-05,2.95701798757762e-06,1.1707953239568903e-06,1.6523176706172173e-05,7.915682708404612e-07,6.879637338566897e-07,1.2355633153869565e-06,1.5067911190801272e-06,1.419766525913492e-06,1.177904525854489e-06,1.7613943181859558e-06,4.356325513642553e-05,1.0817564359453413e-06,9.831912751699044e-07,1.0739174032494793e-06,2.0768279011210567e-06
22,1.2410477200323066e-05,3.0795737124447694e-06,1.2144824001193275e-06,1.8059739350675576e-05,7.905733108628497e-07,6.844744398263312e-07,1.2147331314066372e-06,1.5016585610572665e-06,1.430687147362818e-06,1.193718862605493e-06,1.7510890231963212e-06,4.2046542820304334e-05,1.0950312584266319e-06,9.97121127673085e-07,1.0839444790389135e-06,2.0411422213145008e-06
23,1.3348812657751802e-05,3.2070451790040912e-06,1.2555971841063256e-06,1.9670118458857286e-05,7.875597443840044e-07,6.792084761082828e-07,1.1912965361594252e-06,1.4903616200752473e-06,1.4462166540905204e-06,1.210764350633035e-06,1.7401192761530871e-06,4.0311396664309025e-05,1.1054335005833001e-06,1.0094487327171925e-06,1.0927075958529214e-06,2.006142381224387e-06
24,1.428328141359668e-05,3.3386723376465252e-06,1.2934641573628904e-06,2.1338832664946482e-05,7.828142099166784e-07,6.726207034082936e-07,1.1657727969966418e-06,1.4734352778514927e-06,1.4677281846055882e-06,1.2291335983769592e-06,1.72945611379662e-06,3.839294229635281e-05,1.1130998993201252e-06,1.0204464623961298e-06,1.1004514498264554e-06,1.9719505018120474e-06
25,1.520937913505175e-05,3.473344740069849e-06,1.3276328341721775e-06,2.304590794513098e-05,7.766792303351213e-07,6.651630328250431e-07,1.1386602451679894e-06,1.4513529630775337e-06,1.4966956789082116e-06,1.248922180987467e-06,1.7199034451774053e-06,3.63284138212757e-05,1.118239018490488e-06,1.0302676937060483e-06,1.1073624899420694e-06,1.938557268507585e-06
26,1.6125115929478195e-05,3.6096175150633697e-06,1.3579311867663626e-06,2.4766870847025523e-05,7.69581106479722e-07,6.572694345544425e-07,1.1103714804762624e-06,1.4244298514234492e-06,1.5346681632404317e-06,1.270291256248518e-06,1.7119959286795766e-06,3.415869339535233e-05,1.1211895043933685e-06,1.0389948258527512e-06,1.1135946935513976e-06,1.9059178458829402e-06
27,1.703080797750099e-05,3.74564016789587e-06,1.3843955182899954e-06,2.64735072410981e-05,7.619894129318577e-07,6.493612356022841e-07,1.0811827069825983e-06,1.3928159433466192e-06,1.5831892298828088e-06,1.2935022450783929e-06,1.705986424573908e-06,3.1927825121963845e-05,1.122370662754199e-06,1.0467509444063448e-06,1.1193589455827026e-06,1.8740839416917774e-06
28,1.7927912822450585e-05,3.879057869636202e-06,1.4071136768404355e-06,2.8135646116037183e-05,7.543605413882498e-07,6.418364573967116e-07,1.051300722302109e-06,1.3566107986611857e-06,1.6437572711489822e-06,1.3189295220042342e-06,1.7019511428897568e-06,2.968094766117293e-05,1.122147052110584e-06,1.0537505217476895e-06,1.1249888027494474e-06,1.8432708662449202e-06
29,1.8817128537442374e-05,4.007090608046613e-06,1.4261656253144679e-06,2.9723793956688497e-05,7.471143272085336e-07,6.350629447172733e-07,1.0209721371980061e-06,1.3160262789068987e-06,1.717781363838933e-06,1.3470124593318927e-06,1.6999174177970584e-06,2.7461632630207674e-05,1.1207153142757977e-06,1.060220349859437e-06,1.1309133753737306e-06,1.8138459671888306e-06
30,1.9697150129217724e-05,4.126869590217242e-06,1.4417721952773592e-06,3.121220827931491e-05,7.406051661002878e-07,6.294003911932693e-07,9.904964298662356e-07,1.2714968137338922e-06,1.8064954365882048e-06,1.378154703264371e-06,1.6999185090621495e-06,2.5309634034256708e-05,1.1180858804837057e-06,1.0662714747000108e-06,1.1375609841685107e-06,1.7862601909935035e-06
31,2.0565203783396042e-05,4.2358813390923695e-06,1.4544782687196264e-06,3.258167558708534e-05,7.350967920733897e-07,6.252114498337601e-07,9.601472575331964e-07,1.2236927034928693e-06,1.910912012535845e-06,1.4126591551682394e-06,1.7019735849288132e-06,2.3259627549663505e-05,1.1141589006362783e-06,1.0718453906598609e-06,1.1452697456768794e-06,1.7609134451417115e-06
32,2.1418591247870047e-05,4.332339887566357e-06,1.4651568170712953e-06,3.382091818894247e-05,7.308001373140687e-07,6.228602051729098e-07,9.301311734923979e-07,1.1734672414351483e-06,2.0318228552355224e-06,1.4507211364169174e-06,1.7060263546640937e-06,2.1340932657194505e-05,1.108823879398125e-06,1.0767656227564536e-06,1.154286233861012e-06,1.7379971137966558e-06
33,2.225577595465805e-05,4.415361601869146e-06,1.4748523561863276e-06,3.4925853556435007e-05,7.279437202196283e-07,6.227270833031284e-07,9.006553606085701e-07,1.1217680917751067e-06,2.1697490850751147e-06,1.492408881551552e-06,1.7118514720972015e-06,1.9577749237306995e-05,1.1019967619762489e-06,1.0808143392063092e-06,1.1648372320300278e-06,1.7174055926474305e-06
34,2.3076434580214026e-05,4.484827161604386e-06,1.484608872477383e-06,3.5896661245567325e-05,7.267926332991354e-07,6.251978046268933e-07,8.720290454559892e-07,1.0695163204895844e-06,2.3248715025905045e-06,1.5376123589481615e-06,1.7189655868485318e-06,1.798965276998842e-05,1.0935704577835502e-06,1.0837535729681608e-06,1.177158091314331e-06,1.6987782528173472e-06
35,2.3880631769293742e-05,4.540925952340816e-06,1.4953569498892214e-06,3.6733588738314877e-05,7.276135120448448e-07,6.306200721681553e-07,8.446765547906637e-07,1.0175070209558526e-06,2.4971122228321754e-06,1.5860049006590974e-06,1.7265929706900034e-06,1.659242914518359e-05,1.0833479810632549e-06,1.0853330123848506e-06,1.1914350129016463e-06,1.6816327273908908e-06
36,2.4667639301400483e-05,4.583651643247466e-06,1.5078508684610767e-06,3.74338789640024e-05,7.306447006510698e-07,6.392766412936777e-07,8.190555343822286e-07,9.663914080176532e-07,2.6863889343032616e-06,1.6370340616253294e-06,1.7337306316589627e-06,1.5398967495001967e-05,1.0710777350096666e-06,1.0853605051157977e-06,1.2077645985647006e-06,1.6654646963764437e-06
37,2.5435125611169693e-05,4.61263515284096e-06,1.5226447563145476e-06,3.799184418225967e-05,7.360883112572057e-07,6.513628471417907e-07,7.955832195387972e-07,9.166961760704664e-07,2.8928412497905347e-06,1.6899470886961688e-06,1.7393495522432359e-06,1.4419737999361153e-05,1.0566032598111457e-06,1.0837912718245755e-06,1.2261910400845846e-06,1.6497974649608928e-06
38,2.6179102514102043e-05,4.627371640705149e-06,1.5400935888253787e-06,3.840120747244781e-05,7.441134204058209e-07,6.669553125063788e-07,7.746140020218173e-07,8.68811219037581e-07,3.116846536760204e-06,1.7438807704104045e-06,1.7426458109525133e-06,1.366280291134687e-05,1.0399722861255564e-06,1.080745102618395e-06,1.246745961754826e-06,1.6342749063895898e-06
39,2.6894394233051356e-05,4.62753934961965e-06,1.56033436128939e-06,3.865761617429865e-05,7.54856558521066e-07,6.860021299248805e-07,7.564354757466463e-07,8.229759805602085e-07,3.358799846266644e-06,1.798044436347991e-06,1.7431467985760434e-06,1.3133615310579387e-05,1.0214221531515878e-06,1.076454577313174e-06,1.2694384591428467e-06,1.6187570705306712e-06
40,2.7575277552049438e-05,4.613172715792867e-06,1.5832340013612129e-06,3.876048929218571e-05,7.683961632929026e-07,7.083334825688696e-07,7.412818763203299e-07,7.793373959563071e-07,3.6187692712606198e-06,1.8519836167894653e-06,1.7406045042150137e-06,1.2834955606558928e-05,1.0013376180694107e-06,1.0712178148030159e-06,1.2942072308296465e-06,1.6032831041952672e-06
41,2.8216194681066216e-05,4.584673839729513e-06,1.6083550959525216e-06,3.87140625789301e-05,7.847201360994281e-07,7.33666623315871e-07,7.293554279683184e-07,7.38054603921056e-07,3.8961929791221524e-06,1.9057643712536936e-06,1.7348793047079097e-06,1.276725858950333e-05,9.802306835547316e-07,1.0653788897760948e-06,1.3208531989571574e-06,1.58790829270558e-06
42,2.881235660758517e-05,4.5427372996688355e-06,1.6349884104713803e-06,3.852756898018055e-05,8.037138714877933e-07,7.616101176296504e-07,7.208186909535482e-07,6.993400393875907e-07,4.18971172044313e-06,1.9598546593956144e-06,1.7259882336059374e-06,1.2929082729320947e-05,9.586810035045056e-07,1.0592894349969256e-06,1.3490055267469395e-06,1.5725713694005322e-06
43,2.9359716603034668e-05,4.4882536530744485e-06,1.6622348584423271e-06,3.8214669188097985e-05,8.251639987020058e-07,7.916800626477919e-07,7.157676148725092e-07,6.634085082841031e-07,4.497110783877881e-06,2.014756963645502e-06,1.7141499342173403e-06,1.3317183766896006e-05,9.372412760890771e-07,1.0532645466558386e-06,1.3781466378474426e-06,1.5570983933177884e-06
44,2.9853713793240427e-05,4.4221935846236265e-06,1.6890640225669746e-06,3.779225040039264e-05,8.488020247659283e-07,8.23340704358167e-07,7.142039736929636e-07,6.304188590704075e-07,4.8153306563270425e-06,2.0706834960609743e-06,1.6996967515560453e-06,1.3926215204184288e-05,9.16384075458092e-07,1.0475729376227326e-06,1.40763975050313e-06,1.5412504861862885e-06
45,3.0287038188159608e-05,4.34541115536266e-06,1.7143440430973546e-06,3.727874208682247e-05,8.743986043534416e-07,8.561085437497836e-07,7.160034738277698e-07,6.004591873670979e-07,5.140585177278179e-06,2.1274158100482196e-06,1.6830173633930966e-06,1.4748632336494837e-05,8.965056292645576e-07,1.0424181854573923e-06,1.4367687857661888e-06,1.5246638849263517e-06
46,3.064829044559315e-05,4.258363662748742e-06,1.736958135880851e-06,3.669213948744212e-05,9.018399140508737e-07,8.896902571204662e-07,7.208915172920363e-07,5.735560610644938e-07,5.468576999856721e-06,2.1843014042936024e-06,1.6645905484844301e-06,1.5775022745753476e-05,8.779499684619565e-07,1.037920997192612e-06,1.464872566296086e-06,1.5067494814963881e-06
47,3.0923292323403855e-05,4.160952586423727e-06,1.7560472699009528e-06,3.604775888082694e-05,9.311327180477388e-07,9.240134405564088e-07,7.284345184062883e-07,5.496991737990625e-07,5.794672422546437e-06,2.2403535509630515e-06,1.6450025529177412e-06,1.699454683636654e-05,8.610129130019373e-07,1.034157354191528e-06,1.4914943060289278e-06,1.486776456613311e-06
48,3.109848761366394e-05,4.052700975858006e-06,1.7712417243785261e-06,3.535594323554902e-05,9.62363536729487e-07,9.59105372602786e-07,7.38043072809565e-07,5.288773958100476e-07,6.113981133357272e-06,2.2944534635156733e-06,1.6249038095581556e-06,1.8395161998289382e-05,8.458993991634017e-07,1.031180435405742e-06,1.5163644150858963e-06,1.4641812153833299e-06
49,3.116466847178595e-05,3.93316979517293e-06,1.782728231155559e-06,3.4620819949349734e-05,9.956428646637434e-07,9.949693318475916e-07,7.490063172697471e-07,5.111057930824544e-07,6.421455080205179e-06,2.3455912786435235e-06,1.6049193131297821e-06,1.9963506676151107e-05,8.326717593287073e-07,1.0289762294189078e-06,1.5392469171026757e-06,1.4388723251088926e-06
50,3.111983947664957e-05,3.8023618829586793e-06,1.7910922378578415e-06,3.384137243410315e-05,1.0310426757032947e-06,1.0315688943751704e-06,7.60584087956785e-07,4.96445919935226e-07,6.7121074471106844e-06,2.393012338666299e-06,1.5856087570531155e-06,2.1684531359849754e-05,8.212448567502204e-07,1.027455248208856e-06,1.5598689411552243e-06,1.4112939515472016e-06
51,3.097056220118723e-05,3.6609934287885462e-06,1.7970043451675701e-06,3.301467230319141e-05,1.0685587808679822e-06,1.0688588369003215e-06,7.721400940599113e-07,4.850164185524271e-07,6.9813184640847e-06,2.436152208566235e-06,1.5675231859982721e-06,2.3541098730099895e-05,8.114193990339522e-07,1.0265157454324741e-06,1.5780144494092516e-06,1.3822253553677438e-06
52,3.073140674585031e-05,3.5105853981160394e-06,1.800949050632305e-06,3.213972429894238e-05,1.1081234194840945e-06,1.1067883905624538e-06,7.83247120394319e-07,4.769645733708765e-07,7.225076403399217e-06,2.4744089863493975e-06,1.5512039417573157e-06,2.5513578775263824e-05,8.029345227589774e-07,1.026075979288499e-06,1.5936336054137632e-06,1.3524782911559232e-06
53,3.042255389238102e-05,3.3533374034972418e-06,1.803139371358959e-06,3.122019594836466e-05,1.1496200254376825e-06,1.1452713715237223e-06,7.936939099164307e-07,4.724097239952753e-07,7.440005127018265e-06,2.507037050955662e-06,1.537074354231314e-06,2.7579126424967532e-05,7.955594331130055e-07,1.0260785786628876e-06,1.6068081323641162e-06,1.3226689716362618e-06
54,3.0066074715714735e-05,3.191842554197139e-06,1.8035765885782698e-06,3.0264933397978782e-05,1.1928582100887928e-06,1.1841345727424712e-06,8.033858320175602e-07,4.7141189526973124e-07,7.623233095213298e-06,2.5333647348683794e-06,1.5253673269163851e-06,2.9710487098781e-05,7.892074238325999e-07,1.0265424927123382e-06,1.6175963969815924e-06,1.293131740619909e-06
55,2.9682042140518734e-05,3.028768527554712e-06,1.8021462792738122e-06,2.9286095304521006e-05,1.2375891096659451e-06,1.2230829100856012e-06,8.122133822001164e-07,4.7400115108699264e-07,7.772356451121762e-06,2.553122348925638e-06,1.5161168759923373e-06,3.187490638925556e-05,7.839953607630863e-07,1.0275804890663553e-06,1.6259531370328858e-06,1.263941854409557e-06
56,2.928616389759566e-05,2.8665724001010507e-06,1.7986831112996865e-06,2.8295795474111714e-05,1.2836221753722589e-06,1.2617368674740938e-06,8.199894008415044e-07,4.802587910366308e-07,7.885565477010015e-06,2.566536856949472e-06,1.5091347081491608e-06,3.4034004221822375e-05,7.802043593065541e-07,1.0293194924482371e-06,1.6318106136534104e-06,1.2349855787202552e-06
57,2.88898184084462e-05,2.7072740416134755e-06,1.793005852940793e-06,2.7303195215151162e-05,1.330924452996164e-06,1.2997237052247046e-06,8.264916514528445e-07,4.904000861020215e-07,7.961532999944421e-06,2.574123370065566e-06,1.503971493041651e-06,3.6144901923844866e-05,7.781714587822486e-07,1.03184032403817e-06,1.6351377644195572e-06,1.2060490099972678e-06
58,2.8501443233212357e-05,2.552357102126185e-06,1.7849820874825528e-06,2.6313896084779797e-05,1.3795884946504447e-06,1.3367091689933675e-06,8.315663973049352e-07,5.048124090224447e-07,7.998834392072066e-06,2.5763558260537282e-06,1.4999373304240828e-06,3.816218969258282e-05,7.781873669196248e-07,1.035196932178785e-06,1.6358590238273797e-06,1.1769583230185386e-06
59,2.8127615546565305e-05,2.4028582081706555e-06,1.774643475630845e-06,2.5331558120965417e-05,1.4297592677790427e-06,1.372310957120908e-06,8.352236684200851e-07,5.24044634129204e-07,7.995662348097486e-06,2.5734977747166947e-06,1.4962314616471989e-06,4.003963298760235e-05,7.804822046110025e-07,1.0394379504188296e-06,1.6337764227947043e-06,1.1477734103306003e-06
60,2.777319897168299e-05,2.2595925989524136e-06,1.7622885579659538e-06,2.436004954245492e-05,1.4816832305215752e-06,1.4060051799717365e-06,8.37653770106452e-07,5.487641996483007e-07,7.950527013687617e-06,2.565730875178164e-06,1.4921454676943112e-06,4.1730552458549016e-05,7.852903527043088e-07,1.0445892000972753e-06,1.6286033536438507e-06,1.118928324802447e-06
61,2.7440767828710564e-05,2.123383828306695e-06,1.7485045392207757e-06,2.340483914358267e-05,1.5358788783578568e-06,1.4371368565297173e-06,8.391455419078922e-07,5.7969482460992e-07,7.863220306133314e-06,2.5533695045866037e-06,1.487208093208085e-06,4.318796564936512e-05,7.928824630753232e-07,1.0506308234989882e-06,1.6200505851794845e-06,1.091225538418256e-06
62,2.712967652642544e-05,1.995189280746918e-06,1.7340848202830242e-06,2.2473394620996518e-05,1.5932439372178032e-06,1.4649930408904348e-06,8.40010286447011e-07,6.17558400773466e-07,7.735087978072559e-06,2.5368696931765177e-06,1.4811497117380657e-06,4.4367694891563186e-05,8.035141906290788e-07,1.0574767896666617e-06,1.6079291268560834e-06,1.0657043150661324e-06
63,2.6835243452748442e-05,1.876075151345394e-06,1.7198569354486719e-06,2.1574754599719425e-05,1.6549610548150708e-06,1.488899896757856e-06,8.406011211548822e-07,6.630607016242687e-07,7.5687824062876695e-06,2.516663705722752e-06,1.473794338680825e-06,4.523526615406649e-05,8.173499624991403e-07,1.0649366950421206e-06,1.5923014210225154e-06,1.043457403369913e-06
64,2.6548709195063204e-05,1.7670686743910258e-06,1.706488227067626e-06,2.071850666907144e-05,1.7222885011904788e-06,1.5083747293526109e-06,8.413390751385591e-07,7.169342774874108e-07,7.368105308530238e-06,2.4931042646847504e-06,1.4650641033296801e-06,4.577169710659415e-05,8.344175903728791e-07,1.072702028984497e-06,1.5736202983029847e-06,1.0254787987375683e-06
65,2.625841722520198e-05,1.6690143262883786e-06,1.6943608475045424e-06,1.9913468204062716e-05,1.7964180724216386e-06,1.5232728269961694e-06,8.426427586700967e-07,7.800231996801175e-07,7.138013683257044e-06,2.4666509993985894e-06,1.4550105355901165e-06,4.597231413595631e-05,8.546047521333981e-07,1.0804008230210811e-06,1.5527053767969788e-06,1.0126065563155222e-06
66,2.595190422408043e-05,1.5825538335318035e-06,1.6835586324933788e-06,1.9166380448501234e-05,1.8784491365218913e-06,1.5337766412672752e-06,8.448177534772322e-07,8.533922102369031e-07,6.884487627673069e-06,2.4381028879332346e-06,1.443746739716045e-06,4.5840980714848376e-05,8.776689348372505e-07,1.0876704394681193e-06,1.5305334482627234e-06,1.0055480286578089e-06
67,2.5618037079587242e-05,1.5081957664207531e-06,1.6739643468263446e-06,1.8480842493274996e-05,1.969388430651006e-06,1.5401941007280734e-06,8.480016085375545e-07,9.383923244801116e-07,6.614138708647641e-06,2.4086292958369805e-06,1.4313846086303156e-06,4.5388622663120215e-05,9.03229442105738e-07,1.0941939263263781e-06,1.5080000579519461e-06,1.004905786332289e-06
68,2.5248548314541093e-05,1.4463768909265143e-06,1.6654286797690688e-06,1.785661012577235e-05,2.0700969866294566e-06,1.5427399949950288e-06,8.521882226216932e-07,1.0365917597841092e-06,6.333633711337811e-06,2.379578772926864e-06,1.4180353142955614e-06,4.4637167855426566e-05,9.307535833369471e-07,1.0997037457543567e-06,1.4857860927743384e-06,1.0111617139233537e-06
69,2.4838866182824212e-05,1.3975170225136968e-06,1.65790928404795e-06,1.7289366470703833e-05,2.181181596336646e-06,1.541479027233051e-06,8.573138229911049e-07,1.1496061194663842e-06,6.049068764254675e-06,2.352194020398894e-06,1.4037710104418184e-06,4.36203991186797e-05,9.59565284733794e-07,1.103946174641067e-06,1.4643150014525604e-06,1.0246542217328997e-06
70,2.438835289232066e-05,1.3621149257608792e-06,1.6514812589505471e-06,1.6771034854929797e-05,2.302872469523865e-06,1.5364166709027905e-06,8.633445889576872e-07,1.2789612422827036e-06,5.76558424509798e-06,2.3273603328085167e-06,1.3885472291880405e-06,4.237847466075906e-05,9.888917066200274e-07,1.106615303345459e-06,1.443732068696203e-06,1.0455629560028088e-06
71,2.3899818911803307e-05,1.3408383192425152e-06,1.6462120047277853e-06,1.629058187735617e-05,2.434937983915799e-06,1.5276082919126565e-06,8.702870742670477e-07,1.4260375136254055e-06,5.487369625640452e-06,2.305479160520019e-06,1.3721985434806743e-06,4.0952032155304e-05,1.0179287828097214e-06,1.1073717652824437e-06,1.42389213662959e-06,1.0738812871963765e-06
72,2.337790223879134e-05,1.334492488953416e-06,1.6419889027601264e-06,1.5835275691325238e-05,2.5766542613106483e-06,1.5152020694490747e-06,8.781397227492501e-07,1.5920602208515162e-06,5.217758875636829e-06,2.2865164056880505e-06,1.3545582229672515e-06,3.938060130484208e-05,1.045871176792299e-06,1.1060131458527182e-06,1.4043864929245896e-06,1.1093875115868206e-06
73,2.2826550620481933e-05,1.3438574774693922e-06,1.6384205622133196e-06,1.5392453962842304e-05,2.7268146186549807e-06,1.499427740450305e-06,8.868821803915292e-07,1.7781133743009557e-06,4.959169424260419e-06,2.2702012909744196e-06,1.3356106067485943e-06,3.770405982078557e-05,1.0719054170981827e-06,1.102633573090524e-06,1.384630942157314e-06,1.1516379588080232e-06
74,2.2247278672218238e-05,1.3695341946141924e-06,1.6348673463666223e-06,1.4951603072849832e-05,2.883786177141493e-06,1.4805952247319532e-06,8.965201906482303e-07,1.9851233200865724e-06,4.7130711218866804e-06,2.2562540606707376e-06,1.315497913818666e-06,3.596371942459342e-05,1.095239585167415e-06,1.0975965259484184e-06,1.3640071577110276e-06,1.1999791109232343e-06
75,2.1639550148896993e-05,1.4119072984248512e-06,1.630577362509367e-06,1.4506085140632386e-05,3.0456249201585746e-06,1.4591206205598955e-06,9.071395474978908e-07,2.2137573146727274e-06,4.480115363177695e-06,2.2445137491684525e-06,1.2944116664704836e-06,3.420128995514091e-05,1.1152007420399978e-06,1.0913709682698615e-06,1.3420246733568212e-06,1.2535573122979238e-06
76,2.10022969430139e-05,1.4711905632718025e-06,1.6248956861720315e-06,1.4053790579137414e-05,3.2102077641732424e-06,1.435517953505201e-06,9.189664452609357e-07,2.464287746095391e-06,4.260241926964743e-06,2.2349311201261556e-06,1.2725638758771865e-06,3.2456171925941124e-05,1.131321329465966e-06,1.0843904037420885e-06,1.3184471862483856e-06,1.3113322363227883e-06
77,2.0334819149376153e-05,1.547474264818464e-06,1.6174927866041764e-06,1.3596502402552923e-05,3.3753217729639615e-06,1.4103097459927279e-06,9.324142419219039e-07,2.736498895922999e-06,4.05278025777198e-06,2.227451576639226e-06,1.250225210121336e-06,3.076273780737643e-05,1.143317268854719e-06,1.0770155840060404e-06,1.293317029672481e-06,1.372140312170545e-06
78,1.9636778588942982e-05,1.6407261344276728e-06,1.6084990001312822e-06,1.3138348795973646e-05,3.538691735134698e-06,1.383901374392134e-06,9.480422440390849e-07,3.029661415095217e-06,3.856760805711729e-06,2.221837084691039e-06,1.227722192080253e-06,2.9148969322866683e-05,1.1510084152064774e-06,1.0695750593282991e-06,1.2668638884346564e-06,1.4348342316653613e-06
79,1.8908043668105196e-05,1.7507607701730813e-06,1.5984623725273656e-06,1.2683929855672853e-05,3.697957005665699e-06,1.3565207658552736e-06,9.664406688096876e-07,3.3425712433424744e-06,3.6713107258090437e-06,2.2175258179217996e-06,1.2054136870739243e-06,2.763629621546423e-05,1.1543461061649678e-06,1.0624005205440403e-06,1.2393659473471194e-06,1.4984580280194995e-06
80,1.8148938036880088e-05,1.8772507584612868e-06,1.5881759519288762e-06,1.2236749618221091e-05,3.85062092336354e-06,1.3282834608994202e-06,9.88147936250333e-07,3.673592327704472e-06,3.4958575574635192e-06,2.213635139303534e-06,1.183670331731195e-06,2.623971973573614e-05,1.153554129774547e-06,1.0557923380960991e-06,1.211048735664796e-06,1.5623570098720616e-06
81,1.7360892848981797e-05,2.019761016329703e-06,1.5785118642248905e-06,1.1798664922246892e-05,3.994037745822136e-06,1.2993188317239737e-06,1.0136164259813704e-06,4.020633779064426e-06,3.3301219745184926e-06,2.2091140814805903e-06,1.1628204309495427e-06,2.4968025991318624e-05,1.1492005782041344e-06,1.049962512628362e-06,1.1820421075389031e-06,1.6261368810553486e-06
82,1.654723367569969e-05,2.1776919781641277e-06,1.5703689927019375e-06,1.1370485644975204e-05,4.125521545925572e-06,1.2698367202669955e-06,1.0431684291075174e-06,4.38109709774362e-06,3.1740091823841643e-06,2.202930969205891e-06,1.1430808966036235e-06,2.38243929641287e-05,1.1421132876133246e-06,1.045036633528321e-06,1.15236117636045e-06,1.6895113385668348e-06
83,1.5713847984819577e-05,2.3501679590728303e-06,1.5647143333189511e-06,1.095292604391306e-05,4.242572558841378e-06,1.240124944902017e-06,1.0769511758090493e-06,4.751886563373202e-06,3.027473184952067e-06,2.1941824702857413e-06,1.1245537179974255e-06,2.2807334720224604e-05,1.1332330462945534e-06,1.0410871295444563e-06,1.1219243338883225e-06,1.752187728786808e-06
84,1.486952383331431e-05,2.5360334587893186e-06,1.562583229898158e-06,1.0547227007738266e-05,4.343098171436011e-06,1.2105539676462227e-06,1.1149203192671392e-06,5.12948582941993e-06,2.890417690605683e-06,2.182152644228617e-06,1.1072804456579945e-06,2.191159961982637e-05,1.1235060483109353e-06,1.038139607088137e-06,1.0906614546124424e-06,1.813851878680411e-06
85,1.4025774040459016e-05,2.7339819574214845e-06,1.5649587777049829e-06,1.0155496098267618e-05,4.425535279305356e-06,1.1815757081892407e-06,1.1568338824143221e-06,5.5099828581740535e-06,2.762686981071808e-06,2.1664358258164173e-06,1.0912612700864231e-06,2.1128624699849197e-05,1.1138242818802942e-06,1.0361760445184234e-06,1.058673452328778e-06,1.8741325443138302e-06
86,1.319610355699157e-05,2.942699316748235e-06,1.5726317180616948e-06,9.780908739893549e-06,4.4889431229395415e-06,1.1536528948000318e-06,1.202241879118176e-06,5.888916335341073e-06,2.6441270882569663e-06,2.1470922288727564e-06,1.0764559862579645e-06,2.0446451168398167e-05,1.1049913723829883e-06,1.0351685819340848e-06,1.0263324068274945e-06,1.9324680026297587e-06
87,1.2394946700754516e-05,3.1609205687622748e-06,1.586144615000368e-06,9.42766570258231e-06,4.533147168380271e-06,1.127184450866693e-06,1.2504775218439017e-06,6.260959762669687e-06,2.5346310487394642e-06,2.1246721543572596e-06,1.0628481660546046e-06,1.984982942938306e-05,1.097718879435506e-06,1.035091473384212e-06,9.94254127989021e-07,1.9879975635806707e-06
88,1.1636614424226295e-05,3.38734785015765e-06,1.6057787629392865e-06,9.10060999003982e-06,4.55875844788388e-06,1.102512336886329e-06,1.300686134304333e-06,6.6196634927025796e-06,2.4341027264506673e-06,2.1000871068614707e-06,1.0505035341986375e-06,1.932156006043311e-05,1.0926348994511615e-06,1.0358650523798693e-06,9.63150461246939e-07,2.039643313546257e-06
89,1.0934387358710402e-05,3.6204259223910106e-06,1.6315486174854056e-06,8.804606067110944e-06,4.566962898567327e-06,1.0799399817064989e-06,1.3519428027749887e-06,6.957518395172552e-06,2.342364672854606e-06,2.0744333231944795e-06,1.0395436406841657e-06,1.8844796149702467e-05,1.0902588594046244e-06,1.0372748824143856e-06,9.33665273987621e-07,2.0863571858416455e-06
90,1.0299748296447595e-05,3.858076076379575e-06,1.6632113109110413e-06,8.543952762551086e-06,4.559439103820073e-06,1.0597109862112668e-06,1.4034100899738857e-06,7.266494603992167e-06,2.25909057645053e-06,2.048801240546731e-06,1.030090510589197e-06,1.84045712636599e-05,1.0909700630058451e-06,1.0389182499604705e-06,9.063185353844514e-07,2.1273029001303354e-06
91,9.74190093189511e-06,4.097562528459445e-06,1.7002496372248565e-06,8.322099447895547e-06,4.5384734962303195e-06,1.0420013692985003e-06,1.454384511343498e-06,7.539066940546439e-06,2.1837744968176125e-06,2.0241290178381488e-06,1.0222023487411057e-06,1.798723835426888e-05,1.0950165824929447e-06,1.0402164795856216e-06,8.815377053664728e-07,2.161854535841967e-06
92,9.267708759018965e-06,4.335622808799292e-06,1.7418227639518978e-06,8.141668007753033e-06,4.506831358932193e-06,1.0269129908239873e-06,1.5041652827799784e-06,7.76941161393064e-06,2.1157564874772907e-06,2.001239596861774e-06,1.0158070949799532e-06,1.757858911904736e-05,1.102518521695255e-06,1.0405220315404998e-06,8.596716397316674e-07,2.1895656553947277e-06
93,8.881929087423012e-06,4.568814526201006e-06,1.7867494264922137e-06,8.004465925726728e-06,4.467455848769484e-06,1.0144395139629192e-06,1.5518582107394358e-06,7.954141941032697e-06,2.054390108915702e-06,1.981052047919377e-06,1.0107423767988998e-06,1.716319127496478e-05,1.1134374521977387e-06,1.0393057819007885e-06,8.409961900518871e-07,2.2102243498386657e-06
94,8.587543552698922e-06,4.793827544199461e-06,1.833539349997493e-06,7.911239226893082e-06,4.423339834918828e-06,1.0044629046110908e-06,1.5962700039507451e-06,8.092138270455205e-06,1.9992186554707177e-06,1.9647451211949934e-06,1.006939856428488e-06,1.6726332618306923e-05,1.127551099460539e-06,1.036325187375613e-06,8.257674374429869e-07,2.2239043382460375e-06
95,8.38607234368649e-06,5.007575549624034e-06,1.880437126848223e-06,7.861294779111924e-06,4.3774451945966424e-06,9.967950903219334e-07,1.635962993475078e-06,8.183533566395215e-06,1.949921017324243e-06,1.9536882938294505e-06,1.004568586038431e-06,1.6256847898970353e-05,1.1444531898923282e-06,1.031632488189476e-06,8.142698383125125e-07,2.230918464539585e-06
96,8.27786229052937e-06,5.207135156126849e-06,1.925488221060375e-06,7.852282666544888e-06,4.332556257969336e-06,9.912310347757738e-07,1.6694644293739681e-06,8.228405045917078e-06,1.9061210641766329e-06,1.9492035557085543e-06,1.0039679508634337e-06,1.574848906848772e-05,1.1636101239142115e-06,1.0254600061132798e-06,8.06791463119827e-07,2.2316893508670063e-06
97,8.262414537430334e-06,5.389707929919234e-06,1.966660855497919e-06,7.880178322434878e-06,4.291176974629068e-06,9.876457660002538e-07,1.6955477356497655e-06,8.226091374217751e-06,1.8672852040901868e-06,1.9523760557718027e-06,1.0055052518700047e-06,1.5199634606636497e-05,1.1845142503202937e-06,1.0181611920588892e-06,8.035627241563085e-07,2.226594000081009e-06
98,8.338735699592691e-06,5.552735770339672e-06,2.0020018139637996e-06,7.939267354672189e-06,4.25546432859855e-06,9.861176328556678e-07,1.713442536192097e-06,8.175648965828176e-06,1.8327783931741162e-06,1.9640058440619907e-06,1.0095375371945994e-06,1.461241994586766e-05,1.2068638302413802e-06,1.0102167600242483e-06,8.047302084086516e-07,2.215879375627946e-06
99,8.505579512161492e-06,5.694182957234867e-06,2.0297889262234836e-06,8.022054931707678e-06,4.227151628674127e-06,9.869519879553657e-07,1.7228841016001494e-06,8.076913302310732e-06,1.8020250224797823e-06,1.984636207747946e-06,1.0164104620964535e-06,1.39919260668351e-05,1.2306328350180767e-06,1.0021859284897975e-06,8.103621817433302e-07,2.1997681759945793e-06
100,8.761487803748612e-06,5.812801217832574e-06,2.048702323216885e-06,8.119301245969142e-06,4.207492127133401e-06,9.905692466456148e-07,1.7240357509286304e-06,7.931318673271242e-06,1.7745705337058502e-06,2.014640494209783e-06,1.0264071697456875e-06,1.3345416824301796e-05,1.2560146795951056e-06,9.945975170151053e-07,8.204359718123793e-07,2.1786924482127155e-06
101,9.104673275062924e-06,5.908046805852945e-06,2.058024282936212e-06,8.220543790163295e-06,4.197227870862754e-06,9.97355860541948e-07,1.7173688484293292e-06,7.742142241373182e-06,1.74994415910996e-06,2.0543437334934468e-06,1.0396859649436179e-06,1.2681494079945222e-05,1.2833348667705138e-06,9.878683769323012e-07,8.34824866433444e-07,2.1534153757846972e-06
102,9.532870024484932e-06,5.979555682879292e-06,2.0577432259470648e-06,8.315306216057423e-06,4.196566446534142e-06,1.0075636516436225e-06,1.7035290327921236e-06,7.514273504454542e-06,1.7275112288133872e-06,2.104041842705451e-06,1.0562489752013737e-06,1.2009094558014281e-05,1.3129836396555703e-06,9.82282108446126e-07,8.533496466450841e-07,2.1249672625866123e-06
103,1.0043247151082423e-05,6.0266895705356004e-06,2.0484025936324826e-06,8.394659674545916e-06,4.2051734184357475e-06,1.0212690561770695e-06,1.683180304733068e-06,7.253758055896101e-06,1.7064520576953121e-06,2.1638753832638803e-06,1.0759626781484072e-06,1.1336422860146824e-05,1.3453556230586764e-06,9.779948866920105e-07,8.758635133308131e-07,2.094551457697625e-06
104,1.0632343874087133e-05,6.048734223912414e-06,2.0307965160204763e-06,8.452400776476022e-06,4.222184283356581e-06,1.0383595344239409e-06,1.6569070407619734e-06,6.967283257782322e-06,1.6857923983319028e-06,2.233705524641911e-06,1.0986710657203966e-06,1.067035765109325e-05,1.3807894617113533e-06,9.750584515135473e-07,9.022654434562679e-07,2.063525372316723e-06
105,1.1295867359735222e-05,6.045550122720933e-06,2.0058369466341197e-06,8.485343075787757e-06,4.246230018969073e-06,1.058518714979233e-06,1.625289270098674e-06,6.661612462118093e-06,1.6644583897001954e-06,2.313070043630709e-06,1.1243797075266416e-06,1.0016738715275347e-05,1.4195365327830075e-06,9.734797425100338e-07,9.324584568915534e-07,2.0334025005038665e-06
106,1.2028249610305377e-05,6.018005680960957e-06,1.9746515997482026e-06,8.49274768632232e-06,4.275477878232151e-06,1.0812275754420706e-06,1.5890729654271503e-06,6.342986971314352e-06,1.6414319301072463e-06,2.401136223866072e-06,1.153341992849123e-06,9.381009989554333e-06,1.4617624831034751e-06,9.733029642648933e-07,9.663307873765825e-07,2.0057826292352883e-06
107,1.2822044904754242e-05,5.967880738726567e-06,1.93861662397188e-06,8.475172015696767e-06,4.307689333138074e-06,1.105842004703673e-06,1.549214658134374e-06,6.016629167683536e-06,1.6159084661193936e-06,2.4966449495380695e-06,1.185933332196274e-06,8.768493284208809e-06,1.5075329090909337e-06,9.7465964774429e-07,1.003717903477907e-06,1.982193408104811e-06
108,1.3667416633463069e-05,5.89740858064249e-06,1.899162029001746e-06,8.433149402855346e-06,4.340293245305114e-06,1.1317618046373506e-06,1.5067393779297242e-06,5.6864800061796915e-06,1.5873003482157639e-06,2.597942473779099e-06,1.222442928887864e-06,8.184318097164283e-06,1.556811640502449e-06,9.77742331987077e-07,1.0443218709346784e-06,1.9639179491923745e-06
109,1.455204707368456e-05,5.808795472298778e-06,1.8575013772553019e-06,8.366370113795234e-06,4.3704743493171435e-06,1.1585670536393966e-06,1.4625548349473797e-06,5.355208839410431e-06,1.5552476897937703e-06,2.7030542635237774e-06,1.262951733350394e-06,7.633293651760168e-06,1.6095547898555433e-06,9.827218029537346e-07,1.0876809301698179e-06,1.9518899707548124e-06
110,1.546170269528779e-05,5.703966156873739e-06,1.8144678779448367e-06,8.273810128625322e-06,4.3952776374347805e-06,1.1859739941962373e-06,1.4173640329948755e-06,5.0244571040668954e-06,1.5197736598763944e-06,2.809653882562562e-06,1.307302506284726e-06,7.1197105275794285e-06,1.6658119582029724e-06,9.89669063559114e-07,1.1332228749380784e-06,1.9466695921816476e-06
111,1.6381347645031707e-05,5.584586792889018e-06,1.7705039989359093e-06,8.154462060606448e-06,4.411727732643481e-06,1.213652363488967e-06,1.371705212503233e-06,4.695251887335721e-06,1.4813207656131434e-06,2.914979631016311e-06,1.3551177356677066e-06,6.647101651552473e-06,1.725665043832903e-06,9.98525780312293e-07,1.180306472231043e-06,1.948480465702368e-06
112,1.729639895342014e-05,5.452273814068524e-06,1.725789810993753e-06,8.008031252920935e-06,4.416962623823153e-06,1.2410752283333877e-06,1.3260491583977397e-06,4.368504966145162e-06,1.4405414598938418e-06,3.015905551158124e-06,1.405871170570811e-06,6.218260826481951e-06,1.7890475172287743e-06,1.0091486901841859e-06,1.2281726276941806e-06,1.9572928570634243e-06
113,1.8193732811464867e-05,5.3088415848451415e-06,1.6804773505690342e-06,7.835348065403548e-06,4.408381229221036e-06,1.2674750018730652e-06,1.2808585006101707e-06,4.045452984881002e-06,1.398129856022687e-06,3.109225115989926e-06,1.4589770340426164e-06,5.8356924088525694e-06,1.855612724646031e-06,1.0214216831039005e-06,1.2758737570117625e-06,1.9729166295730596e-06
114,1.9062217709334445e-05,5.156440336779901e-06,1.634924018208524e-06,7.638536676872375e-06,4.383753965217601e-06,1.2918884776885252e-06,1.2365946242726232e-06,3.7278865308099176e-06,1.3548503804039103e-06,3.1920052987827174e-06,1.5138009891374081e-06,5.502269851679503e-06,1.924715701180698e-06,1.0353464571046383e-06,1.3223234750149494e-06,1.9950472614950228e-06
115,1.989260066506445e-05,4.997507475304082e-06,1.5897879442581709e-06,7.4209874919653035e-06,4.341190490297607e-06,1.313302252068908e-06,1.1937295509588904e-06,3.4181078670086175e-06,1.3115870423216028e-06,3.2617383563617634e-06,1.5695885586275404e-06,5.221681754472599e-06,1.9954823499460236e-06,1.0510096978636876e-06,1.366513197738502e-06,2.0232338118413954e-06
116,2.067664533398943e-05,4.8345768082911566e-06,1.5459579098668145e-06,7.187119844760473e-06,4.279098506626028e-06,1.3308879523557004e-06,1.152755109360431e-06,3.1186437537926423e-06,1.2692942431444933e-06,3.3161409051491616e-06,1.6254056630986014e-06,4.998347865995178e-06,2.0668938483508916e-06,1.0684580588830644e-06,1.4077582102759992e-06,2.0568062440884503e-06
117,2.1405838604090303e-05,4.670058070338762e-06,1.5043881327268005e-06,6.941883960707577e-06,4.196472444487151e-06,1.3442151020917937e-06,1.1141349322199545e-06,2.8318452455461345e-06,1.2289351697817208e-06,3.3529767934589097e-06,1.6801590036688315e-06,4.836879524279676e-06,2.137820047285386e-06,1.0876004065873949e-06,1.4457412043901378e-06,2.094826662165219e-06
118,2.207033706729716e-05,4.506077904168233e-06,1.465907006190147e-06,6.6900449699931185e-06,4.093312430253306e-06,1.353286162739585e-06,1.0782586889593222e-06,2.5596230565349087e-06,1.1914674349661361e-06,3.3704094219372277e-06,1.7327392846096297e-06,4.741593437159008e-06,2.2070531448946183e-06,1.1082020658691748e-06,1.4803095378936132e-06,2.136091841388681e-06
119,2.2658228052328333e-05,4.344400058442391e-06,1.4310757012346025e-06,6.4355572513939795e-06,3.970632322689249e-06,1.3583538097355698e-06,1.0454871457837645e-06,2.303444686229478e-06,1.1578178893109722e-06,3.3677058536259374e-06,1.7822434342881639e-06,4.716477139147902e-06,2.2734260775255286e-06,1.129939991010402e-06,1.511263463024222e-06,2.179201892325694e-06
120,2.3154714765145727e-05,4.186357885676642e-06,1.4001677619548808e-06,6.181444829748507e-06,3.8301679119377175e-06,1.3596829711404726e-06,1.0162158336849592e-06,2.064447366478543e-06,1.128809720960337e-06,3.3456593905187576e-06,1.8280880060437436e-06,4.765448821149465e-06,2.335963601700022e-06,1.1524384871333318e-06,1.5383077927613374e-06,2.222723910233258e-06
121,2.3542064897114567e-05,4.032731041903849e-06,1.3732545488596486e-06,5.930268965994048e-06,3.6741699406537164e-06,1.3574619477159832e-06,9.908420166243773e-07,1.8434866806958322e-06,1.1051001825777394e-06,3.30641460526909e-06,1.869889556037332e-06,4.892578801712918e-06,2.3939598114537004e-06,1.1752645109340808e-06,1.5610758308822375e-06,2.265436445680265e-06
122,2.3801664007014413e-05,3.883637205392479e-06,1.3503050121542157e-06,5.684847231433113e-06,3.505227978046234e-06,1.351883120345385e-06,9.696593747974557e-07,1.641104251642005e-06,1.08719680522785e-06,3.2528879777148604e-06,1.9072161468515697e-06,5.102205426216914e-06,2.4469722653934672e-06,1.1979410457788416e-06,1.5791360910310584e-06,2.3065577745375906e-06
123,2.3917641707524474e-05,3.7386017886904036e-06,1.3312174615986481e-06,5.448815484850858e-06,3.326048232401055e-06,1.3432449061593112e-06,9.527831869186856e-07,1.4574979201574288e-06,1.07553151096833e-06,3.1881851049483283e-06,1.9394564241350502e-06,5.398926375098386e-06,2.4947810465656095e-06,1.2200106758296116e-06,1.5920376853087386e-06,2.345844900215805e-06
124,2.388031860496599e-05,3.5968201477285482e-06,1.3157724336424044e-06,5.226796486770161e-06,3.1393213237965736e-06,1.3319365533181537e-06,9.401555447446765e-07,1.292561386247348e-06,1.070498692717704e-06,3.1152735730609807e-06,1.9659494390757514e-06,5.787334199726658e-06,2.537331993485708e-06,1.241105294172182e-06,1.5994278960044788e-06,2.383496329202633e-06
125,2.3688217631387305e-05,3.457451404108629e-06,1.3035784728397368e-06,5.024148046507234e-06,2.9477177327652686e-06,1.3183084847881915e-06,9.316039192750182e-07,1.1459805334265104e-06,1.0724037118895736e-06,3.036889007360365e-06,1.9862537524325453e-06,6.271628143733205e-06,2.574634765333293e-06,1.2609426760858604e-06,1.6011645050428517e-06,2.419875873846083e-06
126,2.3348017200634133e-05,3.3198247936674997e-06,1.2940928820070507e-06,4.84642724757963e-06,2.753916941967549e-06,1.3025678195458277e-06,9.268958801346524e-07,1.0173078895288534e-06,1.0813886426229697e-06,2.9554788743390784e-06,2.0003134395879356e-06,6.855457723932289e-06,2.6065843314169873e-06,1.279229130504927e-06,1.5973472958448432e-06,2.455211949835518e-06
127,2.2872403187440524e-05,3.183541716431048e-06,1.2867132024917534e-06,4.698801617426616e-06,2.560561772588927e-06,1.2847940404114479e-06,9.257442208609292e-07,9.05973031093456e-07,1.0974267049641932e-06,2.8730757995020704e-06,2.0083809361096137e-06,7.54199081857139e-06,2.6327594517550524e-06,1.2955641424796117e-06,1.5882932385207088e-06,2.4894193620936704e-06
128,2.2276533318414355e-05,3.048484352535034e-06,1.2808593959074394e-06,4.585671626249893e-06,2.3701023231208805e-06,1.2650075306612758e-06,9.277739613176447e-07,8.112686795323812e-07,1.120372163215814e-06,2.7912154774722524e-06,2.0107796593525142e-06,8.333898627741641e-06,2.652335453289217e-06,1.3094197340943496e-06,1.574494207472207e-06,2.5220094245555444e-06
129,2.15747536024342e-05,2.9147564412287826e-06,1.2759754485877676e-06,4.510641528345053e-06,2.184664844739179e-06,1.2432109755787472e-06,9.325158273018185e-07,7.323481794085767e-07,1.1499927395810265e-06,2.711023791477087e-06,2.007750149564222e-06,9.233092211968075e-06,2.6641815838639885e-06,1.3201534541288765e-06,1.55654024302994e-06,2.552029421277514e-06
130,2.0779414980484622e-05,2.7825895003505965e-06,1.2714723016378309e-06,4.476747664244878e-06,2.0060461430456315e-06,1.2194208793935476e-06,9.394469754314418e-07,6.682515763782072e-07,1.1859567691746632e-06,2.6334205291241864e-06,1.9994615273788287e-06,1.024032140977121e-05,2.6670737900605907e-06,1.3270548790457485e-06,1.5350082854989043e-06,2.578083499944259e-06
131,1.990192276355409e-05,2.6522665391827303e-06,1.2667534800912423e-06,4.486799439326557e-06,1.8357220958349552e-06,1.1937200561041948e-06,9.480307583028857e-07,6.179908143348036e-07,1.227828360775035e-06,2.559321195137834e-06,1.9860323291277868e-06,1.1355081710435382e-05,2.6599607263513776e-06,1.329470266460501e-06,1.5103534776432515e-06,2.598483005136581e-06
132,1.8954317307920724e-05,2.524144902598897e-06,1.2613897891797466e-06,4.543756268780544e-06,1.6748147279768606e-06,1.1663209578664047e-06,9.577287794796081e-07,5.806643995890779e-07,1.27516081887275e-06,2.489735350804938e-06,1.967545217129205e-06,1.2576112611276127e-05,2.642293355877173e-06,1.3269644430527628e-06,1.4828494286679051e-06,2.611523745578499e-06
133,1.7950054156638147e-05,2.398784056504638e-06,1.2552655388660569e-06,4.651045376196818e-06,1.5240962608702708e-06,1.1376140862133265e-06,9.680011574915897e-07,5.555171867361133e-07,1.3276526851578512e-06,2.4257007019636938e-06,1.9441896132621036e-06,1.3902045748163263e-05,2.6143531154305072e-06,1.319443286664551e-06,1.4526228716669649e-06,2.6158553328199596e-06
134,1.6903901469466895e-05,2.277041744419184e-06,1.24851451172513e-06,4.8126973683488635e-06,1.3840490832804544e-06,1.1081689027417153e-06,9.78305803250477e-07,5.419137364770518e-07,1.3851940889548755e-06,2.368131427341439e-06,1.9164354602197698e-06,1.5331625523467157e-05,2.5773666495753278e-06,1.3071734341828873e-06,1.4197549990238491e-06,2.6108074871837983e-06
135,1.5831349507140234e-05,2.1600108953578755e-06,1.2413235434638952e-06,5.033279547029208e-06,1.2549585932517345e-06,1.07865526538219e-06,9.8810185051144e-07,5.392618304597614e-07,1.4477947753027894e-06,2.317743188529132e-06,1.8850387223739132e-06,1.686344645148805e-05,2.533241814341454e-06,1.2906569772751592e-06,1.3843561495234173e-06,2.5964741709374856e-06
136,1.474793213670703e-05,2.0488225358127623e-06,1.2337861711672918e-06,5.317777073557496e-06,1.1369940177509825e-06,1.0497084876868066e-06,9.968600364283463e-07,5.469490364782722e-07,1.5155257667454367e-06,2.2750836866671557e-06,1.8509098705696427e-06,1.8495386983050336e-05,2.4840508522104886e-06,1.2704391726013404e-06,1.3466018992045898e-06,2.5735077528677062e-06
137,1.3668710308599672e-05,1.9444397377677295e-06,1.225862118209457e-06,5.6715836639371214e-06,1.0302156739847733e-06,1.0218213360628812e-06,1.0040568097313676e-06,5.643269913507389e-07,1.5884653184124304e-06,2.240538678875075e-06,1.814968557986587e-06,2.022378476236817e-05,2.4315956814060333e-06,1.247015888282242e-06,1.3068091127397695e-06,2.5428255889295997e-06
138,1.2607941867703222e-05,1.8475748969968581e-06,1.2174329869912985e-06,6.100546348515793e-06,9.34550169106091e-07,9.953075845805314e-07,1.0091587592393012e-06,5.907100656301848e-07,1.6666408495975433e-06,2.2142559954602166e-06,1.7780033512880987e-06,2.2042327128749765e-05,2.377258941602784e-06,1.220885671603494e-06,1.265546843930644e-06,2.505479730923685e-06
139,1.1578827243557458e-05,1.7587766666756107e-06,1.2084322674643295e-06,6.610853906359364e-06,8.498074286185694e-07,9.70317972306285e-07,1.0116940167871739e-06,6.253599036672277e-07,1.7500008446989664e-06,2.1961255240432566e-06,1.7405635945929053e-06,2.3940909412667446e-05,2.322059098871242e-06,1.1926119618755783e-06,1.2236405208135991e-06,2.462715955251731e-06
140,1.0593209566485818e-05,1.6785506453896611e-06,1.1989352063931917e-06,7.208707919466693e-06,7.757056289682269e-07,9.469049558820074e-07,1.0114354142269262e-06,6.674945977198524e-07,1.8383335075213896e-06,2.1859279517549134e-06,1.7029920387303793e-06,2.5905194365151513e-05,2.26670757620726e-06,1.1627644627826976e-06,1.1819992327309732e-06,2.416021571849531e-06
141,9.661211311516419e-06,1.6073389142188993e-06,1.1891063144462352e-06,7.899958226380793e-06,7.118580994660118e-07,9.251297734089242e-07,1.008527158289719e-06,7.163472337197401e-07,1.9311251104073503e-06,2.1834843097594896e-06,1.6656154461347775e-06,2.7917320654821967e-05,2.2115842767915733e-06,1.1317877912173533e-06,1.1414052815820857e-06,2.3670031045780413e-06
142,8.790926452170021e-06,1.5453941725497372e-06,1.1790668023557385e-06,8.68989139928429e-06,6.577470397729908e-07,9.051477232715861e-07,1.0034303346638751e-06,7.71209820077345e-07,2.0274740398435013e-06,2.1885801441320042e-06,1.6289284207299755e-06,2.995701781051567e-05,2.1567287578931184e-06,1.0999477166565724e-06,1.1024306282158625e-06,2.3171609032388254e-06
143,7.988296946841872e-06,1.492721137371735e-06,1.1688345316817122e-06,9.583161286212182e-06,6.127202140522512e-07,8.872143123343563e-07,9.96780766879903e-07,8.314058364250213e-07,2.126105912395074e-06,2.2007806824725836e-06,1.5935997550702137e-06,3.200188898857659e-05,2.101966736493437e-06,1.0673983981813466e-06,1.0654742552620981e-06,2.267730436045002e-06
144,7.257188848754624e-06,1.4491451381681238e-06,1.1583935494510825e-06,1.0583726997069568e-05,5.760330441155244e-07,8.716192576896335e-07,9.892823156472972e-07,8.962619556738662e-07,2.2254894840246792e-06,2.219377820330418e-06,1.5603215427079676e-06,3.402658824447509e-05,2.0471500192808987e-06,1.03429681038804e-06,1.0307990704698428e-06,2.2196695624441667e-06
145,6.59960638015509e-06,1.4143951623873272e-06,1.1477716956033439e-06,1.1694741451107588e-05,5.46942600168767e-07,8.586082162866758e-07,9.816260054501206e-07,9.651335192184837e-07,2.3240559766676287e-06,2.2434533212503475e-06,1.5296961152008643e-06,3.6001941068960595e-05,1.99236096005046e-06,1.0008888835619664e-06,9.985228062123518e-07,2.173828242507054e-06
146,6.0159565417744264e-06,1.388079879385138e-06,1.137002712874805e-06,1.2918460439212166e-05,5.247968599299646e-07,8.483713070106109e-07,9.743939118224162e-07,1.0373988524172284e-06,2.42047172977238e-06,2.2719872835989062e-06,1.5022583764256936e-06,3.789527485899386e-05,1.937948262632699e-06,9.675234571648992e-07,9.686427899064189e-07,2.131290816039075e-06
147,5.505268723740394e-06,1.3696084971778183e-06,1.1260542711988051e-06,1.425623436950147e-05,5.090297804821799e-07,8.411073269108956e-07,9.67976239443721e-07,1.1124066531749657e-06,2.513853642262189e-06,2.304050792026974e-06,1.4784989739356634e-06,3.967221683746416e-05,1.8844043678440022e-06,9.346067647516428e-07,9.411143044494725e-07,2.0936156545788716e-06
148,5.065388645016286e-06,1.3581923849602443e-06,1.1148458667736276e-06,1.5708496801503276e-05,4.990711496547092e-07,8.370762059084527e-07,9.625388225699637e-07,1.1894495950835801e-06,2.6038449914200045e-06,2.3390220486771206e-06,1.4587868474740589e-06,4.129953962225012e-05,1.8322175579439507e-06,9.025715155954331e-07,9.158825251157878e-07,2.0626797289241264e-06
149,4.693276354684102e-06,1.352959164259811e-06,1.1033183260300424e-06,1.7274515121522804e-05,4.942663916584204e-07,8.365765583402686e-07,9.580357182303658e-07,1.2677385608675598e-06,2.6905827457669973e-06,2.376628486257267e-06,1.44326639723401e-06,4.274875127570535e-05,1.7818164956556715e-06,8.718730252427018e-07,8.92827823804119e-07,2.040306523932213e-06
150,4.385412114773903e-06,1.3531263794564306e-06,1.0914870615695348e-06,1.895169197887919e-05,4.938533038677876e-07,8.398730506136645e-07,9.542374570303227e-07,1.34635883529019e-06,2.7746005630842274e-06,2.416717284342011e-06,1.4318123744730037e-06,4.3999279359361046e-05,1.7336109564918559e-06,8.429546059639919e-07,8.71690016841671e-07,2.028031019227935e-06
151,4.138175183396317e-06,1.358145644743415e-06,1.0794612048368462e-06,2.0734474846781245e-05,4.969959075682869e-07,8.471221311780363e-07,9.507576760474933e-07,1.4242935820541445e-06,2.8566116696157233e-06,2.458915349647477e-06,1.4240386718746283e-06,4.503830435305926e-05,1.6880485719971207e-06,8.162157907939277e-07,8.520452522227887e-07,2.027049326594511e-06
152,3.948119196573762e-06,1.3677039739300843e-06,1.0674023010597494e-06,2.2613224486228382e-05,5.02894374288081e-07,8.583285843757214e-07,9.4712857725944e-07,1.500587193974567e-06,2.9371927379087404e-06,2.5024543131274458e-06,1.4193339065028935e-06,4.5856147621293996e-05,1.645613043155931e-06,7.920340054360234e-07,8.333952558521492e-07,2.038248823731493e-06
153,3.812137601287945e-06,1.3815923959196464e-06,1.0554637165259388e-06,2.457334819135028e-05,5.10954283415071e-07,8.73355289175502e-07,9.42966881811011e-07,1.5746041194459194e-06,3.0165937437071564e-06,2.546279134641414e-06,1.4169492254230577e-06,4.644214191831911e-05,1.606736466939044e-06,7.707715087464111e-07,8.15362043481687e-07,2.062260919124601e-06
154,3.7275195224571058e-06,1.3996499894873223e-06,1.0437966964278708e-06,2.6594693526560013e-05,5.208982438940164e-07,8.919833974060284e-07,9.381230522142747e-07,1.6462283184297962e-06,3.094817490706568e-06,2.5893132184274423e-06,1.4161619189317668e-06,4.678617188539945e-05,1.5716632478210435e-06,7.527226969012735e-07,7.978635310134003e-07,2.0994815308887295e-06
155,3.6919425380616357e-06,1.421894864860358e-06,1.0325857381179877e-06,2.8651115808303367e-05,5.327157429913688e-07,9.139788780997458e-07,9.326773604870719e-07,1.7158905644549463e-06,3.1718421609319526e-06,2.630652926492445e-06,1.416436709041981e-06,4.6884019092333577e-05,1.5403529325084896e-06,7.380582149732934e-07,7.811537581661845e-07,2.150033166102971e-06
156,3.703491131852192e-06,1.4486655316327063e-06,1.0220247953715577e-06,3.07104971627551e-05,5.465098598964494e-07,9.391055536321815e-07,9.268118170623109e-07,1.784431949702952e-06,3.2478108012429995e-06,2.669597679242393e-06,1.4174771524267957e-06,4.6742201848513395e-05,1.512475376961321e-06,7.268114008076827e-07,7.657280085081019e-07,2.2137197382764825e-06
157,3.7607372858309536e-06,1.4806171663591888e-06,1.0122745237804503e-06,3.273589893104504e-05,5.623744458606233e-07,9.670663980166693e-07,9.206779169928151e-07,1.8528558648805063e-06,3.323101773166456e-06,2.7056137396738337e-06,1.4191390993275988e-06,4.638074649070626e-05,1.4874494621924838e-06,7.188903493859586e-07,7.521660067566707e-07,2.290001422109937e-06
158,3.862834399937257e-06,1.5186218110823163e-06,1.003480270572683e-06,3.468837919790494e-05,5.803383040686116e-07,9.974335834134117e-07,9.143152658129529e-07,1.9220533057393582e-06,3.3982309594343772e-06,2.7383438047039278e-06,1.4212740932292342e-06,4.583268429450978e-05,1.4644507000710752e-06,7.140783057609736e-07,7.41001745966747e-07,2.3779439948111665e-06
159,4.0095477290809875e-06,1.5636341476557685e-06,9.958154084911242e-07,3.653123343648954e-05,6.003506969990221e-07,1.0296413552107236e-06,9.076236785181064e-07,1.9926253943830836e-06,3.4736082055734884e-06,2.7676654877788947e-06,1.4236685418077718e-06,4.5139128232160956e-05,1.4424416089217087e-06,7.120216893635064e-07,7.326653352590886e-07,2.476175952304815e-06
160,4.201155033582918e-06,1.6165306544307899e-06,9.894651406705994e-07,3.8234528357202614e-05,6.223050311900968e-07,1.0630273639634852e-06,9.003943770275209e-07,2.0648377923375837e-06,3.5492905953804863e-06,2.793749447423888e-06,1.426194774956262e-06,4.43417532243697e-05,1.420333413263122e-06,7.12250414810001e-07,7.274723988306459e-07,2.582978376640558e-06
161,4.4382066673278296e-06,1.6779742987328883e-06,9.845536842282548e-07,3.977843291636176e-05,6.460807638703271e-07,1.0968842623962381e-06,8.923883824644814e-07,2.1386122058795673e-06,3.624888803507943e-06,2.8170785056687803e-06,1.4290306103663365e-06,4.34769485821402e-05,1.3972301545959017e-06,7.142621740611085e-07,7.256260327117672e-07,2.696534418995026e-06
162,4.721252394118859e-06,1.748375052095529e-06,9.811088471566622e-07,4.115419187904867e-05,6.715495180377731e-07,1.1305419546622031e-06,8.834065633499619e-07,2.2135222401665236e-06,3.699633390089464e-06,2.838400849915118e-06,1.4326894975045788e-06,4.2574616616495076e-05,1.372597896436991e-06,7.176333673970659e-07,7.272183486121717e-07,2.815193849022926e-06
163,5.050677577359838e-06,1.8279196356515302e-06,9.79112905392596e-07,4.236222048033771e-05,6.985280684327338e-07,1.1634304274710544e-06,8.73305544210919e-07,2.288892659121122e-06,3.7724910461981128e-06,2.8585808323050894e-06,1.4378380203749189e-06,4.166098751826404e-05,1.3462816573385093e-06,7.220729418602569e-07,7.322508530077856e-07,2.9375567985178758e-06
164,5.426640382386571e-06,1.9165792916606645e-06,9.78565393293195e-07,4.340742303658161e-05,7.26739799633441e-07,1.195008477189251e-06,8.620299223107801e-07,2.364050690517895e-06,3.84228631813296e-06,2.8783532852285076e-06,1.4450979846832763e-06,4.0762373077039944e-05,1.3184124348112013e-06,7.273911116034718e-07,7.407089718072221e-07,3.0622966573311496e-06
165,5.848952280101259e-06,2.014093866148409e-06,9.794892115356296e-07,4.42933173102674e-05,7.558618741696963e-07,1.2246308913293012e-06,8.497318564929799e-07,2.4386055569161378e-06,3.907846142722479e-06,2.8981403212719097e-06,1.4549329209189425e-06,3.990698970138051e-05,1.2892863655795866e-06,7.334473469381493e-07,7.526390413576514e-07,3.187855489235471e-06
166,6.316806713027452e-06,2.1200240216564304e-06,9.819199420947421e-07,4.501862127605035e-05,7.856530065170254e-07,1.2515805251267858e-06,8.368473824654681e-07,2.512560703149275e-06,3.968072356592439e-06,2.9180731398957358e-06,1.467566224514521e-06,3.9123896379686546e-05,1.2592524701972358e-06,7.401206976902002e-07,7.68136808219794e-07,3.3123157775939446e-06
167,6.828438016649203e-06,2.233897566192441e-06,9.85922497008454e-07,4.5578736648288765e-05,8.160669598513489e-07,1.2753107876408947e-06,8.239942120033298e-07,2.5861997423178906e-06,4.0217941882570456e-06,2.9380711261280243e-06,1.4829408926440857e-06,3.844015324401592e-05,1.2286310686608663e-06,7.472799893353227e-07,7.872817019797936e-07,3.4336406346974e-06
168,7.380847548457838e-06,2.355352157977953e-06,9.915969884641675e-07,4.5970084135320945e-05,8.472598307534023e-07,1.2956814443539418e-06,8.117871247088717e-07,2.659904366599881e-06,4.067520007351621e-06,2.957797012896785e-06,1.5008213624172244e-06,3.787799569021174e-05,1.1977214754544629e-06,7.547490161888163e-07,8.100936254594491e-07,3.5501182834070896e-06
169,7.969630974018742e-06,2.484170362925329e-06,9.990362745469232e-07,4.6193724961781975e-05,8.794905527950205e-07,1.3129763047802802e-06,8.007245632144603e-07,2.734125542245656e-06,4.103448053894449e-06,2.9766436472176765e-06,1.5210065512273268e-06,3.745301343300898e-05,1.1668779469177581e-06,7.622865127468306e-07,8.364991908952366e-07,3.660672517783426e-06
170,8.58882431250899e-06,2.6201858842153615e-06,1.0082841191707388e-06,4.6256993355111084e-05,9.129936954272528e-07,1.3277047024356889e-06,7.911613673720095e-07,2.809580691405974e-06,4.12783959927464e-06,2.993889350059082e-06,1.5434445612365713e-06,3.717372887488423e-05,1.136528438209549e-06,7.695848935170985e-07,8.662897129954988e-07,3.764845217342062e-06
171,9.230712168898931e-06,2.7631041093271616e-06,1.0193548630395003e-06,4.617361431385188e-05,9.478908789760801e-07,1.3403402932063233e-06,7.83313120055733e-07,2.8875382725539106e-06,4.139437412944764e-06,3.008775313872459e-06,1.5681766365343169e-06,3.704250400978065e-05,1.1071211927037403e-06,7.762881250118631e-07,8.990965314075896e-07,3.862506370237141e-06
172,9.885727209986759e-06,2.9123582477641623e-06,1.03226764444255e-06,4.596292035528618e-05,9.841575227313434e-07,1.3511409813574148e-06,7.772851431093901e-07,2.9699539081976022e-06,4.1376085061682234e-06,3.020359143374015e-06,1.5952645233666485e-06,3.7056349045960896e-05,1.079097634604534e-06,7.820743297983176e-07,9.343899570403178e-07,3.95351469770117e-06
173,1.0542652513662706e-05,3.0671593044569063e-06,1.0470262256873889e-06,4.5648521160243325e-05,1.0216557852822383e-06,1.3600860693585292e-06,7.731330376258785e-07,3.0593237076463016e-06,4.122230091721334e-06,3.0273731019771437e-06,1.624747478321103e-06,3.720642351964617e-05,1.0528888703853712e-06,7.868147619378851e-07,9.71510313575871e-07,4.037462392837266e-06
174,1.1189197278984888e-05,3.226731788273021e-06,1.0636204443450566e-06,4.5256556054776885e-05,1.0602086129841266e-06,1.3668919622044903e-06,7.709029907988281e-07,3.1583150163531803e-06,4.093543500428814e-06,3.0282106273694976e-06,1.6565455798388394e-06,3.747750505908618e-05,1.028888589994037e-06,7.9065366334591e-07,1.009761404344993e-06,4.113437491599422e-06
175,1.181286619412936e-05,3.3905363682246494e-06,1.0821336632480843e-06,4.481340293448579e-05,1.0996217619694037e-06,1.3710976842902133e-06,7.705993348509919e-07,3.2693675497247166e-06,4.0520596561265695e-06,3.020980311833257e-06,1.6903730755607384e-06,3.78485648056645e-05,1.007432349738824e-06,7.938885094109906e-07,1.048517613035476e-06,4.179817654926398e-06
176,1.2401935210542207e-05,3.5583379464289024e-06,1.1028460477428084e-06,4.4342661945218355e-05,1.1396150354841863e-06,1.3722383260750525e-06,7.721164010777353e-07,3.3944820559446536e-06,3.9984051555074285e-06,3.0037246102342587e-06,1.7257670143969834e-06,3.829318245371449e-05,9.887952893872532e-07,7.967855662261369e-07,1.087223683740167e-06,4.23431925578858e-06
177,1.2946306103578543e-05,3.7301487664718636e-06,1.1261922632339915e-06,4.386189750375539e-05,1.1797481497292477e-06,1.3700685278899835e-06,7.752154556096468e-07,3.535258106868194e-06,3.93304909148214e-06,2.9748909050201382e-06,1.7621409865701913e-06,3.877969149617627e-05,9.731955997117369e-07,7.995087953079788e-07,1.1252819319076969e-06,4.274438134263562e-06
178,1.3438139064960133e-05,3.906145919411623e-06,1.1526171359589107e-06,4.338059091984178e-05,1.2194556700828981e-06,1.3647285619083844e-06,7.795514790991986e-07,3.6930371105725466e-06,3.856083857239008e-06,2.9338147025891283e-06,1.7987527310139392e-06,3.9273096054028604e-05,9.608111097826463e-07,8.021711844457864e-07,1.1619560023276738e-06,4.298110225079434e-06
179,1.387226510679546e-05,4.086630772943445e-06,1.1824633489149427e-06,4.290021838000149e-05,1.2582153520994174e-06,1.3567461608412386e-06,7.846988022078965e-07,3.869015706783392e-06,3.767392649188386e-06,2.8808777159051805e-06,1.8346716748985465e-06,3.973910338668961e-05,9.518035759813347e-07,8.049290419870467e-07,1.1963805586300029e-06,4.304248307748051e-06
180,1.4246305120553156e-05,4.272002804220168e-06,1.215922641034791e-06,4.2415489328321447e-05,1.2957335116462313e-06,1.3468601722925998e-06,7.901977960958138e-07,4.064275480271198e-06,3.667288927540281e-06,2.817297105259825e-06,1.8688467467972676e-06,4.0148461844163596e-05,9.463823781591814e-07,8.080394241371936e-07,1.2276878746309391e-06,4.2929178455083174e-06
181,1.4560330358658137e-05,4.462620191945048e-06,1.2530081795683187e-06,4.191538147849236e-05,1.332001491424408e-06,1.3357717093924528e-06,7.956503636141618e-07,4.279657788700444e-06,3.5571904078489913e-06,2.744774165910499e-06,1.9002212261810566e-06,4.0479729242543904e-05,9.449144456565741e-07,8.118311832026664e-07,1.255218827669532e-06,4.2651593608247715e-06
182,1.4815893181258043e-05,4.658482358010266e-06,1.2935679433491267e-06,4.138403265464462e-05,1.3672016381078546e-06,1.3239770449630922e-06,8.007695529964717e-07,4.5155021316718475e-06,3.439789405509122e-06,2.6652095463424033e-06,1.9278379458767857e-06,4.071920225484018e-05,9.479618129551257e-07,8.166320073884984e-07,1.2786933846028468e-06,4.222611760523052e-06
183,1.5014519423105184e-05,4.858895570562844e-06,1.3373546616283522e-06,4.080255993496139e-05,1.4015450750405864e-06,1.3117737970837798e-06,8.05330640421862e-07,4.771446922261302e-06,3.3186534863361845e-06,2.5805217578612743e-06,1.950914376313707e-06,4.085764124655423e-05,9.56187540076188e-07,8.227374125048241e-07,1.2981835398917275e-06,4.167071746337537e-06
184,1.5156477175338724e-05,5.062327661816404e-06,1.3840714869095342e-06,4.0152491389314416e-05,1.4351175210207288e-06,1.2993812179854122e-06,8.091345520394979e-07,5.046382019347586e-06,3.1976274571816857e-06,2.492523883583998e-06,1.968817486176392e-06,4.088551949276924e-05,9.702250639829176e-07,8.30412578499474e-07,1.3138957010181689e-06,4.100067336479246e-06
185,1.5240926437808872e-05,5.26645553612257e-06,1.4333626406763688e-06,3.94201422300118e-05,1.4677709124430028e-06,1.28701018813392e-06,8.120657179704975e-07,5.3383861234883375e-06,3.0803966412565427e-06,2.4028225274140926e-06,1.9809813965691456e-06,4.079152819294926e-05,9.905907816008227e-07,8.3985659498137e-07,1.3259396299901118e-06,4.022553586573839e-06
186,1.5267514420940935e-05,5.468319591803329e-06,1.4848432741391862e-06,3.860003979475877e-05,1.499091322399339e-06,1.2748241112289079e-06,8.141871895210467e-07,5.644590500054712e-06,2.9702734188731843e-06,2.312726185928848e-06,1.9869815681907195e-06,4.056743692642621e-05,1.0176559094029912e-06,8.51142095219742e-07,1.334232458024171e-06,3.934874427310873e-06
187,1.523834936455831e-05,5.664550023436974e-06,1.5381834519372624e-06,3.769557209993725e-05,1.5284678021864207e-06,1.2629085890947952e-06,8.15768239218879e-07,5.961147434989976e-06,2.870077025002172e-06,2.2232269906281266e-06,1.9867790620575307e-06,4.021495967045971e-05,1.0516625859580611e-06,8.642062138313576e-07,1.3385587609521032e-06,3.837006801662481e-06
188,1.5159395212603546e-05,5.851626727891257e-06,1.5931257082080858e-06,3.6716374799638406e-05,1.5552416845939467e-06,1.2513198149853383e-06,8.171992247559068e-07,6.283373707247492e-06,2.782034533495522e-06,2.1351425428692075e-06,1.980831986929349e-06,3.974740766635324e-05,1.0927321395630988e-06,8.788968621677041e-07,1.3387113559918641e-06,3.728951902183334e-06
189,1.5040991875756193e-05,6.0261371534325325e-06,1.6494022787946927e-06,3.5673623504644964e-05,1.5788562765758082e-06,1.2401377951342308e-06,8.188731570450161e-07,6.605870948993387e-06,2.7077255648864567e-06,2.0493511967915606e-06,1.9699006912998836e-06,3.9184724326087054e-05,1.1408669383181239e-06,8.950056808819057e-07,1.334600584354904e-06,3.611162881405511e-06
190,1.4897547026878411e-05,6.1850258950387175e-06,1.706658494770423e-06,3.4575859579206195e-05,1.5989133199218382e-06,1.2294862566282356e-06,8.211262019416764e-07,6.922413474000296e-06,2.64808672100268e-06,1.966936755996421e-06,1.954718627946652e-06,3.854664828141251e-05,1.1959905027079456e-06,9.122642116445223e-07,1.3262518874220845e-06,3.4849173147054436e-06
191,1.4746567039995419e-05,6.3257997203669485e-06,1.764451728849359e-06,3.342814681199377e-05,1.6151076058854096e-06,1.219550525555971e-06,8.242131129452409e-07,7.225724070561912e-06,2.603475608542317e-06,1.8891344012850071e-06,1.935755751615213e-06,3.784915707365589e-05,1.2579752467862226e-06,9.303308899486309e-07,1.3137196383268062e-06,3.3524620102058723e-06
192,1.4607305887714959e-05,6.446625575323939e-06,1.822281253669472e-06,3.223478343562663e-05,1.627091115241637e-06,1.210567489763011e-06,8.282818918998471e-07,7.507543684517288e-06,2.573801096222838e-06,1.817115899335888e-06,1.913148881484299e-06,3.710542276485706e-05,1.3265905627822654e-06,9.487802195616129e-07,1.2970393520340616e-06,3.216789119534444e-06
193,1.4499327670676089e-05,6.546316231909448e-06,1.879595968157615e-06,3.10029231710496e-05,1.6343516984823824e-06,1.2027462822671884e-06,8.333740026048288e-07,7.759270662103676e-06,2.5587214870272307e-06,1.751760271024583e-06,1.886802963991289e-06,3.6328633539138755e-05,1.40142247860023e-06,9.671057542377193e-07,1.2762514640255813e-06,3.081123295776701e-06
194,1.444117570140532e-05,6.624250290065557e-06,1.935812808175868e-06,2.9744813303596414e-05,1.6362211232845518e-06,1.196180259535177e-06,8.394500292498251e-07,7.973083894779835e-06,2.5578751855317615e-06,1.6935502552207514e-06,1.8566337136180977e-06,3.5533295194734935e-05,1.4818462847020117e-06,9.847357554675523e-07,1.2514517311063532e-06,2.9484245704497855e-06
195,1.4449289518581304e-05,6.680222020889069e-06,1.990400618122206e-06,2.8478335166258328e-05,1.632077636575653e-06,1.1908455218045883e-06,8.464055107354091e-07,8.143175252547854e-06,2.571052688307318e-06,1.642603313257693e-06,1.8228043042018447e-06,3.473370025900584e-05,1.5670784312042205e-06,1.0010353033438692e-06,1.2229096936867805e-06,2.821139693061744e-06
196,1.453728122295064e-05,6.714103218679799e-06,2.0429843297644874e-06,2.7226320228938625e-05,1.6216244914174977e-06,1.1866624117522838e-06,8.540728730593691e-07,8.266567245559669e-06,2.598232310351126e-06,1.5987344697607447e-06,1.7857655090426469e-06,3.394076487647424e-05,1.6562900597650198e-06,1.0153407019350807e-06,1.1912113690372942e-06,2.7011390515685312e-06
197,1.4715546325657745e-05,6.725330961213609e-06,2.0933287192391026e-06,2.6014937244252835e-05,1.6050534671562062e-06,1.1835040860748211e-06,8.622289442863422e-07,8.3430773278778e-06,2.6394917475182433e-06,1.5614744706210682e-06,1.7461341899434102e-06,3.315971055898172e-05,1.7487361172228575e-06,1.0270550247664178e-06,1.1572373448694794e-06,2.589728958452769e-06
198,1.4991103314669861e-05,6.712679575419114e-06,2.141161738274413e-06,2.4871337574518946e-05,1.5830352649795023e-06,1.1811224662450096e-06,8.706394489656141e-07,8.374343758275407e-06,2.6948786441150625e-06,1.530080099039274e-06,1.7046606007638774e-06,3.239046293094463e-05,1.8438858803259218e-06,1.0356952375380866e-06,1.121973011199614e-06,2.487777719129043e-06
199,1.5367560982671158e-05,6.6746635681345205e-06,2.1860377339406444e-06,2.3821012063015247e-05,1.5566034084949831e-06,1.1790968953479223e-06,8.791376695581239e-07,8.362375679677934e-06,2.7643292613050654e-06,1.5035965416279717e-06,1.6622977831722895e-06,3.16308359952893e-05,1.9415261134235365e-06,1.0408917526507428e-06,1.0863552729892702e-06,2.3959296247393434e-06
200,1.584508728902797e-05,6.61017984486543e-06,2.227415034017584e-06,2.288568896005264e-05,1.5270077455162973e-06,1.1768918975377376e-06,8.876575028378225e-07,8.308566194098343e-06,2.8476667631415647e-06,1.4809846410149327e-06,1.6201516442512404e-06,3.0880944195485655e-05,2.0417186012871754e-06,1.0424505897536357e-06,1.0512333298863648e-06,2.314753910289609e-06
201,1.642033795498638e-05,6.518910821425696e-06,2.2648433412307312e-06,2.208257067419795e-05,1.4955605424726301e-06,1.173975556843031e-06,8.961947490734734e-07,8.21382187804908e-06,2.9446395336774916e-06,1.4613621270444976e-06,1.5793650892494355e-06,3.014617214228801e-05,2.1445726784638674e-06,1.040402331007337e-06,1.0173498890293957e-06,2.2447445745824457e-06
202,1.708642909519571e-05,6.401493417333135e-06,2.2981029587718893e-06,2.142485685596685e-05,1.4634724953855746e-06,1.1698968753681425e-06,9.047675225325138e-07,8.079449864672073e-06,3.0549237557311013e-06,1.4443192395139274e-06,1.5411040946624886e-06,2.9436332541088877e-05,2.2499821331573448e-06,1.034969452486564e-06,9.853055141521284e-07,2.1862107697209207e-06
203,1.7832941854083597e-05,6.259560291165295e-06,2.3272760386267686e-06,2.092255123729258e-05,1.4317135074877925e-06,1.1642775846380924e-06,9.134114224051036e-07,7.907928747642578e-06,3.178027509772554e-06,1.4300660425234904e-06,1.5065456031938755e-06,2.8761747380345537e-05,2.3574719283018683e-06,1.026554238450687e-06,9.555443587677904e-07,2.1391628405082804e-06
204,1.8645785471331866e-05,6.095663763348749e-06,2.3527648666399478e-06,2.0582685845631058e-05,1.4009518091452499e-06,1.1567497219901842e-06,9.221873526300604e-07,7.703124816173533e-06,3.3131667483081065e-06,1.4192877907723476e-06,1.4767697482877912e-06,2.813040931296891e-05,2.466149934076326e-06,1.0157461227709386e-06,9.28372728854171e-07,2.1032859569585844e-06
205,1.9506861906727812e-05,5.913135999798953e-06,2.375251342994461e-06,2.0408923205959873e-05,1.3715840414012746e-06,1.1469581308814732e-06,9.311690221263319e-07,7.470069425475322e-06,3.4593108495759607e-06,1.4128597286169389e-06,1.4526638672215813e-06,2.754873947119306e-05,2.57469483079871e-06,1.0032392247749964e-06,9.040035179835346e-07,2.077970734747407e-06
206,2.0393886853765124e-05,5.71595277643646e-06,2.3956143974839417e-06,2.0401148930906646e-05,1.3438290010836892e-06,1.134693492698065e-06,9.403953827529453e-07,7.214519684145307e-06,3.615407758979129e-06,1.4115960287115659e-06,1.434928950294158e-06,2.7023595194200707e-05,2.6813262816994387e-06,9.89690754463788e-07,8.825925014373247e-07,2.062300013707033e-06
207,2.1281033800310002e-05,5.508585278015892e-06,2.4148752389125413e-06,2.0555746268411994e-05,1.3178426496210146e-06,1.1199983719862345e-06,9.498404543633267e-07,6.942411931678105e-06,3.78047622427562e-06,1.4161045137107708e-06,1.4241264920106783e-06,2.6562441114620292e-05,2.7837428508644563e-06,9.756481219615954e-07,8.642258931157666e-07,2.055005680346083e-06
208,2.214079964368273e-05,5.295757505954351e-06,2.434254652087629e-06,2.0866559198574676e-05,1.2938123822604735e-06,1.1030953830866152e-06,9.594576227009565e-07,6.659336858491553e-06,3.953380668411585e-06,1.426755972773509e-06,1.4206678384270406e-06,2.617153187806976e-05,2.879108987452691e-06,9.615684090607739e-07,8.488966083213238e-07,2.054516098931841e-06
209,2.2946714152851724e-05,5.082048951270484e-06,2.455331111686482e-06,2.132593802071427e-05,1.2719921800270338e-06,1.084239751414779e-06,9.692457291216646e-07,6.370214944903572e-06,4.132594041320306e-06,1.4437691362223475e-06,1.4247542325672068e-06,2.5853898924341578e-05,2.9642433515951323e-06,9.478526535496973e-07,8.365413135033668e-07,2.0591428305216995e-06
210,2.3675960551398058e-05,4.871434736085373e-06,2.480156198226969e-06,2.1925430394985267e-05,1.2526515016914224e-06,1.0636669760496416e-06,9.792533202829223e-07,6.079197293492011e-06,4.316253089445901e-06,1.4673758436218222e-06,1.436337588887236e-06,2.560893803568558e-05,3.036107351440495e-06,9.348542212783405e-07,8.271190331781262e-07,2.0673307046568034e-06
211,2.4311134898338348e-05,4.667037198676312e-06,2.51118755753973e-06,2.2656091175358893e-05,1.2359782953232323e-06,1.0416453296586855e-06,9.895356839063606e-07,5.789631488100039e-06,4.502340931963635e-06,1.4979053037068684e-06,1.4551111924524714e-06,2.543386544994803e-05,3.0924904808770063e-06,9.228866924789449e-07,8.206299098372929e-07,2.0778458768935133e-06
212,2.4840838528941882e-05,4.471244883236452e-06,2.5510567763433316e-06,2.3508523194224126e-05,1.2220294126272034e-06,1.0185154844562961e-06,1.0001435489890117e-06,5.503988360671939e-06,4.688770875113315e-06,1.5356869143190616e-06,1.4805030818557374e-06,2.5325674610498955e-05,3.132531821238825e-06,9.122282261571629e-07,8.170380150164393e-07,2.089802570366399e-06
213,2.5258907216589925e-05,4.286025123957468e-06,2.60230775894099e-06,2.447272395393862e-05,1.2107375148416842e-06,9.946447365152044e-07,1.0111838350832789e-06,5.2238300497161375e-06,4.8734268363942804e-06,1.5809383493243072e-06,1.5116726427212214e-06,2.52820784617904e-05,3.156695091250295e-06,9.030892096777455e-07,8.161879892628096e-07,2.1025430706057035e-06
214,2.556204326644305e-05,4.113196783764565e-06,2.6671925185495984e-06,2.5537798849909023e-05,1.2019192413585013e-06,9.703765278733474e-07,1.0229003019431071e-06,4.949914482001031e-06,5.054284229914522e-06,1.6338091157510214e-06,1.5475010567660774e-06,2.5301084778469283e-05,3.166192650863614e-06,8.955758495578226e-07,8.177997073006088e-07,2.115504240128068e-06
215,2.574676650735484e-05,3.954588759419222e-06,2.7475332849608128e-06,2.6691625083826943e-05,1.1953094669008408e-06,9.46076856210183e-07,1.0356757794779746e-06,4.682343997904629e-06,5.229594271329198e-06,1.6944897394618877e-06,1.5865640366137624e-06,2.5380374492740333e-05,3.1623143334336004e-06,8.89689274655843e-07,8.215083916619735e-07,2.128172393310831e-06
216,2.5808364262323447e-05,3.8120791441093927e-06,2.8446907166577167e-06,2.7920475386643645e-05,1.1906288649603187e-06,9.222104005217236e-07,1.049931481144136e-06,4.4206171802410085e-06,5.397970336211853e-06,1.7632402263271526e-06,1.6271275336424106e-06,2.5517947450584164e-05,3.1461095578597305e-06,8.85333131059306e-07,8.268781725584679e-07,2.1400941617208428e-06
217,2.5743247852346564e-05,3.6875083087354032e-06,2.9596742507213428e-06,2.9208395468833644e-05,1.1875918988377185e-06,8.993153348720389e-07,1.0660132216780474e-06,4.163748759555916e-06,5.558228656356967e-06,1.8403269030276292e-06,1.6672387898817798e-06,2.5713603719511014e-05,3.1184073100677026e-06,8.823296795728134e-07,8.333922814668091e-07,2.1508625763547347e-06
218,2.555249437487269e-05,3.5824734607855704e-06,3.093316885493953e-06,3.0536041083186786e-05,1.1858678642237552e-06,8.778917020395016e-07,1.0841573449677036e-06,3.910737566153875e-06,5.708981710792159e-06,1.925898426346672e-06,1.7049670661776935e-06,2.5969106316817185e-05,3.0799125844828162e-06,8.804636499757295e-07,8.404891541646866e-07,2.16007159745952e-06
219,2.5243411969407043e-05,3.4980642340539624e-06,3.2463896997643705e-06,3.187925188297504e-05,1.1851157652989416e-06,8.583194425516605e-07,1.1045208477346155e-06,3.6611849723255998e-06,5.848164754286114e-06,2.0198412835519576e-06,1.7387206009346597e-06,2.62863008543018e-05,3.031311902953809e-06,8.795201654335645e-07,8.476638443809833e-07,2.1672623466930063e-06
220,2.4827819357619236e-05,3.4346500293841826e-06,3.419595741138961e-06,3.320846826849579e-05,1.1850919563118815e-06,8.408572980339235e-07,1.1271983823250165e-06,3.415565917087847e-06,5.972866404084418e-06,2.121695085175093e-06,1.7674018026766476e-06,2.6664966288124982e-05,2.9734367628121576e-06,8.792984491025506e-07,8.545437309335917e-07,2.171850868904676e-06
221,2.4318215783754783e-05,3.391789324916671e-06,3.6134554776850798e-06,3.448960705155069e-05,1.185741082998446e-06,8.256853562979883e-07,1.1522049141184876e-06,3.1750516637390943e-06,6.0797031371288585e-06,2.2306601682561246e-06,1.790337126922819e-06,2.7101885252002183e-05,2.9073942631588517e-06,8.79611621829643e-07,8.608729716240835e-07,2.1731012385910287e-06
222,2.3725099269288767e-05,3.3682332306377093e-06,3.828135858686415e-06,3.5685694725636714e-05,1.1872296699947097e-06,8.129361106012102e-07,1.1794627507115706e-06,2.941197690262612e-06,6.165476454671226e-06,2.34562393798031e-06,1.8072337972394729e-06,2.7591318420748923e-05,2.8345309463785775e-06,8.802788909171216e-07,8.664728795986283e-07,2.170234696153481e-06
223,2.3057361133283332e-05,3.361978802186034e-06,4.063282686808425e-06,3.675881640080202e-05,1.1899020240993982e-06,8.026838186609731e-07,1.2087952196123067e-06,2.715712878598302e-06,6.227683218289699e-06,2.465121890140811e-06,1.8182001965943025e-06,2.812684580001972e-05,2.756229612852355e-06,8.811384755245637e-07,8.712613267575977e-07,2.1626182098951856e-06
224,2.2324098685973125e-05,3.3703976725111615e-06,4.317898542785507e-06,3.7673365348623205e-05,1.1941498943733061e-06,7.949155882536803e-07,1.2398955211257208e-06,2.500266972040703e-06,6.264782718943323e-06,2.5872608036046163e-06,1.8235792196104762e-06,2.870346792169751e-05,2.6736630646901398e-06,8.820766371464118e-07,8.752997556796266e-07,2.1499136180874375e-06
225,2.153542551574158e-05,3.39047109606334e-06,4.5902714462038765e-06,3.840136349922657e-05,1.2002546821422934e-06,7.895242304631562e-07,1.2723089528256862e-06,2.296313204660467e-06,6.2763261350727855e-06,2.7097303640035365e-06,1.8236682313701206e-06,2.9318460106402366e-05,2.5876597659603226e-06,8.830117350903441e-07,8.787654667236607e-07,2.1321067846434066e-06
226,2.070152031665571e-05,3.4190619888133894e-06,4.877949225598455e-06,3.8928194838166364e-05,1.2082845055483085e-06,7.863198583478346e-07,1.3054787309868558e-06,2.105030438666912e-06,6.262947922829649e-06,2.830013227560347e-06,1.8186417321365845e-06,2.9971290024151618e-05,2.498747704457407e-06,8.838457392579718e-07,8.818417853060467e-07,2.1093996172076013e-06
227,1.9830805802366508e-05,3.453136289247725e-06,5.177801432135059e-06,3.925545431608541e-05,1.2180688043718671e-06,7.850759070529032e-07,1.338803553797235e-06,1.92740131985419e-06,6.226193412952415e-06,2.945754557750746e-06,1.80868482876165e-06,3.0663241401608685e-05,2.407343315698169e-06,8.844958916981127e-07,8.846456129336953e-07,2.0820831856725736e-06
228,1.892910181225161e-05,3.4899702468334964e-06,5.486208076790599e-06,3.9399208745244363e-05,1.2292409841913789e-06,7.856272984364069e-07,1.371652607805712e-06,1.7643224456095213e-06,6.168279102866006e-06,3.0550977559196853e-06,1.794087576428703e-06,3.13961385878544e-05,2.314017480123189e-06,8.850185061385415e-07,8.872367836843861e-07,2.050544159747849e-06
229,1.800062283061377e-05,3.527398231359519e-06,5.799330099663296e-06,3.93849584701603e-05,1.2413415353801957e-06,7.87925695043589e-07,1.403365803182169e-06,1.6166752874657999e-06,6.0918582069961695e-06,3.1568297604950073e-06,1.77520457718089e-06,3.217008528253203e-05,2.2196910137879935e-06,8.856644541110937e-07,8.896273269346773e-07,2.015389997613158e-06
230,1.7049842026812054e-05,3.563984912222845e-06,6.113420354537959e-06,3.924190499030142e-05,1.2539286684069172e-06,7.919712081290836e-07,1.4332790354426916e-06,1.485334066170119e-06,5.999741332562473e-06,3.250330605934943e-06,1.7524668936088011e-06,3.2981596612261305e-05,2.1255979966978666e-06,8.86774339271738e-07,8.91778838838884e-07,1.977513028214636e-06
231,1.6082908187346547e-05,3.598929524764836e-06,6.425216642966505e-06,3.899820000952774e-05,1.2666244137750623e-06,7.977080167881709e-07,1.4607866229906669e-06,1.371129772429666e-06,5.894550189579133e-06,3.335389589499785e-06,1.7265363379258086e-06,3.38235034103764e-05,2.0330446930442482e-06,8.886184370844961e-07,8.936474654329884e-07,1.9379649207482504e-06
232,1.5108103463209432e-05,3.631671858364985e-06,6.7323636655918905e-06,3.867751632393468e-05,1.2791103209126578e-06,8.049989042101787e-07,1.4854237988554757e-06,1.2748440829844423e-06,5.77837515501741e-06,3.4119189976967046e-06,1.698353596453455e-06,3.468661064680134e-05,1.9431554738499984e-06,8.913058913941035e-07,8.952466504877174e-07,1.8977280990046792e-06
233,1.413544635312139e-05,3.6614161731183143e-06,7.0335681580149465e-06,3.829743308413821e-05,1.2911511653910779e-06,8.136698424840669e-07,1.5069253025233942e-06,1.1972574764510724e-06,5.652594514653055e-06,3.4796137094593106e-06,1.6689332052850017e-06,3.556190710616294e-05,1.856770351648254e-06,8.947848130467878e-07,8.966511946269186e-07,1.857581904802643e-06
234,1.3175773716005801e-05,3.6869435705318013e-06,7.328192040456769e-06,3.787029759366674e-05,1.3026630868107164e-06,8.235384127016162e-07,1.5252291261451033e-06,1.139166081562654e-06,5.518113112315081e-06,3.537741868999536e-06,1.6391196964980776e-06,3.644202010541285e-05,1.774501705959117e-06,8.989067157754054e-07,8.979542523835407e-07,1.818135894196329e-06
235,1.223967415003451e-05,3.706921387238494e-06,7.615405401111561e-06,3.740572593385136e-05,1.313744990874412e-06,8.343914696015948e-07,1.5404290761751138e-06,1.1013085649200632e-06,5.3760382775926365e-06,3.5852459384481617e-06,1.6094892549559218e-06,3.732097307188773e-05,1.6968000482309147e-06,9.035049907413149e-07,8.992375842927447e-07,1.77993017156523e-06
236,1.1336593118517653e-05,3.7204921161080712e-06,7.893481069202464e-06,3.6913043059535406e-05,1.32459848581952e-06,8.459690348219739e-07,1.5526753301853957e-06,1.0842819224769355e-06,5.228298553467311e-06,3.6210473445774142e-06,1.5803364501318653e-06,3.8191883344414604e-05,1.6239432896815634e-06,9.084273608728154e-07,9.005535164634085e-07,1.7435010611375207e-06
237,1.0474296033211243e-05,3.727717106689733e-06,8.159748716094268e-06,3.640288847836641e-05,1.3353904136636698e-06,8.579910873947649e-07,1.5620372485118057e-06,1.0885229859820075e-06,5.077650067908393e-06,3.6442788717693635e-06,1.5516705096823583e-06,3.904379241448364e-05,1.5560324671011164e-06,9.135132821874453e-07,9.019058732375284e-07,1.7093775352069573e-06
238,9.658693510946747e-06,3.729612293318592e-06,8.411170378831174e-06,3.588798809323323e-05,1.346169653556264e-06,8.701952020421393e-07,1.5684417243081648e-06,1.1143395498999493e-06,4.927088050010145e-06,3.6543578730578414e-06,1.5232549536919027e-06,3.9860275877144874e-05,1.493014830120831e-06,9.18546037160236e-07,9.032511937726263e-07,1.6779925534576846e-06
239,8.893860511387023e-06,3.7277688632500585e-06,8.645116434723407e-06,3.5383164306777714e-05,1.3568382369432443e-06,8.823586146701843e-07,1.5717882952158256e-06,1.1620111645757894e-06,4.779271295094191e-06,3.651020489162938e-06,1.4947392108436812e-06,4.062147495836154e-05,1.4346632677854283e-06,9.232205285402837e-07,9.044934446645542e-07,1.6495629794593925e-06
240,8.182061262072608e-06,3.723773514779036e-06,8.859966402976575e-06,3.490469319037927e-05,1.3671261805720375e-06,8.942904080242441e-07,1.5721483333219905e-06,1.2319741126843305e-06,4.636358157608787e-06,3.634389086893052e-06,1.4658467752802626e-06,4.130878870574134e-05,1.380550442019072e-06,9.271834442570339e-07,9.054508308497431e-07,1.6240549000457683e-06
241,7.523844748230512e-06,3.718778855904805e-06,9.055317475557859e-06,3.4469112754986234e-05,1.3765723431265146e-06,9.058014284438891e-07,1.5698648516398013e-06,1.3249458355952799e-06,4.500065484884985e-06,3.6050261703878713e-06,1.4364865737043194e-06,4.19100986569952e-05,1.3301105386042385e-06,9.301453934265983e-07,9.058402247451914e-07,1.6012536837095612e-06
242,6.918401005650961e-06,3.7134395407608594e-06,9.23177199770535e-06,3.409156210701146e-05,1.3845049075237878e-06,9.16716060804257e-07,1.56546703538837e-06,1.4418411119729877e-06,4.3718368614941844e-06,3.5639275432075963e-06,1.4067034403202242e-06,4.2423106336495196e-05,1.2827990140570983e-06,9.319544263884967e-07,9.052852385057707e-07,1.5808310388479163e-06
243,6.364085386361325e-06,3.7081132491970823e-06,9.390543947069836e-06,3.3784081036156755e-05,1.3900405494460605e-06,9.269189932351853e-07,1.5594513037071293e-06,1.5835557043165769e-06,4.2531121786584156e-06,3.512431701881675e-06,1.376588164158039e-06,4.285530095706561e-05,1.2382865356994515e-06,9.325596252263875e-07,9.033434000090208e-07,1.5623482969070898e-06
244,5.858823418638617e-06,3.703105196787762e-06,9.533205381295841e-06,3.355480896046223e-05,1.3921882567111351e-06,9.363349850376398e-07,1.5520827971575838e-06,1.7507941850315272e-06,4.145399735293285e-06,3.4520335073090894e-06,1.3463246096999278e-06,4.322098853476009e-05,1.1965617016939961e-06,9.319674444138248e-07,8.996150556253747e-07,1.5452651305221437e-06
245,5.400274843443366e-06,3.6988215899997554e-06,9.661602464456972e-06,3.340879853541291e-05,1.390073005082231e-06,9.448745555581908e-07,1.5433523513416524e-06,1.943999931917823e-06,4.049995537173373e-06,3.3841595515096505e-06,1.3163127852218963e-06,4.3536856309107353e-05,1.1578393405995913e-06,9.302601987026701e-07,8.939189337479698e-07,1.5290265933865218e-06
246,4.9858508053040934e-06,3.695773223074248e-06,9.777634897089263e-06,3.335003118025367e-05,1.3831525959554837e-06,9.524653998193444e-07,1.5330833622626268e-06,2.1633284897913198e-06,3.967645852884782e-06,3.3099962685016566e-06,1.2871496683931303e-06,4.381754740286724e-05,1.1223487061537717e-06,9.27576863400313e-07,8.863693536131843e-07,1.5132127780759873e-06
247,4.6127345470221685e-06,3.694417016646726e-06,9.88266596106178e-06,3.3383249723021676e-05,1.3712649822971338e-06,9.591304316193255e-07,1.5210755470654245e-06,2.408598726071905e-06,3.898552018258631e-06,3.230405136630676e-06,1.259440962377053e-06,4.407262820161288e-05,1.0902113387068753e-06,9.240399710381778e-07,8.772666757803734e-07,1.497711791497337e-06
248,4.2779619145490485e-06,3.694892060792496e-06,9.97682684686002e-06,3.351437637955293e-05,1.3544790307631651e-06,9.650044309183076e-07,1.5071833760009313e-06,2.6792324622225163e-06,3.8427987130301855e-06,3.1459054417940607e-06,1.2336206352274626e-06,4.430570995551607e-05,1.061504635564061e-06,9.197501905582227e-07,8.669408082028087e-07,1.4828699279350252e-06
249,3.978502879692329e-06,3.696812213481153e-06,1.0058801169769928e-05,3.374931748816351e-05,1.3329384273698982e-06,9.702795976592329e-07,1.491293197103533e-06,2.974216259903544e-06,3.800854044860564e-06,3.056678318609546e-06,1.2098806098447906e-06,4.4515110266377114e-05,1.0363792712453965e-06,9.148686510734237e-07,8.556822570361064e-07,1.4694954628818125e-06
250,3.7113139718818713e-06,3.6993121683006395e-06,1.0126277465051216e-05,3.409187686026049e-05,1.3068975725716198e-06,9.751218215527162e-07,1.4732322708083474e-06,3.292050491378503e-06,3.7737350077165636e-06,2.9626258005410925e-06,1.1881606924740613e-06,4.4694216391655004e-05,1.015069210911463e-06,9.096819471623077e-07,8.437210692999443e-07,1.458638105943819e-06
251,3.4734686803431895e-06,3.701391019681977e-06,1.017665782877332e-05,3.4541692033413674e-05,1.2768809156324612e-06,9.795908780948256e-07,1.4527224616529156e-06,3.6306653391473803e-06,3.7627843240787843e-06,2.8636460718032942e-06,1.1681440705516354e-06,4.4830507847035424e-05,9.978066195432814e-07,9.045832320246572e-07,8.312133831285261e-07,1.451312418338184e-06
252,3.2624578843731894e-06,3.7023814048752186e-06,1.0207582357847933e-05,3.5092863540412864e-05,1.2437444725093512e-06,9.836040560983298e-07,1.4294721753718248e-06,3.987337425053016e-06,3.7692898651027947e-06,2.760104301305077e-06,1.149275849697965e-06,4.490541611248387e-05,9.847288223658467e-07,9.000256704098638e-07,8.182616715907904e-07,1.4483715648941364e-06
253,3.076503922278815e-06,3.7022847084903996e-06,1.0217145868562716e-05,3.5733726332819036e-05,1.2085630260486376e-06,9.86980485837083e-07,1.40332793703348e-06,4.3586033515393415e-06,3.794213810778893e-06,2.6531317849154785e-06,1.130874710209493e-06,4.489773801510639e-05,9.75803336567654e-07,8.965060153658238e-07,8.04981737621111e-07,1.450483187059499e-06
254,2.9145968430502643e-06,3.7018224381139773e-06,1.0203924485694514e-05,3.644779395003064e-05,1.1724332453170866e-06,9.895502704929747e-07,1.3743390014609331e-06,4.740168566865621e-06,3.8381497491226754e-06,2.5444689910021237e-06,1.112370377029483e-06,4.4788989249746944e-05,9.70785806621032e-07,8.945222866909627e-07,7.915955068770933e-07,1.4580960837430314e-06
255,2.7761790001297034e-06,3.7022713324078933e-06,1.0167014045705038e-05,3.721524496342214e-05,1.1363060707265652e-06,9.912561526589022e-07,1.342718039979884e-06,5.126827645330824e-06,3.901360932324825e-06,2.436044010225633e-06,1.0935051010805437e-06,4.4566138685388416e-05,9.692316395368847e-07,8.945013640878978e-07,7.784657569390083e-07,1.471425743425804e-06
256,2.6606896783289357e-06,3.7052381723538977e-06,1.010612008876082e-05,3.8014099930174615e-05,1.1009056288633764e-06,9.921788836591657e-07,1.3087662942591156e-06,5.512354552943149e-06,3.983737734520913e-06,2.3296882315409543e-06,1.0742982683261323e-06,4.4219370175815644e-05,9.705712910921574e-07,8.967785003246883e-07,7.660188855400325e-07,1.4904763724402435e-06
257,2.567227562901306e-06,3.7124327256914383e-06,1.0021532437903343e-05,3.8820561149866616e-05,1.0667358340817044e-06,9.924745733669686e-07,1.272822370388073e-06,5.889403665117569e-06,4.084772782051044e-06,2.227065060417053e-06,1.0549027201784167e-06,4.3737783166987416e-05,9.742636057572192e-07,9.01615196904077e-07,7.546546292010983e-07,1.515043115652607e-06
258,2.4944604279464227e-06,3.725407796989677e-06,9.913889704092436e-06,3.96082335309798e-05,1.0341392363874564e-06,9.922786187350035e-07,1.2352750725502564e-06,6.24966073423718e-06,4.203617760254835e-06,2.1296022676612614e-06,1.0356001872072878e-06,4.3108888498340556e-05,9.799391867960322e-07,9.092044256736856e-07,7.44730917663077e-07,1.5447024258966837e-06
259,2.440772891432643e-06,3.74526088239301e-06,9.783846106466868e-06,4.034644017681829e-05,1.003343905602516e-06,9.91647805779693e-07,1.1966068272450778e-06,6.584469788811808e-06,4.339144792415652e-06,2.038414471132039e-06,1.0168526120387088e-06,4.232380741154351e-05,9.873632457145695e-07,9.196736830492161e-07,7.365605824286876e-07,1.578853760954248e-06
260,2.4045520111952143e-06,3.7723729634210727e-06,9.631769850803364e-06,4.099946368221331e-05,9.744755113461378e-07,9.905560140543028e-07,1.1573677349310669e-06,6.885874420565878e-06,4.490004107559547e-06,1.9543932757688668e-06,9.992268860431434e-07,4.1383538062816165e-05,9.96260673604265e-07,9.331014262443376e-07,7.303701417666123e-07,1.6167715750792074e-06
261,2.384458460621622e-06,3.8062703372637882e-06,9.457411505173959e-06,4.152949499919696e-05,9.47594534279163e-07,9.88895438784857e-07,1.1180656369953266e-06,7.1476723539596334e-06,4.654591868607068e-06,1.8784261724515996e-06,9.832711386576577e-07,4.029992831324859e-05,1.0062225482421047e-06,9.495325479588166e-07,7.262707062953867e-07,1.6575777012711955e-06
262,2.3795154180622384e-06,3.845627571339916e-06,9.259495163933918e-06,4.190355177100635e-05,9.227735862398082e-07,9.8646384810508e-07,1.0790767089043595e-06,7.365968987198243e-06,4.830917700585682e-06,1.811490923751388e-06,9.694837780599323e-07,3.90905831661816e-05,1.0167245441996082e-06,9.689597316001704e-07,7.242670797706775e-07,1.7001578690310696e-06
263,2.388935765327466e-06,3.8884248626074815e-06,9.035672904378674e-06,4.210082682414501e-05,9.001220494623248e-07,9.830011394278805e-07,1.04062533221944e-06,7.538940130404523e-06,5.01660328558719e-06,1.7545256144226415e-06,9.583585146659776e-07,3.777506382971121e-05,1.02714671913598e-06,9.912735396769964e-07,7.242660410325743e-07,1.743090735037605e-06
264,2.4118240147592384e-06,3.932277789314941e-06,8.783375470644553e-06,4.211636652001321e-05,8.797136193603135e-07,9.783104025704488e-07,1.0027835852388894e-06,7.665882520296545e-06,5.209065916031675e-06,1.7082276609602156e-06,9.504163688726242e-07,3.63775052693804e-05,1.0368253779695448e-06,1.0162193349754543e-06,7.260776869946829e-07,1.7846328744080237e-06
265,2.4470248534184257e-06,3.97485834041843e-06,8.5011901875247e-06,4.195954510419869e-05,8.615030852540496e-07,9.723713308704155e-07,9.655004567508497e-07,7.746022498400048e-06,5.4057386023730086e-06,1.67294541717267e-06,9.461945649845602e-07,3.4930074371889356e-05,1.0452075300126222e-06,1.043374819659293e-06,7.294741231444473e-07,1.8228063744878437e-06
266,2.4932212317999952e-06,4.014264236887293e-06,8.189766457450271e-06,4.164839749526461e-05,8.453299153308419e-07,9.65333701987803e-07,9.287277445980322e-07,7.777893380032207e-06,5.604196540769447e-06,1.648676240695807e-06,9.462241415558103e-07,3.347116949976682e-05,1.052015249860575e-06,1.0721664291125893e-06,7.343255857960326e-07,1.8555604248041605e-06
267,2.5491079081877675e-06,4.049248752669639e-06,7.85180043708251e-06,4.1202429862108294e-05,8.310197854588817e-07,9.57419820268867e-07,8.926024171692199e-07,7.759783144677901e-06,5.802002631649591e-06,1.6351052348109004e-06,9.509960823980746e-07,3.204046718071593e-05,1.0573022446470795e-06,1.1019421734212513e-06,7.40704157659781e-07,1.880924463130986e-06
268,2.6134379604887845e-06,4.079303680623445e-06,7.491498883562178e-06,4.063747709950886e-05,8.184960814829271e-07,9.488492217433114e-07,8.575337662957349e-07,7.690847119172443e-06,5.996273542838138e-06,1.6316709941666143e-06,9.609129703821523e-07,3.067525000542097e-05,1.0614168013654244e-06,1.1320439463493989e-06,7.488409706241856e-07,1.8971826839409016e-06
269,2.684920749224883e-06,4.1046449593429024e-06,7.114093240428786e-06,3.99650833266624e-05,8.077836109903193e-07,9.397997518591111e-07,8.241165291862033e-07,7.572117308648305e-06,6.183378324189295e-06,1.6376908984961678e-06,9.76260029215349e-07,2.9409203879607935e-05,1.0649093287084695e-06,1.1618227197052758e-06,7.589852291756822e-07,1.9031501530954252e-06
270,2.7620803018596014e-06,4.126145025782141e-06,6.72553461126879e-06,3.919535407373029e-05,7.989177058686432e-07,9.303540031902461e-07,7.929749618564349e-07,7.406981469089707e-06,6.3589481034018535e-06,1.65247895275209e-06,9.971883869616498e-07,2.8272483422714057e-05,1.0684029662320574e-06,1.1906527010849442e-06,7.712956354296999e-07,1.8984547130481069e-06
271,2.8431421706736498e-06,4.145168728826981e-06,6.332144689644936e-06,3.8340059361173334e-05,7.918830532117582e-07,9.204433512815817e-07,7.646795206304421e-07,7.201048563611353e-06,6.517954143170633e-06,1.6753508281148488e-06,1.0236871743680533e-06,2.729176488547451e-05,1.0725216249489515e-06,1.217994326827247e-06,7.8581639716733e-07,1.8835900265300473e-06
272,2.9259601499963502e-06,4.1632288072922274e-06,5.94008634171803e-06,3.741380768181614e-05,7.866100286476605e-07,9.098269765308289e-07,7.397338950268619e-07,6.961524523149606e-06,6.6551415211595905e-06,1.7055794670725306e-06,1.0555626219268236e-06,2.6489915968573186e-05,1.077908156053113e-06,1.2434270298334422e-06,8.025187199878052e-07,1.8596409737163426e-06
273,3.0080934750421507e-06,4.181560323357161e-06,5.554794475418733e-06,3.643278463332073e-05,7.82970610879657e-07,8.981358540106496e-07,7.185569334434596e-07,6.696352163983485e-06,6.766237156665409e-06,1.7424445188630933e-06,1.09245782260521e-06,2.588548615153401e-05,1.085202683328303e-06,1.266582557838004e-06,8.213530953502592e-07,1.8278523966072716e-06
274,3.0871093551154923e-06,4.200920110094976e-06,5.180643768844493e-06,3.541185189356883e-05,7.807909255733077e-07,8.850076606713424e-07,7.014486996625299e-07,6.413371189589441e-06,6.8491660384299745e-06,1.785384070427857e-06,1.1339232549257764e-06,2.5492282139308497e-05,1.0949706095987234e-06,1.2870347655663389e-06,8.422535488766047e-07,1.7893377934160253e-06
275,3.1608972182135653e-06,4.221683408639583e-06,4.820962316568869e-06,3.436250792655461e-05,7.799041182090336e-07,8.702552060599118e-07,6.88569844298542e-07,6.119671688816259e-06,6.90412114817926e-06,1.834122144731034e-06,1.1795007124037884e-06,2.531920477324365e-05,1.1077344747977023e-06,1.3042498849753568e-06,8.651023803575382e-07,1.7450651327984632e-06
276,3.2277031762943894e-06,4.2439117882228875e-06,4.4782265083722055e-06,3.329389938596821e-05,7.801706706911741e-07,8.539311274123145e-07,6.79940622396131e-07,5.821214613049496e-06,6.932478415553692e-06,1.8886722301218189e-06,1.2287641083494064e-06,2.5370393644474997e-05,1.12407734286751e-06,1.3176654357886776e-06,8.897113814000916e-07,1.6960095448098446e-06
277,3.285904014574681e-06,4.26723976316671e-06,4.154262783478902e-06,3.221567951625748e-05,7.814428065655619e-07,8.362398733328936e-07,6.754559435204149e-07,5.5226856619603e-06,6.935562023694481e-06,1.949255722286488e-06,1.2813072940524855e-06,2.5645502243830596e-05,1.1446345785881967e-06,1.326860531942306e-06,9.158474356261132e-07,1.643313793172972e-06
278,3.3339280025455575e-06,4.290857074924447e-06,3.850428862875403e-06,3.1139782247059006e-05,7.835574203063365e-07,8.174234109954369e-07,6.749064886819173e-07,5.227496579741e-06,6.914161448515362e-06,2.0162129293082163e-06,1.3367082741745455e-06,2.613979439438825e-05,1.170001107730268e-06,1.3316553437808898e-06,9.43281439998791e-07,1.588366059866179e-06
279,3.370616075044343e-06,4.313722074221562e-06,3.567783250695447e-06,3.0079916392335443e-05,7.863684003205931e-07,7.977668364914632e-07,6.779933611275842e-07,4.9379058769036905e-06,6.868857989764313e-06,2.089906092337431e-06,1.3944856415073218e-06,2.6843900253982405e-05,1.200691236924949e-06,1.332032688633458e-06,9.718153174529004e-07,1.5327653411126991e-06
280,3.3956481618815617e-06,4.334720804384867e-06,3.307228619365634e-06,2.9049330927359242e-05,7.897533758102999e-07,7.776886557598779e-07,6.843731861752027e-07,4.6552508576873495e-06,6.800640404965868e-06,2.1705935087850464e-06,1.4540980605276517e-06,2.7743297299191567e-05,1.2371340544055183e-06,1.3280087554227524e-06,1.0012970407355286e-06,1.4782147852375125e-06
281,3.4095021467491978e-06,4.352528931171225e-06,3.0696153813907994e-06,2.805811492822091e-05,7.93610185873334e-07,7.577527184313998e-07,6.937637120981733e-07,4.38023415653991e-06,6.711305484391295e-06,2.258314376840503e-06,1.5150229429718544e-06,2.8817763911387345e-05,1.2796639501237643e-06,1.3196522809488414e-06,1.031658906011679e-06,1.426393350253082e-06
282,3.4130269685097395e-06,4.365310129216489e-06,2.855788163758034e-06,2.7111779089874095e-05,7.978604255585083e-07,7.38553236626589e-07,7.060235486655173e-07,4.113254598971496e-06,6.603290676052106e-06,2.3528486559926584e-06,1.5767963566332393e-06,3.0041540212415968e-05,1.3285260129562945e-06,1.3072399090810435e-06,1.0629097105832498e-06,1.3788286576314706e-06
283,3.407019289627414e-06,4.370616768509708e-06,2.6665438861785465e-06,2.6212054657156743e-05,8.024129785647881e-07,7.205857319721274e-07,7.211071637871701e-07,3.854794653084074e-06,6.478934861681022e-06,2.4537182143069195e-06,1.6389368194136256e-06,3.138540319214878e-05,1.3838672486546603e-06,1.2913377714275286e-06,1.0950249937045745e-06,1.3368098650822106e-06
284,3.3920276948359666e-06,4.3657513117604135e-06,2.50251240924829e-06,2.5358867974079766e-05,8.071279187950193e-07,7.041969536478305e-07,7.389403307630156e-07,3.6057439669642255e-06,6.339774114806292e-06,2.5601409045739855e-06,1.7008694916130755e-06,3.2820921127710376e-05,1.4456777300133546e-06,1.2726786597330849e-06,1.1278354322354282e-06,1.3013701426101873e-06
285,3.368493549962859e-06,4.34846493475883e-06,2.364062949288646e-06,2.455185731347864e-05,8.118455567978364e-07,6.89613435847084e-07,7.593285957763821e-07,3.367477019919649e-06,6.186528914584104e-06,2.6709453693886563e-06,1.7619166822761996e-06,3.4324941907884146e-05,1.5137162314940143e-06,1.2519627085827244e-06,1.1610163741367017e-06,1.2733064195661556e-06
286,3.3371143670619667e-06,4.317590674844937e-06,2.251324233531635e-06,2.3790947067134176e-05,8.164142080496727e-07,6.77010675596258e-07,7.819322764720677e-07,3.1416548058454005e-06,6.019550622826692e-06,2.7844876456422587e-06,1.8213303272829745e-06,3.588134002379079e-05,1.5874681082143694e-06,1.2297703852973974e-06,1.1941520906485683e-06,1.2532000768022761e-06
287,3.299030550576707e-06,4.273288002574178e-06,2.164250732255978e-06,2.307639628116508e-05,8.206771595147394e-07,6.665649638290461e-07,8.062815311099423e-07,2.9299122662575356e-06,5.839045137212987e-06,2.8985890568379246e-06,1.8783707361354901e-06,3.747862154754669e-05,1.6661573946150375e-06,1.2066036135915827e-06,1.2267791454138615e-06,1.2414457450624915e-06
288,3.2556023665230248e-06,4.216854658988997e-06,2.102597097288023e-06,2.2408732024438576e-05,8.244875937177953e-07,6.58464591278424e-07,8.318039801511324e-07,2.7336321215518927e-06,5.645305647444096e-06,3.010562782368501e-06,1.9323678123877713e-06,3.910565469766162e-05,1.7488236382755458e-06,1.1829702706783953e-06,1.258365148472471e-06,1.238266935926883e-06
289,3.2080273944015225e-06,4.150286400063387e-06,2.065806872111425e-06,2.1788692586408097e-05,8.277439724135665e-07,6.529237788384784e-07,8.578414334239308e-07,2.55387601528263e-06,5.439443429881384e-06,3.1174041552320527e-06,1.9827136476114847e-06,4.07504180707976e-05,1.834433456698635e-06,1.1594133536460849e-06,1.2882937190026953e-06,1.2436872810316087e-06
290,3.1571877192291547e-06,4.075785216301893e-06,2.05296855682181e-06,2.1217182943096964e-05,8.303678296087268e-07,6.502018758589201e-07,8.83689267892837e-07,2.391377727521448e-06,5.223867617489582e-06,3.2161257687758744e-06,2.0288645841001286e-06,4.24034511063313e-05,1.92195916856569e-06,1.1364333946737745e-06,1.3159488649994228e-06,1.2575072592898005e-06
291,3.10378684712744e-06,3.995319747585343e-06,2.0629096853523188e-06,2.069527777149262e-05,8.322527661121271e-07,6.505760742812628e-07,9.087086021013113e-07,2.2464899079819428e-06,5.001726919945559e-06,3.304144121611044e-06,2.070355316347329e-06,4.4061871927354825e-05,2.010370735421829e-06,1.1143865600805086e-06,1.340876669895745e-06,1.2793429158518419e-06
292,3.04857604080078e-06,3.910360829739805e-06,2.0943098085797233e-06,2.0224304585629123e-05,8.332683849001337e-07,6.542739695040687e-07,9.324380772221032e-07,2.119117311058449e-06,4.7759244857230155e-06,3.3796596039098935e-06,2.106713540916699e-06,4.572950823708739e-05,2.0985299632609758e-06,1.0934758805241539e-06,1.3628840957958765e-06,1.3087101052692057e-06
293,2.9925248303323535e-06,3.821930206354912e-06,2.1457142056486445e-06,1.980588970254056e-05,8.333115645736082e-07,6.614167846304671e-07,9.54579119887523e-07,2.008731319746405e-06,4.548538649170452e-06,3.4419520525066625e-06,2.1372844418448117e-06,4.7412820638924314e-05,2.1850730172270585e-06,1.0738281543898046e-06,1.3819629010858134e-06,1.3451178658053894e-06
294,2.936889484453667e-06,3.7308624364029313e-06,2.2155033784954054e-06,1.944167589696103e-05,8.323592010660932e-07,6.719910065500528e-07,9.748723422741204e-07,1.914482213661657e-06,4.320696080999341e-06,3.491402268832936e-06,2.1611553625123107e-06,4.911592378765484e-05,2.268453281783736e-06,1.0555548997870498e-06,1.3981051286444218e-06,1.388132510940148e-06
295,2.8831367891094057e-06,3.6379487111096845e-06,2.3019124809254295e-06,1.913247203160027e-05,8.30506478448152e-07,6.858388140248993e-07,9.930256471698098e-07,1.835332489474889e-06,4.092833749196473e-06,3.52913716855454e-06,2.1774127644606036e-06,5.0838496061454504e-05,2.3471876241111017e-06,1.0387466016991002e-06,1.4111699696793284e-06,1.4373700249203205e-06
296,2.832724656603475e-06,3.543794862943109e-06,2.4030570294979586e-06,1.887699841459477e-05,8.279656783324295e-07,7.02662043578056e-07,1.008775544008477e-06,1.7701011737596426e-06,3.865419987051672e-06,3.5564612118350624e-06,2.185708801319677e-06,5.257607027059497e-05,2.420121589693563e-06,1.0234464406910003e-06,1.4208509627727425e-06,1.492429715147758e-06
297,2.7869119932880714e-06,3.448619900796449e-06,2.5168653643406675e-06,1.8670997532116536e-05,8.250058168548848e-07,7.220509759663395e-07,1.0219678433845081e-06,1.7174095447144356e-06,3.6397932169944576e-06,3.5743651682285747e-06,2.1866738132329476e-06,5.4318917588164905e-05,2.4865499728519223e-06,1.0096679903618501e-06,1.426685390011249e-06,1.552832672446137e-06
298,2.7468314444463976e-06,3.352288853523909e-06,2.640932430144694e-06,1.850758371474006e-05,8.218609280831997e-07,7.435494071138325e-07,1.0325469435182008e-06,1.6756555055462828e-06,3.4184738981234906e-06,3.5833218241799158e-06,2.181749656815514e-06,5.6048996637054754e-05,2.5462168968528052e-06,9.974326516085279e-07,1.4280591451820205e-06,1.6179815008096238e-06
299,2.713808812502218e-06,3.254545778965506e-06,2.7724418919806163e-06,1.8378795346947654e-05,8.18661406714314e-07,7.667337039883077e-07,1.0405175005010513e-06,1.6431061194758689e-06,3.2047308597645127e-06,3.5833714811530174e-06,2.1726218821535566e-06,5.7738212922958435e-05,2.5992521682727844e-06,9.867530868458902e-07,1.4242444370399001e-06,1.687097661286918e-06
300,2.68966354367875e-06,3.1552191164642073e-06,2.9082862380360667e-06,1.827727811415806e-05,8.154234408448565e-07,7.912468441750994e-07,1.0459914235999856e-06,1.6180384702784308e-06,3.0018533496051047e-06,3.5743658051244647e-06,2.160743124363981e-06,5.9350843253358456e-05,2.646000684903928e-06,9.775707276449878e-07,1.414539905853663e-06,1.7591344066181887e-06
301,2.6767549400140167e-06,3.0542389727584276e-06,3.0453584949681706e-06,1.8197035637340327e-05,8.12080300679425e-07,8.167600590642053e-07,1.0492900336553744e-06,1.5987931462988215e-06,2.81267986718455e-06,3.556283855197727e-06,2.147192313028954e-06,6.0850142721057454e-05,2.686736224324583e-06,9.69701088222655e-07,1.3984879037631795e-06,1.8327399046787173e-06
302,2.677728987590643e-06,2.9514468131036143e-06,3.1808687376959925e-06,1.8133082463776975e-05,8.085120033791176e-07,8.429390926351701e-07,1.0509488350003445e-06,1.5836931808474785e-06,2.639527160912969e-06,3.5295402305149552e-06,2.1328244880540653e-06,6.22051296928284e-05,2.7214214383224756e-06,9.628456582953576e-07,1.376089762865785e-06,1.9063527388648894e-06
303,2.6951562577765256e-06,2.846399140248534e-06,3.3125254062510132e-06,1.8080680997360397e-05,8.04562564887123e-07,8.694863533816019e-07,1.0515686217632722e-06,1.5709242258641127e-06,2.4843344008884143e-06,3.4951331842725526e-06,2.1185076716367e-06,6.339174741205764e-05,2.749674555224425e-06,9.567274010734082e-07,1.347934992385751e-06,1.9784468022550803e-06
304,2.7313647651033547e-06,2.7384245951099778e-06,3.43851084001719e-06,1.8035017296945305e-05,8.000623270836792e-07,8.961977822051475e-07,1.0516429668566618e-06,1.5585488197190083e-06,2.3487535899743407e-06,3.4544939015891706e-06,2.1051837828700926e-06,6.438768225258324e-05,2.7709186893163994e-06,9.512518587579002e-07,1.3151274869005892e-06,2.0478541660507376e-06
305,2.7885664384447146e-06,2.626943332288968e-06,3.5573476429366965e-06,1.799173735052036e-05,7.948455397324977e-07,9.229781229305416e-07,1.0514917584877535e-06,1.5447445003030452e-06,2.234084708962692e-06,3.4090703360052678e-06,2.093700226288859e-06,6.516904681593273e-05,2.784599235443033e-06,9.465168938691441e-07,1.2790042071229903e-06,2.114031367355409e-06
306,2.8690733139862312e-06,2.511841581908351e-06,3.6678353626347885e-06,1.7948075020745595e-05,7.887337700308044e-07,9.498550820201646e-07,1.05130104982017e-06,1.528148567408252e-06,2.141187216733922e-06,3.3599192729730205e-06,2.084613656050442e-06,6.57159062723343e-05,2.790388538875069e-06,9.427230989398507e-07,1.2408383773541248e-06,2.1771077118131847e-06
307,2.975346280481421e-06,2.3936693693642464e-06,3.7691298909675436e-06,1.7903723532082627e-05,7.815102594320409e-07,9.769886066683976e-07,1.0511907235883109e-06,1.5080709431187241e-06,2.0704599548704412e-06,3.307557801501429e-06,2.0781007668717876e-06,6.60209987662471e-05,2.788354095740226e-06,9.401403648843384e-07,1.2017002489473842e-06,2.2376574988875507e-06
308,3.109799174737997e-06,2.2735554900349353e-06,3.860856122577277e-06,1.7860657230733488e-05,7.729540821643801e-07,1.0046051044508254e-06,1.0512179821242985e-06,1.4844541791392787e-06,2.021863991133427e-06,3.2520929584800884e-06,2.0739530680653257e-06,6.609117337813605e-05,2.7790782447879258e-06,9.390911841160149e-07,1.162474121979642e-06,2.296354591570305e-06
309,3.2744908499695972e-06,2.152953321390612e-06,3.94307041358489e-06,1.782178811059762e-05,7.629266870471247e-07,1.0328663155370974e-06,1.0513103599715277e-06,1.4576917659958409e-06,1.9950321861765158e-06,3.193504238895388e-06,2.071636761071594e-06,6.593993816031734e-05,2.763644517129829e-06,9.398684922511466e-07,1.1239226539302368e-06,2.3536988499733107e-06
310,3.470903218266959e-06,2.0333819682202626e-06,4.016011565470194e-06,1.778908566423673e-05,7.514113861984715e-07,1.0617609830993667e-06,1.0512203941993546e-06,1.4284808589504707e-06,1.9895037853455634e-06,3.131905225033559e-06,2.070424688114138e-06,6.557950579032938e-05,2.743394683957029e-06,9.426448952785667e-07,1.0867007186146856e-06,2.409847877224527e-06
311,3.6998678251182826e-06,1.9162160137095395e-06,4.079785136481716e-06,1.7762344860029707e-05,7.384577531575836e-07,1.0910686654185187e-06,1.0505472045899115e-06,1.397746592395434e-06,2.0049157848123827e-06,3.0677152552655015e-06,2.0695755264369394e-06,6.501999615145913e-05,2.7195424973384683e-06,9.474403029944876e-07,1.0513453050990212e-06,2.464558885057063e-06
312,3.961538172417977e-06,1.8025788893078872e-06,4.134174680120405e-06,1.7739547832637873e-05,7.241159473254757e-07,1.1203986077396053e-06,1.048777637224613e-06,1.3665577310895626e-06,2.0409542054592594e-06,3.001764981915622e-06,2.0684864878926003e-06,6.427361749928867e-05,2.6929084854877506e-06,9.541384673623971e-07,1.0183094952494835e-06,2.5173195977862057e-06
313,4.255346869817289e-06,1.6933813200074276e-06,4.178595661318783e-06,1.771852757402762e-05,7.084636082530916e-07,1.149275860218283e-06,1.0453318454628342e-06,1.3359835071654543e-06,2.097155737166606e-06,2.935258047169657e-06,2.0667247651034354e-06,6.335722427931636e-05,2.6639190035188242e-06,9.625189659584082e-07,9.879925949010319e-07,2.567637154418739e-06
314,4.580049477819035e-06,1.5893882803984807e-06,4.2120444899239075e-06,1.7698816431713003e-05,6.916972953024645e-07,1.177223347208925e-06,1.039667441802248e-06,1.3069463270201595e-06,2.172780389060183e-06,2.8695228120503578e-06,2.06392025688211e-06,6.229055444456963e-05,2.6327163914351315e-06,9.72276857245181e-07,9.607165854928619e-07,2.6152217254852477e-06
315,4.933900955828483e-06,1.4911976203970696e-06,4.23303227366931e-06,1.768283129664093e-05,6.741653313506901e-07,1.2038331857909033e-06,1.0314321770164817e-06,1.2801411027208463e-06,2.266774419279498e-06,2.805688749626295e-06,2.0596890943355966e-06,6.1091352434942e-05,2.59918555866384e-06,9.830274170817442e-07,9.366885523262984e-07,2.659873943217841e-06
316,5.314771655563812e-06,1.399204265533741e-06,4.239738102697733e-06,1.767609732120765e-05,6.562954726984307e-07,1.2288368152515343e-06,1.0205671322302363e-06,1.2560054411973463e-06,2.3777532533384533e-06,2.7444799671048754e-06,2.053796375857579e-06,5.9771355497865324e-05,2.562954273660464e-06,9.943164213966275e-07,9.159730576513991e-07,2.701239253264899e-06
317,5.720001072803353e-06,1.313656591161661e-06,4.230470473779177e-06,1.768658709133878e-05,6.385169407082295e-07,1.2521078467973235e-06,1.0072932555859326e-06,1.2347038613151836e-06,2.504014469464728e-06,2.686148886886629e-06,2.0464206753371387e-06,5.83369672067236e-05,2.5234959746939e-06,1.0056650111405804e-06,8.98482670744212e-07,2.738703883468721e-06
318,6.1460981722498985e-06,1.2347511262948579e-06,4.204178290932798e-06,1.772347724088209e-05,6.212500011567639e-07,1.273558814236425e-06,9.91995423393452e-07,1.216131504539111e-06,2.6435808325521125e-06,2.6304635251143064e-06,2.038148404618198e-06,5.679346748183054e-05,2.480229468918409e-06,1.0166728816801013e-06,8.840048442544493e-07,2.771479244481064e-06
319,6.588643847646217e-06,1.1626449293379288e-06,4.1607690581919184e-06,1.779570062213423e-05,6.048958286212073e-07,1.293045203088344e-06,9.750973231131754e-07,1.1999428230886752e-06,2.794330017825164e-06,2.5767594702010257e-06,2.0296723098628187e-06,5.5148845124568554e-05,2.432529381152989e-06,1.0271110112506403e-06,8.722566160538811e-07,2.798681909768266e-06
320,7.04260924648547e-06,1.0973794704757093e-06,4.101195920828433e-06,1.7910590908465435e-05,5.89785132374538e-07,1.3103763799089195e-06,9.570291931300636e-07,1.185628662011757e-06,2.954290947077284e-06,2.5241008275661816e-06,2.0215083960223786e-06,5.341556070241928e-05,2.37983280558837e-06,1.0368823122107968e-06,8.62995149005238e-07,2.819275844920265e-06
321,7.502964960115669e-06,1.038822751748148e-06,4.027306587210263e-06,1.807274555588777e-05,5.761355836024985e-07,1.3253886436481984e-06,9.382664341246693e-07,1.1726880658553568e-06,3.1219330361844792e-06,2.471461809929618e-06,2.013901981013249e-06,5.161028537267894e-05,2.321894386796044e-06,1.0458698399951328e-06,8.561827267894364e-07,2.832115761874688e-06
322,7.965326053373348e-06,9.866906677073434e-07,3.94145734149462e-06,1.8283162134058757e-05,5.640424677717544e-07,1.3380340134794475e-06,9.193233934105826e-07,1.1608332943850049e-06,3.2961972410883895e-06,2.4178344513779818e-06,2.006885711441982e-06,4.9751742942566766e-05,2.2589341575476206e-06,1.0538233981364716e-06,8.520502097566018e-07,2.8363358175632376e-06
323,8.426476300508246e-06,9.405947872906313e-07,3.846010246179716e-06,1.8538771436807454e-05,5.534962931012448e-07,1.3484714426677189e-06,9.006751696221634e-07,1.1500494044832237e-06,3.4762427642267227e-06,2.3623078316626474e-06,2.000390918964285e-06,4.7857491395741595e-05,2.1915395813199858e-06,1.0603789211235592e-06,8.509759206480399e-07,2.831780490274911e-06
324,8.884715770260482e-06,9.000814654131707e-07,3.7429101045631236e-06,1.8832489853867422e-05,5.444355565303403e-07,1.3570858654102623e-06,8.826977279847508e-07,1.1404533210128132e-06,3.6610384214583864e-06,2.304199656206655e-06,1.9942890024889966e-06,4.5940821035944687e-05,2.1204679227723837e-06,1.0651795159213384e-06,8.533219709751019e-07,2.81903533426039e-06
325,9.339970354051678e-06,8.646849486428643e-07,3.6334956721519628e-06,1.9153774236513346e-05,5.368211552206657e-07,1.3643705164343377e-06,8.656820696214253e-07,1.1321299153889524e-06,3.849013019167044e-06,2.2432486945608974e-06,1.9883821413544657e-06,4.400883610007709e-05,2.04653978470287e-06,1.067994518402451e-06,8.593480983236555e-07,2.799082871188636e-06
326,9.79353785024688e-06,8.33961788365055e-07,3.5185861924209215e-06,1.9489627469029357e-05,5.306719156151224e-07,1.3707342584473272e-06,8.49885929422093e-07,1.1250986396975874e-06,4.037915853502673e-06,2.1797974746650753e-06,1.9824814941643626e-06,4.206432663862538e-05,1.9706474217041586e-06,1.068746366092303e-06,8.691748936467212e-07,2.77289258185801e-06
327,1.0247351957985262e-05,8.074870902332487e-07,3.3987663440552243e-06,1.9826174527727827e-05,5.260371055011516e-07,1.376353368502596e-06,8.355672879782476e-07,1.1193484098310915e-06,4.224849083185999e-06,2.1148124813209797e-06,1.976515097514707e-06,4.01126008472418e-05,1.893746987555323e-06,1.0674647836383026e-06,8.827604161131812e-07,2.7411303435560597e-06
328,1.0702917947553664e-05,7.848881261958286e-07,3.2747184442048246e-06,2.01509341365478e-05,5.22974385493375e-07,1.381125966086566e-06,8.229669742693799e-07,1.114843203258549e-06,4.406415089631314e-06,2.049648303553069e-06,1.9705082949101448e-06,3.81680095783864e-05,1.8167414469653528e-06,1.0642626702104498e-06,8.999056398445745e-07,2.7040065135147166e-06
329,1.1160564658342485e-05,7.659065220986489e-07,3.1474379019800445e-06,2.045542188010045e-05,5.2157611645512e-07,1.3847583712133004e-06,8.122454467957515e-07,1.1115159874383806e-06,4.578959313383155e-06,1.9857169350361467e-06,1.9645066907161836e-06,3.625402312434575e-05,1.7403157427204966e-06,1.0593566911975432e-06,9.20306209374507e-07,2.6613025312663286e-06
