,EMG1,EMG2,EMG3,EMG4,EMG5,EMG6,EMG7,EMG8,EMG9,EMG10,EMG11,EMG12,EMG13,EMG14,EMG15,EMG16
0,2.807934217746386e-06,6.181638224389502e-07,6.73274073671212e-07,1.23446506436794e-06,-2.2030759233286208e-08,2.3051818769351782e-07,1.0564513663748727e-07,-1.6202198932198584e-07,-1.1591194112569716e-06,4.6268228985107764e-07,8.177004856873581e-08,2.250227115542841e-05,-8.721575989007481e-08,1.0098167672179582e-07,1.9961687774427288e-07,2.2016510057305641e-07
1,3.619175368114654e-06,1.066017533724591e-06,7.763277358315072e-07,3.9063509489415575e-06,9.551879502051427e-08,3.474006423879251e-07,1.4354165630638664e-07,5.465551594451564e-10,1.4348706140011583e-06,6.487423129253319e-07,1.8260154299117505e-07,2.4576324210981304e-05,1.5752795937644988e-08,1.7533691635080162e-07,2.655714105265201e-07,3.9667592986437264e-07
2,4.458670530131578e-06,1.5127893776271134e-06,8.816290948587483e-07,6.475723438814506e-06,2.1014115176149725e-07,4.6220804805216915e-07,1.83034142608748e-07,1.5676274669598743e-07,3.918050831787286e-06,8.351364575682887e-07,2.8514626849341294e-07,2.6742896631525777e-05,1.1666494179535926e-07,2.4723407427360554e-07,3.3089648846829937e-07,5.724006787509168e-07
3,5.324786368992006e-06,1.9543777455798516e-06,9.871696122605496e-07,8.91545847321429e-06,3.2038772352204686e-07,5.739877068979343e-07,2.237120059625784e-07,3.057696535931192e-07,6.267795293572884e-06,1.0209156477058914e-06,3.8801516636910344e-07,2.8985882682263132e-05,2.1413029891369883e-07,3.160828804090679e-07,3.938130714748808e-07,7.444800102217093e-07
4,6.215882124678217e-06,2.3870247242288866e-06,1.0910896094090355e-06,1.1201317126246773e-05,4.2503424334761457e-07,6.81781502125616e-07,2.651799248357608e-07,4.4687887106679244e-07,8.460784777742095e-06,1.2051078598194912e-06,4.899169019025592e-07,3.128694684890805e-05,3.0709949421288247e-07,3.8151799377353623e-07,4.527597708681744e-07,9.107982300295968e-07
5,7.130048418674709e-06,2.8071778585754267e-06,1.1918652668063493e-06,1.3312501722956564e-05,5.231138954855036e-07,7.84616736582587e-07,3.070728508443384e-07,5.794834064416579e-07,1.0473026075018317e-05,1.3867293950978647e-06,5.896977635430848e-07,3.362653178695507e-05,3.949865155085121e-07,4.433060374631172e-07,5.066563181052991e-07,1.0700792123242293e-06
6,8.065225318721688e-06,3.211476824492973e-06,1.288465457163118e-06,1.52324757654564e-05,6.139116793767829e-07,8.8159667050079e-07,3.4907511565633816e-07,7.029749822860568e-07,1.2281099531124982e-05,1.5647859590317242e-06,6.863777330138201e-07,3.598329618547177e-05,4.776320990860765e-07,5.012586761194559e-07,5.5508137562971e-07,1.2217049687373516e-06
7,9.019481628955621e-06,3.5968900253141873e-06,1.3804506567824934e-06,1.6950631990937887e-05,6.969740308099879e-07,9.720193493153088e-07,3.909567861874891e-07,8.166769301774124e-07,1.3864765896710143e-05,1.7383835464466832e-06,7.792632713442323e-07,3.833256394098957e-05,5.551302173518953e-07,5.551986353453936e-07,5.981982865105886e-07,1.3654642512314377e-06
8,9.990803367855858e-06,3.960722848632491e-06,1.467946175941015e-06,1.8464486204091936e-05,7.721423863562884e-07,1.0554210924648417e-06,4.3261436059215374e-07,9.198004647121122e-07,1.5209897585259183e-05,1.9070186011062486e-06,8.680930213284794e-07,4.064585476354952e-05,6.276640594463502e-07,6.049776422566803e-07,6.364801912974956e-07,1.501443749822199e-06
9,1.0976514313082924e-05,4.300452546700509e-06,1.551430805152121e-06,1.978117396321715e-05,8.39567968900997e-07,1.1315585061371028e-06,4.740535794275853e-07,1.0114953571699993e-06,1.6310342785616093e-05,2.070826102206611e-06,9.530225035229915e-07,4.2891753565101405e-05,6.954486789676699e-07,6.505447516662372e-07,6.704519661684097e-07,1.6300155607800324e-06
10,1.1973140234838682e-05,4.61365721821845e-06,1.6314430439954608e-06,2.0917125343489023e-05,8.996758042993954e-07,1.2003832183579511e-06,5.153122954323247e-07,1.0910678504060615e-06,1.7168212455851566e-05,2.230524787272643e-06,1.0344110545338862e-06,4.5036271611312204e-05,7.587651722480953e-07,6.920168025610354e-07,7.005731297791105e-07,1.7517507302902251e-06
11,1.2976891944133856e-05,4.898237602282069e-06,1.708383561498774e-06,2.1895603062621406e-05,9.530882304876171e-07,1.2619928597784283e-06,5.564112375257203e-07,1.1582958690131217e-06,1.7793001766562e-05,2.387073860700517e-06,1.1125845557109954e-06,4.704367317178114e-05,8.18005558986229e-07,7.296939023015053e-07,7.272010689628089e-07,1.8672327233195795e-06
12,1.3984047558217591e-05,5.15282170182814e-06,1.7824343528677e-06,2.2742769641459454e-05,1.0005344131422395e-06,1.3165220377518786e-06,5.973758850689215e-07,1.213620480163343e-06,1.820015911500119e-05,2.54126677414043e-06,1.1877249412656372e-06,4.8882923055470245e-05,8.73653725502852e-07,7.639971436337036e-07,7.505735491713287e-07,1.976869781101597e-06
13,1.499058018564227e-05,5.377029995982229e-06,1.853494624576056e-06,2.3483968198146136e-05,1.0427551703667547e-06,1.36401740809322e-06,6.382687575328438e-07,1.258068525236158e-06,1.84095050539215e-05,2.693475025539022e-06,1.2599103478983216e-06,5.054080536352807e-05,9.261968369046397e-07,7.953712907823692e-07,7.708279255233328e-07,2.08078103798441e-06
14,1.5991066886275418e-05,5.571308363743849e-06,1.9211235746648284e-06,2.4142147121251878e-05,1.0804082191896887e-06,1.4044158538057393e-06,6.791688273392958e-07,1.2929721230311036e-06,1.8443625127027192e-05,2.8436000927055874e-06,1.3292483393991431e-06,5.20331023623495e-05,9.760360859158755e-07,8.242197632520486e-07,7.880515116516521e-07,2.1788090009944754e-06
15,1.6977574631082626e-05,5.736335258207281e-06,1.984578829632356e-06,2.4738750077527548e-05,1.1139952996882397e-06,1.437674646055032e-06,7.201272667950808e-07,1.3196604018369205e-06,1.832612013222719e-05,2.991130464987042e-06,1.3959972439012385e-06,5.3403227916757424e-05,1.0234490510963805e-06,8.508575551912391e-07,8.023073030018763e-07,2.2706689794754544e-06
16,1.7939367148741665e-05,5.8724704060305284e-06,2.0429865042036224e-06,2.529548107380233e-05,1.1438226119995803e-06,1.4639398836288557e-06,7.611593885823713e-07,1.33927760885047e-06,1.807975824128762e-05,3.135177762689376e-06,1.4605626006048994e-06,5.470822225873363e-05,1.0685764726588688e-06,8.754655953458365e-07,8.136097360407571e-07,2.356105063621104e-06
17,1.8863922753880598e-05,5.979736347719747e-06,2.095550452330026e-06,2.583541717296262e-05,1.1699833077683126e-06,1.4836055780391418e-06,8.022516805711397e-07,1.3527703066458618e-06,1.7725301118099934e-05,3.2745271558412067e-06,1.5233792258026607e-06,5.600363865638964e-05,1.1113996294065151e-06,8.981089837845211e-07,8.219127531701964e-07,2.4348956990003603e-06
18,1.9738760596140676e-05,6.05821998203454e-06,2.141677048374956e-06,2.6383022387640195e-05,1.1923711547173386e-06,1.4972374276738666e-06,8.433323857296888e-07,1.3609427672137475e-06,1.728190990485088e-05,3.4078571150426477e-06,1.5848191434636927e-06,5.7336399917123825e-05,1.1517191383939354e-06,9.188351266474044e-07,8.271798529982927e-07,2.5067126677388304e-06
19,2.055226414212652e-05,6.108428943367077e-06,2.1810024761129993e-06,2.696309800355558e-05,1.2107607839209646e-06,1.5054419876790555e-06,8.842354679648044e-07,1.3644774667049694e-06,1.6768667012233874e-05,3.5340425687912188e-06,1.645191923495426e-06,5.87435600068509e-05,1.1891630344614277e-06,9.377528295913889e-07,8.295024728729361e-07,2.5709988187022905e-06
20,2.129279237667955e-05,6.131386582352976e-06,2.2134015715894317e-06,2.7598839848898162e-05,1.2249367713396706e-06,1.5087515657828438e-06,9.247232658486147e-07,1.363953890071471e-06,1.6205539537714183e-05,3.652176716981478e-06,1.704779071087431e-06,6.025202616485295e-05,1.223269116576977e-06,9.550061724532726e-07,8.291525322113814e-07,2.6270517177774012e-06
21,2.194852320822972e-05,6.128474565619331e-06,2.238995272547808e-06,2.8309651048868658e-05,1.2347596654755397e-06,1.5075412801538167e-06,9.645497457156623e-07,1.3599048923419038e-06,1.5612790125632963e-05,3.7612433393651494e-06,1.7638318758078524e-06,6.18789837061555e-05,1.2536550332057333e-06,9.706883679749766e-07,8.265123087942411e-07,2.674272143107144e-06
22,2.251014332562745e-05,6.101021979012379e-06,2.2580655998341067e-06,2.9110021719201833e-05,1.2401085091999788e-06,1.502023565827918e-06,1.0034814168310263e-06,1.3528570525756394e-06,1.5009552600308585e-05,3.859845322127974e-06,1.8225275192520246e-06,6.363440403613401e-05,1.2801681118365343e-06,9.847945905751717e-07,8.21972116254667e-07,2.7122882596671762e-06
23,2.297475502359669e-05,6.049770240216996e-06,2.270883447171925e-06,3.0010341175228892e-05,1.2408311284069069e-06,1.4923750279694534e-06,1.0412692511089429e-06,1.343326033667726e-06,1.441302561237641e-05,3.94630002510478e-06,1.8809644936138225e-06,6.552464690495039e-05,1.3028631501304469e-06,9.972406640222309e-07,8.15896603821742e-07,2.7408343508809024e-06
24,2.334809181128273e-05,5.974663653718596e-06,2.2776606140156823e-06,3.1018873725006306e-05,1.2368218303704373e-06,1.4789170639286275e-06,1.0776589372825758e-06,1.3317773233419228e-06,1.3838580086769993e-05,4.019019852585648e-06,1.939205103945422e-06,6.755542327492488e-05,1.3218187995463666e-06,1.007918957308658e-06,8.08659446870922e-07,2.759619820483931e-06
25,2.3643791163022073e-05,5.8753124113013766e-06,2.278717950515966e-06,3.2143223576377444e-05,1.2281365488617126e-06,1.4622053975158909e-06,1.1124534462084273e-06,1.3185729183152932e-06,1.3299792195620757e-05,4.076910108905862e-06,1.9972365797225135e-06,6.97339675428328e-05,1.3369820471327155e-06,1.016747148021969e-06,8.00700106518329e-07,2.7683682981450354e-06
26,2.3880125070003092e-05,5.751870699676277e-06,2.274652584811819e-06,3.339012795643996e-05,1.2150441265804122e-06,1.4430164977345618e-06,1.145545720258704e-06,1.30397472119587e-06,1.280798466399242e-05,4.119505724420404e-06,2.054852872555366e-06,7.207014712866824e-05,1.3481434209084975e-06,1.0236612840652863e-06,7.925180845810208e-07,2.7668615636385673e-06
27,2.4075723039787804e-05,5.605778031881079e-06,2.2663117465642475e-06,3.476353137564246e-05,1.1980350015253976e-06,1.4223201707800754e-06,1.1769198009159121e-06,1.2882405350447657e-06,1.23718975526076e-05,4.1467435041131965e-06,2.1116418229582993e-06,7.457473115775116e-05,1.3549611407725004e-06,1.028571083321857e-06,7.845891077290641e-07,2.7548555288016287e-06
28,2.4246250064534263e-05,5.4399884899211395e-06,2.25461887265015e-06,3.62621133866503e-05,1.1777948352891482e-06,1.4012486572352838e-06,1.2066970053145544e-06,1.2717178315741522e-06,1.199780857115642e-05,4.158580737688405e-06,2.1671621061216387e-06,7.725478640469599e-05,1.3570295215182043e-06,1.031354292035009e-06,7.773201990108518e-07,2.73206588727833e-06
29,2.440321990121496e-05,5.258547962890203e-06,2.240440589312868e-06,3.787806971438857e-05,1.1551066551106385e-06,1.3809941593238788e-06,1.2352099564729819e-06,1.2548327422288173e-06,1.16897154731716e-05,4.154815922494268e-06,2.2211850036887957e-06,8.011079588364592e-05,1.354060162444542e-06,1.0319116162148925e-06,7.710841407830726e-07,2.698321499511236e-06
30,2.4554586910202535e-05,5.065717175821648e-06,2.2246707145273783e-06,3.959794100857018e-05,1.1307190527691727e-06,1.3626501766247726e-06,1.2629845089972571e-06,1.2380443336078976e-06,1.1449302703702292e-05,4.135310750254392e-06,2.2738119980767156e-06,8.314031614013163e-05,1.346074752419706e-06,1.0302416463381794e-06,7.662511347185502e-07,2.6537083405621985e-06
31,2.4705810381662252e-05,4.865199180317957e-06,2.2084520343341426e-06,4.140457564548718e-05,1.1052932460478363e-06,1.3470923554465449e-06,1.2905877957644994e-06,1.2218599035933583e-06,1.127583015184627e-05,4.100457785029689e-06,2.3253898588371536e-06,8.634640787766371e-05,1.3334771577475117e-06,1.0264929487263056e-06,7.631844629819617e-07,2.5987075758990148e-06
32,2.4860544286266305e-05,4.659882915650023e-06,2.1932504128295328e-06,4.327915003522659e-05,1.0794447030289252e-06,1.3349495517233632e-06,1.3184596512254412e-06,1.2068169002138095e-06,1.1166084804798501e-05,4.051469594563079e-06,2.3763170457433255e-06,8.974320473336036e-05,1.3169991681554663e-06,1.0209555356522433e-06,7.622167287704306e-07,2.534429543796537e-06
33,2.502102614158312e-05,4.45199933157104e-06,2.1806761443293285e-06,4.5203054712906725e-05,1.0537637144498538e-06,1.326661236859286e-06,1.3468366940292708e-06,1.1933685410556276e-06,1.1114390301743621e-05,3.990169373637461e-06,2.4268992844145938e-06,9.335262697190893e-05,1.297558145163199e-06,1.0139795579843777e-06,7.636130334037843e-07,2.46274549586717e-06
34,2.5188373668703744e-05,4.243399830694706e-06,2.172215057382425e-06,4.715944866564563e-05,1.0287804592258276e-06,1.3225537905109169e-06,1.3757706713004206e-06,1.1818037966957413e-06,1.1112651779704177e-05,3.918404963944532e-06,2.477310198086837e-06,9.719533096082594e-05,1.2761124779335171e-06,1.0058683991182545e-06,7.675439166222369e-07,2.386103584270916e-06
35,2.536257764100197e-05,4.035788347921298e-06,2.169076866420424e-06,4.9133746526565736e-05,1.0049532225222388e-06,1.3228334005986847e-06,1.4052024385579733e-06,1.1722777941419393e-06,1.1150496298201842e-05,3.837579973220096e-06,2.527577016366674e-06,0.00010128621933391906,1.2535784344238314e-06,9.968292064817515e-07,7.740861285389879e-07,2.3071621914142286e-06
36,2.554180232732507e-05,3.830829526277597e-06,2.1722048617081076e-06,5.111246444047728e-05,9.82677563162867e-07,1.3275065443341363e-06,1.4350228081522095e-06,1.1648644245679847e-06,1.1215760054905729e-05,3.748592731705497e-06,2.5774981448051577e-06,0.00010563725652654048,1.2307610245864689e-06,9.869986984777297e-07,7.832311644713143e-07,2.2284706139399617e-06
37,2.5721132724962067e-05,3.6301168633305106e-06,2.182300072950433e-06,5.308052003818961e-05,9.622633982384191e-07,1.336349776673147e-06,1.465067215048974e-06,1.1595730924079178e-06,1.1295477941471194e-05,3.6519892365583225e-06,2.626529662567836e-06,0.00011025810024910051,1.2082904348777353e-06,9.764558270138626e-07,7.948811123206262e-07,2.1522505488214414e-06
38,2.5892052192760705e-05,3.4350700963498965e-06,2.199764051368476e-06,5.501762821706245e-05,9.439189404386674e-07,1.349014261326557e-06,1.4950598977334746e-06,1.1563883855782029e-06,1.1377043552757725e-05,3.548107320820797e-06,2.6738093999728364e-06,0.00011515029594502338,1.1866158023453685e-06,9.651897894984698e-07,8.088568317106003e-07,2.080273695063393e-06
39,2.604392207643969e-05,3.24690118087122e-06,2.2246634568938354e-06,5.689536969848493e-05,9.277804647802359e-07,1.3652332207788342e-06,1.5245595265694303e-06,1.1553457881977287e-06,1.1449040981712835e-05,3.4372260428600155e-06,2.7184339745946128e-06,0.0001203016824805198,1.1660290397108655e-06,9.531400795614542e-07,8.249220934415856e-07,2.0138507861835523e-06
40,2.6166692181844597e-05,3.0667243701588804e-06,2.2568199090709185e-06,5.867757494795957e-05,9.139293834544177e-07,1.3849868894012207e-06,1.5529889701054776e-06,1.1565646093772133e-06,1.1501628318106552e-05,3.3197644421412368e-06,2.759873105502596e-06,0.0001256832714990966,1.146684710225891e-06,9.403511318663043e-07,8.427634815865057e-07,1.9538898442721013e-06
41,2.6252578832369933e-05,2.8957133195227474e-06,2.2959492369521724e-06,6.032529016289079e-05,9.02357880526106e-07,1.4084911708494545e-06,1.5797668326173617e-06,1.160213121097895e-06,1.1526773959880244e-05,3.19648978833196e-06,2.798214571764604e-06,0.00013124450315364205,1.1286466059617787e-06,9.270698412603702e-07,8.61938006309799e-07,1.9009867573218552e-06
42,2.6295215309851997e-05,2.735152272551629e-06,2.341705987423609e-06,6.180417924090729e-05,8.929422720669543e-07,1.4360334225989702e-06,1.6043968591281904e-06,1.1664465876399186e-06,1.1518682680937174e-05,3.068647443612603e-06,2.8340048925555162e-06,0.00013690743922663957,1.1119619187949066e-06,9.136496916726776e-07,8.818911571083025e-07,1.8555591205241599e-06
43,2.628708605826905e-05,2.5863534711881872e-06,2.3935972296832844e-06,6.309086855460883e-05,8.854550382063395e-07,1.4677982432866142e-06,1.6263983162904383e-06,1.1753736427609247e-06,1.1474324452130292e-05,2.9379439339784466e-06,2.867820188499362e-06,0.00014256372663675504,1.0966974867140456e-06,9.003794936720456e-07,9.020676969849037e-07,1.8179424978055746e-06
44,2.621819633867383e-05,2.4505358287227703e-06,2.450881449345669e-06,6.417595032098192e-05,8.795562867668101e-07,1.5037964302952673e-06,1.6451777235715693e-06,1.1871055551605502e-06,1.139349471270005e-05,2.8063756023415196e-06,2.9000141914739498e-06,0.00014807667327137617,1.0829017276491386e-06,8.874172115820085e-07,9.220402602351347e-07,1.788330065289673e-06
45,2.6077742243016244e-05,2.328735816535892e-06,2.5125963460077834e-06,6.506277018656206e-05,8.747575503619619e-07,1.5439023546001447e-06,1.6599757811446384e-06,1.2018332722046881e-06,1.1277852597372901e-05,2.6759543707563396e-06,2.9308427935561136e-06,0.00015329339057755927,1.070580081554727e-06,8.74833305826159e-07,9.416159262670012e-07,1.7666370814088566e-06
46,2.58569731806138e-05,2.2217251393579405e-06,2.5776726787290685e-06,6.576218607829071e-05,8.7044826457348e-07,1.5879168168582287e-06,1.6698777595025923e-06,1.2198001004156487e-06,1.1129246325323514e-05,2.5484660789215577e-06,2.960621597866255e-06,0.0001580694174962776,1.0597488806129428e-06,8.62655500398662e-07,9.609087217353362e-07,1.752496430389033e-06
47,2.555080053121175e-05,2.1299098083069653e-06,2.644962132270709e-06,6.628483241615237e-05,8.660319820677995e-07,1.635557737689695e-06,1.6739327114931953e-06,1.2411902176524043e-06,1.0948590416490923e-05,2.4253722545297963e-06,2.98958579492353e-06,0.00016229348359449804,1.050457881966341e-06,8.508512046972627e-07,9.803089150067485e-07,1.7454178383034501e-06
48,2.515797988438949e-05,2.053262885419471e-06,2.7131656000058342e-06,6.663439902078141e-05,8.610923317741459e-07,1.6863679538746913e-06,1.6714763744602358e-06,1.266076149256671e-06,1.0735925602405351e-05,2.307813358484853e-06,3.0176313745575097e-06,0.0001658949912973941,1.0427177338920882e-06,8.392804112284061e-07,1.0003153084464218e-06,1.7449284405329356e-06
49,2.468093012569402e-05,1.991330084863053e-06,2.78079571593458e-06,6.680577681444988e-05,8.554522711430614e-07,1.7396554942482888e-06,1.6624594682845013e-06,1.2944541646681826e-06,1.0490879225111697e-05,2.1966687490364026e-06,3.0442820570312003e-06,0.00016883282628953023,1.0364632380330252e-06,8.276690806937937e-07,1.0213458635327453e-06,1.7505426560728187e-06
50,2.4125636411179483e-05,1.943278790861415e-06,2.846222526438544e-06,6.678832649209334e-05,8.490864449159737e-07,1.794567425146247e-06,1.6474579053681228e-06,1.3262956603199303e-06,1.0212945493615436e-05,2.092651155489981e-06,3.0689341424905476e-06,0.0001710774676509603,1.0316310456324114e-06,8.156182970050738e-07,1.043652721017456e-06,1.7616141607172795e-06
51,2.3501014006445042e-05,1.907951020524242e-06,2.9077658783261446e-06,6.657087902414835e-05,8.419987199356622e-07,1.8502091672498787e-06,1.6273873349428327e-06,1.361587938752556e-06,9.901950728934717e-06,1.9963522911695395e-06,3.0911920978323528e-06,0.0001725952684316891,1.0282189891578407e-06,8.026886740022559e-07,1.0673345453682647e-06,1.7772335276138828e-06
52,2.2817021499985208e-05,1.8839119192914643e-06,2.963850734373627e-06,6.614566340982521e-05,8.341865149237126e-07,1.9056320191769463e-06,1.6032064099023673e-06,1.4003440753141576e-06,9.558920971662125e-06,1.908244732854636e-06,3.111014935694826e-06,0.00017334218095246907,1.0262126801250005e-06,7.885490536233022e-07,1.0923926860524737e-06,1.7962720573926597e-06
53,2.208223618712754e-05,1.8695656073098838e-06,3.0132598700693673e-06,6.55106825555737e-05,8.256685888790817e-07,1.9596866692346314e-06,1.5757493465271479e-06,1.442563614342764e-06,9.186980718532534e-06,1.8286912591322904e-06,3.128541141094231e-06,0.0001732757037829145,1.0254711466369638e-06,7.73062838205108e-07,1.1187821728278954e-06,1.817545880699456e-06
54,2.1302788571893182e-05,1.8633764303210328e-06,3.0554054429654427e-06,6.467094833148226e-05,8.164755140954449e-07,2.010918062798458e-06,1.5456318624484487e-06,1.4882578425541463e-06,8.791757882565205e-06,1.757980320714959e-06,3.1439320813211495e-06,0.00017237840313507453,1.0257028506157783e-06,7.562475084643282e-07,1.1463995968735815e-06,1.8399583641504543e-06
55,2.0483272372884087e-05,1.8640221499731524e-06,3.090434714491149e-06,6.363870001502535e-05,8.066056317316749e-07,2.0576287249474847e-06,1.51320945715503e-06,1.5376264839194885e-06,8.380948115228283e-06,1.696426763719869e-06,3.1574823076523747e-06,0.00017066794025598863,1.0265565522545465e-06,7.382051208123793e-07,1.1750265552184272e-06,1.8624735064573768e-06
56,1.962822210612368e-05,1.8703082449145768e-06,3.1190328010725047e-06,6.24321029928546e-05,7.960271193778166e-07,2.0981048716389964e-06,1.478633798598086e-06,1.5912105963035135e-06,7.963167537111163e-06,1.644449167146642e-06,3.169649537421994e-06,0.00016818182946571545,1.0277798667338502e-06,7.191104190064906e-07,1.2042951324617373e-06,1.8839804245720414e-06
57,1.8742950610485437e-05,1.880938421225553e-06,3.1419775151785685e-06,6.107164243031496e-05,7.847319742526457e-07,2.1309099473135733e-06,1.4419792561452433e-06,1.6498129759094201e-06,7.5467223387238934e-06,1.6025186843517992e-06,3.1808970331176957e-06,0.00016495873672470616,1.0293516298056895e-06,6.992176575551138e-07,1.2336755010787714e-06,1.9032907349584494e-06
58,1.78337953636479e-05,1.8943602706353665e-06,3.159695221700525e-06,5.957466284758959e-05,7.727880574913511e-07,2.155093191257733e-06,1.4033587788395275e-06,1.7142355406712495e-06,7.1388209241760425e-06,1.571050616428302e-06,3.1916199197045675e-06,0.0001610379342838153,1.0314967498572585e-06,6.788713982245904e-07,1.2624549760231491e-06,1.919352173048105e-06
59,1.6908172697964658e-05,1.9088020935916188e-06,3.172096147726298e-06,5.7951197853865e-05,7.603446467901165e-07,2.170234990730425e-06,1.3630139916981643e-06,1.7850453970317797e-06,6.745254538257254e-06,1.5502961738569564e-06,3.2020700613887012e-06,0.0001564639800667035,1.0345709415245018e-06,6.585417565481718e-07,1.2897231918621807e-06,1.931491864712815e-06
60,1.597462032604441e-05,1.9225116154005302e-06,3.178775510365123e-06,5.620474144951754e-05,7.475836899715808e-07,2.1764163915630638e-06,1.3214048291473105e-06,1.8625088400924846e-06,6.370360498694686e-06,1.5402473062492525e-06,3.2121966632316696e-06,0.00015128048511032818,1.0388967891413933e-06,6.388113963733513e-07,1.314442025802824e-06,1.9394760723905117e-06
61,1.5042732788256952e-05,1.9341415519429792e-06,3.1793998372042634e-06,5.433776167816129e-05,7.346853343949806e-07,2.1741881685854596e-06,1.2792541670330659e-06,1.946690199319638e-06,6.017123563210216e-06,1.5405895534928815e-06,3.221596181426271e-06,0.00014552787733679529,1.044648988509142e-06,6.202923943931254e-07,1.3356564686960422e-06,1.943337737545586e-06
62,1.4122764651320665e-05,1.943093153445184e-06,3.1740231506783175e-06,5.235805617257073e-05,7.218465347813144e-07,2.1644443246777206e-06,1.2374638364081925e-06,2.037641801525333e-06,5.687310310043082e-06,1.5506938557513414e-06,3.229556743345207e-06,0.00013926006130344444,1.051806068413688e-06,6.035544229149507e-07,1.352748599901122e-06,1.9431170489400025e-06
63,1.32249063811472e-05,1.949561352826286e-06,3.1632401709965307e-06,5.0282301178729557e-05,7.092909665440791e-07,2.1481470377513158e-06,1.1969228375898886e-06,2.1355859156607524e-06,5.381693027991172e-06,1.5696315551011215e-06,3.2350879099675617e-06,0.00013256433175590525,1.0601357284609774e-06,5.890879639470326e-07,1.3655423206859534e-06,1.938706622652088e-06
64,1.2358557879482965e-05,1.9542266436978993e-06,3.1482070041379124e-06,4.813540024857572e-05,6.97244599473013e-07,2.126100850273447e-06,1.1583361394643406e-06,2.24099365093518e-06,5.100568903457389e-06,1.5961982509895116e-06,3.2370045314095583e-06,0.00012556331097340122,1.0692106248201022e-06,5.772867709368512e-07,1.3741780800594012e-06,1.929841791612347e-06
65,1.1531905326800777e-05,1.957858049031427e-06,3.1305000678866727e-06,4.594620683261532e-05,6.85901854177611e-07,2.09891339809043e-06,1.122160133750731e-06,2.3545427815730446e-06,4.844524024659698e-06,1.6289374160190163e-06,3.234059215112304e-06,0.00011839855845743682,1.0784790735915463e-06,5.68442685390816e-07,1.378878304074174e-06,1.916192834888577e-06
66,1.0751804423487041e-05,1.961138492563435e-06,3.1117740397379545e-06,4.374180443993379e-05,6.754025611582747e-07,2.0670189363768394e-06,1.0886261905230096e-06,2.477027089800085e-06,4.61501163089693e-06,1.6662301834520673e-06,3.2250016338438717e-06,0.00011120891974625635,1.0873912439047985e-06,5.627451316842072e-07,1.3797849028833257e-06,1.8975336148655989e-06
67,1.0023755908768533e-05,1.9647398961304646e-06,3.093368245287738e-06,4.1543621416656974e-05,6.658441354133645e-07,2.030701365574368e-06,1.0577918573190462e-06,2.609276761461568e-06,4.414359889626071e-06,1.7064869545168273e-06,3.2086253700492253e-06,0.000104114918809291,1.095547661791898e-06,5.602946026112194e-07,1.376931015721584e-06,1.8739203038028168e-06
68,9.351764737860152e-06,1.9694634736787892e-06,3.076130374501034e-06,3.936753360741179e-05,6.573039514688093e-07,1.990123228910374e-06,1.0295742743791393e-06,2.7520615708639745e-06,4.245255111926255e-06,1.748311881362344e-06,3.183965579125055e-06,9.721245581218673e-05,1.1028372145847436e-06,5.61120490216499e-07,1.3702880494692634e-06,1.8458301391738935e-06
69,8.738074573798471e-06,1.976299294747281e-06,3.060538859125386e-06,3.722686355000707e-05,6.498253394360493e-07,1.9453057180238927e-06,1.0037863344389515e-06,2.90593822579293e-06,4.110186388965616e-06,1.7904903361411622e-06,3.1504925202374684e-06,9.057346014137146e-05,1.109512076282212e-06,5.651793529857627e-07,1.3597847763783947e-06,1.8142495147936154e-06
70,8.183027704764465e-06,1.986343205777637e-06,3.0469187821911e-06,3.513548900574625e-05,6.43392777032841e-07,1.89617337854248e-06,9.80242056076075e-07,3.0710852951882876e-06,4.011298052553249e-06,1.831876943173534e-06,3.1080226869099087e-06,8.425071797406064e-05,1.116137910883233e-06,5.723547830500151e-07,1.3452509667996491e-06,1.7806221313512354e-06
71,7.68521640798535e-06,2.0006071239868566e-06,3.0354857747619166e-06,3.310941325157723e-05,6.379511435462841e-07,1.842811509462162e-06,9.58893344184827e-07,3.2471808310035563e-06,3.950544014299646e-06,1.8714317581192506e-06,3.056603283672095e-06,7.82846096521463e-05,1.1234430958048173e-06,5.824760124018402e-07,1.3263854593269452e-06,1.7465964587405222e-06
72,7.24175562260161e-06,2.019880333961201e-06,3.026198805694721e-06,3.116672559988826e-05,6.334592385323612e-07,1.7857662264069288e-06,9.398544385139164e-07,3.4333370813791065e-06,3.929785773402793e-06,1.9084523660043896e-06,2.9967343727066065e-06,7.270903831051622e-05,1.1321738894361093e-06,5.953226323276841e-07,1.3028667628255837e-06,1.7137105340491602e-06
73,6.848483306344171e-06,2.0447039785477088e-06,3.0187261370847116e-06,2.932658873037227e-05,6.299220811063097e-07,1.7261075180656815e-06,9.232987798036199e-07,3.628190111827279e-06,3.950833302246246e-06,1.942762111010972e-06,2.929585286693516e-06,6.755456428621175e-05,1.1430265523875168e-06,6.106069737568411e-07,1.2745742116381222e-06,1.6831919885181686e-06
74,6.500045174060075e-06,2.075325397274831e-06,3.01276357245848e-06,2.760796282766469e-05,6.273859635086399e-07,1.6652250420148914e-06,9.093797393384737e-07,3.8302398187191695e-06,4.015620274140287e-06,1.9746592856155917e-06,2.856772111349632e-06,6.28489100909047e-05,1.1566250216317116e-06,6.279630984607991e-07,1.2418050196441908e-06,1.6558907454380104e-06
75,6.18984431351423e-06,2.1116039011364323e-06,3.0085111489698856e-06,2.6028561499286044e-05,6.259201762178083e-07,1.6045566215428418e-06,8.982446192982671e-07,4.0382694268577375e-06,4.1263548419580756e-06,2.004669175905187e-06,2.779914220118342e-06,5.8616201252238015e-05,1.1734991021331303e-06,6.469639118334958e-07,1.2053659900040177e-06,1.632276056520462e-06
76,5.909997897230106e-06,2.1530301799008156e-06,3.00692620023413e-06,2.460429385513019e-05,6.255899155122448e-07,1.545430818767207e-06,8.900511141175498e-07,4.2515536726239556e-06,4.285363530817714e-06,2.033267648323344e-06,2.7003838988791264e-06,5.4875856175945095e-05,1.194116651931043e-06,6.671759496951375e-07,1.1664491591404983e-06,1.6124724927267763e-06
77,5.6516936289437935e-06,2.1989216475795837e-06,3.0095807826120985e-06,2.3349181950024142e-05,6.264136093781085e-07,1.4890222421350783e-06,8.84913791532865e-07,4.469766018008601e-06,4.494899845672635e-06,2.0607153521882143e-06,2.619347811823638e-06,5.164151505272746e-05,1.2189982343950314e-06,6.882098507715101e-07,1.1263567678612929e-06,1.5963189024887e-06
78,5.4061939147413924e-06,2.2486486198967998e-06,3.0182331243766405e-06,2.2275444369752545e-05,6.283297170837184e-07,1.4363272030630288e-06,8.828226607624676e-07,4.692671028726798e-06,4.757383745202503e-06,2.087073024514052e-06,2.537926102346916e-06,4.892061305261743e-05,1.248772994943216e-06,7.097018762346988e-07,1.0862796771015804e-06,1.5834049332069216e-06
79,5.166202394384247e-06,2.3017156496130204e-06,3.034392818896441e-06,2.1393317091947687e-05,6.312171899846002e-07,1.3881316585904054e-06,8.83616529157845e-07,4.919704138429757e-06,5.075838361342685e-06,2.1123752274344118e-06,2.4572357249493096e-06,4.6715199147740375e-05,1.284092252116054e-06,7.312602735291179e-07,1.047239468535988e-06,1.5730800087168625e-06
80,4.926951854966944e-06,2.357665230728583e-06,3.0591131511376776e-06,2.071042917331247e-05,6.349755844960716e-07,1.3449896538847309e-06,8.870358979418516e-07,5.149554295010874e-06,5.453902276607459e-06,2.1368132898463408e-06,2.378247061978007e-06,4.50235787965728e-05,1.3255585306159579e-06,7.524621922146743e-07,1.010126620549961e-06,1.5644780233774144e-06
81,4.686541865401145e-06,2.4159076792940005e-06,3.0930059272930182e-06,2.0230996763862026e-05,6.395935765415723e-07,1.3072209781866556e-06,8.927925369227216e-07,5.379892298639989e-06,5.895283113558944e-06,2.160776410720136e-06,2.301615268282622e-06,4.384138852871951e-05,1.3737744163149212e-06,7.728836902842692e-07,9.757445659673197e-07,1.5565886299338735e-06
82,4.445516281355227e-06,2.475577199965016e-06,3.1363430770127193e-06,1.9955243333600236e-05,6.451232392841252e-07,1.2749551471369685e-06,9.005825614071168e-07,5.607275191967815e-06,6.403052575999413e-06,2.184721466178427e-06,2.22764747619498e-06,4.3161298835347976e-05,1.4293635237315503e-06,7.920899251625261e-07,9.448095353061231e-07,1.5483722389887974e-06
83,4.2059774451092345e-06,2.5354648172797723e-06,3.1891989632499455e-06,1.9879324770757587e-05,6.515877627558231e-07,1.2482250801075633e-06,9.100607650947864e-07,5.827181539883876e-06,6.97916580405564e-06,2.2089558227669845e-06,2.156371860225475e-06,4.2971710295697225e-05,1.4928672305366573e-06,8.096159344315706e-07,9.17912649244761e-07,1.5389150214478093e-06
84,3.97057629163899e-06,2.5940820268054327e-06,3.2516148259692693e-06,1.9996038719640548e-05,6.589373468405229e-07,1.2270231080676754e-06,9.208373488869805e-07,6.034348731612247e-06,7.624231484066773e-06,2.2334734963808555e-06,2.087666309475272e-06,4.325500868254535e-05,1.564658658356735e-06,8.250059953625433e-07,8.955347846984768e-07,1.5276228748689107e-06
85,3.741712429192622e-06,2.6498421181562663e-06,3.3236940686936168e-06,2.0296180792562917e-05,6.67095745404282e-07,1.2112584055203647e-06,9.3248509442681e-07,6.223592372161478e-06,8.337420926156926e-06,2.2579410344130903e-06,2.021515721148504e-06,4.3986113693641025e-05,1.6449761407403788e-06,8.378737569523074e-07,8.78109234906581e-07,1.514362059463877e-06
86,3.5212212664460206e-06,2.7012527297574285e-06,3.4056273550424527e-06,2.0769590470681438e-05,6.760128901556353e-07,1.2006940986166374e-06,9.445220452753289e-07,6.390767271438632e-06,9.116460946673779e-06,2.281801331377734e-06,1.9582860625021487e-06,4.513230694759835e-05,1.733974176229522e-06,8.479577151726734e-07,8.660169160961021e-07,1.4994182777150126e-06
87,3.3105585611318577e-06,2.7470535263548603e-06,3.497767395854266e-06,2.1405037945214224e-05,6.856541440995259e-07,1.1949385939101095e-06,9.563958278292553e-07,6.533253333692656e-06,9.957585895109861e-06,2.30435279159096e-06,1.8987267049317917e-06,4.665421657432047e-05,1.8316951133802078e-06,8.55213361423705e-07,8.595279001668284e-07,1.4832923759368284e-06
88,3.111189959036802e-06,2.7862428726867152e-06,3.600737541542068e-06,2.2189100142845497e-05,6.959704750865539e-07,1.193465780658027e-06,9.67489157508809e-07,6.649730523474307e-06,1.0855347931193053e-05,2.324763260697111e-06,1.8437316223659423e-06,4.8506767698614876e-05,1.9379898991003393e-06,8.598585151791813e-07,8.587749440093732e-07,1.466503297145695e-06
89,2.9248454800073088e-06,2.8179329291807167e-06,3.7153856035316995e-06,2.3104945881841884e-05,7.068933608677709e-07,1.1956700683092967e-06,9.771512886673256e-07,6.739432187724688e-06,1.180242803617463e-05,2.342201134264206e-06,1.7941646397019342e-06,5.0639603053412275e-05,2.0524346726674827e-06,8.622600120712835e-07,8.637555831835108e-07,1.4495400340193158e-06
90,2.753497089943645e-06,2.8412152529629903e-06,3.842495000845869e-06,2.4131806393099156e-05,7.183260445559354e-07,1.2009805401423567e-06,9.84801789192324e-07,6.801292661781731e-06,1.2789765941156361e-05,2.356153540334696e-06,1.7507982342744096e-06,5.299728149263161e-05,2.1742855425664642e-06,8.627578270657522e-07,8.743486410566517e-07,1.432885307621112e-06
91,2.599127166453613e-06,2.855336165205192e-06,3.982406849081906e-06,2.5244918157032433e-05,7.301223105496324e-07,1.2089595086506783e-06,9.900908302833703e-07,6.833579191897774e-06,1.3807173917668304e-05,2.366684762847302e-06,1.714227441180969e-06,5.5519135827382444e-05,2.302511458301515e-06,8.615716678847567e-07,8.903587885601194e-07,1.4169589439266915e-06
92,2.463445762330176e-06,2.8600824880701444e-06,4.13479300055647e-06,2.6415620069421167e-05,7.420861478282224e-07,1.2192912523846988e-06,9.92971066042331e-07,6.834278861438443e-06,1.4844254988177815e-05,2.3744265997790612e-06,1.6847853132854077e-06,5.813805649696296e-05,2.4358685499140667e-06,8.587956657960021e-07,9.115927080478046e-07,1.4020195773047786e-06
93,2.347712679153007e-06,2.8559512950605704e-06,4.298652610773791e-06,2.7612415527405466e-05,7.539985790113538e-07,1.2316686839360728e-06,9.935992871510842e-07,6.801831935936067e-06,1.589138538339953e-05,2.3803612556622797e-06,1.6625339786888641e-06,6.0778942279627446e-05,2.5729573314374016e-06,8.544339186912246e-07,9.379434418890791e-07,1.3881306940584472e-06
94,2.25270100663212e-06,2.8438995679676477e-06,4.4724218521187445e-06,2.8803616482802238e-05,7.656433377622451e-07,1.2456918452403017e-06,9.922084454451843e-07,6.735712959082613e-06,1.6940654718087437e-05,2.385544904004988e-06,1.6472786327880476e-06,6.336122157710583e-05,2.7122744677334595e-06,8.484401930273651e-07,9.69397562695504e-07,1.37522083971757e-06
95,2.178708641003804e-06,2.8248811701497426e-06,4.654129572450308e-06,2.9960786118164926e-05,7.768225586582842e-07,1.260875995200047e-06,9.891024602706414e-07,6.6367427760313035e-06,1.7986440603391e-05,2.3908557568273016e-06,1.638563771724655e-06,6.58092598806774e-05,2.852285336158045e-06,8.407488748349384e-07,1.0059250114419786e-06,1.363214600085243e-06
96,2.1255688764775337e-06,2.7995645655273826e-06,4.841617451085729e-06,3.106205791359393e-05,7.873844978125786e-07,1.2767316090529095e-06,9.84700209770629e-07,6.507188504441644e-06,1.9024949967835755e-05,2.396812113262404e-06,1.6357221992967733e-06,6.806637719449596e-05,2.991483634519974e-06,8.313383493053476e-07,1.0473460871975667e-06,1.3521153163237826e-06
97,2.092681939175613e-06,2.768405528855222e-06,5.032772096168222e-06,3.2094833388692855e-05,7.972564044284848e-07,1.2928256335520483e-06,9.795005465219347e-07,6.350695064877404e-06,2.0052545830972286e-05,2.403529928087053e-06,1.6379881415445733e-06,7.010173981431961e-05,3.128354003075861e-06,8.203261711573864e-07,1.0932662623657634e-06,1.341940129451559e-06
98,2.0790567966555558e-06,2.731884242558963e-06,5.22563843083155e-06,3.3056925418368126e-05,8.064371426259239e-07,1.3087999709744e-06,9.739842734155086e-07,6.172074785024175e-06,2.1064051086576962e-05,2.410871904892013e-06,1.6445388937739817e-06,7.19034900658537e-05,3.261182387931311e-06,8.080033242055784e-07,1.1430886498816812e-06,1.3325800347616403e-06
99,2.0833315482918496e-06,2.690694535666625e-06,5.418365489115839e-06,3.395500793574034e-05,8.149511339216694e-07,1.324364116375907e-06,9.68521714436074e-07,5.976967895084261e-06,2.2052594942347396e-05,2.418726430815049e-06,1.6544332278634698e-06,7.346339625740735e-05,3.3877923870022917e-06,7.947643945389065e-07,1.1960787982508848e-06,1.3237297943123523e-06
100,2.1037602649571044e-06,2.6458485234858108e-06,5.609113317171094e-06,3.480024268925497e-05,8.228296892445458e-07,1.3392787434450208e-06,9.633216921948155e-07,5.771368578395039e-06,2.301090746770801e-05,2.427267419953663e-06,1.6666298123681967e-06,7.476654234319688e-05,3.505393971111525e-06,7.810098766061727e-07,1.2514182520217672e-06,1.314953523733242e-06
101,2.138190440764267e-06,2.598692794639839e-06,5.796121211590072e-06,3.560298268483535e-05,8.301298009726168e-07,1.3533488469243884e-06,9.584354867647502e-07,5.561036227378426e-06,2.3932590031968173e-05,2.4370554220782267e-06,1.680179949816882e-06,7.579383002179925e-05,3.6106625711580558e-06,7.671066399186852e-07,1.3082127135550525e-06,1.3058491452872544e-06
102,2.1841056077468756e-06,2.5508067585444223e-06,5.977980698528343e-06,3.636965718665763e-05,8.369261602100233e-07,1.3664206154074636e-06,9.537936130116222e-07,5.350925134538027e-06,2.4812541064875096e-05,2.4489207763672345e-06,1.6944012666975043e-06,7.65297273379561e-05,3.7000288971322026e-06,7.533994648933558e-07,1.3655459941579596e-06,1.2962218884327046e-06
103,2.238818655124281e-06,2.5037911118970046e-06,6.1538907964061385e-06,3.71023626462998e-05,8.432934070530054e-07,1.3783322172712293e-06,9.492615778358311e-07,5.144824336320405e-06,2.5646907157829505e-05,2.46369641867341e-06,1.7088343552505467e-06,7.69655426714232e-05,3.7701183923953254e-06,7.402187229181995e-07,1.4226243828485723e-06,1.2861622148753014e-06
104,2.2998307229964557e-06,2.459061053949843e-06,6.323587344649791e-06,3.7798622534099526e-05,8.493383666839603e-07,1.3887938846945103e-06,9.447551549665779e-07,4.94525342263148e-06,2.6433309605422574e-05,2.4819594844030442e-06,1.7231119124637333e-06,7.710452077021741e-05,3.818250188196779e-06,7.27861331344647e-07,1.4788709481364197e-06,1.275965866562971e-06
105,2.3652510416782657e-06,2.417790185228122e-06,6.486860445562817e-06,3.8450943679046e-05,8.552255536622819e-07,1.3972600216742938e-06,9.403791356768637e-07,4.75351198458237e-06,2.717174797728091e-05,2.5039061927983526e-06,1.7369517913108056e-06,7.697498738305376e-05,3.842789018592757e-06,7.165698886219189e-07,1.533858151100496e-06,1.2659464791843635e-06
106,2.4340934821841424e-06,2.3809729184437563e-06,6.642890227643395e-06,3.9048218508394256e-05,8.611376070959194e-07,1.4028807079115594e-06,9.364387092650023e-07,4.56982709763551e-06,2.7865477648815545e-05,2.529368963794382e-06,1.7501739130895406e-06,7.663883834640904e-05,3.843082778733426e-06,7.065637129287097e-07,1.5871349755619726e-06,1.2562953767718921e-06
107,2.5063053484038907e-06,2.3494409310077773e-06,6.789770706377954e-06,3.957847503335042e-05,8.672129456908216e-07,1.4045881508493098e-06,9.332980216039207e-07,4.393607185206444e-06,2.8520163772038324e-05,2.557935909599315e-06,1.7625923118468284e-06,7.618394950711062e-05,3.819018663625182e-06,6.980978491181702e-07,1.638094677414203e-06,1.2471066894277092e-06
108,2.5825298700760555e-06,2.3237821999930085e-06,6.924482593906394e-06,4.003021605885624e-05,8.735020917097008e-07,1.4013388983656333e-06,9.312463581549983e-07,4.223773941695531e-06,2.9140952170930706e-05,2.589155729436493e-06,1.773958684690857e-06,7.570703863824508e-05,3.770807525122808e-06,6.914580050915249e-07,1.6859988818266217e-06,1.238484577454924e-06
109,2.6637315729880014e-06,2.3042473199356048e-06,7.043330495810068e-06,4.039112322749433e-05,8.79972976457857e-07,1.3924305024040757e-06,9.304707224759783e-07,4.059092335657237e-06,2.972988841130144e-05,2.622761529092857e-06,1.7841313685791942e-06,7.529964462193939e-05,3.6994587999399453e-06,6.869008744621802e-07,1.730124120663281e-06,1.2305451671147365e-06
110,2.7508253245279624e-06,2.290742792853447e-06,7.142653383667472e-06,4.064616719936109e-05,8.865707981040851e-07,1.3777048343271183e-06,9.310781785229372e-07,3.898394614141877e-06,3.0285811714034474e-05,2.6587275237134733e-06,1.7932423102534947e-06,7.504234171147593e-05,3.6073354040381074e-06,6.846164051879909e-07,1.7698999891196297e-06,1.2233085945349621e-06
111,2.844400811330626e-06,2.2829578479362853e-06,7.219469541935705e-06,4.077900254030362e-05,8.932471018590052e-07,1.357500240417164e-06,9.330941310573437e-07,3.740660524650539e-06,3.080540759001993e-05,2.697037634772872e-06,1.8016077545055717e-06,7.500323538062587e-05,3.4979288196415716e-06,6.847323535118896e-07,1.8049679442436654e-06,1.2166377438774007e-06
112,2.944586958488785e-06,2.2805572865301766e-06,7.27170327349607e-06,4.077743326277192e-05,8.999046059217686e-07,1.332400159265413e-06,9.364289776512906e-07,3.5850595525309173e-06,3.1282956591881455e-05,2.737334638939107e-06,1.8095504232539994e-06,7.523695881966053e-05,3.3750866354636082e-06,6.873320429118598e-07,1.835173928257217e-06,1.2102793259753505e-06
113,3.0510141810751066e-06,2.283267121683282e-06,7.29801313142634e-06,4.063901861319241e-05,9.063384112832013e-07,1.3029873218269251e-06,9.40851487841299e-07,3.4310839393678867e-06,3.170904169676261e-05,2.7787103957312803e-06,1.817366904877113e-06,7.578517273591099e-05,3.2424488866772314e-06,6.924531407059721e-07,1.8605186960460897e-06,1.203969285608387e-06
114,3.1628038734804184e-06,2.290762834438662e-06,7.297677964411585e-06,4.037326654078837e-05,9.122486421999703e-07,1.2697768661238936e-06,9.460231209304369e-07,3.2787400852795663e-06,3.207067995543117e-05,2.8196793409648394e-06,1.825357633715592e-06,7.667879018248626e-05,3.1032340352780387e-06,7.000654873361092e-07,1.881067476000185e-06,1.1975356343925084e-06
115,3.2786610715097114e-06,2.30251587127934e-06,7.270821524954447e-06,4.000013804196603e-05,9.172952369615178e-07,1.233297760467493e-06,9.516222017075662e-07,3.1286420162881995e-06,3.235395905594682e-05,2.858263862905562e-06,1.8337867189513199e-06,7.793995751281207e-05,2.960193942995974e-06,7.100532974121811e-07,1.8968372365270302e-06,1.1908871218378645e-06
116,3.3971993076093025e-06,2.317798598919415e-06,7.218725614452932e-06,3.954622727929577e-05,9.211374251739467e-07,1.1941766837398781e-06,9.57497214403128e-07,2.9819319752057547e-06,3.254781385651493e-05,2.892201408150795e-06,1.8427893142123397e-06,7.958323197264576e-05,2.8157000248666884e-06,7.222517054030586e-07,1.9077441014567767e-06,1.1839365147885901e-06
117,3.517409032102908e-06,2.3358040541455845e-06,7.14384870842694e-06,3.90405577265143e-05,9.234384120997245e-07,1.153130649920186e-06,9.637126949808937e-07,2.8400960434017675e-06,3.2647320574959944e-05,2.9192724963103947e-06,1.8522720983044574e-06,8.161676652504365e-05,2.6718387984632088e-06,7.365311064309369e-07,1.9136818624762863e-06,1.1766665214689326e-06
118,3.6389975197857016e-06,2.355733923634607e-06,7.0494357653008354e-06,3.8511695168590564e-05,9.238624083661743e-07,1.110873712301438e-06,9.704382411176276e-07,2.7047473220543012e-06,3.265581078361454e-05,2.9376528326595755e-06,1.8618521076431239e-06,8.404325416382571e-05,2.530425330687206e-06,7.528194474892385e-07,1.9146346698671607e-06,1.1693457885715372e-06
119,3.762394433108766e-06,2.3768749252413058e-06,6.9388551705884604e-06,3.798659828205721e-05,9.221134710063745e-07,1.0680213306289659e-06,9.778098507542247e-07,2.5773834332201113e-06,3.2585409082696246e-05,2.946197619289672e-06,1.870856899039211e-06,8.685920024277373e-05,2.3930040325230416e-06,7.710341275455583e-07,1.9106456158515827e-06,1.1626396885843709e-06
120,3.8884463684174386e-06,2.3987413849726024e-06,6.814900184880644e-06,3.7490588718228025e-05,9.180103364824182e-07,1.025066780838244e-06,9.858739921862224e-07,2.459144718968316e-06,3.245564503900399e-05,2.9446020536338126e-06,1.8783633618084576e-06,9.005194468144655e-05,2.260839592895072e-06,7.910143490104678e-07,1.901667205635319e-06,1.1574666764508576e-06
121,4.018028023462621e-06,2.421167830254598e-06,6.679335965481434e-06,3.7047523149535586e-05,9.115111152739117e-07,9.824022979392864e-07,9.94559884976182e-07,2.35065256663161e-06,3.229016852573487e-05,2.9333693227593575e-06,1.8833215451827352e-06,9.359559075278292e-05,2.1349246232389583e-06,8.124903997154229e-07,1.887526410697937e-06,1.1547759564040124e-06
122,4.15178181385693e-06,2.4441871037693623e-06,6.532929456832438e-06,3.6679329178312333e-05,9.026588342140254e-07,9.403256373743841e-07,1.0036326827466432e-06,2.2519862074313323e-06,3.211240051380789e-05,2.9135624301172567e-06,1.8848077195808921e-06,9.744720817626803e-05,2.016073549465757e-06,8.35094896454827e-07,1.868093663209213e-06,1.1554406017713008e-06
123,4.289981735184488e-06,2.467851941506533e-06,6.3759323427647175e-06,3.640457898343302e-05,8.915571738239651e-07,8.990370898079564e-07,1.012680371088273e-06,2.162794815316226e-06,3.194185536419436e-05,2.8864246186002903e-06,1.8822740258489912e-06,0.00010154432822430843,1.9049866971111994e-06,8.584538926523105e-07,1.8434475217771929e-06,1.160232606811983e-06
124,4.4323790893824514e-06,2.492269609228836e-06,6.208711106467977e-06,3.6236567059552956e-05,8.784207293827676e-07,8.586468315398414e-07,1.0211691462917924e-06,2.082470996377878e-06,3.1792588193852114e-05,2.8530295574789425e-06,1.8755954802475934e-06,0.00010580631957739891,1.8021860190499456e-06,8.823248830683151e-07,1.813848278352659e-06,1.169807836227449e-06
125,4.578005718324172e-06,2.5177160559704096e-06,6.032248355074992e-06,3.61817316475437e-05,8.635811953663512e-07,8.192169214425903e-07,1.0285227201034041e-06,2.010263577284209e-06,3.167345268739975e-05,2.814155182700307e-06,1.8648878685023396e-06,0.00011014237346000918,1.7079609581589816e-06,9.066525506736944e-07,1.7796106827268634e-06,1.1846821093105008e-06
126,4.725061470027085e-06,2.5445266862751167e-06,5.848377346914004e-06,3.623885186936665e-05,8.47408817595013e-07,7.80856005691381e-07,1.034155990140011e-06,1.9452818284349857e-06,3.158876224608829e-05,2.7704763182003625e-06,1.850335164453796e-06,0.00011446378202406548,1.6224230218398146e-06,9.314813335034677e-07,1.7410566887611901e-06,1.2051961804639376e-06
127,4.870936341993478e-06,2.572826981624612e-06,5.659623261223529e-06,3.639880606602392e-05,8.3025128291687e-07,7.437830492581278e-07,1.0374908659323e-06,1.8864755145932184e-06,3.1538589546792625e-05,2.7228860703923523e-06,1.8322198452069351e-06,0.00011869339451311695,1.5455711841927825e-06,9.568258169130487e-07,1.6985792468251139e-06,1.231521390915591e-06
128,5.012279794540914e-06,2.602382269918175e-06,5.468624839913284e-06,3.664483287219658e-05,8.124263232393452e-07,7.082824522208516e-07,1.0380534070435588e-06,1.8326904733467555e-06,3.1518807859574645e-05,2.672624194406194e-06,1.8109791583468544e-06,0.00012276656538485459,1.4773150472208368e-06,9.826059181579005e-07,1.6527258458121489e-06,1.26371555963711e-06
129,5.145050204949246e-06,2.632649350801502e-06,5.277432489239971e-06,3.695410600052814e-05,7.94213282068313e-07,6.746347827762252e-07,1.0356137440231875e-06,1.7828073662670878e-06,3.15212518134566e-05,2.621142426623322e-06,1.7870888145110447e-06,0.00012662297058686778,1.4175215184328051e-06,1.0086418881868128e-06,1.6042250001788992e-06,1.3017531084161783e-06
130,5.264600462306743e-06,2.662904897018472e-06,5.08718391634292e-06,3.730133632312457e-05,7.758504013305507e-07,6.431141100962434e-07,1.0302162623533972e-06,1.7358909956331097e-06,3.1534331021728664e-05,2.5698945605444786e-06,1.7609014408459139e-06,0.00013019428490774074,1.3660688442647202e-06,1.0346932695499195e-06,1.5539476149417926e-06,1.3455345479358614e-06
131,5.365980795997316e-06,2.6922882022519684e-06,4.898421313565017e-06,3.766368072534454e-05,7.575805927897724e-07,6.139974893797553e-07,1.0220644261795128e-06,1.6912658396016052e-06,3.154414808816551e-05,2.520170029914728e-06,1.7326428436160833e-06,0.00013339819847125062,1.3228384320157113e-06,1.0605463994014753e-06,1.5028372696782811e-06,1.3949106441504416e-06
132,5.444606971514624e-06,2.719705560749933e-06,4.7118396856144625e-06,3.802516830931949e-05,7.396874457478823e-07,5.875279458233857e-07,1.011366679515318e-06,1.648493093922988e-06,3.153586729946393e-05,2.472949492197467e-06,1.7025579477551767e-06,0.00013614610154339023,1.287673295020721e-06,1.086084016078523e-06,1.4518226725156577e-06,1.4496488931713351e-06
133,5.4970958782179246e-06,2.7437669126389023e-06,4.528978324323074e-06,3.837897874538905e-05,7.224507191421154e-07,5.638775779163553e-07,9.982708218244425e-07,1.6073095546470432e-06,3.149496960837738e-05,2.4288314728683436e-06,1.6710134825389317e-06,0.00013835743503461787,1.260327458071058e-06,1.1112569669005635e-06,1.4017163537774674e-06,1.5093272334453474e-06
134,5.521702909425818e-06,2.762941237039078e-06,4.3524531230361655e-06,3.8726789222704396e-05,7.06085957452803e-07,5.431608461834342e-07,9.829434411798832e-07,1.5675974424729483e-06,3.140815528774513e-05,2.3881076306674124e-06,1.6384808512648485e-06,0.00013996546121962288,1.2403924859495948e-06,1.1360194883194847e-06,1.3531770150923687e-06,1.573249313418617e-06
135,5.517928126787311e-06,2.77582313834933e-06,4.185652024488153e-06,3.907554504959748e-05,6.90757370805801e-07,5.254808429873151e-07,9.65706296702038e-07,1.529352880598232e-06,3.126398559639694e-05,2.3509017128615033e-06,1.6055252940639008e-06,0.0001409092993176598,1.2272752682488034e-06,1.1603393019909962e-06,1.3067655228261377e-06,1.6404309899320876e-06
136,5.4856099115321126e-06,2.7812968822589234e-06,4.032125839627734e-06,3.943286349447242e-05,6.766272612981455e-07,5.109624765909009e-07,9.470683958244956e-07,1.4925906530109578e-06,3.105345895214971e-05,2.3172164904357204e-06,1.5728031627757973e-06,0.00014112600663054943,1.2203204077032586e-06,1.1842261953569817e-06,1.262955493450145e-06,1.7096605760712309e-06
137,5.424538334556767e-06,2.778618455260913e-06,3.895002826156565e-06,3.9803109551266494e-05,6.638697870347517e-07,4.997407544511513e-07,9.276148475371848e-07,1.457273401105279e-06,3.077024222203758e-05,2.286851660397677e-06,1.5409642782752643e-06,0.000140559986283184,1.219018277130035e-06,1.2076725353497796e-06,1.2220505844903544e-06,1.7796033008355673e-06
138,5.335134915319044e-06,2.767534692756331e-06,3.776675531440828e-06,4.0186595007001526e-05,6.52673666873827e-07,4.919156557895844e-07,9.07865299139328e-07,1.4233730988170849e-06,3.0409655816436896e-05,2.259341465704088e-06,1.5105286766788232e-06,0.00013918544045554097,1.2231095455346053e-06,1.2305666302277409e-06,1.1841638690059088e-06,1.8488695177600637e-06
139,5.219438785706291e-06,2.748372674845881e-06,3.6788597476961826e-06,4.058210099936432e-05,6.432552098781162e-07,4.875190079145537e-07,8.882019610921548e-07,1.3909556924937263e-06,2.9966354281768338e-05,2.2340583361948044e-06,1.4818418316533425e-06,0.00013701925169002822,1.2324981522847847e-06,1.2526892132104439e-06,1.1493179959626137e-06,1.9160245847537778e-06
140,5.081411611712351e-06,2.7219367041862082e-06,3.6028898222913636e-06,4.098986503187377e-05,6.358245177146537e-07,4.865133055861313e-07,8.68864366001447e-07,1.3601594172424945e-06,2.9433307668966568e-05,2.210397473926223e-06,1.4550923369860194e-06,0.0001341103479474511,1.2470932222758203e-06,1.2737926418436443e-06,1.117560110896577e-06,1.9796347029416795e-06
141,4.9264470823792085e-06,2.6891967633295465e-06,3.5499429343136633e-06,4.141268732194734e-05,6.305152178102065e-07,4.888083426964938e-07,8.499768764824857e-07,1.331131982433871e-06,2.880467988059034e-05,2.187905573669324e-06,1.4303708019261428e-06,0.00013051515185568595,1.2667358201956625e-06,1.2937119544994728e-06,1.0890220190865458e-06,2.0384034468071155e-06
142,4.760505393086896e-06,2.650937062602737e-06,3.5210415529190166e-06,4.185493600870571e-05,6.273515778154845e-07,4.94294798248436e-07,8.315919301154783e-07,1.303993114981251e-06,2.8080753041470755e-05,2.166369442428782e-06,1.407768498822617e-06,0.00012628252269381916,1.291214668856641e-06,1.312446833759669e-06,1.0639299066716276e-06,2.0912678428631933e-06
143,4.589323537124941e-06,2.6075892512157608e-06,3.5169660245322814e-06,4.23198154441456e-05,6.262525587363695e-07,5.02893239587246e-07,8.137204574157278e-07,1.2787752579192178e-06,2.7270572278070325e-05,2.1458879641671205e-06,1.387458535987985e-06,0.00012145985470055609,1.320277026537285e-06,1.3301286248720997e-06,1.04257307739159e-06,2.1373071787303697e-06
144,4.417979168543922e-06,2.559308777685965e-06,3.5382087849984104e-06,4.280579888845675e-05,6.270438962224293e-07,5.145863471979726e-07,7.963357816340214e-07,1.2553450503405096e-06,2.6390411403402322e-05,2.126826294354327e-06,1.3696716701650225e-06,0.00011610990812261471,1.3536546906032645e-06,1.3468865076543396e-06,1.0252354022233408e-06,2.175603947116653e-06
145,4.250748428849022e-06,2.506125162347628e-06,3.584907890197326e-06,4.3304186110453326e-05,6.294800711396532e-07,5.294081976323261e-07,7.793825979207445e-07,1.2333924306298295e-06,2.5459520962349897e-05,2.1095845352579842e-06,1.3545960628700407e-06,0.00011032297766617372,1.3911725817096411e-06,1.362771120193076e-06,1.0121063227041451e-06,2.205295120164828e-06
146,4.0911190362416014e-06,2.448029933381959e-06,3.65670019592289e-06,4.3799323513382836e-05,6.332891035871872e-07,5.473968951227133e-07,7.628059162494531e-07,1.2125009302434815e-06,2.4496333631791746e-05,2.09433406626473e-06,1.3423647026691729e-06,0.00010421717317272218,1.4328414987013454e-06,1.3778094009435566e-06,1.003205470661126e-06,2.225751073000274e-06
147,3.9419591141241185e-06,2.385035169597751e-06,3.7526337107351564e-06,4.427110418626974e-05,6.382541779704282e-07,5.685387889285581e-07,7.465746172384107e-07,1.192198394891433e-06,2.3517385812399693e-05,2.080919356356151e-06,1.3331744655030262e-06,9.792725878225136e-05,1.4788043124171065e-06,1.3920839468218369e-06,9.983439238302306e-07,2.2366725519646322e-06
148,3.8057265877687534e-06,2.317264192466376e-06,3.871254272000881e-06,4.4698268655139826e-05,6.442805538242215e-07,5.927389831297892e-07,7.306939904692321e-07,1.1719327277619404e-06,2.25380093444533e-05,2.0689008225263827e-06,1.3273632520254016e-06,9.158845346632722e-05,1.529166475507041e-06,1.4057499147822438e-06,9.971227648362728e-07,2.2380607044251826e-06
149,3.6844940549570785e-06,2.245092150649703e-06,4.010733430905817e-06,4.5061265623439864e-05,6.51366119323319e-07,6.198254834990795e-07,7.152054552390094e-07,1.1510702575111061e-06,2.1572241425351942e-05,2.057634862070572e-06,1.325327923027152e-06,8.532327131049112e-05,1.5838506756735895e-06,1.4190282113646482e-06,9.98972575924737e-07,2.23016115887776e-06
150,3.5797884600917617e-06,2.1693122912516195e-06,4.168889505007586e-06,4.534399789324802e-05,6.595195657388705e-07,6.495700525794946e-07,7.001568185766673e-07,1.1290198070059657e-06,2.063146912812096e-05,2.0464237822414235e-06,1.3273974474050274e-06,7.923567136860376e-05,1.6425969041223835e-06,1.432225156070624e-06,1.0032226109391042e-06,2.2134830169045116e-06
151,3.4924722134339213e-06,2.0912267707490316e-06,4.34313767962536e-06,4.5534518945248496e-05,6.687171680125886e-07,6.817300938267621e-07,6.855969923205788e-07,1.1054304196433338e-06,1.9723628994620536e-05,2.0347325669805643e-06,1.3337876140784967e-06,7.341143858492027e-05,1.7050928705543186e-06,1.4457305007513172e-06,1.0091797814674544e-06,2.1888472470057324e-06
152,3.4228191381587025e-06,2.01255267683661e-06,4.5304594366949455e-06,4.56251524212697e-05,6.788797041022038e-07,7.161119747446592e-07,6.716539507481535e-07,1.0803139784575818e-06,1.8854087490241007e-05,2.022320764492533e-06,1.3445828095282686e-06,6.792100575517741e-05,1.7710573859488999e-06,1.4599442594622633e-06,1.016234202088448e-06,2.157304063784169e-06
153,3.3707638831548964e-06,1.9351689857496794e-06,4.727427220832799e-06,4.561193116896845e-05,6.898357383940118e-07,7.526071225643048e-07,6.586176621520709e-07,1.0539872798961794e-06,1.802695079809728e-05,2.0092143142474486e-06,1.3596763722229856e-06,6.282198231307535e-05,1.8401349592030317e-06,1.4752449839116434e-06,1.0239739655113167e-06,2.1198907039536724e-06
154,3.3362610087123354e-06,1.8608441999548426e-06,4.930277221814263e-06,4.54925374488471e-05,7.012938524516444e-07,7.911623536377581e-07,6.469280702557299e-07,1.026894002216377e-06,1.7245230081899115e-05,1.9955807257988053e-06,1.3787093045698936e-06,5.816060694218721e-05,1.9117274193889498e-06,1.4920810227394524e-06,1.032229000207539e-06,2.077411533906676e-06
155,3.3196518218382973e-06,1.791068645233403e-06,5.134995851968212e-06,4.526264412904845e-05,7.128346093893815e-07,8.317330945320677e-07,6.370841961815759e-07,9.994710877519698e-07,1.65106971934866e-05,1.981578506652252e-06,1.4010403825053294e-06,5.397208050110648e-05,1.9850361989196303e-06,1.5110144668814294e-06,1.0410130350541803e-06,2.0303928906510786e-06
156,3.321851023374933e-06,1.7270397309548044e-06,5.337385454967037e-06,4.491279094508958e-05,7.239357947948178e-07,8.742953184353155e-07,6.295482857556439e-07,9.720972450124646e-07,1.5825112354938523e-05,1.967254663649599e-06,1.4257383524729095e-06,5.0280158711010974e-05,2.059360979018697e-06,1.5325947002386064e-06,1.0504094701660155e-06,1.97918252719352e-06
157,3.3442148776507235e-06,1.6697342100875081e-06,5.533132318434353e-06,4.4428669851458415e-05,7.340649606449683e-07,9.188789143662515e-07,6.246902716534971e-07,9.450642390829382e-07,1.5192137691065758e-05,1.952551026605708e-06,1.4516064811959519e-06,4.7096957602561975e-05,2.1343642214115284e-06,1.557203077845892e-06,1.060471850664184e-06,1.9241352526160317e-06
158,3.38815134966131e-06,1.6199373148246774e-06,5.7179612094449815e-06,4.379494904248376e-05,7.428178517559282e-07,9.655309108868975e-07,6.227633864249392e-07,9.185978625304251e-07,1.4617938168435155e-05,1.9374113891159245e-06,1.4772820186218726e-06,4.442350555387859e-05,2.2100431010620473e-06,1.585027533435461e-06,1.0711783229267347e-06,1.8658456291974347e-06
159,3.454703219686484e-06,1.57822573547212e-06,5.887943623288907e-06,4.300005800688425e-05,7.499954200543377e-07,1.0142556652442506e-06,6.238868019337479e-07,8.929675127620207e-07,1.4109963794629959e-05,1.9219413148297597e-06,1.5014281030944888e-06,4.225095329097038e-05,2.28654310159581e-06,1.616181521523274e-06,1.0824292545882811e-06,1.8052599765269917e-06
160,3.544315165328466e-06,1.545027150238262e-06,6.039956036289765e-06,4.203977152190473e-05,7.555448565634792e-07,1.0650228365121038e-06,6.280350371920161e-07,8.686144755455561e-07,1.36750258647159e-05,1.9065410765679381e-06,1.5229497168770116e-06,4.056330889903495e-05,2.3640509104825216e-06,1.6508697206927624e-06,1.0940658818656978e-06,1.7435296808681762e-06
161,3.6567781839537668e-06,1.5207731550012005e-06,6.172189032706002e-06,4.0919058761580636e-05,7.594450843816505e-07,1.1177913512347486e-06,6.350380790721309e-07,8.46196037753653e-07,1.3318076360214345e-05,1.8919229975764067e-06,1.5411126029590667e-06,3.9342197370629216e-05,2.4427113231578772e-06,1.6894441696063037e-06,1.1058759818248463e-06,1.6817654675713848e-06
162,3.7912290641599835e-06,1.5060086926583196e-06,6.284495834909377e-06,3.9652479006449894e-05,7.616476654245608e-07,1.1724730441703841e-06,6.445845030054332e-07,8.265111658012188e-07,1.3042357092102495e-05,1.8789884375263598e-06,1.5554876572001687e-06,3.8570726382784114e-05,2.522492054451947e-06,1.7322794241868413e-06,1.1175708445851865e-06,1.620908721925834e-06
163,3.946243850865728e-06,1.501354263101307e-06,6.378369210365435e-06,3.826344915405371e-05,7.620759550796393e-07,1.2288645058004035e-06,6.56233796329675e-07,8.103612786032518e-07,1.2850388578195973e-05,1.8686440327020294e-06,1.565782164631328e-06,3.823306503444589e-05,2.6030937015645958e-06,1.7795693254080277e-06,1.128748402033027e-06,1.5616913508394331e-06
164,4.120099937778942e-06,1.5073757656778595e-06,6.4565098713716245e-06,3.678239042088618e-05,7.606751132191615e-07,1.2866162275646861e-06,6.694741822121745e-07,7.984420953977606e-07,1.2744703224879067e-05,1.8617202333676586e-06,1.5717079590649053e-06,3.831137315496515e-05,2.68396181280435e-06,1.8312041674126725e-06,1.1388809439110466e-06,1.5045940680583627e-06
165,4.310983602773915e-06,1.5244780845771584e-06,6.522139289385933e-06,3.524374336656007e-05,7.574995256099236e-07,1.3452462537019178e-06,6.83813549878771e-07,7.913037310496929e-07,1.2727837338269172e-05,1.8590401281898669e-06,1.5729405603246952e-06,3.8784268860731245e-05,2.764326325958685e-06,1.8867779073805055e-06,1.1474364091675834e-06,1.4498318626670736e-06
166,4.516902547682913e-06,1.5528462179792097e-06,6.578298452490205e-06,3.3682410694319855e-05,7.527376893178199e-07,1.4041312044027565e-06,6.988159225871715e-07,7.893375631705419e-07,1.2801898366694982e-05,1.8614706309073233e-06,1.569128767638564e-06,3.962684384804241e-05,2.8431435210797326e-06,1.94564596381572e-06,1.1541130327993644e-06,1.3974201383000866e-06
167,4.7356037984245105e-06,1.5924047596747447e-06,6.62731427206222e-06,3.213047376088073e-05,7.466266209423795e-07,1.462455517832965e-06,7.14086897802711e-07,7.927655510639028e-07,1.2968103439214388e-05,1.8698416031670854e-06,1.5599894744402126e-06,4.080984008667617e-05,2.918969982828107e-06,2.006953745047409e-06,1.158916760090194e-06,1.347313050638137e-06
168,4.964954108763877e-06,1.6428103431870356e-06,6.670450904097823e-06,3.061481172633596e-05,7.393649929208324e-07,1.5191880981001216e-06,7.293066175748348e-07,8.016433231527608e-07,1.3226369364348454e-05,1.884817035015621e-06,1.5455459659469642e-06,4.2299526595266087e-05,2.9899586321931066e-06,2.0696503809807823e-06,1.161980665117988e-06,1.2995475763827966e-06
169,5.203653415283311e-06,1.7034933462373713e-06,6.70774032375562e-06,2.9156245071389513e-05,7.311281901020678e-07,1.5731717255968898e-06,7.442997535624547e-07,8.158810274409465e-07,1.357491506224659e-05,1.9068214112329603e-06,1.526339331623349e-06,4.406105427909297e-05,3.0541234319383483e-06,2.132521087612199e-06,1.1633901246067938e-06,1.2542983364982016e-06
170,5.451811934494384e-06,1.773718613370408e-06,6.738067780944842e-06,2.777032920596188e-05,7.221510288208327e-07,1.6233501220635164e-06,7.590383765194009e-07,8.352928596633705e-07,1.4010001586566132e-05,1.9360157861099386e-06,1.5033423192671156e-06,4.606323634754765e-05,3.1097987052249564e-06,2.194182042492717e-06,1.1632068656130458e-06,1.2118112146958859e-06
171,5.711103693929406e-06,1.852605121261442e-06,6.759483063409558e-06,2.6468818074112888e-05,7.127898592569464e-07,1.6690022748639186e-06,7.735485927230963e-07,8.596734723734709e-07,1.4526005215020886e-05,1.9722816552725335e-06,1.4776278927582514e-06,4.828002996422811e-05,3.1559177112129497e-06,2.2529894095057137e-06,1.161556172187917e-06,1.1723347641280389e-06
172,5.984423025023329e-06,1.939076030398108e-06,6.769582680256041e-06,2.5260735658300982e-05,7.03510261181693e-07,1.7098047060819467e-06,7.878044050743384e-07,8.888435094797786e-07,1.5115803880632178e-05,2.0152628619551345e-06,1.4501035002302806e-06,5.0687364055268703e-05,3.1918392932188032e-06,2.3069658969320493e-06,1.158587873436945e-06,1.136149148078756e-06
173,6.275147291431302e-06,2.0318130647028054e-06,6.765901691813747e-06,2.4152779540825573e-05,6.948011502049293e-07,1.7457070161321798e-06,8.016946134033387e-07,9.226123515327015e-07,1.577129965213442e-05,2.0645571112265877e-06,1.4214745149112473e-06,5.325970690390179e-05,3.217001293876181e-06,2.353889324255771e-06,1.1543443246137295e-06,1.1035920681204169e-06
174,6.586267571521676e-06,2.129277090933016e-06,6.746327002991159e-06,2.314924700400278e-05,6.870743899794239e-07,1.7767378690742925e-06,8.150580055600303e-07,9.606910188445761e-07,1.6483911909273474e-05,2.119980851996268e-06,1.392352732180133e-06,5.597101408584603e-05,3.2308014427300107e-06,2.3915608067301204e-06,1.1487091068140136e-06,1.0749884966267587e-06
175,6.919684883043874e-06,2.2297123101976115e-06,6.709427671067348e-06,2.225183786976381e-05,6.806067545251637e-07,1.8028246392637566e-06,8.277415289919738e-07,1.0026351169446097e-06,1.7244775926094528e-05,2.1816515111138342e-06,1.3633543140561068e-06,5.87975859590974e-05,3.232623138580476e-06,2.418122078173189e-06,1.1415169360682088e-06,1.0505642479709928e-06
176,7.2758301445078165e-06,2.331076803342648e-06,6.654547541815707e-06,2.1459692823199126e-05,6.755329392370958e-07,1.8236472727665612e-06,8.396510488600355e-07,1.0478588538803983e-06,1.8044233430243934e-05,2.249775573252963e-06,1.3351054775989874e-06,6.171734586567012e-05,3.2218198319915807e-06,2.4321964518191454e-06,1.1326932514406896e-06,1.0304161520293413e-06
177,7.653581920249239e-06,2.431029777942463e-06,6.581686440903497e-06,2.0769793679876236e-05,6.718857016816556e-07,1.8385714100310735e-06,8.507756838827501e-07,1.0956898751348163e-06,1.8870678954483822e-05,2.324352862310466e-06,1.3081701526627937e-06,6.470519477695002e-05,3.1978052894674886e-06,2.432751245427602e-06,1.1222545137844163e-06,1.0145093135518178e-06
178,8.050410677843406e-06,2.527110685200065e-06,6.491381333297541e-06,2.0177505795982127e-05,6.696593114589272e-07,1.8467150219475264e-06,8.611776208376026e-07,1.1454047756738324e-06,1.970990692864652e-05,2.4050237290619844e-06,1.2829773027924921e-06,6.772790808996651e-05,3.1602248365752236e-06,2.418960250897997e-06,1.110258052753366e-06,1.0026921478864148e-06
179,8.462672560402532e-06,2.61701713372137e-06,6.384770753173261e-06,1.9676883600749724e-05,6.688343815437702e-07,1.8471281929271911e-06,8.709527275590019e-07,1.1962278061858072e-06,2.0546033168158506e-05,2.4911022463582853e-06,1.2598178624162872e-06,7.074151609562928e-05,3.1090049482735166e-06,2.3904491333980016e-06,1.0968525509184188e-06,9.94759388157295e-07
180,8.885898477137622e-06,2.6987257310537776e-06,6.263820255868738e-06,1.9260569051386492e-05,6.693518299049549e-07,1.8390287473309983e-06,8.80216493433773e-07,1.2473188981620372e-06,2.136362562071332e-05,2.581775865082993e-06,1.2388822172448703e-06,7.369247536951106e-05,3.044524520293921e-06,2.347790634693678e-06,1.082315176945887e-06,9.905143829135152e-07
181,9.314897166813427e-06,2.7703496179635117e-06,6.13145581868314e-06,1.89194927775837e-05,6.711076803939882e-07,1.822057865738386e-06,8.891794953215273e-07,1.2977606050993619e-06,2.215010362357265e-05,2.67632806845147e-06,1.2202654598367156e-06,7.652073592704147e-05,2.9680200662819717e-06,2.2926880913062403e-06,1.0669690228868983e-06,9.897436600002126e-07
182,9.743570611712259e-06,2.8300052342453657e-06,5.991338722695654e-06,1.8642873381200805e-05,6.74007158169232e-07,1.796498214199283e-06,8.982465046128088e-07,1.3465223414546504e-06,2.2897881884354094e-05,2.7741319997443463e-06,1.2039566713864483e-06,7.91604875760437e-05,2.8816471846666384e-06,2.2276028415230688e-06,1.0510856415478917e-06,9.921431660389748e-07
183,1.0164484833181824e-05,2.8760110248267675e-06,5.847309974783967e-06,1.841904856530934e-05,6.780205917717748e-07,1.7633389635799636e-06,9.079966215105872e-07,1.3924148327747116e-06,2.3605703721456598e-05,2.87439230685022e-06,1.1898564963813493e-06,8.153781493192986e-05,2.7879552089862157e-06,2.155152747792175e-06,1.0348523595431803e-06,9.973217194517742e-07
184,1.05684428997169e-05,2.9072953699373196e-06,5.702795696024675e-06,1.8237271363815663e-05,6.831701874551077e-07,1.7240909499059092e-06,9.19036430089871e-07,1.4341452416298616e-06,2.427838005126955e-05,2.975905532336683e-06,1.1777903893789068e-06,8.357006824866711e-05,2.6893631774699603e-06,2.0776879079673094e-06,1.01841334917551e-06,1.0048942688534302e-06
185,1.0944459646140603e-05,2.9236734757715785e-06,5.5604031317138546e-06,1.8089823181456254e-05,6.894555080458981e-07,1.6804232341854336e-06,9.318547906186557e-07,1.4705640029865941e-06,2.4924568134439837e-05,3.0770845010489667e-06,1.1675049770543073e-06,8.51726876305485e-05,2.5880550431949767e-06,1.997130331631983e-06,1.0019510758983693e-06,1.014527724750363e-06
186,1.1280481022737818e-05,2.9258859212013676e-06,5.4217305716085645e-06,1.7973259798465922e-05,6.968042176956049e-07,1.6338569834568322e-06,9.467668941711249e-07,1.500996776935429e-06,2.5553277676733346e-05,3.1762639184600255e-06,1.1587069929322288e-06,8.62740022314084e-05,2.486048973479999e-06,1.9149637895589995e-06,9.856906742391972e-07,1.0258806044459577e-06
187,1.1564923272258983e-05,2.915459655999948e-06,5.287296868995894e-06,1.788794904831625e-05,7.051099614043863e-07,1.5856561310952123e-06,9.639350698504194e-07,1.5254406578392646e-06,2.6170737292432244e-05,3.2720779814629387e-06,1.1511222818881516e-06,8.682857245704976e-05,2.3851489370797797e-06,1.8322667351729636e-06,9.69813803430913e-07,1.0386036804798417e-06
188,1.1788645277710877e-05,2.8944312772507807e-06,5.156528254011232e-06,1.7836051519191843e-05,7.142995300646037e-07,1.5368401709082413e-06,9.834231579871826e-07,1.5445069527230153e-06,2.6778967791905653e-05,3.3635798918439314e-06,1.1445001954980278e-06,8.68170274954658e-05,2.2868344792385055e-06,1.7497757493723482e-06,9.544023624639538e-07,1.0525074810808042e-06
189,1.1946442070413942e-05,2.8649667065758547e-06,5.027904717135863e-06,1.7818955761489237e-05,7.24331410741735e-07,1.4882348534547105e-06,1.0052488574697234e-06,1.559156928297774e-06,2.737596568565234e-05,3.4499695380128523e-06,1.1386222087407672e-06,8.623717990757309e-05,2.1922353953638986e-06,1.6680463104747798e-06,9.39451485849728e-07,1.0676883511128739e-06
190,1.2037002904037618e-05,2.82897604839514e-06,4.899369472089605e-06,1.7835352715687083e-05,7.351387661050021e-07,1.4405477560070668e-06,1.029402899667222e-06,1.5704041152502045e-06,2.7956588513140674e-05,3.5302141682495192e-06,1.1333546637442362e-06,8.510293771773317e-05,2.102168918919883e-06,1.5876593213374615e-06,9.249233517281189e-07,1.084443709578502e-06
191,1.2061276693150495e-05,2.7878706344257493e-06,4.768842597312788e-06,1.7880462980533094e-05,7.465904330789751e-07,1.3944191950454622e-06,1.0558167218296793e-06,1.5791975284115142e-06,2.8513545702627162e-05,3.6029136461231785e-06,1.12866504497809e-06,8.345141759066646e-05,2.017155470891977e-06,1.509284647358242e-06,9.108074836141337e-07,1.103137854426278e-06
192,1.2021001266525818e-05,2.7425496336463475e-06,4.634593908080736e-06,1.7946307684845098e-05,7.584690949042659e-07,1.3503977428714757e-06,1.0843067636749307e-06,1.5865186588577658e-06,2.9038174430792962e-05,3.666424102771033e-06,1.1246099316976188e-06,8.134568955215466e-05,1.9374447239696566e-06,1.433568152068775e-06,8.971360663712233e-07,1.1241586742457772e-06
193,1.1919011438842658e-05,2.6935790125677688e-06,4.495434095558093e-06,1.8023053383362072e-05,7.704517499981691e-07,1.3089033789045372e-06,1.1145601076451906e-06,1.5934702150143959e-06,2.952096043194706e-05,3.7190602780310397e-06,1.121318304309315e-06,7.887030471366113e-05,1.8630910024947348e-06,1.3610201219943352e-06,8.839465697803275e-07,1.1478795994161971e-06
194,1.1760564173834898e-05,2.6414517625562243e-06,4.3508398401707165e-06,1.8101058474054275e-05,7.821490956744258e-07,1.2702705136717719e-06,1.146185658575902e-06,1.6011839487329245e-06,2.995232860466421e-05,3.7592589473032852e-06,1.1189057037764876e-06,7.612444967378969e-05,1.7940418219852415e-06,1.2920262489919565e-06,8.712225224190907e-07,1.1745661917318606e-06
195,1.1554104861954303e-05,2.5868178199650178e-06,4.201078661300918e-06,1.8172195935916165e-05,7.932323483382195e-07,1.2348262329857137e-06,1.1787861875337807e-06,1.6106280171060366e-06,3.0324125030124224e-05,3.785718290949044e-06,1.1173579724184928e-06,7.32146343955151e-05,1.7302160199153823e-06,1.2269180618658246e-06,8.588607000058965e-07,1.2042853861062518e-06
196,1.1311016940964537e-05,2.5306040756697397e-06,4.04722441299258e-06,1.8229350117699953e-05,8.035560883103218e-07,1.2028977252007562e-06,1.2119736075206454e-06,1.6224675301641364e-06,3.063129905579113e-05,3.7976097800582345e-06,1.116522257176373e-06,7.024704867505506e-05,1.6715263824118156e-06,1.1659879687401824e-06,8.467241779556514e-07,1.2368818957958038e-06
197,1.1044543594763118e-05,2.4739952364937427e-06,3.8908827446351955e-06,1.8264646450913463e-05,8.131592412196668e-07,1.1747501878421646e-06,1.2452953118418137e-06,1.637025140139552e-06,3.087287734755786e-05,3.794804422656216e-06,1.1162684503690331e-06,6.732074324000287e-05,1.6177974032580825e-06,1.109437217476615e-06,8.347538407427468e-07,1.2720127507170193e-06
198,1.0768275063071713e-05,2.4183138531253973e-06,3.7336769104447645e-06,1.8268161791865602e-05,8.221435604629904e-07,1.1505411596090524e-06,1.278149447475119e-06,1.6543144375365614e-06,3.1051893095878106e-05,3.777866133692245e-06,1.1167163244449563e-06,6.452313000671713e-05,1.568648574448763e-06,1.0573330110448064e-06,8.230141823146675e-07,1.3091796313839973e-06
199,1.049475385185874e-05,2.364860454161358e-06,3.5768635259161484e-06,1.8228503705401044e-05,8.305335530481035e-07,1.1303447952806453e-06,1.3097607991776429e-06,1.6741310086957893e-06,3.117442700550333e-05,3.7477498391665247e-06,1.1183098460648566e-06,6.192819917502941e-05,1.5234794176675247e-06,1.0096166337527441e-06,8.116163021113926e-07,1.3477409813890561e-06
200,1.0234581431174605e-05,2.3147603320429174e-06,3.4213306956323146e-06,1.8135063428425586e-05,8.382033048495795e-07,1.1142140961665192e-06,1.339191922663109e-06,1.6961937940982163e-06,3.124761751567297e-05,3.705463560334508e-06,1.1216848784266503e-06,5.9596460067973664e-05,1.4815965190564106e-06,9.661623733329885e-07,8.0061144387096e-07,1.3869264278780253e-06
201,9.996123427029225e-06,2.2689220832350548e-06,3.26781301939197e-06,1.7980652169162126e-05,8.448968091205542e-07,1.1022013175255992e-06,1.3654017156393964e-06,1.7202640493263938e-06,3.1276865165507585e-05,3.6519399130369852e-06,1.1275051271975025e-06,5.757604283770623e-05,1.44237981860904e-06,9.268755630816722e-07,7.899718639649089e-07,1.4259047962878227e-06
202,9.78565366814772e-06,2.228158324647365e-06,3.117096915746884e-06,1.7763459543091747e-05,8.503247707045067e-07,1.094299881855055e-06,1.3873940151517265e-06,1.746129277958104e-06,3.12642761833854e-05,3.588110313814962e-06,1.1363746414010428e-06,5.590539046883556e-05,1.405363639134931e-06,8.917583387831712e-07,7.79671373999866e-07,1.4639555729210586e-06
203,9.60761954818488e-06,2.193279151461476e-06,2.970161883089471e-06,1.7487874294626097e-05,8.542555649649992e-07,1.0903624720725753e-06,1.404396039429989e-06,1.773454467777023e-06,3.121010506357921e-05,3.5150157569362994e-06,1.1487919945112397e-06,5.461635586804832e-05,1.3702059862027855e-06,8.608867981069005e-07,7.697669296188028e-07,1.5006412594610105e-06
204,9.4648043033841e-06,2.1650183954507545e-06,2.8281912247538985e-06,1.716400555717016e-05,8.565170474638871e-07,1.090086920018613e-06,1.4159704394155716e-06,1.801630395155012e-06,3.111576330083243e-05,3.4337893350675987e-06,1.1651206837013852e-06,5.373484506114693e-05,1.33659129263108e-06,8.343570887137241e-07,7.60382967282314e-07,1.5358117947198276e-06
205,9.35832724289497e-06,2.1439311361843277e-06,2.6923841421463674e-06,1.6805920897271253e-05,8.569576321527332e-07,1.0930906071334002e-06,1.421990539334236e-06,1.8296917969106988e-06,3.098594725652248e-05,3.345460230990588e-06,1.1855788362985114e-06,5.327853588672458e-05,1.3041233311968335e-06,8.12262304364054e-07,7.516357261267338e-07,1.5694585933141012e-06
206,9.28752431986722e-06,2.130351362537129e-06,2.5636624006610348e-06,1.6429011043799293e-05,8.55473970967994e-07,1.0989803418882722e-06,1.4224683334039773e-06,1.8563033982739787e-06,3.082920475560294e-05,3.250730809529983e-06,1.2102536068570668e-06,5.325432401697867e-05,1.2722854242493457e-06,7.946825030459344e-07,7.435776511139771e-07,1.6015481708517895e-06
207,9.249920805143587e-06,2.124327715828366e-06,2.44245754054745e-06,1.6047542848074767e-05,8.520817520705308e-07,1.1073173253418975e-06,1.4173915784774643e-06,1.8798772643871357e-06,3.065729379585081e-05,3.149949358107819e-06,1.239130043904867e-06,5.365740595614287e-05,1.2405436671167992e-06,7.816691435761071e-07,7.361613892472542e-07,1.6319036454986913e-06
208,9.241413977636334e-06,2.125534722375654e-06,2.328658179779987e-06,1.567353264619957e-05,8.469293337416411e-07,1.1175187667202016e-06,1.4067372665638528e-06,1.8988690631488104e-06,3.0483763373318038e-05,3.043284501196858e-06,1.2721163657557978e-06,5.447158748886899e-05,1.2085188040838198e-06,7.732292466661512e-07,7.292282124202412e-07,1.6601634633154026e-06
209,9.256490419808547e-06,2.133248912882368e-06,2.2216847175131713e-06,1.5316967959167715e-05,8.402378242793154e-07,1.1288326492737946e-06,1.3906100242190766e-06,1.912118404383535e-06,3.0322194287061176e-05,2.930945299432539e-06,1.309108100169586e-06,5.5669618354837466e-05,1.176022189158215e-06,7.69301534536834e-07,7.225586557748161e-07,1.685807125024966e-06
210,9.288660522870698e-06,2.1464418773891342e-06,2.1206893573187725e-06,1.4986420994059475e-05,8.322144787629729e-07,1.1404189012594114e-06,1.3693710989376843e-06,1.919002313154938e-06,3.0184279257950316e-05,2.8133783371789634e-06,1.3500800906529355e-06,5.721271954165028e-05,1.1429367675951086e-06,7.697353279209895e-07,7.159712968143407e-07,1.7082259645186744e-06
211,9.331486029515777e-06,2.163997222216265e-06,2.0248767100565923e-06,1.4689307437753543e-05,8.229832187675015e-07,1.1514478365454039e-06,1.3436910356603138e-06,1.919296143556236e-06,3.0077833274962747e-05,2.691404100974203e-06,1.3950876753552791e-06,5.904953369245105e-05,1.1091195269483444e-06,7.742949470119238e-07,7.094041504658178e-07,1.7268322746930598e-06
212,9.379568441587811e-06,2.1849916889055733e-06,1.933814028021653e-06,1.443158853706744e-05,8.125588261700315e-07,1.161168822234539e-06,1.314482107064995e-06,1.9128953099038627e-06,3.0005436516255777e-05,2.5662254095360616e-06,1.444214541995444e-06,6.111553251474782e-05,1.0743827274095512e-06,7.826691994971513e-07,7.029389979319738e-07,1.7411049684106367e-06
213,9.428453251413258e-06,2.208889192282639e-06,1.8475509992581739e-06,1.4217107846629847e-05,8.008525139148994e-07,1.1689866076917294e-06,1.2827247503649243e-06,1.8996842623168505e-06,2.996448909741732e-05,2.4393632510065693e-06,1.4975985518272865e-06,6.333323880870974e-05,1.038510932694001e-06,7.944603533929494e-07,6.967649867381505e-07,1.7505301237827829e-06
214,9.473779239673707e-06,2.235504847693641e-06,1.7664948326740841e-06,1.4047243057774065e-05,7.876976334565533e-07,1.1745622832259774e-06,1.2493007660945364e-06,1.879616506707442e-06,2.9948310418052576e-05,2.3125980015445676e-06,1.5554721672119572e-06,6.561270548099534e-05,1.0013299460414305e-06,8.091611876040295e-07,6.910894169076796e-07,1.7546065489764402e-06
215,9.511056883744967e-06,2.264750553233776e-06,1.6911492730521403e-06,1.3921467768064005e-05,7.729336401252498e-07,1.1778852753096473e-06,1.2149192296388426e-06,1.852813823719467e-06,2.9947288881275726e-05,2.18783747821593e-06,1.6181110211180312e-06,6.785307647489161e-05,9.628243022098234e-07,8.261297166444852e-07,6.86059207250226e-07,1.7529793931052782e-06
216,9.53652858937131e-06,2.296343622995118e-06,1.6218823040844482e-06,1.3838564029037328e-05,7.565542680756506e-07,1.1792488673606022e-06,1.1801132418458757e-06,1.8196008263813687e-06,2.9949624596171364e-05,2.066893722136807e-06,1.6857132828192265e-06,6.994949389331626e-05,9.232379635887098e-07,8.445784807555601e-07,6.817774201461129e-07,1.7455193971142076e-06
217,9.548250328945189e-06,2.3296604078636945e-06,1.558824377183074e-06,1.3797753981535042e-05,7.388205012144399e-07,1.1791304966741842e-06,1.1453005162546366e-06,1.7805560642778524e-06,2.994150037165303e-05,1.9513108627942523e-06,1.7582945681490888e-06,7.180876188106999e-05,8.831011552975377e-07,8.636290455614289e-07,6.784030473472714e-07,1.7322706869997978e-06
218,9.54657220206713e-06,2.363741747514974e-06,1.501899502083235e-06,1.3799300063997061e-05,7.202281888347678e-07,1.1780520280510215e-06,1.1109374000765887e-06,1.7365650576030066e-06,2.9906557860211792e-05,1.8423064380727375e-06,1.8356747695192798e-06,7.33676443436899e-05,8.431519899996558e-07,8.824259351718249e-07,6.762341005846182e-07,1.7134561892875446e-06
219,9.533759741805061e-06,2.397343029269407e-06,1.450921522190679e-06,1.3844493099278306e-05,7.013499118220505e-07,1.176471510060489e-06,1.077657102262692e-06,1.6887451624956555e-06,2.982578430457436e-05,1.7407627935703246e-06,1.9175452073686334e-06,7.460006025235424e-05,8.041740588908336e-07,9.001927960161142e-07,6.756917500518697e-07,1.6896131744061337e-06
220,9.512807610195187e-06,2.4289985552905864e-06,1.4056549590065937e-06,1.3935158504114207e-05,6.826892783920944e-07,1.17469179896691e-06,1.0462248699784289e-06,1.6382391487379954e-06,2.967974632955702e-05,1.6472313047003534e-06,2.003552945356782e-06,7.550705562108264e-05,7.668480173129975e-07,9.162111320249759e-07,6.772214600029736e-07,1.6616169612388592e-06
221,9.485970164930974e-06,2.45716039713831e-06,1.3657875036173246e-06,1.4072934438222251e-05,6.6465032434372e-07,1.1727925505072625e-06,1.0173634076924153e-06,1.586098853531535e-06,2.9452752342136837e-05,1.5619728709585799e-06,2.0933742631641313e-06,7.610017259113128e-05,7.317004840284567e-07,9.298690902908799e-07,6.811992818339595e-07,1.6304705513392478e-06
222,9.453852413160288e-06,2.4804237037539573e-06,1.330901336821718e-06,1.4258502305189557e-05,6.475973635234157e-07,1.1706363652865796e-06,9.916301652198788e-07,1.5334092502037422e-06,2.9135746716347146e-05,1.485011218793912e-06,2.1867521258142988e-06,7.639519534180134e-05,6.991327976388387e-07,9.407801773530803e-07,6.879006133252232e-07,1.5970903818431157e-06
223,9.415371557234008e-06,2.497752957203762e-06,1.3005511479331713e-06,1.4490814187350132e-05,6.31905435954261e-07,1.167935328736124e-06,9.693867197761405e-07,1.481494353714124e-06,2.8725460266937814e-05,1.4161307718211989e-06,2.2834413799749924e-06,7.642073509788477e-05,6.694709047418646e-07,9.487821829668498e-07,6.975147100439769e-07,1.5623004357627568e-06
224,9.368074456692049e-06,2.508612053441074e-06,1.2743731135812764e-06,1.4766570036966586e-05,6.179371155316677e-07,1.1642974321081439e-06,9.507997945424149e-07,1.431982889699933e-06,2.8221010280574748e-05,1.3548395655288249e-06,2.383068178553812e-06,7.623069482179555e-05,6.430157766062792e-07,9.537822418014002e-07,7.101556475111288e-07,1.5269458856133612e-06
225,9.308465265611036e-06,2.512950155000858e-06,1.2520764345581046e-06,1.5080336695206054e-05,6.059842838048182e-07,1.1592626013590518e-06,9.358415526703441e-07,1.3867062968597594e-06,2.762205452379746e-05,1.3003693285821153e-06,2.4850983531709774e-06,7.590915521436224e-05,6.20078990298701e-07,9.556206197280633e-07,7.258723004316936e-07,1.491924031257241e-06
226,9.232838764318772e-06,2.511022512612245e-06,1.233329270622266e-06,1.542512818330139e-05,5.962397803596857e-07,1.1524089426778843e-06,9.242942589878309e-07,1.3475433354600481e-06,2.6930028944468805e-05,1.2517143894214554e-06,2.589076021860454e-06,7.556492366528165e-05,6.009758202649825e-07,9.54086157191688e-07,7.446928181797463e-07,1.4580886668003318e-06
227,9.13880530238205e-06,2.5030865342732997e-06,1.2176599683764607e-06,1.5792793974095418e-05,5.887962601853041e-07,1.1435001541627757e-06,9.157917040652836e-07,1.3163378952710217e-06,2.614953707223831e-05,1.2077046542016453e-06,2.694929902418387e-06,7.531939284082792e-05,5.85985011643593e-07,9.490778391090578e-07,7.666600305952486e-07,1.4261224426815605e-06
228,9.02651851551498e-06,2.4891410028173346e-06,1.204430521499184e-06,1.6174007988435666e-05,5.836531644133936e-07,1.1325797319241293e-06,9.099037722008379e-07,1.2949205496634214e-06,2.528828212332734e-05,1.1671753378630186e-06,2.8030151409989487e-06,7.529377650421984e-05,5.753118058934708e-07,9.40791395009212e-07,7.917926941872985e-07,1.3964499435726543e-06
229,8.898633835468835e-06,2.4688939707504743e-06,1.192866987003684e-06,1.6558304270869262e-05,5.807402181663356e-07,1.1199805571880652e-06,9.062158993758794e-07,1.28514443622465e-06,2.4356888410813603e-05,1.1291787955181173e-06,2.913846152918682e-06,7.560036357371522e-05,5.690784610881686e-07,9.29751652222387e-07,8.200100016968291e-07,1.3692087433002886e-06
230,8.759117354946042e-06,2.441972141539603e-06,1.1821326153746824e-06,1.6934735373608694e-05,5.799446374954535e-07,1.106239323443433e-06,9.043552161718923e-07,1.2888578036457559e-06,2.3368818774639835e-05,1.093033468159829e-06,3.027756809163339e-06,7.633864828203558e-05,5.673389904863679e-07,9.166467964060175e-07,8.510944256398048e-07,1.3442736755176687e-06
231,8.611830428789787e-06,2.4082193077685667e-06,1.1714228784459536e-06,1.7293384258946123e-05,5.81107941041311e-07,1.0919327570571267e-06,9.039610110184135e-07,1.3078448592328589e-06,2.23392315783795e-05,1.058216182684038e-06,3.144720951327008e-06,7.759454325107402e-05,5.700870651450451e-07,9.021418739340616e-07,8.846902711208083e-07,1.3213191005845137e-06
232,8.459858828534744e-06,2.367905055154782e-06,1.1600247760553813e-06,1.7627347440412963e-05,5.839953745774462e-07,1.0775437192145737e-06,9.046552417746379e-07,1.3437801056821356e-06,2.1282878515975753e-05,1.0242987022316523e-06,3.2643153157366646e-06,7.944079548916445e-05,5.772368910320163e-07,8.868298090647874e-07,9.202965232942999e-07,1.299897461987693e-06
233,8.305733480498705e-06,2.321739889554328e-06,1.1472993417902862e-06,1.793430014334409e-05,5.882749378618352e-07,1.063433651103126e-06,9.060801465651307e-07,1.3981776814176083e-06,2.021241261542721e-05,9.909508727637275e-07,3.3856798035268826e-06,8.193814099682436e-05,5.886087156711603e-07,8.712749999943694e-07,9.572610750895408e-07,1.2794863636839124e-06
234,8.151861747392054e-06,2.2707317266498808e-06,1.132637112026417e-06,1.8216812859490153e-05,5.935375855019663e-07,1.0498613746999685e-06,9.079875094628981e-07,1.4723377156970507e-06,1.91379014920098e-05,9.579449192776042e-07,3.5075333428695754e-06,8.513750003252612e-05,6.039594868064496e-07,8.560283513997855e-07,9.948201171493694e-07,1.2594984939628957e-06
235,8.000691889062375e-06,2.216020881836712e-06,1.115492005458452e-06,1.848122271553652e-05,5.993681736011095e-07,1.036973778990215e-06,9.102725040414955e-07,1.5673257514229417e-06,1.8067124331364443e-05,9.251828409270661e-07,3.6284439859968177e-06,8.908221828476197e-05,6.230277464335658e-07,8.415880383094051e-07,1.0321965603031487e-06,1.2393358446455149e-06
236,7.85475107018166e-06,2.1587810170176675e-06,1.0955220814718531e-06,1.873558112390593e-05,6.054246368212586e-07,1.0247691396823804e-06,9.129029886860197e-07,1.683975161730433e-06,1.7005759541595696e-05,8.927169119233254e-07,3.7473783424776375e-06,9.380773198809437e-05,6.455357313688594e-07,8.283557522924922e-07,1.0686959178760836e-06,1.2185140093631221e-06
237,7.71683433755529e-06,2.1001507084762897e-06,1.0727204693776712e-06,1.8987460058354368e-05,6.114504475252715e-07,1.0130637847728716e-06,9.158688622603783e-07,1.8228836895938514e-06,1.595710908671541e-05,8.607289690106554e-07,3.864240938257137e-06,9.933738787340699e-05,6.711698377201675e-07,8.166053703604094e-07,1.103728421389592e-06,1.1968005209767587e-06
238,7.590360291167237e-06,2.041136866072766e-06,1.0473869130548492e-06,1.924218026197128e-05,6.172179325166938e-07,1.001496979914731e-06,9.192479426340083e-07,1.984392249493983e-06,1.4922162541056556e-05,8.295298336715663e-07,3.979936100106941e-06,0.00010567674777111958,6.995749076016655e-07,8.064618667025419e-07,1.1367863971855012e-06,1.1743228511694952e-06
239,7.47963128184605e-06,1.982502197647377e-06,1.019959040968177e-06,1.950187375268401e-05,6.224910301933902e-07,9.896205553387504e-07,9.232625900901322e-07,2.1685522116492137e-06,1.3900832293920207e-05,7.995634777565543e-07,4.095895815284178e-06,0.00011280980374450526,7.303415363342772e-07,7.979204002915666e-07,1.1674592181983526e-06,1.151564410703825e-06
240,7.38974262687381e-06,1.924684843907686e-06,9.908934468631165e-07,1.976571158240058e-05,6.27056138080408e-07,9.770591428254988e-07,9.282057228310304e-07,2.3751504817146726e-06,1.2893649542666886e-05,7.713333246748833e-07,4.213702563369708e-06,0.00012069799390080432,7.630053733806662e-07,7.909200522574901e-07,1.195510687658814e-06,1.1291865685988395e-06
241,7.326140088994831e-06,1.8678013617131055e-06,9.606889603425977e-07,2.003106027507169e-05,6.307697938941639e-07,9.636008710928732e-07,9.343101505363365e-07,2.6038314587547597e-06,1.1902649217797013e-05,7.452918708968564e-07,4.335216114355773e-06,0.00012928096725427256,7.970878428350539e-07,7.854177723815006e-07,1.2209570421642893e-06,1.1078111210171251e-06
242,7.294014975586625e-06,1.8117888680137855e-06,9.299381537221812e-07,2.029476924545835e-05,6.335603394883552e-07,9.491354624335443e-07,9.416774863648317e-07,2.854199152672537e-06,1.0931294706270747e-05,7.217818245431324e-07,4.462783862407037e-06,0.0001384783523473907,8.321157659588208e-07,7.813991718256041e-07,1.2440354944943681e-06,1.0879422678151137e-06
243,7.297730975939646e-06,1.7566549451125717e-06,8.992939890498323e-07,2.0554040884255677e-05,6.353788943796402e-07,9.335762863394757e-07,9.502927879091273e-07,3.12577335201106e-06,9.984087835076084e-06,7.010300956457685e-07,4.599033982290644e-06,0.00014819153606571243,8.67583784541145e-07,7.788676662039586e-07,1.2650338454119577e-06,1.0699998145187154e-06
244,7.340408809237539e-06,1.702674858994364e-06,8.693758455101938e-07,2.0806932271046582e-05,6.361571004400876e-07,9.168862352898103e-07,9.600863208163588e-07,3.4178260845754215e-06,9.06627468761746e-06,6.831623018511245e-07,4.746332810570856e-06,0.00015830291988337114,9.029227264148879e-07,7.77859198370636e-07,1.2841157598135768e-06,1.0543423151198663e-06
245,7.42379142786564e-06,1.6504060522260045e-06,8.407125123557865e-07,2.1052782587385846e-05,6.358157707059799e-07,8.991193040672577e-07,9.709903908503768e-07,3.729204623920423e-06,8.18359635716247e-06,6.682390481301361e-07,4.906332991113625e-06,0.00016867083560132367,9.375117184891788e-07,7.784138319436754e-07,1.3012944038345327e-06,1.0412699950179433e-06
246,7.5485022705487e-06,1.6005538711423418e-06,8.137527622815966e-07,2.129272699649376e-05,6.342834543448115e-07,8.803863570914315e-07,9.829624426648197e-07,4.058221916712651e-06,7.341919454741049e-06,6.562988113224088e-07,5.079816009677974e-06,0.00017912260200062685,9.7069498122606e-07,7.805005108319666e-07,1.3165098510929787e-06,1.0310634373572668e-06
247,7.714589004894326e-06,1.5538202777306655e-06,7.888781375356257e-07,2.153018876733717e-05,6.315019952483477e-07,8.607847851526497e-07,9.959814846165833e-07,4.402634546702858e-06,6.546780191542171e-06,6.47356364814069e-07,5.2666428885028464e-06,0.00018945003999510523,1.0017894346320652e-06,7.839917957657134e-07,1.3296375734112152e-06,1.0240334622492387e-06
248,7.922003040272291e-06,1.510810558741533e-06,7.663895803695242e-07,2.1771129486226143e-05,6.274761820888072e-07,8.403493209429913e-07,1.0100322005030565e-06,4.759644015279766e-06,5.803011647416931e-06,6.413789880205821e-07,5.465638229450898e-06,0.00019941085292501996,1.0301430089647807e-06,7.886767968772012e-07,1.3404110391002563e-06,1.0205150778413915e-06
249,8.17072922768467e-06,1.471971247200385e-06,7.464929770181163e-07,2.202393621219848e-05,6.223634528253303e-07,8.190527863047263e-07,1.0250687176729485e-06,5.12581912448423e-06,5.114535802668499e-06,6.38296379567606e-07,5.674477124321145e-06,0.00020874193219974185,1.0552374864665541e-06,7.942516584647961e-07,1.3483892489727395e-06,1.0208164518058516e-06
250,8.460521610379838e-06,1.437544284760634e-06,7.292955903939707e-07,2.2298908756658844e-05,6.165033241305206e-07,7.968688107488106e-07,1.0409676967265757e-06,5.496928053748169e-06,4.4842913943543074e-06,6.380192569967353e-07,5.88967724809408e-06,0.000217187515360149,1.0767172792937941e-06,8.003330402990018e-07,1.3530123291852539e-06,1.02516224456961e-06
251,8.790399477385875e-06,1.4075652350377136e-06,7.148169716136482e-07,2.2607367140858953e-05,6.103400384316696e-07,7.738406538656234e-07,1.0575337845499677e-06,5.867776115010047e-06,3.914235615091345e-06,6.404593830685208e-07,6.106626301009959e-06,0.00022453166573723106,1.094294872095342e-06,8.065450187360379e-07,1.3537026777368034e-06,1.033639647736992e-06
252,9.158141313112561e-06,1.381882703999791e-06,7.03016361693003e-07,2.2960562770525815e-05,6.0430407030386e-07,7.50105518532963e-07,1.0745667858153024e-06,6.232099282528443e-06,3.4053812010555276e-06,6.455982814935618e-07,6.319532673342419e-06,0.00023061958360423888,1.1076411879813461e-06,8.126218433097277e-07,1.3499923354157693e-06,1.0461581101743964e-06
253,9.559893877271672e-06,1.3601843211198157e-06,6.938691639497821e-07,2.33686980224672e-05,5.987340905766037e-07,7.259219188250305e-07,1.0918886880779735e-06,6.582553696619496e-06,2.9578834322856412e-06,6.535699592000073e-07,6.521445422296745e-06,0.0002353593211254139,1.1164244583472418e-06,8.18434154169112e-07,1.3416578047375104e-06,1.0624320209302689e-06
254,9.989918028469575e-06,1.3420976253541712e-06,6.874900669469832e-07,2.38402318530663e-05,5.938664175705638e-07,7.01692214139744e-07,1.1092953660307181e-06,6.9110726078705864e-06,2.571175722286778e-06,6.646555350292318e-07,6.704653898735138e-06,0.00023870098702465426,1.1205178203344346e-06,8.239375874844516e-07,1.3288155265191512e-06,1.0819822857039434e-06
255,1.0440735198411487e-05,1.3273619035925118e-06,6.84181352672465e-07,2.438139095315279e-05,5.898823001970151e-07,6.779011424335679e-07,1.126536163670831e-06,7.209824502883345e-06,2.2441039643348463e-06,6.79181517158522e-07,6.8615373108829915e-06,0.0002406031213209769,1.1201747487031288e-06,8.29125210216814e-07,1.3119213934350773e-06,1.1041636266084955e-06
256,1.0904017429524601e-05,1.3159286385025723e-06,6.843380902149137e-07,2.4995686740472337e-05,5.869730426539426e-07,6.550308419134612e-07,1.1433688084981984e-06,7.472415696773515e-06,1.9750271148898026e-06,6.974224731891782e-07,6.985399056131333e-06,0.00024101723509474047,1.1160115693324906e-06,8.340150235343539e-07,1.2916504359775278e-06,1.1282098493177419e-06
257,1.1371903513651081e-05,1.3079143680504908e-06,6.883223421929392e-07,2.5683326832175918e-05,5.853614703484224e-07,6.335568980887947e-07,1.1596188592965509e-06,7.694652921681786e-06,1.7618886390480746e-06,7.195694672135507e-07,7.070692109890436e-06,0.00023991025792563256,1.1088811776467623e-06,8.386400485557512e-07,1.2687429000859182e-06,1.1532593947070242e-06
258,1.1837690820881794e-05,1.303503611439179e-06,6.964379247015922e-07,2.6440496649413186e-05,5.852634137600212e-07,6.139812667367514e-07,1.175189196902476e-06,7.874586596713938e-06,1.6022604473744498e-06,7.457309303427989e-07,7.113156806183223e-06,0.00023730320085002434,1.0997780002458277e-06,8.430390492358022e-07,1.2439362034109787e-06,1.1783904110356705e-06
259,1.2295270977732776e-05,1.3029152088530142e-06,7.090018386583953e-07,2.72586231974127e-05,5.868398421422631e-07,5.968286135144375e-07,1.1900115936689695e-06,8.01207321622124e-06,1.4933626324502301e-06,7.759338216045659e-07,7.110906828591383e-06,0.0002332943618860364,1.0897689006777684e-06,8.472469554556599e-07,1.2179578235231759e-06,1.2027464013950757e-06
260,1.2738184258096262e-05,1.3064131410114968e-06,7.263999523286443e-07,2.8124291237625827e-05,5.901800781090052e-07,5.826091473531274e-07,1.2039545825248987e-06,8.108148772849452e-06,1.432120580497427e-06,8.101274366090682e-07,7.065684548272715e-06,0.0002280576014596978,1.079889911155113e-06,8.512560509687651e-07,1.191520888928889e-06,1.2257149779681745e-06
261,1.3159694685184501e-05,1.3142743286844656e-06,7.490547130091602e-07,2.9020791887995204e-05,5.952969903205535e-07,5.717710791070728e-07,1.216738972225284e-06,8.164232076840018e-06,1.415341650691558e-06,8.481854072748689e-07,6.982490798849102e-06,0.0002218209131837726,1.0710296576946148e-06,8.549682647754036e-07,1.1653380017430986e-06,1.2470158608404644e-06
262,1.3553814839039627e-05,1.326692895720705e-06,7.773711857309706e-07,2.993132420777181e-05,6.021095208388829e-07,5.646640661623986e-07,1.2278984466219246e-06,8.181229654253158e-06,1.4399579713124223e-06,8.898993142350521e-07,6.8676363625905485e-06,0.00021483508490209151,1.0638597156563362e-06,8.581684852745588e-07,1.140109815678836e-06,1.2666307448327687e-06
263,1.3915968985100188e-05,1.34367506097027e-06,8.117255691446165e-07,3.084260285772577e-05,6.104261854819384e-07,5.615281295764625e-07,1.2367850496884193e-06,8.159088062817759e-06,1.5031403200216224e-06,9.349655925682261e-07,6.726880526686736e-06,0.00020734296657930632,1.058824514913873e-06,8.605116958544633e-07,1.1164657478905658e-06,1.2846312879603751e-06
264,1.4242509107158683e-05,1.3649701734555853e-06,8.524540938969549e-07,3.174755828256977e-05,6.199560736573722e-07,5.625025312220452e-07,1.2426296659050961e-06,8.09716993070609e-06,1.6021876659675832e-06,9.829863218698478e-07,6.564643252045749e-06,0.0001995571831430015,1.0561591265507778e-06,8.615766723851327e-07,1.0949252105400469e-06,1.301015567625478e-06
265,1.4529395754275087e-05,1.390044794002561e-06,8.998522773220965e-07,3.264668517506096e-05,6.303526051215743e-07,5.676375703074021e-07,1.244663646201897e-06,7.994980570243259e-06,1.7343170902433187e-06,1.0334921896930005e-06,6.384120028020544e-06,0.00019165162474487949,1.0559240550303994e-06,8.610282907951242e-07,1.0758823106138254e-06,1.315687402068451e-06
266,1.4771008273197434e-05,1.4180974023332125e-06,9.542315173720772e-07,3.354826104649644e-05,6.412678341991858e-07,5.768982110679966e-07,1.2422769251728877e-06,7.852653636403217e-06,1.8965102485475031e-06,1.0859522367088283e-06,6.187955374947149e-06,0.00018376690638924608,1.0580695566653558e-06,8.587632891625046e-07,1.0595852716282179e-06,1.3286162559944743e-06
267,1.4960118181209497e-05,1.4480928335105933e-06,1.0159592331389728e-06,3.4467536917281665e-05,6.524063747705979e-07,5.901726239326717e-07,1.2351627130906736e-06,7.67118366430974e-06,2.0854746445701355e-06,1.1397548075229784e-06,5.979107647057177e-06,0.00017602166717918153,1.0625041739651095e-06,8.549159191863666e-07,1.0461254953799888e-06,1.340009915255193e-06
268,1.5089353704388318e-05,1.4787879066780614e-06,1.085436692099586e-06,3.542453447102143e-05,6.635917508700244e-07,6.072893165026457e-07,1.2233743448447753e-06,7.452632524857999e-06,2.297778881747071e-06,1.1941913386758612e-06,5.761374889570949e-06,0.00016851956318101707,1.069115859052605e-06,8.49798879956106e-07,1.035432553209662e-06,1.3503217839532915e-06
269,1.5153307183029007e-05,1.5087892493803622e-06,1.163083445495528e-06,3.644026194036967e-05,6.748256295882839e-07,6.280241837917563e-07,1.2072578592338844e-06,7.200371192919526e-06,2.5301610219451307e-06,1.248469982377669e-06,5.539329512786508e-06,0.0001613477076494318,1.077741049158746e-06,8.438764727689286e-07,1.0272641871279737e-06,1.3601122449483866e-06
270,1.5149794823402902e-05,1.5366914362991668e-06,1.2493212894978528e-06,3.753226977971918e-05,6.862787164726441e-07,6.521230890362865e-07,1.1873301275827938e-06,6.9192077316833616e-06,2.779761932904502e-06,1.301723993689206e-06,5.31780676641076e-06,0.00015456963068157794,1.0881642071486313e-06,8.377307157595565e-07,1.0212143509149136e-06,1.369907509793661e-06
271,1.5079299520199437e-05,1.5612444135663729e-06,1.344512269972874e-06,3.8711234120215865e-05,6.981941495306585e-07,6.793685149159554e-07,1.1642021364695067e-06,6.615196164520218e-06,3.043999476332953e-06,1.3529847820722691e-06,5.10125362809325e-06,0.0001482208927154204,1.1002035425669899e-06,8.31989772636813e-07,1.01678666556289e-06,1.3801489239767559e-06
272,1.4943347658971069e-05,1.5815032475959006e-06,1.4489004252336542e-06,3.997948305554026e-05,7.107724513692741e-07,7.096227928619247e-07,1.1385411501089947e-06,6.295064204305331e-06,3.3201562734839668e-06,1.4012060637911331e-06,4.893284880389487e-06,0.0001423125796859628,1.1137651698530725e-06,8.272592633286932e-07,1.0135235850093578e-06,1.3912016479102608e-06
273,1.4744057438271993e-05,1.5969790536640514e-06,1.5625885472583054e-06,4.1331356133613323e-05,7.241067827572322e-07,7.427845474265671e-07,1.1110078193389605e-06,5.965433031386951e-06,3.60502818871956e-06,1.4453866966970945e-06,4.696558824276697e-06,0.00013683793004998804,1.12875919015069e-06,8.240724094727653e-07,1.0110891236674666e-06,1.4033455310779339e-06
274,1.4485501715091885e-05,1.6077541058870762e-06,1.685538848474755e-06,4.275515594632385e-05,7.381611846443876e-07,7.787253225966202e-07,1.0822145632067817e-06,5.632151353680465e-06,3.894860102284539e-06,1.484657806012906e-06,4.512781208248734e-06,0.00013177389188790016,1.1449961380870407e-06,8.228619566485304e-07,1.0092660318904886e-06,1.4167373679557886e-06
275,1.4174698979551619e-05,1.614449811282491e-06,1.8175865213847265e-06,4.4236132508203847e-05,7.527680331729103e-07,8.172719102715394e-07,1.0527812172267493e-06,5.299956151995985e-06,4.185657245718321e-06,1.5182372955899316e-06,4.342747866245224e-06,0.00012707832911871178,1.162180174068823e-06,8.239537504114925e-07,1.0079309052702845e-06,1.4314230570639625e-06
276,1.3820692893816623e-05,1.618004181563323e-06,1.9584200208640693e-06,4.5759289387249854e-05,7.676367884226035e-07,8.581909305348835e-07,1.0234010348471502e-06,4.972439380078638e-06,4.474032292778809e-06,1.5453743584982949e-06,4.186508117496325e-06,0.00012269298315278806,1.1799324164861361e-06,8.275510527213398e-07,1.0070138974196652e-06,1.4474572685449093e-06
277,1.3432569455051947e-05,1.6193625885029022e-06,2.1075663897216643e-06,4.731062151024314e-05,7.823609780253237e-07,9.01168696540537e-07,9.947928813191841e-07,4.652228392958684e-06,4.758414729487908e-06,1.5654471793290154e-06,4.04358771187915e-06,0.00011855788648834468,1.1977978693999533e-06,8.337146654031624e-07,1.0064268833394644e-06,1.4650634843029952e-06
278,1.3017738205433148e-05,1.6192398998494416e-06,2.2644685640886848e-06,4.887570842302993e-05,7.964400353702799e-07,9.458273866942155e-07,9.675795150565462e-07,4.341288442111052e-06,5.039639756116681e-06,1.5781505544302745e-06,3.913077535858667e-06,0.0001146292852118999,1.2152859691028381e-06,8.423918428633877e-07,1.0060368233602463e-06,1.4847122706533834e-06
279,1.2581099660538033e-05,1.6180244968191367e-06,2.428601447857689e-06,5.0436218429079596e-05,8.09331410283392e-07,9.917395467180407e-07,9.422203305997799e-07,4.041205906184035e-06,5.320233821488036e-06,1.583523592326342e-06,3.7935926990762053e-06,0.00011088865834878117,1.2319360825437505e-06,8.53508990126257e-07,1.0057152530005702e-06,1.5070446637294185e-06
280,1.2125298307671911e-05,1.6158044615722413e-06,2.599552233680201e-06,5.196775914027682e-05,8.204947396262434e-07,1.0384086097015145e-06,9.190449715243846e-07,3.753334816329022e-06,5.6032104859312905e-06,1.5817537250706915e-06,3.683381361819561e-06,0.00010733874302911527,1.247349268289572e-06,8.670503860223744e-07,1.0053652506789963e-06,1.5326935938236859e-06
281,1.1652011660352528e-05,1.612473960199891e-06,2.7770524122375985e-06,5.344237419774254e-05,8.294263586579918e-07,1.0852668284460844e-06,8.983148250128262e-07,3.4787830342405867e-06,5.891374276837456e-06,1.5730491565640331e-06,3.580656470372219e-06,0.00010399201073812614,1.2611912885938028e-06,8.830306042200891e-07,1.0048805174792452e-06,1.5621525389019084e-06
282,1.1163659073950534e-05,1.60785542431756e-06,2.9609087458203393e-06,5.483475222362472e-05,8.357435125149997e-07,1.1317211384674552e-06,8.802254436123362e-07,3.2183068320295817e-06,6.187121402092035e-06,1.5577996120053516e-06,3.4837801176700693e-06,0.00010086033770086894,1.2731989575078344e-06,9.013990274004418e-07,1.0041188968799832e-06,1.5957253867050973e-06
283,1.0664484243668647e-05,1.6017804553232468e-06,3.150807621371151e-06,5.612871714459967e-05,8.393012174040103e-07,1.1771972293406844e-06,8.64864354520021e-07,2.9722401572102615e-06,6.492396589189613e-06,1.536817030242829e-06,3.3911562037857813e-06,9.795042808836086e-05,1.2831677661377557e-06,9.219854449773296e-07,1.002972968413979e-06,1.6334681806605774e-06
284,1.0160271038047411e-05,1.5941294733119646e-06,3.34607119595026e-06,5.732172825056215e-05,8.402301827305286e-07,1.221113227845241e-06,8.522083318514437e-07,2.7405306241721666e-06,6.808496656141279e-06,1.5113678962853024e-06,3.3012528214715906e-06,9.526217032783303e-05,1.2909042686856175e-06,9.445233827284218e-07,1.001514376502898e-06,1.6751098767571897e-06
285,9.657001958574656e-06,1.58484165930592e-06,3.545464003283441e-06,5.8426723713959935e-05,8.388453151350821e-07,1.2627912378359534e-06,8.421778002531292e-07,2.5228543777140518e-06,7.135709397199211e-06,1.4830211383388348e-06,3.2129060114364092e-06,9.278657233584913e-05,1.2962180615530297e-06,9.687191123143066e-07,1.0000787983229617e-06,1.720015561430969e-06
286,9.159861638804543e-06,1.5738659749227224e-06,3.7471407052294335e-06,5.9471512987148325e-05,8.355176157754858e-07,1.3014147087741504e-06,8.346725052016695e-07,2.3187762344504417e-06,7.4731190551248635e-06,1.4535029370077073e-06,3.1254314915456673e-06,9.050454636104347e-05,1.2990011590317259e-06,9.942974750837673e-07,9.991866032812682e-07,1.7672220135310726e-06
287,8.67345180390042e-06,1.56106001981932e-06,3.948829328983168e-06,6.0496280065390805e-05,8.306273044627868e-07,1.3361151834709433e-06,8.2954563494443e-07,2.127938315422096e-06,7.818612563379492e-06,1.42463133142447e-06,3.0383803061631524e-06,8.838686890377547e-05,1.2992719447822176e-06,1.0209741828738187e-06,9.99366717833768e-07,1.8155072531566115e-06
288,8.202439535894347e-06,1.5461537049947387e-06,4.148239657129371e-06,6.154975212883628e-05,8.245727561785073e-07,1.3661436876604338e-06,8.265640054720274e-07,1.9502053710304196e-06,8.168926465495623e-06,1.3982633445956956e-06,2.951397643659017e-06,8.6394363820069e-05,1.2970629121168753e-06,1.0483995479853008e-06,1.0010232806990004e-06,1.863456261975309e-06
289,7.751642240365528e-06,1.5288402622498542e-06,4.343537142363069e-06,6.268452974840244e-05,8.177411914156406e-07,1.3910212130753117e-06,8.253917641402686e-07,1.7856919084166487e-06,8.519751447709478e-06,1.3761959912546672e-06,2.86438102946684e-06,8.447946714842591e-05,1.2922543152354469e-06,1.0761670472952585e-06,1.0043823089920931e-06,1.9095718113275818e-06
290,7.325520401260756e-06,1.508877641502907e-06,4.533714604181e-06,6.395201054752906e-05,8.104836330866871e-07,1.410586421185577e-06,8.255756685329147e-07,1.634701441843922e-06,8.865993681417966e-06,1.3600421776901113e-06,2.7776360503070054e-06,8.259151375387069e-05,1.2845476526451761e-06,1.1038784501189934e-06,1.0094833611077031e-06,1.952453523215517e-06
291,6.927528941425534e-06,1.486119276438793e-06,4.718787317944987e-06,6.539731002054387e-05,8.031760664191811e-07,1.4249007728248883e-06,8.265333209307092e-07,1.4976521315282483e-06,9.202238910374353e-06,1.3511397956928447e-06,2.691888610445262e-06,8.068901105629409e-05,1.2736167782378367e-06,1.131148886337044e-06,1.016183463394102e-06,1.9909653758377143e-06
292,6.559714975992897e-06,1.4605739002631738e-06,4.899789004989949e-06,6.705475492029616e-05,7.962879158587672e-07,1.4340751232584334e-06,8.276103856160906e-07,1.3749890883556223e-06,9.523286102899865e-06,1.3505255920755078e-06,2.608251488812703e-06,7.87553275549181e-05,1.2593093792610314e-06,1.1575374755698819e-06,1.0241525484654263e-06,2.024328230275426e-06
293,6.22274404042171e-06,1.4325813179043417e-06,5.078560362467839e-06,6.894470161105683e-05,7.90346750398881e-07,1.4381927644430855e-06,8.28227229145751e-07,1.267067464705577e-06,9.824516300673755e-06,1.358951473884087e-06,2.5281027985403733e-06,7.680545175950411e-05,1.2417806159090646e-06,1.1825481838787479e-06,1.0328774920891472e-06,2.052097799869933e-06
294,5.916298059386693e-06,1.4029956835531488e-06,5.257367544327677e-06,7.107206363046663e-05,7.858398905473365e-07,1.4373965747189807e-06,8.2798729944276e-07,1.1740610092504416e-06,1.0101976081739938e-05,1.3769088641152182e-06,2.45283486327009e-06,7.487857464805394e-05,1.2215210743867267e-06,1.205755804487046e-06,1.0417126646568475e-06,2.07400293309638e-06
295,5.6396080231733065e-06,1.3731832141818458e-06,5.438434451693541e-06,7.342615717643288e-05,7.831487812379383e-07,1.4320015091591228e-06,8.266374811420249e-07,1.095936441380118e-06,1.0352128240352394e-05,1.40466707710304e-06,2.383642100385747e-06,7.302363156662613e-05,1.1992571837942513e-06,1.226923684884376e-06,1.0499872492419545e-06,2.089729471938571e-06
296,5.3918523887610876e-06,1.3447969940935244e-06,5.623464999867516e-06,7.598123691469903e-05,7.825263381756424e-07,1.4225192031647795e-06,8.240019222766207e-07,1.0324752792211462e-06,1.0571202730170527e-05,1.4423200009996266e-06,2.3214459635434566e-06,7.128631507339505e-05,1.1757603889950402e-06,1.2460180607666354e-06,1.0571505748289307e-06,2.0988422221303967e-06
297,5.172293142286553e-06,1.319484540663283e-06,5.813224926043415e-06,7.869745669639759e-05,7.840943295688951e-07,1.4095923736475122e-06,8.200352572212522e-07,9.8331649850778e-07,1.0754391047044227e-05,1.4897927843394406e-06,2.2668824794079606e-06,6.970150930518058e-05,1.1517058286149558e-06,1.2631443936841206e-06,1.0629080863918244e-06,2.1009875455458957e-06
298,4.980191944822702e-06,1.2986938796573106e-06,6.007282218406917e-06,8.152223131723868e-05,7.878699084810872e-07,1.393859383426323e-06,8.148866803862194e-07,9.479804601570816e-07,1.0895657895861668e-05,1.5468225755972751e-06,2.2203179387989954e-06,6.829112096415162e-05,1.127656009556813e-06,1.2784329887724461e-06,1.0672904150630944e-06,2.0962468159773943e-06
299,4.8145873052674376e-06,1.2836189719592298e-06,6.203982374021569e-06,8.439210961158191e-05,7.938105230392892e-07,1.3758430979613623e-06,8.088267455491117e-07,9.258637629528721e-07,1.0988613159714865e-05,1.6129592428505422e-06,2.1818552940323017e-06,6.706433264190295e-05,1.1040839365174256e-06,1.2919138048793487e-06,1.0706496836145888e-06,2.0852969002978455e-06
300,4.6739917409906454e-06,1.2752549403594106e-06,6.400646449803323e-06,8.723527039854763e-05,8.018277839113689e-07,1.3559810839601789e-06,8.021107817690152e-07,9.162415500138296e-07,1.1027890411754228e-05,1.6875542516872337e-06,2.1512979843905673e-06,6.601796257681019e-05,1.0813749461248343e-06,1.3034462712499568e-06,1.0736153456930814e-06,2.069240138599961e-06
301,4.5561534597605165e-06,1.27451854278127e-06,6.5939166855401435e-06,8.997446191316744e-05,8.117559892926682e-07,1.3347599940683637e-06,7.949118835749198e-07,9.182755535230118e-07,1.1010283239558306e-05,1.7697301392595882e-06,2.128179789236011e-06,6.513723462215456e-05,1.0598549346400187e-06,1.3127175771921374e-06,1.0770020874582472e-06,2.049311039265631e-06
302,4.458099384096277e-06,1.2823314266395987e-06,6.780145596757645e-06,9.253057106563117e-05,8.23336796819575e-07,1.312808091987264e-06,7.873432627666126e-07,9.309945556350289e-07,1.0935286041308525e-05,1.8583936301737642e-06,2.1119087367328487e-06,6.439654676018651e-05,1.0398417434400642e-06,1.319271133054154e-06,1.0816545985223788e-06,2.0266520871121204e-06
303,4.37651832484045e-06,1.2996040343430333e-06,6.955715281078014e-06,9.482802539895412e-05,8.362592782597635e-07,1.290865188954831e-06,7.795289934171063e-07,9.53251953629518e-07,1.080481658540289e-05,1.952299679080308e-06,2.101876401240123e-06,6.375952669098096e-05,1.021650466261458e-06,1.322569698914049e-06,1.0882948359401405e-06,2.0021652582637e-06
304,4.30828140874409e-06,1.3271807479501676e-06,7.117223209240172e-06,9.680260327227363e-05,8.501884096622698e-07,1.2696603343604208e-06,7.716603448050016e-07,9.837028234975414e-07,1.0622106741312582e-05,2.0501439452607885e-06,2.0974348787741336e-06,6.318124317063793e-05,1.005553726583255e-06,1.3221015397933065e-06,1.0974504201453934e-06,1.9764540419909863e-06
305,4.250807435059265e-06,1.3657814005446032e-06,7.261573429385626e-06,9.840948128685862e-05,8.647242036791878e-07,1.2497798661937136e-06,7.639868035832121e-07,1.020847681295576e-06,1.039045352935089e-05,2.1507065925278313e-06,2.097802130453415e-06,6.261575571323413e-05,9.917594908015966e-07,1.3174297007399733e-06,1.109446243519563e-06,1.9498571553109948e-06
306,4.202136941583476e-06,1.4159315209036944e-06,7.386064964849642e-06,9.962756449856942e-05,8.793424773517359e-07,1.2315834856048378e-06,7.567680009823447e-07,1.0631415715456687e-06,1.0113014879028014e-05,2.2530116485375756e-06,2.1019671696894088e-06,6.202701196364657e-05,9.804426949464452e-07,1.3081477386071068e-06,1.124406135400805e-06,1.9224658082861462e-06
307,4.160818178434369e-06,1.4779105112534496e-06,7.488507595629355e-06,0.00010045731871727987,8.933961754477906e-07,1.2151708656307212e-06,7.502389820044593e-07,1.109077974757188e-06,9.793870598008958e-06,2.3563989054769542e-06,2.1086230617256774e-06,6.139758005907073e-05,9.71794510001825e-07,1.2938792439420694e-06,1.1422587824994992e-06,1.8941413008789986e-06
308,4.125783999859316e-06,1.5517216846222145e-06,7.567323913651261e-06,0.00010091188493286499,9.062188163224116e-07,1.2003991478768508e-06,7.445803086518275e-07,1.157164069040163e-06,9.439136808454087e-06,2.4604761675003665e-06,2.1161598679642313e-06,6.073078531243223e-05,9.6600663358831e-07,1.2744017053087371e-06,1.1627473315368312e-06,1.864710862524373e-06
309,4.096281209361502e-06,1.6370700040052162e-06,7.621596385661171e-06,0.00010100439989958827,9.173106875157397e-07,1.1869772095782267e-06,7.398795562870262e-07,1.205855822198445e-06,9.057114574232927e-06,2.5649649744733836e-06,2.1227525816134844e-06,6.004565587811728e-05,9.631928336685456e-07,1.249809597759606e-06,1.1854399548170617e-06,1.8343235341727951e-06
310,4.071822702952845e-06,1.7333751485545229e-06,7.651009734534708e-06,0.00010073841972837009,9.264930050710751e-07,1.1746119318583727e-06,7.361130513407498e-07,1.2536028884203385e-06,8.657550246444568e-06,2.6694732569662223e-06,2.126548241827541e-06,5.936808619555885e-05,9.63364129214827e-07,1.2205915076973406e-06,1.2098065490045259e-06,1.8036656409466214e-06
311,4.052172796835175e-06,1.8398430095672603e-06,7.655605557021193e-06,0.00010010789190905675,9.339104225895887e-07,1.1631109270536077e-06,7.331530485641045e-07,1.2990272763768467e-06,8.250486655256679e-06,2.773357830419179e-06,2.1259062078325957e-06,5.872247449688704e-05,9.665117049962428e-07,1.1875556089380254e-06,1.2353910953455861e-06,1.7738238796792075e-06
312,4.037408881428131e-06,1.955560786664681e-06,7.635296739012433e-06,9.910543395004244e-05,9.398855178315014e-07,1.1523750677048846e-06,7.307789470079287e-07,1.341113504440636e-06,7.845164761554252e-06,2.875807551027437e-06,2.1195773067507728e-06,5.812680530097976e-05,9.726926281816786e-07,1.151642877954389e-06,1.2619181072966903e-06,1.745959365582464e-06
313,4.0280220128569915e-06,2.0795735312302674e-06,7.5892750840537774e-06,9.77320227347043e-05,9.447292614142562e-07,1.1423132990021696e-06,7.287101018887319e-07,1.3792947595387898e-06,7.44943804498687e-06,2.976021895136208e-06,2.106674658018064e-06,5.7593798135421085e-05,9.820025670040551e-07,1.1137756584322992e-06,1.2891930269458397e-06,1.721078672596787e-06
314,4.024927543919801e-06,2.2109626945385144e-06,7.515758661870244e-06,9.600335553254791e-05,9.486074567409538e-07,1.1328088757975845e-06,7.266846528159095e-07,1.4134183981827062e-06,7.069804293388017e-06,3.073324045632104e-06,2.0864720635674035e-06,5.713807153710706e-05,9.944608574666725e-07,1.074828018496932e-06,1.316920434225284e-06,1.6999464043414314e-06
315,4.029279665486141e-06,2.3489443692407674e-06,7.412506007902459e-06,9.395218969920622e-05,9.514969070642609e-07,1.1238287821374416e-06,7.245243359307922e-07,1.4436442435598175e-06,6.71164488500212e-06,3.167186532200854e-06,2.0583462838534015e-06,5.6783681634164045e-05,1.0099103481388326e-06,1.0356261794733867e-06,1.344600736309344e-06,1.6830900509740364e-06
316,4.042109587820899e-06,2.492912892130867e-06,7.277905098114269e-06,9.16274741901162e-05,9.532108284155496e-07,1.1155657922611262e-06,7.221116689968927e-07,1.470325189695791e-06,6.379313302796106e-06,3.2571320369614233e-06,2.0220026947576232e-06,5.656596504292822e-05,1.0279794061446603e-06,9.969112793146137e-07,1.3714986536667344e-06,1.6709437067235969e-06
317,4.063962028076606e-06,2.6423394457087475e-06,7.11193631615871e-06,8.90910524658008e-05,9.534446610468483e-07,1.1084317815658979e-06,7.193294824119871e-07,1.4938933489704615e-06,6.076086674396887e-06,3.342487653134039e-06,1.9776828956870437e-06,5.6527843327017854e-05,1.0480938878373712e-06,9.593203911919625e-07,1.3966835589466082e-06,1.664063318366494e-06
318,4.094731332762665e-06,2.796542884952514e-06,6.916515397005033e-06,8.641267253627237e-05,9.518044285872429e-07,1.10289907603842e-06,7.160551314245629e-07,1.514767454404338e-06,5.804098746404701e-06,3.422165478304782e-06,1.926152783123066e-06,5.6715196125328714e-05,1.069527222139798e-06,9.23393732649147e-07,1.4191912949116383e-06,1.663186519454065e-06
319,4.1337001482449315e-06,2.954446553953399e-06,6.695257142008198e-06,8.36643640104324e-05,9.478495282572941e-07,1.0993279233515648e-06,7.12197228094102e-07,1.533275918057748e-06,5.564320690276839e-06,3.4947083621525085e-06,1.8686227369097776e-06,5.717390465710849e-05,1.0914767494321421e-06,8.895601500460125e-07,1.4382363922086271e-06,1.6690869546093432e-06
320,4.1796029255524485e-06,3.1144430543019307e-06,6.452986569079924e-06,8.09152834430368e-05,9.411733826673058e-07,1.097877929602316e-06,7.077095364913027e-07,1.5495922482636091e-06,5.356650597133643e-06,3.558576530859152e-06,1.8066677351138846e-06,5.794719254596757e-05,1.1131410874711333e-06,8.581180087104282e-07,1.4533391953845884e-06,1.6824161218892102e-06
321,4.230594514729436e-06,3.2744334891460507e-06,6.195244294931406e-06,7.822753332123315e-05,9.314584579486746e-07,1.098515888359832e-06,7.025711545277617e-07,1.5637158778486767e-06,5.180154362204908e-06,3.612400024977393e-06,1.7420317343894907e-06,5.907178418525077e-05,1.1337893262899918e-06,8.292502178720855e-07,1.4643632184966966e-06,1.7036390286307058e-06
322,4.284177968045492e-06,3.432012250635564e-06,5.9278180957341306e-06,7.565279140490172e-05,9.184833820484153e-07,1.1010745487739737e-06,6.967715050498419e-07,1.5755003682142429e-06,5.033422739602328e-06,3.65507399823199e-06,1.6763537496804095e-06,6.057393212886723e-05,1.1528390673409527e-06,8.030683697945812e-07,1.4715443855084688e-06,1.7330278482005511e-06
323,4.337270042091031e-06,3.5846951363915815e-06,5.656238127633788e-06,7.322942549444354e-05,9.021507297051053e-07,1.1052820425849545e-06,6.903355569272626e-07,1.5846925267208581e-06,4.914937127394263e-06,3.6858414560174992e-06,1.6110128221288664e-06,6.246698781542208e-05,1.1699461164729311e-06,7.79662626004386e-07,1.4755102908501983e-06,1.7706778625520372e-06
324,4.386547984631314e-06,3.730105301683564e-06,5.385291095252102e-06,7.098013767630936e-05,8.82557314862585e-07,1.1107361922479304e-06,6.833786408943882e-07,1.5909874632640261e-06,4.823344612891341e-06,3.7043885219904604e-06,1.547142929080193e-06,6.47506058970295e-05,1.1850296038974592e-06,7.591219458361514e-07,1.4772220542820372e-06,1.8165055104700573e-06
325,4.429000411186608e-06,3.866103722268871e-06,5.11880036354707e-06,6.891057218424298e-05,8.60032956078251e-07,1.1168934784515244e-06,6.761361535795573e-07,1.5941140800588395e-06,4.757597714259644e-06,3.710716931971434e-06,1.4856926590317063e-06,6.741059258915851e-05,1.1981675537377222e-06,7.415062909807146e-07,1.4778182391997624e-06,1.8702657262345984e-06
326,4.462413078176854e-06,3.990897427997767e-06,4.859835889242197e-06,6.700936555892491e-05,8.350811028064682e-07,1.123128624872443e-06,6.689257965056988e-07,1.5939239287270362e-06,4.7169195013034555e-06,3.704774597775131e-06,1.4274517887573028e-06,7.041873081948386e-05,1.209481456726345e-06,7.268285654566853e-07,1.4784069232727642e-06,1.931622598620283e-06
327,4.485560194192737e-06,4.1031349832017295e-06,4.6111346278698445e-06,6.525017148268611e-05,8.082692544011937e-07,1.1288412968539144e-06,6.620641458725899e-07,1.5904558294303855e-06,4.700538092962928e-06,3.686280276330605e-06,1.3730547170546904e-06,7.373231211485666e-05,1.2191104565537371e-06,7.151182549844056e-07,1.4798952721661252e-06,2.0001525702633455e-06
328,4.498051463927995e-06,4.201936484454153e-06,4.3753207837006334e-06,6.359611857030214e-05,7.801792463480283e-07,1.1335613668084744e-06,6.558167885471125e-07,1.5839639721466868e-06,4.707269137464556e-06,3.655036609609313e-06,1.3229643567990858e-06,7.729317816316877e-05,1.2271759609754755e-06,7.065120783925319e-07,1.4829300638068882e-06,2.0752462197604654e-06
329,4.499947002136043e-06,4.286821240476295e-06,4.1547712269423504e-06,6.200610666991649e-05,7.514217500473301e-07,1.137009529075974e-06,6.504144659333371e-07,1.574884467718343e-06,4.7352702073249085e-06,3.6114502430478808e-06,1.2774431002542237e-06,8.10267351915634e-05,1.233726362575551e-06,7.012427891008195e-07,1.4879240272608972e-06,2.1560286787167024e-06
330,4.4913749167849776e-06,4.357615688367134e-06,3.9513503367512405e-06,6.0440954108227995e-05,7.226223534688162e-07,1.139062931786653e-06,6.460701952698884e-07,1.5637171066786387e-06,4.782265205537337e-06,3.556844329803456e-06,1.236545542316893e-06,8.484178894965629e-05,1.238763229905208e-06,6.995271294135684e-07,1.4950801846074647e-06,2.2413284597563297e-06
