,EMG1,EMG2,EMG3,EMG4,EMG5,EMG6,EMG7,EMG8,EMG9,EMG10,EMG11,EMG12,EMG13,EMG14,EMG15,EMG16
0,-1.3431738298855068e-08,3.1432901968050243e-07,8.630238796147726e-08,3.3481279619830253e-07,2.747375398241575e-07,-2.0511197898670343e-07,4.834199310399125e-07,1.7100412620270925e-07,1.1920244812832588e-06,4.540286965472944e-07,1.0601732462387947e-07,-9.704964685017238e-06,6.752095890808056e-08,7.159478371366223e-08,2.1728133088682706e-08,5.520561242993112e-07
1,6.881133469238063e-08,4.570547700644578e-07,1.4167680929344948e-07,5.419009556578096e-07,3.2712005563400413e-07,-7.01175732491824e-08,5.750997605702808e-07,2.842442911503227e-07,1.7289705324257278e-06,5.587038862646028e-07,2.142816772946844e-07,1.6849103236217087e-06,1.744537281515893e-07,1.8176862394314832e-07,1.4014458331611183e-07,6.575252577262824e-07
2,1.4910514341570649e-07,5.953384876478835e-07,1.9588515520669585e-07,7.652911672094242e-07,3.805824754822228e-07,5.961576159393372e-08,6.669184407736861e-07,3.9177159326821714e-07,2.321586139484708e-06,6.626784487691125e-07,3.1921193264221835e-07,1.260079824233645e-05,2.7871351278071166e-07,2.881312832613112e-07,2.53323988316017e-07,7.634601365797372e-07
3,2.2599873754468508e-07,7.275539600241823e-07,2.482058275443485e-07,1.0055677589019096e-06,4.339722843243315e-07,1.833368553432721e-07,7.573959895427495e-07,4.92412888093126e-07,2.9709092417844895e-06,7.647568685692753e-07,4.2031972825934917e-07,2.282035820092466e-05,3.792219139709616e-07,3.892100805619147e-07,3.606385199481614e-07,8.670590177753541e-07
4,2.9828215010926356e-07,8.523055364841872e-07,2.982157121797248e-07,1.263409791573065e-06,4.86429489511727e-07,3.0035206050765503e-07,8.454603045332123e-07,5.852152600904607e-07,3.6780845811193896e-06,8.638453856076465e-07,5.171765279884327e-07,3.215933564163799e-05,4.752606915493764e-07,4.836912612383047e-07,4.6152604979638476e-07,9.663243401444868e-07
5,3.651508751299611e-07,9.684899809747026e-07,3.4576794985076225e-07,1.539491106020019e-06,5.37413635094479e-07,4.099817220930736e-07,9.304989438368665e-07,6.695012293128532e-07,4.444265484753689e-06,9.59021642680287e-07,6.09448669583231e-07,4.0487624376803055e-05,5.66462032852434e-07,5.704911921000876e-07,5.555187041772423e-07,1.060151443676741e-06
6,4.2624102467270334e-07,1.0753011954832987e-06,3.90890704697773e-07,1.834376639922599e-06,5.865987661808066e-07,5.115529650086699e-07,1.0122378947529486e-06,7.448232544356698e-07,5.270694253791291e-06,1.0495034358189694e-06,6.968971153261757e-07,4.77370710637075e-05,6.527149532011946e-07,6.488751178146175e-07,6.421947680602982e-07,1.1482124522781444e-06
7,4.815139704741317e-07,1.1722514537689703e-06,4.3372012506150896e-07,2.1485166822000997e-06,6.337557121903201e-07,6.04460768684739e-07,1.0905615990384228e-06,8.108769921088345e-07,6.158831072052709e-06,1.1345864875799488e-06,7.793632815899758e-07,5.3900617560156715e-05,7.340347980198467e-07,7.184604332153877e-07,7.210928045394747e-07,1.230715292079756e-06
8,5.311067421570635e-07,1.2592403199401538e-06,4.744630987482294e-07,2.4823112692004063e-06,6.787238501863654e-07,6.883022443239495e-07,1.1653960042427186e-06,8.674906440343432e-07,7.110200312289056e-06,1.2136658567166248e-06,8.567809328343073e-07,5.902623182052567e-05,8.104462812247751e-07,7.791275126272158e-07,7.917123515025693e-07,1.308108996421358e-06
9,5.752527374209226e-07,1.3366164423802955e-06,5.133559025402872e-07,2.8361374533800853e-06,7.214080922668776e-07,7.63047727801536e-07,1.2366687161964265e-06,9.147162013747058e-07,8.12596261785852e-06,1.286262967357587e-06,9.291812576712711e-07,6.320781489358525e-05,8.819636919109509e-07,8.31017762710156e-07,8.536534833875428e-07,1.3808214151986005e-06
10,6.142575433858275e-07,1.4051480913043031e-06,5.506589979196416e-07,3.2102761571987967e-06,7.617098948594951e-07,8.291324002067634e-07,1.3042889707562587e-06,9.529331319978692e-07,9.206400626603604e-06,1.3519835966922948e-06,9.967222955848835e-07,6.657342083031511e-05,9.48677987919038e-07,8.745670246877536e-07,9.067986156772475e-07,1.4490987414422298e-06
11,6.484600734463647e-07,1.4658502583284103e-06,5.866816744965239e-07,3.6047367478698e-06,7.994336240663808e-07,8.873528013221913e-07,1.36809657263995e-06,9.82865334914668e-07,1.035050877854259e-05,1.4104507177205912e-06,1.059770531275337e-06,6.927176119218332e-05,1.0108155203270431e-06,9.104485929687703e-07,9.513779443632371e-07,1.5129380198543442e-06
12,6.781806713479644e-07,1.5197292673074706e-06,6.217599061322739e-07,4.019024443511915e-06,8.342507655903556e-07,9.386217970875349e-07,1.4277794920849875e-06,1.0054793622222371e-06,1.1555846091716812e-05,1.4612736860336456e-06,1.118882096781128e-06,7.14595044549206e-05,1.0686716656286135e-06,9.394552703574144e-07,9.878605229826485e-07,1.5720708618218068e-06
13,7.037113313379684e-07,1.5676094489810757e-06,6.561890853452036e-07,4.451962854238122e-06,8.65738947573993e-07,9.837714384294645e-07,1.4828285631083675e-06,1.0218299465138565e-06,1.2818555034695838e-05,1.5041411064205419e-06,1.1746433720766683e-06,7.329161390612736e-05,1.1224916205156874e-06,9.623889057495166e-07,1.0167786723565446e-06,1.6259833460216702e-06
14,7.253440212672685e-07,1.6101199664632165e-06,6.902045600563546e-07,4.901634136432699e-06,8.934748224930797e-07,1.0235025436099167e-06,1.5326025534903613e-06,1.0329922439763078e-06,1.4133597993463653e-05,1.5390120242845182e-06,1.2275771341429745e-06,7.49149534938956e-05,1.1724353235050715e-06,9.799961131525167e-07,1.0386444985719716e-06,1.6739970536150082e-06
15,7.433790763665555e-07,1.6477354002636216e-06,7.240442063829624e-07,5.365318442263417e-06,9.171519022989745e-07,1.0584031419850002e-06,1.5764848461434456e-06,1.0401096850696709e-06,1.5495428926951604e-05,1.5661812418959438e-06,1.2781792780641485e-06,7.646391933205042e-05,1.2186677897151948e-06,9.929449335562022e-07,1.0539797472523577e-06,1.715461176102823e-06
16,7.580933616188234e-07,1.6807606598670396e-06,7.580134603108406e-07,5.839323589474874e-06,9.366726828083448e-07,1.0889321531892457e-06,1.6140425619302919e-06,1.0444044764084175e-06,1.6898385549796228e-05,1.5861496757723471e-06,1.3269149127840764e-06,7.805738308529693e-05,1.2614473230059855e-06,1.0018224653397915e-06,1.0633652710211879e-06,1.7499991597405605e-06
17,7.697181677145425e-07,1.7092911713200183e-06,7.924666595970407e-07,6.318807857574013e-06,9.521551137890179e-07,1.1153734034461163e-06,1.6451085199266687e-06,1.0470696745008298e-06,1.8336112593856803e-05,1.599510938183939e-06,1.374101977363746e-06,7.979774479680434e-05,1.3010747553637879e-06,1.0071746495905767e-06,1.06747786129924e-06,1.7776420285555659e-06
18,7.784865343587378e-07,1.7332155084312561e-06,8.277149875055283e-07,6.797731478274581e-06,9.638444724992153e-07,1.1378211777293623e-06,1.6697524911817862e-06,1.049146757612327e-06,1.980120303177701e-05,1.6069420900972847e-06,1.4198049863578272e-06,8.177290763246932e-05,1.337753662919173e-06,1.0095749072836624e-06,1.067099395260662e-06,1.79881772745641e-06
19,7.847207546478547e-07,1.7522623851053569e-06,8.63939240701211e-07,7.268962493540041e-06,9.719916391278495e-07,1.156252855823846e-06,1.6881743642515427e-06,1.0514701066515657e-06,2.1286028369813547e-05,1.6091623793522132e-06,1.463847559136022e-06,8.405999711706545e-05,1.3714986166188768e-06,1.0096411594878477e-06,1.0630811912747033e-06,1.8142893183811965e-06
20,7.888636597825538e-07,1.7660897293424034e-06,9.011559795077642e-07,7.724633565554152e-06,9.767781263371587e-07,1.1707063995126244e-06,1.7006014414461461e-06,1.0546515397193752e-06,2.2783411900386688e-05,1.6068187478849505e-06,1.5059449424783452e-06,8.672808813714264e-05,1.4021332618979862e-06,1.0079709906518053e-06,1.0563192276942086e-06,1.8250187707353152e-06
21,7.914227333248032e-07,1.7744374306477449e-06,9.392400923995336e-07,8.156909063636675e-06,9.783336225470567e-07,1.1814653959527054e-06,1.7072511049969997e-06,1.0590772477292133e-06,2.4286050205659384e-05,1.6004389824284889e-06,1.5458645661743136e-06,8.983785378080449e-05,1.4293332335496416e-06,1.0050612891932097e-06,1.0477285167872496e-06,1.831940589616905e-06
22,7.928861759186931e-07,1.7772971024230582e-06,9.780074558550862e-07,8.55905896976585e-06,9.768026413096546e-07,1.1891131108560476e-06,1.7083555467405295e-06,1.0649170402037442e-06,2.5785830301179415e-05,1.590558457500157e-06,1.5834764673515782e-06,9.343819181222074e-05,1.4527104153285915e-06,1.0012669675253647e-06,1.0381697416984461e-06,1.8358382492507832e-06
23,7.936767425245079e-07,1.7749817476371203e-06,1.0173326312150929e-06,8.92639084921581e-06,9.72366718238081e-07,1.1944337400031003e-06,1.7041963556072728e-06,1.072136894132048e-06,2.7274515046237552e-05,1.5779280297182203e-06,1.6186678493063843e-06,9.756159257337498e-05,1.471953825460657e-06,9.967837607385506e-07,1.0283947963930658e-06,1.837486958963075e-06
24,7.941653576616452e-07,1.7680422478398466e-06,1.05721652142135e-06,9.256567012336786e-06,9.652228962150203e-07,1.198244648758484e-06,1.6950805007041688e-06,1.080523563084978e-06,2.8745322076365073e-05,1.5636075929970998e-06,1.651267012427614e-06,0.00010222028026226415,1.48691855205581e-06,9.916463452616136e-07,1.0190594933506422e-06,1.837926509999485e-06
25,7.947142934766521e-07,1.757103387005996e-06,1.0977428623866317e-06,9.549135987864362e-06,9.555917863014201e-07,1.2012471725265007e-06,1.681263868327372e-06,1.0897737575382243e-06,3.0193113944291198e-05,1.5488528878273286e-06,1.6811092403551678e-06,0.00010740455024230958,1.497590879326151e-06,9.857724390828689e-07,1.0107585835065733e-06,1.8385990275924405e-06
26,7.95695839942792e-07,1.7427300643170765e-06,1.1389606524164239e-06,9.804438405798367e-06,9.437444952976086e-07,1.2039387580655424e-06,1.6629394444280046e-06,1.0996662162206992e-06,3.161205605067302e-05,1.5348764284975192e-06,1.7082033023581578e-06,0.00011308334726998154,1.5040713891414511e-06,9.79057721494387e-07,1.004029787692808e-06,1.841262823562753e-06
27,7.974679149220259e-07,1.7253585075754208e-06,1.1807972697833783e-06,1.0022329281626586e-05,9.299767979233802e-07,1.20660657980802e-06,1.6403147705993474e-06,1.110218519178159e-06,3.2992918410295255e-05,1.5226414913075588e-06,1.732830097417453e-06,0.00011920531667776849,1.5066711822008885e-06,9.714508698207088e-07,9.993199384667908e-07,1.84777833604549e-06
28,8.00332974917844e-07,1.7052536015042535e-06,1.2230914789770743e-06,1.020142089632966e-05,9.145275860674613e-07,1.2094173761603158e-06,1.6136394678863147e-06,1.1216886794075396e-06,3.432240542386441e-05,1.5127751012615148e-06,1.7554635945061154e-06,0.00012569815254296062,1.5059758907697942e-06,9.62955081824403e-07,9.969665564474157e-07,1.8598860056771032e-06
29,8.045007984335251e-07,1.6825062143838208e-06,1.265732404393572e-06,1.0339302993166583e-05,8.975103532015076e-07,1.2125589001204333e-06,1.5831433666667423e-06,1.1344089695106733e-06,3.5583881904468196e-05,1.505573510561142e-06,1.7766277621566992e-06,0.0001324656743396602,1.502734474496389e-06,9.536257759831244e-07,9.972346472200358e-07,1.8790483137301824e-06
30,8.100562123182599e-07,1.6571508762528733e-06,1.30877650984681e-06,1.0433437609694678e-05,8.789259027810435e-07,1.2163140969678052e-06,1.5490072062519112e-06,1.1485931691965767e-06,3.675838281730944e-05,1.5010310757439339e-06,1.7968556374631388e-06,0.0001393843645090679,1.4976413823381049e-06,9.436162128434508e-07,1.0003531307114475e-06,1.906387268629759e-06
31,8.169349412791713e-07,1.62936187670784e-06,1.352416220979165e-06,1.048211852212686e-05,8.587440594282767e-07,1.220992920545598e-06,1.5114265959758803e-06,1.164241023581038e-06,3.782659243419349e-05,1.498845658692747e-06,1.816671475826666e-06,0.00014630248133492118,1.4911567807231308e-06,9.33176386190247e-07,1.0064805407156212e-06,1.9427295265451506e-06
32,8.2490547084935e-07,1.5995514908393183e-06,1.3968153363393625e-06,1.0485158684855766e-05,8.369514511438248e-07,1.2267912670913807e-06,1.4707054290989028e-06,1.1811636111260606e-06,3.87724167224899e-05,1.4984450443624745e-06,1.8364676992179466e-06,0.00015304512519063649,1.483418273696684e-06,9.225577737750546e-07,1.0156352774143995e-06,1.9887006094691577e-06
33,8.335539924736259e-07,1.568307279206085e-06,1.441951720029256e-06,1.0444199274385677e-05,8.135347400800477e-07,1.2337232046442258e-06,1.4273102711558278e-06,1.1991161541281635e-06,3.9586906563350055e-05,1.4991478908253595e-06,1.8563777254516775e-06,0.00015942931644588525,1.4742164807126921e-06,9.119542431321143e-07,1.0276518295641557e-06,2.0447285238948445e-06
34,8.422891035294877e-07,1.5362804934984396e-06,1.4875686116860426e-06,1.0362666147577184e-05,7.885014041159881e-07,1.2416977260937995e-06,1.381872064292548e-06,1.2179656372637017e-06,4.026986945453153e-05,1.5004269788142876e-06,1.8762563369748038e-06,0.00016529128316943156,1.463026942748933e-06,9.015654610953153e-07,1.0421619000008335e-06,2.1109294795728394e-06
35,8.503681769371777e-07,1.5041327360625054e-06,1.5332300304981912e-06,1.0245523236207169e-05,7.619729054778912e-07,1.250647884620631e-06,1.3351273902656392e-06,1.2377504775878689e-06,4.082733594060381e-05,1.5020375861448589e-06,1.895715999932268e-06,0.00017051749025278422,1.4491822034094296e-06,8.916687797054306e-07,1.0586006244887902e-06,2.187025050320181e-06
36,8.569301291350632e-07,1.472541396825489e-06,1.5784040737973323e-06,1.0098945904299987e-05,7.342391190219561e-07,1.2605533713965433e-06,1.2877983565777435e-06,1.2585763623920226e-06,4.1265938792154846e-05,1.5039209597535822e-06,1.9142119285722363e-06,0.00017505842811539268,1.4322232000766367e-06,8.825842837354972e-07,1.0762272806625642e-06,2.272376779989342e-06
37,8.610898179402771e-07,1.4421957221854162e-06,1.6224757995713819e-06,9.929877133519204e-06,7.057009154967269e-07,1.2713489138938422e-06,1.2404905007655643e-06,1.2804746170759801e-06,4.158762335308594e-05,1.506065118430251e-06,1.9312239454412556e-06,0.0001789116345648315,1.4122209298147815e-06,8.745877279934268e-07,1.0941209453153107e-06,2.366040328220629e-06
38,8.621604621660823e-07,1.4137281488097658e-06,1.6647272153782123e-06,9.745392092610625e-06,6.767850124620564e-07,1.2828357304568426e-06,1.1936989016110905e-06,1.3033418568634894e-06,4.178802704245547e-05,1.5084095132368562e-06,1.9463932612118266e-06,0.0001820909131754786,1.3897788761923864e-06,8.678613716183933e-07,1.111192287094666e-06,2.466754213602967e-06
39,8.599028205853174e-07,1.3876011860185042e-06,1.7044501572687115e-06,9.551978370422801e-06,6.47936970320524e-07,1.2946396522143249e-06,1.147887779917353e-06,1.3269314654662165e-06,4.1859324821022585e-05,1.5107337765152615e-06,1.9594651886012015e-06,0.00018461372612324427,1.3657337844838664e-06,8.624856488071137e-07,1.1263295097600369e-06,2.572915027443351e-06
40,8.545998315086295e-07,1.3640226652686966e-06,1.7411949143498531e-06,9.354932236568096e-06,6.196603814299983e-07,1.3062115990584856e-06,1.1035416322825356e-06,1.3508553826516798e-06,4.1795403497109574e-05,1.512594974613877e-06,1.9701884007107878e-06,0.0001865137315752963,1.3408410909806506e-06,8.584457079854117e-07,1.1386629028317551e-06,2.6826365047497574e-06
41,8.468959746996901e-07,1.3429382925884955e-06,1.77494170009035e-06,9.15793838450401e-06,5.925092245623175e-07,1.3168768446538121e-06,1.0611438898638787e-06,1.3745893394920272e-06,4.159678212524034e-05,1.513421314317436e-06,1.9783432215625706e-06,0.00018785849846374522,1.3156347133630199e-06,8.55661160874452e-07,1.1477038924096107e-06,2.7939304604974248e-06
42,8.375490552148949e-07,1.3241034305434478e-06,1.8060533531307413e-06,8.962867129127854e-06,5.670240462933546e-07,1.3259018173279354e-06,1.0211173089651023e-06,1.3974844582023089e-06,4.127372667930119e-05,1.5126634710039282e-06,1.9838497949991977e-06,0.0001887556394956534,1.2904700727124513e-06,8.540518275261354e-07,1.1532041924434175e-06,2.9048812364030878e-06
43,8.272686061015283e-07,1.307198582997794e-06,1.83508009956143e-06,8.769882676853113e-06,5.436662670168806e-07,1.3325614822601007e-06,9.837803034665547e-07,1.4188328142158309e-06,4.084586174499013e-05,1.5098337430041331e-06,1.986877738778955e-06,0.00018934448644580823,1.2656481352677685e-06,8.535953376307743e-07,1.1549483817924546e-06,3.013662547251802e-06
44,8.166599426181864e-07,1.2918998342974514e-06,1.862544148655666e-06,8.57779882017429e-06,5.227859991078072e-07,1.3362343902949693e-06,9.493286932055591e-07,1.4379830476215314e-06,4.033755758592701e-05,1.5045300908423519e-06,1.9879061233745037e-06,0.00018977818256155055,1.241469549107785e-06,8.543466725907161e-07,1.1527480143578993e-06,3.118550104056659e-06
45,8.062099066098477e-07,1.2778452966348366e-06,1.8887560583890345e-06,8.384441948552737e-06,5.046226059797457e-07,1.3364923783200013e-06,9.178397657747927e-07,1.454424923605186e-06,3.977246209193032e-05,1.496570914936428e-06,1.98767310935432e-06,0.0001902043792791808,1.2182268505579347e-06,8.564385182693335e-07,1.1466100054091298e-06,3.2182113138492884e-06
46,7.962904200058063e-07,1.2645986726074107e-06,1.913695505908095e-06,8.18691039167252e-06,4.893172394056562e-07,1.3330807603961127e-06,8.89315469177087e-07,1.4678210719701264e-06,3.917165517453948e-05,1.4860702648472047e-06,1.9870132432027353e-06,0.00019075023504574117,1.196228105556437e-06,8.600517263527415e-07,1.1368864432272398e-06,3.3121749695148325e-06
47,7.87183366660846e-07,1.2517031007557101e-06,1.937015325854039e-06,7.981918839811092e-06,4.769227253694001e-07,1.3257921857308749e-06,8.637270319577183e-07,1.4780268428420967e-06,3.8554942438191124e-05,1.4733358351368882e-06,1.9866353429650143e-06,0.00019151191758082578,1.1757960309327584e-06,8.653781263893143e-07,1.124261786655449e-06,3.401034176703543e-06
48,7.791390803358509e-07,1.238726101774874e-06,1.9581843131834804e-06,7.76648724695872e-06,4.674279200767529e-07,1.3143974684102481e-06,8.410022299923426e-07,1.4850937118230843e-06,3.794167292186546e-05,1.4586985997606667e-06,1.986939030303667e-06,0.00019254769411741293,1.1572184840464088e-06,8.726092662113025e-07,1.1095735062580773e-06,3.486135350423505e-06
49,7.724393871562684e-07,1.2252315591715375e-06,1.9766471269342523e-06,7.538888171363213e-06,4.60806580111121e-07,1.2987221356642327e-06,8.210044421776342e-07,1.4892071855526591e-06,3.734978657415254e-05,1.442396773701764e-06,1.9879659065719413e-06,0.0001938754799676165,1.1407673396119192e-06,8.819056899456923e-07,1.0936072401104243e-06,3.5689862029245794e-06
50,7.673878957139582e-07,1.2107830434772888e-06,1.991834312880433e-06,7.299391619455076e-06,4.5704647467216167e-07,1.2787735207869228e-06,8.035700587679283e-07,1.4905759969359222e-06,3.679404260992146e-05,1.4245688081582315e-06,1.989465974495465e-06,0.00019547347318551073,1.1267939488296764e-06,8.933494922760695e-07,1.0769865066093754e-06,3.65083614228167e-06
51,7.642347936718695e-07,1.1950433517002292e-06,2.0030859918522804e-06,7.050394638791653e-06,4.561223864565806e-07,1.2548051441670443e-06,7.885668840367785e-07,1.489372548309924e-06,3.6284202326091916e-05,1.4052779691433247e-06,1.9909582181936046e-06,0.00019727967536592114,1.1157520632203523e-06,9.069311880549462e-07,1.0601425498791957e-06,3.73262255697738e-06
52,7.63121836941073e-07,1.177907499858784e-06,2.0096903451260373e-06,6.795876568567162e-06,4.5794911247218376e-07,1.2272949938929223e-06,7.759289875555856e-07,1.4857580954745205e-06,3.582391324913679e-05,1.3844655325618329e-06,1.9917259420656495e-06,0.00019918966524165523,1.1080872486022772e-06,9.225466392655049e-07,1.0433249102823006e-06,3.8150113797460435e-06
53,7.640716027364795e-07,1.1595780703001099e-06,2.0110390305132844e-06,6.540422766503007e-06,4.62366066409618e-07,1.1968887298671883e-06,7.656600368893216e-07,1.4798949269572159e-06,3.541162387130012e-05,1.3619077554720293e-06,1.990870178130918e-06,0.00020105612609291293,1.1041016981740131e-06,9.399805631233999e-07,1.026643180672864e-06,3.898255461305895e-06
54,7.669831601474008e-07,1.1405291732811495e-06,2.0067951363519987e-06,6.288242737474936e-06,4.691477203886463e-07,1.1643580612086848e-06,7.578130618543903e-07,1.4719005936223487e-06,3.504384160276867e-05,1.3372943933596193e-06,1.98754494868752e-06,0.00020269568830925456,1.1038924946793456e-06,9.58896954569725e-07,1.010096203957645e-06,3.982017317154063e-06
55,7.716135584312543e-07,1.1213649765786378e-06,1.997034762259329e-06,6.042691621089197e-06,4.780040056694856e-07,1.1305444060297636e-06,7.524864489286015e-07,1.4618535330492611e-06,3.471872598170442e-05,1.3104014820024893e-06,1.9812475754640323e-06,0.00020391130529104877,1.1073596192296481e-06,9.788534060801022e-07,9.935476039689842e-07,4.065359020545163e-06
56,7.775650566974911e-07,1.1026610270303547e-06,1.982296112454258e-06,5.806503122189955e-06,4.885805946599515e-07,1.0962639755833874e-06,7.498288704974797e-07,1.4499006065373922e-06,3.443731391169142e-05,1.2812532797997382e-06,1.9719500484191686e-06,0.0002045302220928351,1.114261673007794e-06,9.993762729578098e-07,9.76694066479894e-07,4.146784690193734e-06
57,7.843092835358191e-07,1.0848983941526375e-06,1.9634643086290516e-06,5.582375398718535e-06,5.005127176884329e-07,1.0622469490983618e-06,7.499977428608082e-07,1.4363600118342582e-06,3.4201490211997385e-05,1.2501566106244878e-06,1.960056952891346e-06,0.00020443851725051587,1.1242814965459265e-06,1.0200881327286736e-06,9.591369362073405e-07,4.224182181424033e-06
58,7.912542304479118e-07,1.0684970653555758e-06,1.941534548498588e-06,5.373405597117527e-06,5.135307575343054e-07,1.0291533975255997e-06,7.530854747528306e-07,1.4217460324648726e-06,3.401047660640375e-05,1.217571216434337e-06,1.9463033815923803e-06,0.00020358753966707687,1.1370328337091788e-06,1.0407645680052457e-06,9.405894153396773e-07,4.2947925408009895e-06
59,7.978265384404487e-07,1.0538633831960123e-06,1.9173724721761347e-06,5.183160518293225e-06,5.275227769806156e-07,9.976022982796632e-07,7.590763057534231e-07,1.4067243287175483e-06,3.385920459845893e-05,1.183976392606542e-06,1.9316406699521174e-06,0.00020196815522491928,1.1520285183417408e-06,1.0612592566856928e-06,9.210702527136741e-07,4.35547101585558e-06
60,8.035245034153311e-07,1.0413958625687974e-06,1.8915682060270054e-06,5.015416611544542e-06,5.424843031275033e-07,9.681615901911856e-07,7.678587121888562e-07,1.391999745414407e-06,3.3740765043035696e-05,1.1498542199491814e-06,1.9171011655720836e-06,0.00019957903439012442,1.1687009230281204e-06,1.0814277717046552e-06,9.009021001457719e-07,4.40324341262145e-06
61,8.079093784122244e-07,1.0314535221622635e-06,1.8644042058056416e-06,4.873710440545672e-06,5.584060099512442e-07,9.413212950124231e-07,7.792714946590839e-07,1.3781722861793353e-06,3.365157595943479e-05,1.115687993987554e-06,1.9036460366112209e-06,0.00019641884716218848,1.1864882992394257e-06,1.1011359301984575e-06,8.805339336867361e-07,4.4358218201873145e-06
62,8.105652009923196e-07,1.0243166392058004e-06,1.8358825159025613e-06,4.76089172513202e-06,5.751938951090976e-07,9.174786421267311e-07,7.93132008876327e-07,1.3656374225366279e-06,3.3595534197250406e-05,1.0819579364018784e-06,1.8920145025802622e-06,0.00019250140877706155,1.204926984527878e-06,1.120245761933285e-06,8.603692151736374e-07,4.451794616116495e-06
63,8.111120630369757e-07,1.0201718947801263e-06,1.8057849078661936e-06,4.678862185000092e-06,5.926469657052609e-07,8.969225762409493e-07,8.092084533214101e-07,1.3545553558206052e-06,3.358435656873464e-05,1.049220766541061e-06,1.8826146244472833e-06,0.0001878719929348088,1.223673389783391e-06,1.1385376429930965e-06,8.407130229232553e-07,4.450549580225639e-06
64,8.092898731238558e-07,1.0191166588314482e-06,1.7738054806883354e-06,4.628557799924249e-06,6.10458755398071e-07,8.798050667784636e-07,8.271671480566311e-07,1.3448886215734546e-06,3.3634014120168187e-05,1.018171145350016e-06,1.8755219456156049e-06,0.00018261249637598366,1.2424302305725635e-06,1.1556900697623096e-06,8.218024972613978e-07,4.43218064228275e-06
65,8.0503434589587e-07,1.0211396236778884e-06,1.7397368475797555e-06,4.610049757740057e-06,6.282268287637281e-07,8.661168275686905e-07,8.465635271935456e-07,1.3365162912072814e-06,3.375992060463409e-05,9.895836840350698e-07,1.8706076218040468e-06,0.00017683465091464375,1.2608488535433828e-06,1.171369623756316e-06,8.038628203284426e-07,4.397503494127583e-06
66,7.984867480946728e-07,1.026074674723799e-06,1.7036057021910684e-06,4.622598599036849e-06,6.454657381779011e-07,8.556829036621483e-07,8.668742449797365e-07,1.3293444325275359e-06,3.397465705205866e-05,9.64229926220018e-07,1.8677048035790701e-06,0.00017066288254303374,1.278476708986407e-06,1.1853440529271267e-06,7.871819031241701e-07,4.348052632178659e-06
67,7.899286323406631e-07,1.0335975625896088e-06,1.6657047995644834e-06,4.664614611250627e-06,6.615972236691414e-07,8.481951322679702e-07,8.875100776039533e-07,1.3233013475035988e-06,3.4288965155565963e-05,9.428249195916642e-07,1.8667077815432257e-06,0.0001642125896127774,1.294768961505163e-06,1.197532636495897e-06,7.721544948847803e-07,4.285884049315907e-06
68,7.796693355291495e-07,1.04331568316119e-06,1.626554934354068e-06,4.733582233668868e-06,6.759338307201749e-07,8.432963722956939e-07,9.078363475481415e-07,1.3182727790046699e-06,3.4712679510001695e-05,9.259681036468269e-07,1.8676106511438998e-06,0.00015757481622379123,1.3092076625362158e-06,1.2079713587152035e-06,7.59221455925308e-07,4.213252736734686e-06
69,7.679648186092115e-07,1.0548915507654697e-06,1.5868131879876178e-06,4.826011619527635e-06,6.877454305434591e-07,8.406832668503964e-07,9.272689068354058e-07,1.3141038028187063e-06,3.5253374846475016e-05,9.140965315975994e-07,1.8705027677611354e-06,0.00015081584977359443,1.3215138448435908e-06,1.2167016904773722e-06,7.48749429429192e-07,4.1323894567727154e-06
70,7.550077849093551e-07,1.0680784867383856e-06,1.5471200909500205e-06,4.937513123144552e-06,6.964459282263449e-07,8.401832036782342e-07,9.453979851686599e-07,1.3106446161771085e-06,3.591412474134765e-05,9.07480074605731e-07,1.8754602244086383e-06,0.00014399013125335495,1.331786322901262e-06,1.2236565982838227e-06,7.409549022599065e-07,4.04539748880744e-06
71,7.409379991026853e-07,1.0826398761693077e-06,1.507952160467372e-06,5.063167061995417e-06,7.017855212454602e-07,8.418046865870856e-07,9.620474837341534e-07,1.3077666432397779e-06,3.6692051317134285e-05,9.062409226629617e-07,1.8823642315361356e-06,0.00013715569770217213,1.3404367542814716e-06,1.2286475443161536e-06,7.358917471583093e-07,3.9540975564007686e-06
72,7.258495075358579e-07,1.0982796571027258e-06,1.4695865407544361e-06,5.198171806747688e-06,7.038890487532031e-07,8.457489226745113e-07,9.772335749740186e-07,1.3053635042266431e-06,3.7577584754569544e-05,9.103647129445197e-07,1.8908140319861292e-06,0.0001303798574445694,1.3479851520266883e-06,1.2314183702191197e-06,7.334632010991207e-07,3.859787385992141e-06
73,7.098390776493049e-07,1.1146726547265724e-06,1.4321902563695694e-06,5.338382780535016e-06,7.031177024222004e-07,8.523393115890967e-07,9.910373946032677e-07,1.303351763810921e-06,3.8554192215264e-05,9.196899992134543e-07,1.9002015776096705e-06,0.00012373159242064436,1.3548661534967544e-06,1.231681243265826e-06,7.334355674323977e-07,3.7630520763559874e-06
74,6.930980101875739e-07,1.131502649900124e-06,1.3959397413446015e-06,5.480410837478543e-06,6.998893553075307e-07,8.618908938830431e-07,1.0034897449182793e-06,1.3016574567589947e-06,3.959915312290623e-05,9.33896720474246e-07,1.909828825632434e-06,0.00011727102670337502,1.3613465666653536e-06,1.229205893733958e-06,7.354683011642721e-07,3.663712990473052e-06
75,6.75965040979077e-07,1.1484360705648378e-06,1.3610622184164e-06,5.621387011768406e-06,6.945897874004256e-07,8.746083151293481e-07,1.014569128696687e-06,1.3002144020197662e-06,4.0685516680301084e-05,9.525320045558356e-07,1.9189250093182874e-06,0.0001110480588974073,1.3675330187482625e-06,1.2240117200095514e-06,7.391758563652224e-07,3.5609214472988705e-06
76,6.588754752564531e-07,1.1651035936795014e-06,1.327771665451518e-06,5.758673139283453e-06,6.875753107601843e-07,8.905589951060822e-07,1.0242851508048484e-06,1.2989994539477558e-06,4.1784395364841674e-05,9.75064666949973e-07,1.9265865555842625e-06,0.00010510839798708992,1.373364541801095e-06,1.21650405663895e-06,7.441934186909465e-07,3.4534073333121427e-06
77,6.422528183964405e-07,1.181139061194041e-06,1.296207250322541e-06,5.889660648731337e-06,6.79195990457237e-07,9.09706788625078e-07,1.0327502357303036e-06,1.298051695230927e-06,4.2866452632409844e-05,1.000900492680829e-06,1.931879963269312e-06,9.949723004671692e-05,1.378568100671174e-06,1.2074033928715176e-06,7.501980408606013e-07,3.3398685178321824e-06
78,6.264370919427443e-07,1.1962118926346503e-06,1.2664903129847589e-06,6.011695569440274e-06,6.698071507245471e-07,9.319585134167339e-07,1.0401660577108034e-06,1.297406651346783e-06,4.3901512034703955e-05,1.0293641396825617e-06,1.934217455415028e-06,9.425733241136909e-05,1.3826692073953619e-06,1.1975270027657782e-06,7.568686609494438e-07,3.2193992725011487e-06
79,6.116890007987594e-07,1.2099897443620152e-06,1.2388385921668614e-06,6.122033753815978e-06,6.597794371406381e-07,9.57167536498581e-07,1.046724996037305e-06,1.2969884573096833e-06,4.485627170186191e-05,1.0597582678495327e-06,1.933665860204176e-06,8.942477224727154e-05,1.385151918529548e-06,1.1875878464267147e-06,7.638440728756891e-07,3.0918218368526943e-06
80,5.982325111394981e-07,1.2220885330596857e-06,1.2136037123128478e-06,6.217658261548674e-06,6.49511150259382e-07,9.851005481804642e-07,1.0525459085023136e-06,1.2965856759473824e-06,4.569270534802966e-05,1.0915157630899716e-06,1.9308293310100644e-06,8.502452228020131e-05,1.3857232830818592e-06,1.1780923023840179e-06,7.707720366804494e-07,2.957839895438333e-06
81,5.862750598111897e-07,1.2321225761198655e-06,1.1912415131388391e-06,6.295170253676115e-06,6.394178319603718e-07,1.015435271841235e-06,1.057744364962635e-06,1.2959435171754757e-06,4.637081682422885e-05,1.124288823612429e-06,1.92644036150921e-06,8.106730780053472e-05,1.384448480958661e-06,1.1693032813704087e-06,7.774431809779335e-07,2.8189821451569556e-06
82,5.760062666372048e-07,1.2398323525337746e-06,1.1723086967409033e-06,6.351254336424632e-06,6.29886481874443e-07,1.0478115341146665e-06,1.0625665789871113e-06,1.2948625895837637e-06,4.68559477532454e-05,1.157895668554538e-06,1.9210655029522943e-06,7.754991001533185e-05,1.381619927704798e-06,1.1612244671937418e-06,7.838738280726378e-07,2.6773640820934395e-06
83,5.675954973741879e-07,1.245141180469379e-06,1.157476209959006e-06,6.383661292244673e-06,6.212381986275514e-07,1.081895519153976e-06,1.067454137635206e-06,1.2932049272856514e-06,4.712611301282559e-05,1.192253676577128e-06,1.915102293764774e-06,7.445908749298005e-05,1.3775270069732738e-06,1.1536123888332215e-06,7.902425790336402e-07,2.5353975740098897e-06
84,5.611632528578594e-07,1.2480814499806476e-06,1.1474667042140352e-06,6.39204460360167e-06,6.13735407763818e-07,1.1174316464397498e-06,1.0729833364551045e-06,1.29082706635751e-06,4.717408284825387e-05,1.2273635117792356e-06,1.9089103248318946e-06,7.177558105576803e-05,1.372319055119319e-06,1.1460289643960224e-06,7.967603967385038e-07,2.395586103976606e-06
85,5.567377207263054e-07,1.2486738395687908e-06,1.1429103526961808e-06,6.378223502649933e-06,6.076038731051635e-07,1.154271371074302e-06,1.079719447020462e-06,1.2875153246118837e-06,4.7002483163817015e-05,1.2632741585584532e-06,1.902877818800701e-06,6.947527957886777e-05,1.3659524751396315e-06,1.1379278877862628e-06,8.035851399232041e-07,2.260437738698266e-06
86,5.542596491731208e-07,1.246836186414323e-06,1.1442174775596948e-06,6.3459354196705786e-06,6.030340496125094e-07,1.1923665814863437e-06,1.0880979342403775e-06,1.2829744260093915e-06,4.661574665709882e-05,1.300033711733825e-06,1.8973920814623491e-06,6.752778461207573e-05,1.358169497865338e-06,1.12878652165732e-06,8.107747171590964e-07,2.1324468229281854e-06
87,5.536529273659366e-07,1.2423460346780444e-06,1.151528146245271e-06,6.300248202994612e-06,6.00162670597005e-07,1.2317468393595417e-06,1.0983964975199557e-06,1.2769032019652454e-06,4.601606864445018e-05,1.3376439421524408e-06,1.8927782356965068e-06,6.589392934234645e-05,1.3485541926598045e-06,1.1182744568777688e-06,8.182650143901912e-07,2.0140610990213735e-06
88,5.549107349688822e-07,1.2349180909241712e-06,1.1647230468989124e-06,6.246725682670939e-06,5.990551356058402e-07,1.2724999603619532e-06,1.1107521779765348e-06,1.269163246317822e-06,4.5206482960770863e-05,1.3759995722083455e-06,1.8892449333270995e-06,6.452359249370103e-05,1.3367112323021357e-06,1.106347590350608e-06,8.259002943975826e-07,1.907571502096236e-06
89,5.581293115091478e-07,1.2244343023163173e-06,1.1834779009519162e-06,6.190540823845865e-06,5.997037258071607e-07,1.3147229780647072e-06,1.1251886162264551e-06,1.2599466455150963e-06,4.4196972675995e-05,1.4148388113584746e-06,1.8868309007885207e-06,6.335491440464768e-05,1.322494892838863e-06,1.0931699431053185e-06,8.334781197610373e-07,1.8149670454565592e-06
90,5.634629125917424e-07,1.2111997096606474e-06,1.207343828130895e-06,6.135905440877438e-06,6.020362855351785e-07,1.358414506345815e-06,1.1416661058404216e-06,1.2497794648392095e-06,4.300802994195722e-05,1.4537147363226976e-06,1.8853827097618437e-06,6.231646028571904e-05,1.3061194405866274e-06,1.0789565623602649e-06,8.407449492337195e-07,1.7378439441029853e-06
91,5.710504253498412e-07,1.196027817810085e-06,1.2358072306362745e-06,6.085931989699891e-06,6.059371665011301e-07,1.4033597626798444e-06,1.1601195526087714e-06,1.239342082266572e-06,4.1669075629422006e-05,1.4919740140344239e-06,1.8846521638972876e-06,6.133385925256533e-05,1.2880468401498478e-06,1.063878616510069e-06,8.473672031551684e-07,1.6773872609779446e-06
92,5.809721445022749e-07,1.1800904329018279e-06,1.2682961535048887e-06,6.042667531142297e-06,6.112713049965492e-07,1.4491002549734404e-06,1.1804223226524138e-06,1.229301003463215e-06,4.0212764420175854e-05,1.5287720215002644e-06,1.884487456512758e-06,6.033969611984875e-05,1.2687538134280418e-06,1.0480241235550674e-06,8.529299938605106e-07,1.6343943309514903e-06
93,5.932265594130989e-07,1.1646531027062023e-06,1.3041550819567368e-06,6.007199283982614e-06,6.178789523576036e-07,1.4950188648765553e-06,1.2022952019354526e-06,1.2202677359821438e-06,3.866980910701291e-05,1.5631654431742421e-06,1.884922967914896e-06,5.928143806918366e-05,1.2485680153709718e-06,1.031392243354095e-06,8.569681354213351e-07,1.6093016865970144e-06
94,6.077041223329916e-07,1.1508826867644387e-06,1.3426432398261243e-06,5.979874466470979e-06,6.255645394907615e-07,1.5404728669346491e-06,1.225257539206182e-06,1.212777622787226e-06,3.706820154952416e-05,1.5942314851574644e-06,1.886062047615287e-06,5.8121776712713265e-05,1.227639166180172e-06,1.0139642489860667e-06,8.590361476131473e-07,1.6021949281624445e-06
95,6.241720874041302e-07,1.1397786255255534e-06,1.382989191518534e-06,5.960469920856509e-06,6.341179126748344e-07,1.5848749427183894e-06,1.2487011645603396e-06,1.2072175907501209e-06,3.543487885345093e-05,1.6210849729629887e-06,1.8878960415078993e-06,5.683129091915105e-05,1.2059872068272968e-06,9.958180938977708e-07,8.588214765736548e-07,1.6128203230656126e-06
96,6.422927554040637e-07,1.1321454073331042e-06,1.4244707381707782e-06,5.9481725079973554e-06,6.433248619927717e-07,1.627680472153488e-06,1.2720753724246482e-06,1.2037841879199396e-06,3.3795459461582195e-05,1.6428163752637135e-06,1.890266721098636e-06,5.538118869077758e-05,1.1835721685424664e-06,9.771838687123095e-07,8.562549992111089e-07,1.6406163063208913e-06
97,6.616848462055167e-07,1.1285659719292894e-06,1.466452816479007e-06,5.941417306392236e-06,6.529298435418822e-07,1.6683039425289974e-06,1.295043536464994e-06,1.20251597057321e-06,3.2171739086273405e-05,1.6585739691285375e-06,1.8930015928325385e-06,5.374473784376902e-05,1.1603572853071516e-06,9.583974723678376e-07,8.515432667317278e-07,1.6847888087802997e-06
98,6.819971609145002e-07,1.1293920980836003e-06,1.5083553109792708e-06,5.937693107394682e-06,6.625996043081387e-07,1.7060014391380351e-06,1.3174646223994238e-06,1.2033192443136715e-06,3.0579618686477524e-05,1.6678777576683544e-06,1.8960589140301285e-06,5.190686520805194e-05,1.1363244046667397e-06,9.398088351505835e-07,8.450937749387485e-07,1.7444295445375868e-06
99,7.029260094553332e-07,1.1347558165443105e-06,1.5495779177653508e-06,5.933547368887682e-06,6.719483192485245e-07,1.7397704526977548e-06,1.3392612773344104e-06,1.20594367516995e-06,2.9028607710951278e-05,1.6708780972585803e-06,1.8995212412800702e-06,4.9873616418132997e-05,1.1114680079471122e-06,9.217510013513547e-07,8.374073642741358e-07,1.8185934351857595e-06
100,7.241600775057273e-07,1.144602438580331e-06,1.5894139365072236e-06,5.924990722505919e-06,6.806150020741961e-07,1.7683348725658728e-06,1.3603520076460034e-06,1.2100076309058532e-06,2.7522672507830767e-05,1.6682266858149474e-06,1.9034946388581732e-06,4.7674652898298554e-05,1.0858235901852157e-06,9.045734171319754e-07,8.290074464779879e-07,1.9062872817797501e-06
101,7.453221156700176e-07,1.1587370317837145e-06,1.6269944451809257e-06,5.9081433284572604e-06,6.883185645353809e-07,1.7902565416691116e-06,1.3806759973695152e-06,1.2151294034562698e-06,2.6062341576756848e-05,1.6606709416036393e-06,1.9081049073962235e-06,4.535771954891294e-05,1.0594639074067442e-06,8.886242630231204e-07,8.203831393429117e-07,2.0064243585261083e-06
102,7.659623527999461e-07,1.1768867175338356e-06,1.661332333207866e-06,5.879825552339698e-06,6.948313723677238e-07,1.804169457103408e-06,1.4002289129985574e-06,1.22102543907719e-06,2.464717290957961e-05,1.6487606138539381e-06,1.9135657862750155e-06,4.297847963364162e-05,1.0324298395021993e-06,8.741764984810598e-07,8.11942307642652e-07,2.117803214510129e-06
103,7.855852886688626e-07,1.1988087269670109e-06,1.6914586091108683e-06,5.837999939467325e-06,6.999053315688249e-07,1.8090818848325551e-06,1.4190450924562132e-06,1.2274664804742631e-06,2.3276702102845293e-05,1.6327992001955049e-06,1.920115211161149e-06,4.0590877091283773e-05,1.0047297524167737e-06,8.613930492444604e-07,8.040068065676709e-07,2.23910195545615e-06
104,8.036698672460677e-07,1.2244171528687264e-06,1.71654248034805e-06,5.782055693668498e-06,7.032472849135059e-07,1.8046428821446783e-06,1.4371124330171245e-06,1.2342066777264605e-06,2.194935141935583e-05,1.6128754251831602e-06,1.927826855428684e-06,3.8241845178827276e-05,9.764659540286298e-07,8.50336998323426e-07,7.968418893499049e-07,2.3688125352434825e-06
105,8.1968021777661e-07,1.2538345173091837e-06,1.735956909245601e-06,5.712868954411805e-06,7.04592646399489e-07,1.7912568400107438e-06,1.4543050661714873e-06,1.2409869701025037e-06,2.0661575819173116e-05,1.5888715443124826e-06,1.9364948909875882e-06,3.597056909596407e-05,9.479438718193422e-07,8.410108187166969e-07,7.906996085671026e-07,2.505120483978057e-06
106,8.331118214168432e-07,1.287351465403925e-06,1.7493428927979144e-06,5.632621581351235e-06,7.03829209676639e-07,1.7699596798232923e-06,1.4703982795103525e-06,1.247535466781975e-06,1.940936027059443e-05,1.560506061852616e-06,1.9456667026147964e-06,3.380980390838268e-05,9.196539282538717e-07,8.334375417771226e-07,7.85839142768795e-07,2.645913148880013e-06
107,8.435889141171203e-07,1.3253893180451658e-06,1.7566565393191314e-06,5.544481313276578e-06,7.010709646934011e-07,1.7420943309388505e-06,1.4851087102396036e-06,1.253525934967378e-06,1.8191011418964575e-05,1.5274616122145315e-06,1.954765605232306e-06,3.1787199837051006e-05,8.921765097740365e-07,8.277136277185036e-07,7.825006184187111e-07,2.78896873470651e-06
108,8.509361165898195e-07,1.368510339325363e-06,1.758113985742718e-06,5.452265308243135e-06,6.966095285357037e-07,1.709011489028441e-06,1.4981290366807532e-06,1.258576849830649e-06,1.7009008288014222e-05,1.4895949415122803e-06,1.9632671898272033e-06,2.992615316173156e-05,8.660820793119888e-07,8.239666959873657e-07,7.808903702165067e-07,2.9320777659726407e-06
109,8.551429099924206e-07,1.4173861960949048e-06,1.754035832757839e-06,5.360109284801903e-06,6.907779511263006e-07,1.6720016897116764e-06,1.5091746675407666e-06,1.2623233686910015e-06,1.5869964487976288e-05,1.4471647922209795e-06,1.9708868753467156e-06,2.8246278676260325e-05,8.418577530582189e-07,8.222930281219486e-07,7.811966733936129e-07,3.073023528142937e-06
110,8.562664400623967e-07,1.4726588405841066e-06,1.7447087613934603e-06,5.272082105186132e-06,6.838437003052286e-07,1.6323817649763039e-06,1.5179820088586147e-06,1.2644798661436044e-06,1.4782816646519624e-05,1.400938114369963e-06,1.977687049886518e-06,2.676367474643973e-05,8.198724263477152e-07,8.227491483925382e-07,7.835658884676367e-07,3.209684151725449e-06
111,8.544239512421883e-07,1.534780691223049e-06,1.730346034150298e-06,5.191737798343454e-06,6.759856335732632e-07,1.5915120979069246e-06,1.5242127140369962e-06,1.2648103549217245e-06,1.3756219667157267e-05,1.3520865149272818e-06,1.9840503857765608e-06,2.5491066291633587e-05,8.003679188222254e-07,8.253671361987686e-07,7.880364246237209e-07,3.340286651169197e-06
112,8.499186021682286e-07,1.6039323040933008e-06,1.7110875883217498e-06,5.121727907479257e-06,6.67323132992813e-07,1.5506824056475159e-06,1.527380087667793e-06,1.2630471970768642e-06,1.2796659459993253e-05,1.3019499763606546e-06,1.990536254076722e-06,2.4437720159929656e-05,7.834583351945606e-07,8.301855962111857e-07,7.945026299064614e-07,3.4635196479939256e-06
113,8.43340205893688e-07,1.6800160558010133e-06,1.6869468962899072e-06,5.063602778330354e-06,6.579808411691535e-07,1.5109713747452013e-06,1.526921958189204e-06,1.2588850751373882e-06,1.1907850722733418e-05,1.2518392682814019e-06,1.997674542237355e-06,2.3609113259253935e-05,7.691352759512482e-07,8.372874759327055e-07,8.027262621765543e-07,3.578412420954728e-06
114,8.355075280244177e-07,1.7626824412775414e-06,1.6577506164194037e-06,5.0177862290212855e-06,6.481558980448732e-07,1.4731620366959831e-06,1.5223683988928216e-06,1.2521063881888256e-06,1.1090751517064315e-05,1.2029514448708397e-06,2.005805675398365e-06,2.3006597624623975e-05,7.573036186785637e-07,8.467690089617242e-07,8.12359282719174e-07,3.6841731117219454e-06
115,8.273018376783068e-07,1.8513279943952428e-06,1.623211724523374e-06,4.983647067381211e-06,6.381129146866174e-07,1.4377050160347542e-06,1.5134760909669483e-06,1.2427576997773088e-06,1.0343671314366488e-05,1.1563413411969601e-06,2.015063791358473e-06,2.2627330869740757e-05,7.478523310582769e-07,8.586535769932306e-07,8.229741918734992e-07,3.7801440960972088e-06
116,8.195187530649665e-07,1.945035809075487e-06,1.5831614610575057e-06,4.959649535095054e-06,6.281222872914565e-07,1.4047139950830591e-06,1.5002471017113134e-06,1.2312380290920106e-06,9.662604699222097e-06,1.1129384794891633e-06,2.0254555352979532e-06,2.2464488686040216e-05,7.406943036361069e-07,8.728494252951938e-07,8.341184441411447e-07,3.865884033693889e-06
117,8.128194055255799e-07,2.0425135042545823e-06,1.5377940374302834e-06,4.943564757625255e-06,6.184236554472115e-07,1.374024667318679e-06,1.4828322241433828e-06,1.218216559473036e-06,9.041978026785932e-06,1.0736326238803902e-06,2.036905275312007e-06,2.250758659279627e-05,7.357477404564416e-07,8.891777543614659e-07,8.453494429723164e-07,3.941321365331002e-06
118,8.077602868923796e-07,2.142114712939078e-06,1.487739386808581e-06,4.932689615721207e-06,6.092117269306483e-07,1.3453389016811738e-06,1.4614319750516397e-06,1.204450713678212e-06,8.475712777677565e-06,1.039330380011825e-06,2.0492219420314812e-06,2.274282923912753e-05,7.329063364586956e-07,9.074362037583841e-07,8.56192724361254e-07,4.006944247392633e-06
119,8.048131333847974e-07,2.2419742738451373e-06,1.4339079400079741e-06,4.924053888541818e-06,6.006112833685672e-07,1.3183986014294496e-06,1.4363021772386192e-06,1.1906795375571025e-06,7.958316777872275e-06,1.0108898502966356e-06,2.062041147176727e-06,2.3153547403786572e-05,7.320062927455851e-07,9.274342993943267e-07,8.660593192040463e-07,4.064010070354897e-06
120,8.043400255260067e-07,2.3401805044996762e-06,1.3772714540981433e-06,4.9146411645515906e-06,5.926796570975964e-07,1.293093408940304e-06,1.4078003644824477e-06,1.177631569371472e-06,7.4856798836065986e-06,9.890054644136175e-07,2.0747907021355252e-06,2.372058673029734e-05,7.328036711843168e-07,9.489611781422505e-07,8.742291609414679e-07,4.114639330357274e-06
121,8.065664472824449e-07,2.4348772481954806e-06,1.3187862480517282e-06,4.901631232075888e-06,5.854780673344683e-07,1.2694611021088143e-06,1.3763451067607883e-06,1.1660078714833066e-06,7.055329877688038e-06,9.741465598339202e-07,2.0866677647235684e-06,2.4422172895508214e-05,7.350229220048914e-07,9.717449899565623e-07,8.799787957697278e-07,4.1615614514074475e-06
122,8.11575615151336e-07,2.5242929038998504e-06,1.2594304599577567e-06,4.882613276292263e-06,5.791625741377829e-07,1.2476168907255002e-06,1.3423178671510465e-06,1.156382924494203e-06,6.666142978992188e-06,9.665484188909506e-07,2.0966360213529024e-06,2.523335528544702e-05,7.384480425424661e-07,9.95479489619462e-07,8.828066671913457e-07,4.207553990422017e-06
123,8.193095295935786e-07,2.606786545593965e-06,1.2001869552715539e-06,4.855684549483397e-06,5.739964769453411e-07,1.2276652805587495e-06,1.3060286279368081e-06,1.1491187962854126e-06,6.3177388889631105e-06,9.662197130849345e-07,2.1035210617144455e-06,2.6126219954504528e-05,7.429601419649441e-07,1.0198951002725853e-06,8.82568159510534e-07,4.25494512313834e-06
124,8.295769851350108e-07,2.680956816225299e-06,1.141957646712608e-06,4.819416578454753e-06,5.702730028427223e-07,1.209628030189293e-06,1.2677375699300686e-06,1.1443589067012135e-06,6.009787373313504e-06,9.729641121546181e-07,2.1062118160465994e-06,2.7071052391165803e-05,7.485124778485492e-07,1.0447766058152363e-06,8.793971656735971e-07,4.305387972381207e-06
125,8.420857496158066e-07,2.7457461558062378e-06,1.0855345397079726e-06,4.772804884682097e-06,5.682342949816007e-07,1.1934143579389949e-06,1.2276610603073744e-06,1.1420599818700591e-06,5.741417645157933e-06,9.864143590780728e-07,2.1038545807977283e-06,2.8037696999967046e-05,7.550933468545703e-07,1.069885006960033e-06,8.735429002480844e-07,4.3597928122717205e-06
126,8.564907095438716e-07,2.8004284554851948e-06,1.0316509553458229e-06,4.715325529695619e-06,5.680369469270018e-07,1.178842696253192e-06,1.1860149870363119e-06,1.1420080234386542e-06,5.510946207518702e-06,1.0060666643479874e-06,2.0959527323504243e-06,2.899859166221348e-05,7.627242276634539e-07,1.0948634785609651e-06,8.652960856799889e-07,4.418313507923183e-06
127,8.724127003129851e-07,2.844428413359438e-06,9.81000128585066e-07,4.647058633029809e-06,5.697480848328989e-07,1.1656786636351332e-06,1.1431132814250444e-06,1.1438447823703956e-06,5.315896726928228e-06,1.0313123050186765e-06,2.0823307649884957e-06,2.99337197645279e-05,7.71496669945052e-07,1.1192272238938635e-06,8.549878781253818e-07,4.480454234838078e-06
128,8.894255819608272e-07,2.877038048274458e-06,9.341762426276796e-07,4.568730355397397e-06,5.733502908845077e-07,1.1536430637631251e-06,1.099372202915696e-06,1.1471276914692607e-06,5.153105310337626e-06,1.061465822970255e-06,2.062997251419327e-06,3.083251522848836e-05,7.815664107158936e-07,1.1424584798186814e-06,8.430021818652088e-07,4.54533991755816e-06
129,9.070532957408365e-07,2.8972183099255425e-06,8.916198603739983e-07,4.481595770929201e-06,5.787445142369906e-07,1.1423958835016015e-06,1.0551985590546233e-06,1.1513538711999194e-06,5.0189780966324125e-06,1.0958022374789591e-06,2.0380929463493817e-06,3.1690591645519994e-05,7.930815264538504e-07,1.1641505758704038e-06,8.298108339638914e-07,4.612038139115669e-06
130,9.247686724830234e-07,2.9036914566733253e-06,8.53617513362322e-07,4.387205148288232e-06,5.857478529704831e-07,1.1315261744295812e-06,1.0109457509514637e-06,1.1559236531846514e-06,4.9100217379094355e-06,1.1336022843681297e-06,2.0079803272815732e-06,3.25070465732272e-05,8.061248759170627e-07,1.1840821429105827e-06,8.159893356563275e-07,4.679787684302054e-06
131,9.42010730337e-07,2.89534167390398e-06,8.203202918715521e-07,4.287138480529858e-06,5.940824675449653e-07,1.1205457312870231e-06,9.670018231441006e-07,1.1601492347185008e-06,4.823393439044051e-06,1.1741470215580388e-06,1.9732860458261277e-06,3.3285574518260315e-05,8.207043238824155e-07,1.2021425852351729e-06,8.021502363965059e-07,4.748059832674665e-06
132,9.582928028672018e-07,2.871701415826163e-06,7.917673956828747e-07,4.182757253671386e-06,6.033681825717182e-07,1.1089153024654805e-06,9.238775211408546e-07,1.1633740617068712e-06,4.7571507257868545e-06,1.2166395709647687e-06,1.9348294888918045e-06,3.4034739827255786e-05,8.367650904552567e-07,1.2182123291782028e-06,7.888360947374356e-07,4.816496303374892e-06
133,9.73360805492049e-07,2.8332560052758325e-06,7.679260549945043e-07,4.074969263761344e-06,6.131705901240496e-07,1.0961599521269639e-06,8.821938915088872e-07,1.1651103748108807e-06,4.710209771230939e-06,1.2601345576431762e-06,1.893542792244724e-06,3.4764303862783406e-05,8.541963108236555e-07,1.232117723639574e-06,7.764527366852444e-07,4.884862891634713e-06
134,9.872658824154283e-07,2.7814344805273795e-06,7.48710569439509e-07,3.964015955228702e-06,6.231269767712285e-07,1.0820037690199705e-06,8.426038858080819e-07,1.1650667257622763e-06,4.682198868802708e-06,1.3035775007919066e-06,1.850394551162626e-06,3.548037128721568e-05,8.728243420552224e-07,1.2436096571680408e-06,7.652745859012338e-07,4.9530507512346805e-06
135,1.000299944492188e-06,2.71831515715197e-06,7.339541366836752e-07,3.849385646364089e-06,6.330639086246258e-07,1.0663861881649427e-06,8.057220212689042e-07,1.1630656239220047e-06,4.673272853304012e-06,1.3459725048746446e-06,1.8062677092394459e-06,3.618239038605472e-05,8.924052678454952e-07,1.2523507649956595e-06,7.555266761951972e-07,5.021026144349633e-06
136,1.012843832083391e-06,2.6461812461657264e-06,7.233722713282819e-07,3.7299865877655124e-06,6.429928888964513e-07,1.049377948817151e-06,7.720810596371033e-07,1.1589786163371015e-06,4.683800361472547e-06,1.3865538483355776e-06,1.7618607845508512e-06,3.686225466719652e-05,9.126188255212154e-07,1.2579621379158195e-06,7.474945066691035e-07,5.088729589471785e-06
137,1.0252050661053329e-06,2.567114809385352e-06,7.165443557036224e-07,3.6045703359159012e-06,6.529962086421045e-07,1.0311182136948786e-06,7.420985977661709e-07,1.1527629536935791e-06,4.713910552592352e-06,1.4248178408310228e-06,1.7177088327958774e-06,3.750459433236771e-05,9.330879406858045e-07,1.2600591648445707e-06,7.415581502935575e-07,5.1560294250517585e-06
138,1.0375173769413583e-06,2.4827966790651907e-06,7.12911267322582e-07,3.4722135704839365e-06,6.631163967564891e-07,1.0118009200003822e-06,7.160632759590708e-07,1.1445269303008452e-06,4.763135348437787e-06,1.460407986507513e-06,1.6742559387472078e-06,3.80884717052286e-05,9.534686767166196e-07,1.2582490190099386e-06,7.381189281465144e-07,5.222729276152567e-06
139,1.049736933833755e-06,2.3945184284575096e-06,7.118140678209991e-07,3.332641784509922e-06,6.73310163653606e-07,9.91664388081916e-07,6.941519192219265e-07,1.1345158441741853e-06,4.830358970243367e-06,1.4929473194891536e-06,1.6318478086292754e-06,3.859142316232329e-05,9.735574860847656e-07,1.2521901253411691e-06,7.37498459647076e-07,5.288560396597712e-06
140,1.0616971978510786e-06,2.3032628417825333e-06,7.125994427645656e-07,3.1863136513157565e-06,6.834476163773482e-07,9.70974892732097e-07,6.764424228177061e-07,1.123024266580031e-06,4.913980226551255e-06,1.5219496914295115e-06,1.5906423550741623e-06,3.8994503288873826e-05,9.93290846790712e-07,1.2417070078282881e-06,7.398869211916446e-07,5.3532057754177915e-06
141,1.0731397723547903e-06,2.20979284322966e-06,7.147515926002934e-07,3.034328370428501e-06,6.933243644546663e-07,9.500231537758009e-07,6.628973725818784e-07,1.1103047422881344e-06,5.012171607918298e-06,1.5468932534400067e-06,1.5505450398454001e-06,3.9284104829489306e-05,1.0126481054570098e-06,1.226873310644404e-06,7.453419674457519e-07,5.4164247956809855e-06
142,1.0837044732131602e-06,2.1148086711271992e-06,7.179673718791338e-07,2.878248097770888e-06,7.026829587809762e-07,9.291377534168013e-07,6.533491042408331e-07,1.096499398079464e-06,5.123331477210003e-06,1.5673709365896205e-06,1.5112614665349096e-06,3.944881644709526e-05,1.0315836622137566e-06,1.208064896556516e-06,7.538036786838258e-07,5.478160363796804e-06
143,1.09296318009343e-06,2.0191367929795203e-06,7.221406980856345e-07,2.7198851096039464e-06,7.112851040691775e-07,9.08697546626375e-07,6.475201349496216e-07,1.0815957930972106e-06,5.246768672410193e-06,1.58316038580687e-06,1.4724555443960101e-06,3.947642806472011e-05,1.0500144509126594e-06,1.1859631504290752e-06,7.651239879457197e-07,5.538395212984603e-06
144,1.10053460488657e-06,1.9237755132279375e-06,7.272836077460255e-07,2.5611051777127972e-06,7.190382184773661e-07,8.891144418341018e-07,6.450735204135564e-07,1.0654501532156276e-06,5.383363244641809e-06,1.5941776700955337e-06,1.4338875333502544e-06,3.9355931379567903e-05,1.067795749183922e-06,1.1614221766024365e-06,7.791079678436649e-07,5.596727383017472e-06
145,1.1061687933648915e-06,1.8297459741281685e-06,7.334175612338444e-07,2.403723466729748e-06,7.260727078913024e-07,8.707927266623283e-07,6.456596648821553e-07,1.0479059312801358e-06,5.535805442404631e-06,1.6004047691481814e-06,1.3954118321310059e-06,3.9081593341721405e-05,1.0846714911409831e-06,1.135257215222981e-06,7.95523623173398e-07,5.651984437668751e-06
146,1.1097048602271933e-06,1.7379569293196142e-06,7.404787756449501e-07,2.249506990242036e-06,7.326836469882021e-07,8.541003852837056e-07,6.489308347571402e-07,1.0289336656313092e-06,5.708220314833413e-06,1.6018983442167803e-06,1.356895009651067e-06,3.8654482772393595e-05,1.1002654235721228e-06,1.1081407925756281e-06,8.141020874223482e-07,5.7021678484459794e-06
147,1.110999581191534e-06,1.6492160445580816e-06,7.482972045134564e-07,2.100195889810027e-06,7.391973476900275e-07,8.393547689321239e-07,6.545341750051285e-07,1.0086930464356533e-06,5.9053594554729114e-06,1.5989133357101048e-06,1.3182314128956848e-06,3.808135934886833e-05,1.1141620249248257e-06,1.0806322754495335e-06,8.345883871928833e-07,5.744641380762936e-06
148,1.1099504761866436e-06,1.5642414915842323e-06,7.566478780868133e-07,1.957477372797769e-06,7.458854202995888e-07,8.268240139629059e-07,6.621203095393194e-07,9.875113499531739e-07,6.131738435679255e-06,1.5920393549711872e-06,1.2794830611156177e-06,3.737256856449194e-05,1.126022027389438e-06,1.053196615330038e-06,8.567946283733888e-07,5.776377378150879e-06
149,1.1065321869190623e-06,1.4835925982846375e-06,7.652893146749056e-07,1.822964331757872e-06,7.529539474175137e-07,8.167497744831392e-07,6.71372871175223e-07,9.6583712246618e-07,6.39099595424344e-06,1.5821911748315695e-06,1.2410038186990984e-06,3.6539695635087765e-05,1.1356382847034405e-06,1.0261826575628402e-06,8.805786953262201e-07,5.794282277552895e-06
150,1.1007514040917043e-06,1.4076568448773902e-06,7.739475837449073e-07,1.6982417420975698e-06,7.605459580386491e-07,8.093466918704641e-07,6.820279081264694e-07,9.441861811187317e-07,6.685556157792355e-06,1.5704412382916844e-06,1.203423152769301e-06,3.559309346439012e-05,1.142900569765295e-06,9.99853529058475e-07,9.057733551651511e-07,5.7957234963170215e-06
151,1.0926186286113644e-06,1.3367626106574254e-06,7.823086166020716e-07,1.5849151102440353e-06,7.687197105409794e-07,8.047709423563224e-07,6.93873782050522e-07,9.230615649979625e-07,7.016538216687153e-06,1.5578254783009042e-06,1.1674813685752487e-06,3.453947235207663e-05,1.1477136734712872e-06,9.744436932617875e-07,9.321305422171682e-07,5.7792162197331165e-06
152,1.0822070335177351e-06,1.2713021847809456e-06,7.900682077856469e-07,1.4845643417853915e-06,7.77429423172812e-07,8.031017791313842e-07,7.067530506772851e-07,9.028852487729594e-07,7.383823966367219e-06,1.545209681407664e-06,1.1338529771863856e-06,3.338079811960397e-05,1.1499519025155225e-06,9.501440136503486e-07,9.593087009836541e-07,5.744879601795426e-06
153,1.069696169244247e-06,1.2117410065920755e-06,7.970151335466907e-07,1.3986693221426113e-06,7.865463375021811e-07,8.043297894865646e-07,7.205551973641967e-07,8.839888749750674e-07,7.78631323438146e-06,1.5332591288581407e-06,1.1030754558197512e-06,3.211610917817965e-05,1.1494953130666242e-06,9.270437032378563e-07,9.869162135880874e-07,5.694256640603276e-06
154,1.0553266748583708e-06,1.1585231219074568e-06,8.030935004510446e-07,1.3286172604692916e-06,7.95904330048944e-07,8.083371534387716e-07,7.35170228271124e-07,8.666493692573469e-07,8.222392119360657e-06,1.5225256060502066e-06,1.0755319439155355e-06,3.074587924753902e-05,1.1463135960186876e-06,9.051226666613806e-07,1.0145791070246515e-06,5.629701877114495e-06
155,1.039318000190561e-06,1.111985351877343e-06,8.083955264268597e-07,1.2757345084223725e-06,8.05318008107846e-07,8.148854159123491e-07,7.504475557524535e-07,8.511359426006803e-07,8.690400208691783e-06,1.5135541414555517e-06,1.0514307733605584e-06,2.927654179944081e-05,1.1405285604434647e-06,8.843263927941065e-07,1.0419658259312208e-06,5.553921888234617e-06
156,1.021804885709906e-06,1.072355763453085e-06,8.131027551143792e-07,1.2412512585843484e-06,8.145691839168407e-07,8.236212210075086e-07,7.662204427879771e-07,8.377240091830495e-07,9.188845793350937e-06,1.506928276202263e-06,1.03081330465763e-06,2.7722623473252735e-05,1.1324103665043089e-06,8.646668290277754e-07,1.0687920221271107e-06,5.469782710854809e-06
157,1.0027909753885073e-06,1.0397955189361226e-06,8.174619772573506e-07,1.2262348630176862e-06,8.234137019053428e-07,8.341029920300373e-07,7.823628695444426e-07,8.266693791550012e-07,9.716379655826244e-06,1.50328005462598e-06,1.0135867745656408e-06,2.6105264448067846e-05,1.1223237525663879e-06,8.462427862262933e-07,1.0948599392192788e-06,5.380016122026246e-06
158,9.821267536922985e-07,1.0144111257821142e-06,8.218056088574435e-07,1.2315719623990427e-06,8.316403528095205e-07,8.458446139855644e-07,7.988214784579013e-07,8.181935953654724e-07,1.027168172119767e-05,1.5032525030670927e-06,9.995278305373806e-07,2.4449298134091785e-05,1.1106776654278666e-06,8.29169532988364e-07,1.1200913741300983e-06,5.286713161758203e-06
159,9.59564747311505e-07,9.962301405492521e-07,8.265268014166553e-07,1.2580028124490868e-06,8.391476380069208e-07,8.583786496270594e-07,8.156090317102811e-07,8.124700389330336e-07,1.0853269128178525e-05,1.5073829170894384e-06,9.882519178295575e-07,2.2782531085839534e-05,1.097891550746849e-06,8.135126309338842e-07,1.1445109090742785e-06,5.1909250398615515e-06
160,9.349042575891404e-07,9.85170950781081e-07,8.319968870086862e-07,1.306137362502495e-06,8.459578406383727e-07,8.713410540996184e-07,8.327690810264067e-07,8.095752053286873e-07,1.1459049189393163e-05,1.5159795205559285e-06,9.792035227562185e-07,2.1136232365950875e-05,1.0843497690855289e-06,7.992769052122906e-07,1.1681969634175953e-06,5.092621708476211e-06
161,9.081180197395443e-07,9.810267762289383e-07,8.385017674681596e-07,1.376421505007407e-06,8.521396727756014e-07,8.845270318327796e-07,8.50346254905277e-07,8.094604776310325e-07,1.2085700432017813e-05,1.5290839211838827e-06,9.717176710758238e-07,1.9543399419446874e-05,1.0703533645990875e-06,7.864163148157885e-07,1.1912135722449048e-06,4.990963429944195e-06
162,8.793428958600249e-07,9.834754108281648e-07,8.462257020824767e-07,1.4691006891720372e-06,8.577361633545497e-07,8.978547004575404e-07,8.683902506371238e-07,8.120068252366506e-07,1.2728522247544915e-05,1.546506390790671e-06,9.6518180529969e-07,1.8036094054359168e-05,1.0561154916919375e-06,7.748420539454559e-07,1.2135366021320674e-06,4.884750297096881e-06
163,8.487910255681326e-07,9.92104699035605e-07,8.552840525070331e-07,1.5842301343713084e-06,8.627674807730907e-07,9.112874638894292e-07,8.869609904568094e-07,8.171209228979229e-07,1.3382063177828784e-05,1.5678574855587987e-06,9.592448873049204e-07,1.6644588914751785e-05,1.0417977487089172e-06,7.644552789156441e-07,1.2350175131990774e-06,4.772913576925253e-06
164,8.167411099504388e-07,1.0064147471694954e-06,8.657919934776066e-07,1.7217302496917092e-06,8.672479108974891e-07,9.248258104023633e-07,9.060840505433382e-07,8.247799753892789e-07,1.4040804829966579e-05,1.5925724175293719e-06,9.539003204199877e-07,1.539730295750139e-05,1.0275322459900084e-06,7.551811018041566e-07,1.2554134385156613e-06,4.654894945060774e-06
165,7.836237453015668e-07,1.0257783875753923e-06,8.778933282980401e-07,1.881436380886584e-06,8.711815958413026e-07,9.385476700340921e-07,9.256712996218545e-07,8.349926389323454e-07,1.4699169536340032e-05,1.6199970482854878e-06,9.493486852621914e-07,1.4320451061898283e-05,1.0134066888661662e-06,7.469606707729416e-07,1.2744324032095648e-06,4.53080909883832e-06
166,7.500701076555095e-07,1.0494013000253156e-06,8.917165215653628e-07,2.0630808118794275e-06,8.745573748474455e-07,9.525858596783309e-07,9.454639731806826e-07,8.477171090046369e-07,1.535099189121623e-05,1.6495303429660855e-06,9.457812542357477e-07,1.3438099963157046e-05,9.994493667471413e-07,7.397457189663478e-07,1.2917104024573092e-06,4.401381770733165e-06
167,7.168512702719511e-07,1.0763377247757331e-06,9.07316689031811e-07,2.266204328599301e-06,8.773574300471772e-07,9.670340936719156e-07,9.650245365320541e-07,8.627917988216473e-07,1.5988930625209056e-05,1.6807390734250081e-06,9.432739898588346e-07,1.2772373956391792e-05,9.856517538495704e-07,7.335327347541304e-07,1.306758670284118e-06,4.267766102958889e-06
168,6.847543098531919e-07,1.1055572831881485e-06,9.246547969239688e-07,2.490085244713061e-06,8.795797482176423e-07,9.818912618363366e-07,9.837710153328393e-07,8.79915682277762e-07,1.660394208242837e-05,1.713397342539871e-06,9.418252862353588e-07,1.2343173054035969e-05,9.719985492913189e-07,7.283949015558347e-07,1.3190065027080987e-06,4.131399267028866e-06
169,6.544767993137389e-07,1.1359944926048185e-06,9.43628447619156e-07,2.733777381839369e-06,8.812299666564715e-07,9.971176989480272e-07,1.0010240986277253e-06,8.986781416893198e-07,1.718473948319966e-05,1.7474562885633314e-06,9.414553018175022e-07,1.2167825960124657e-05,9.584448259209223e-07,7.244743530183395e-07,1.3279320317373327e-06,3.993946769919825e-06
170,6.265803908797545e-07,1.1665276650091368e-06,9.64125439562887e-07,2.9962058041431093e-06,8.82298965841641e-07,1.0127451389640513e-06,1.0160563933928871e-06,9.185912977249232e-07,1.7717798599654918e-05,1.7829571627453144e-06,9.422617713028876e-07,1.2261153520555404e-05,9.448744846953981e-07,7.219310480301492e-07,1.3331420039603467e-06,3.857211329256035e-06
171,6.014970140295924e-07,1.195927950690193e-06,9.860470703097564e-07,3.2761515656965724e-06,8.828041810055015e-07,1.0289206451539618e-06,1.0282100725012596e-06,9.390974411417659e-07,1.8189007915712768e-05,1.8198887210978588e-06,9.443797903622178e-07,1.2635702246709043e-05,9.311205271327974e-07,7.208738710834808e-07,1.334380329111722e-06,3.7229008662775582e-06
172,5.795609709307846e-07,1.2228758771619938e-06,1.0093188677888896e-06,3.572098623139852e-06,8.828425778589642e-07,1.0458390803440634e-06,1.0370872864468114e-06,9.595914097315863e-07,1.8586931739661372e-05,1.858019823742053e-06,9.479251555725002e-07,1.3301741926107558e-05,9.170127224652266e-07,7.213120624744114e-07,1.3315876923314945e-06,3.5923612851085275e-06
173,5.610289532279068e-07,1.246074651984958e-06,1.0339482265622016e-06,3.882110373196712e-06,8.825553020196129e-07,1.0636475406037311e-06,1.0426505318742987e-06,9.794759711238626e-07,1.8905750854829253e-05,1.8967974516243323e-06,9.530160840567574e-07,1.4266987874012184e-05,9.023743277123635e-07,7.231377281979283e-07,1.3250045897045017e-06,3.4665270168367186e-06
174,5.460699521039093e-07,1.2644094044553092e-06,1.0601025415107262e-06,4.20376727300906e-06,8.820704235379163e-07,1.0824077336911145e-06,1.045121287351167e-06,9.982095883969818e-07,1.9145585452394653e-05,1.9353436254722e-06,9.598088011366452e-07,1.553633402972139e-05,8.870034983152371e-07,7.26150126913177e-07,1.3151592284593403e-06,3.346130566115125e-06
175,5.347591367428246e-07,1.2771149841039235e-06,1.088122186464023e-06,4.534042193869638e-06,8.815088184179346e-07,1.1020916460036246e-06,1.0447906193574408e-06,1.0153335094356478e-06,1.931004940150707e-05,1.9724857946638702e-06,9.68455540833321e-07,1.711180593494772e-05,8.707063057682481e-07,7.301157607305206e-07,1.3026977459813446e-06,3.2318905078108573e-06
176,5.271157032605577e-07,1.2839306010721198e-06,1.1184531893754917e-06,4.869190743094201e-06,8.809744582446452e-07,1.1225882680859953e-06,1.0419284150953083e-06,1.0304926493799892e-06,1.9403972674238103e-05,2.006799533937318e-06,9.79019927622307e-07,1.8992584824031718e-05,8.533480688180273e-07,7.348123980429959e-07,1.2881797490421066e-06,3.1245283042967822e-06
177,5.231627850640781e-07,1.2851810173581993e-06,1.1515620932505775e-06,5.204808785314646e-06,8.804815544040482e-07,1.1437480933068663e-06,1.0368091535197047e-06,1.043436607202521e-06,1.9433845208053643e-05,2.0366782891376016e-06,9.914170749268726e-07,2.117492676838048e-05,8.348584563192612e-07,7.400457758723828e-07,1.271958205131783e-06,3.0247729194257344e-06
178,5.22946404423439e-07,1.2817209907441183e-06,1.1878638306191194e-06,5.535932224800153e-06,8.799133866443584e-07,1.1654179316011978e-06,1.029727568688681e-06,1.0539759521865944e-06,1.9409276474650618e-05,2.0603999105822624e-06,1.0054337980647916e-06,2.3652055251495473e-05,8.151927106878495e-07,7.456795853875838e-07,1.2541784515158885e-06,2.9333836968512523e-06
179,5.264935218523342e-07,1.2747529954415264e-06,1.2276462365744572e-06,5.8569883039470925e-06,8.790686260648039e-07,1.1874019885755022e-06,1.0209746507699792e-06,1.0619217837293916e-06,1.9342278578455635e-05,2.076226151380575e-06,1.0208603061645572e-06,2.641401437629171e-05,7.943269857961954e-07,7.516763415734516e-07,1.2348803208322537e-06,2.851036351049915e-06
180,5.337558563786158e-07,1.265605909271368e-06,1.2710198995863563e-06,6.161780803988191e-06,8.777234697976297e-07,1.2094292537355987e-06,1.0108529457752709e-06,1.0670992159846872e-06,1.924451957966269e-05,2.0826293913614685e-06,1.0376376090812237e-06,2.944731185610652e-05,7.723568839101102e-07,7.580942283222658e-07,1.2141256321716211e-06,2.778193051201395e-06
181,5.445890804251668e-07,1.255565497243601e-06,1.3179420148898808e-06,6.443999571934872e-06,8.756212104353764e-07,1.2312169042870835e-06,9.997263123945182e-07,1.069441561996676e-06,1.9125138891977432e-05,2.0785927366509256e-06,1.0558718200066873e-06,3.2734593699655094e-05,7.496066913603537e-07,7.650255574299879e-07,1.192022903028028e-06,2.7152063447221845e-06
182,5.587669932549075e-07,1.24578159713546e-06,1.3682977352962566e-06,6.698409892359752e-06,8.724230865897863e-07,1.2525506634433364e-06,9.880227977139606e-07,1.0690419231730293e-06,1.8990168159715817e-05,2.0637991055144366e-06,1.0757354524745847e-06,3.625496392536555e-05,7.265960635753651e-07,7.725271199967075e-07,1.1686486094284241e-06,2.662527224997576e-06
183,5.75995017177319e-07,1.237237914872579e-06,1.4219831125316303e-06,6.922180721166039e-06,8.677428593461113e-07,1.2732947819147475e-06,9.761782538200931e-07,1.0661165925103446e-06,1.8842467684370564e-05,2.0386116222833493e-06,1.0973898130654092e-06,3.998484099997306e-05,7.039123133336982e-07,7.805865535604269e-07,1.1440363667572603e-06,2.6207284759381256e-06
184,5.959114347638307e-07,1.2307697898040218e-06,1.4789320702458302e-06,7.115593104124794e-06,8.613054225984672e-07,1.293352847385323e-06,9.645807182079618e-07,1.060955610470698e-06,1.8681758097788893e-05,2.003862881759649e-06,1.1209415718300936e-06,4.3897942430235187e-05,6.821331965022612e-07,7.89167791524092e-07,1.1183178885668887e-06,2.590310972361996e-06
185,6.181136644086027e-07,1.2270774783356528e-06,1.5390720164507189e-06,7.281745911484832e-06,8.531085597798743e-07,1.3126032310620048e-06,9.535461375966199e-07,1.0538785982664864e-06,1.8505638485680508e-05,1.9605471394613756e-06,1.146367775277627e-06,4.7963473355340515e-05,6.618013209569223e-07,7.983147924549544e-07,1.0918657798990356e-06,2.571451268020066e-06
186,6.422119553965223e-07,1.2266830560949566e-06,1.602262462061446e-06,7.425386568436084e-06,8.434226934654789e-07,1.3308472498135019e-06,9.433062193074172e-07,1.0451636687216637e-06,1.8311553341434262e-05,1.90965033923142e-06,1.1734349081503889e-06,5.214431950782135e-05,6.433891664867061e-07,8.081817798495052e-07,1.0652655203090142e-06,2.563842615836573e-06
187,6.678499711152435e-07,1.2298714984872093e-06,1.668244443235272e-06,7.551515821122256e-06,8.326335376731663e-07,1.347842656474199e-06,9.339962774797579e-07,1.0350034204837765e-06,1.809821183651181e-05,1.8522521339164883e-06,1.2016941849350542e-06,5.6397375326075844e-05,6.272622414029726e-07,8.189774634478321e-07,1.0391511646141754e-06,2.566682477427386e-06
188,6.94704214970043e-07,1.236691281143743e-06,1.7365638843083188e-06,7.664704934257058e-06,8.210910178558252e-07,1.3633825235646868e-06,9.256498060750645e-07,1.0235532533248026e-06,1.7865598326523342e-05,1.789671903310712e-06,1.2305790463813642e-06,6.0674446865013785e-05,6.136650013141826e-07,8.309326370495355e-07,1.0140564573051568e-06,2.5787898181538766e-06
189,7.225255638096155e-07,1.2470261179661494e-06,1.8064705862871264e-06,7.769424097657513e-06,8.090610466023405e-07,1.377288442211337e-06,9.182021667614704e-07,1.0110186587431103e-06,1.7614401714822595e-05,1.7234028840315763e-06,1.2595422234564433e-06,6.492094209923219e-05,6.027318147624771e-07,8.44276857069576e-07,9.90365700319898e-07,2.5988145666267084e-06
190,7.511671463802235e-07,1.2607040184080738e-06,1.8768543315173855e-06,7.870628820775414e-06,7.967584846580447e-07,1.3893313847809014e-06,9.115049859186547e-07,9.97705055518165e-07,1.7345610535038637e-05,1.6548841748960444e-06,1.288116795965658e-06,6.907395746541542e-05,5.945109447090554e-07,8.591819668233855e-07,9.68364612739121e-07,2.625465876851257e-06
191,7.805248661885835e-07,1.2776018266046506e-06,1.9462617915109827e-06,7.97377934804381e-06,7.843996305347846e-07,1.3992347327181616e-06,9.053465908142595e-07,9.840059845999216e-07,1.7059800962440192e-05,1.5853212894330807e-06,1.315851526390529e-06,7.306534282406858e-05,5.889741678409958e-07,8.75720280649073e-07,9.48316853605053e-07,2.6576989030372554e-06
192,8.104647063785791e-07,1.2976988686818279e-06,2.0130104928906827e-06,8.0842089647721e-06,7.72205516565741e-07,1.4067913180512985e-06,8.994508884240794e-07,9.703314783444719e-07,1.675599915532688e-05,1.5156755931843826e-06,1.3422303345635907e-06,7.683224374067583e-05,5.860084767197073e-07,8.93878097063083e-07,9.30481053208446e-07,2.694838704979969e-06
193,8.408086872057311e-07,1.3210534399746452e-06,2.0754083461384235e-06,8.206344774885263e-06,7.603444527289271e-07,1.4119268544085894e-06,8.934468586682672e-07,9.57052963017626e-07,1.64308550671832e-05,1.4467623838418555e-06,1.366706903170936e-06,8.032931266823067e-05,5.854306875867138e-07,9.136583612905022e-07,9.150970693823024e-07,2.7365907521727753e-06
194,8.713464540206197e-07,1.347714985100868e-06,2.132033439703532e-06,8.343298736872236e-06,7.488768487378206e-07,1.4145910948214965e-06,8.868773855428467e-07,9.445292182219994e-07,1.6078462438336336e-05,1.3793296086231273e-06,1.3887875702989395e-06,8.35324521227166e-05,5.870421251868496e-07,9.352532194744861e-07,9.023867073216893e-07,2.7828816453175915e-06
195,9.018736362214315e-07,1.377612374444947e-06,2.1819507854608297e-06,8.496808191369666e-06,7.377436435242604e-07,1.4145932139605477e-06,8.793194202985107e-07,9.331298985253359e-07,1.5691186540199407e-05,1.3140707808676274e-06,1.4080147549156276e-06,8.643051908640623e-05,5.906688986714998e-07,9.591238310725007e-07,8.925191795952214e-07,2.8335739219050014e-06
196,9.322633875145372e-07,1.4104839298792332e-06,2.224739003480238e-06,8.66716372304269e-06,7.267883957024994e-07,1.411552794247626e-06,8.705576418054303e-07,9.231763197210896e-07,1.526203996024302e-05,1.2515884356310051e-06,1.423926411900464e-06,8.901444855728905e-05,5.961458364049813e-07,9.858744901263548e-07,8.855359056365649e-07,2.888209353601148e-06
197,9.624849847828728e-07,1.445913928618605e-06,2.2602887202207198e-06,8.853123464518887e-06,7.158085942241099e-07,1.4049801728319653e-06,8.606739228822428e-07,9.148630174360636e-07,1.4787308080601748e-05,1.192335896391972e-06,1.4361636990647187e-06,9.127633956073321e-05,6.032963568078805e-07,1.0160514520067057e-06,8.813102833402642e-07,2.9459297334001233e-06
198,9.925214554419888e-07,1.4834505537461117e-06,2.288480871200185e-06,9.052163426201629e-06,7.046185323764264e-07,1.3944126238107055e-06,8.500079748310333e-07,9.082558326931523e-07,1.4267016471329135e-05,1.1366148792549145e-06,1.4446561129050818e-06,9.321839859377928e-05,6.119613608063045e-07,1.0500385545106696e-06,8.795782626160502e-07,3.005594457491781e-06
199,1.0222511516515717e-06,1.522673977301163e-06,2.3089813334514162e-06,9.26112937678476e-06,6.930753927845828e-07,1.3795564125864597e-06,8.390563728276985e-07,9.033637694390451e-07,1.3703514610648671e-05,1.0846741892970932e-06,1.4496804618681637e-06,9.486141838268081e-05,6.220324834920647e-07,1.088045543335811e-06,8.800144832140056e-07,3.065976268317099e-06
200,1.0513775260956436e-06,1.5631654581505031e-06,2.3213042028405624e-06,9.476915201059072e-06,6.810683958582639e-07,1.360398938413136e-06,8.283753740097845e-07,9.001848191958311e-07,1.3100391176767261e-05,1.0367982056159023e-06,1.4517577136873112e-06,9.624588260089943e-05,6.334296856113363e-07,1.1301080566727021e-06,8.822908018611298e-07,3.125875693005027e-06
201,1.079459014459748e-06,1.6045221308076782e-06,2.3250344016728287e-06,9.696791085635648e-06,6.685313732524778e-07,1.3372446450751116e-06,8.185084843181186e-07,8.986646889428442e-07,1.2462299990407692e-05,9.932846106839238e-07,1.4515164943455533e-06,9.742583253313031e-05,6.460425672673345e-07,1.1760649669159247e-06,8.860806635253024e-07,3.1840594502013815e-06
202,1.1060366890975035e-06,1.6464952722315778e-06,2.3200132431623145e-06,9.91833081999918e-06,6.55491987794375e-07,1.3106307024779167e-06,8.099380841615063e-07,8.986351155423095e-07,1.179550363001283e-05,9.54393022997077e-07,1.4496234391953428e-06,9.845862462840791e-05,6.596886656951457e-07,1.2255245142703388e-06,8.910416560681889e-07,3.2390921057070448e-06
203,1.130767211035178e-06,1.6891012049107834e-06,2.3064294594168854e-06,1.013917889692683e-05,6.420900470206416e-07,1.2811560259071667e-06,8.03045711690111e-07,8.998157865966767e-07,1.1108732396099393e-05,9.203348903838935e-07,1.4467524264483463e-06,9.939413924899466e-05,6.74100671332225e-07,1.277846963524091e-06,8.968013562258598e-07,3.289248395065933e-06
204,1.1534484849757612e-06,1.7325911156738674e-06,2.284860517214734e-06,1.0356936484543272e-05,6.285272107778372e-07,1.2493751841566715e-06,7.98072821937416e-07,9.018855909673017e-07,1.0412758343826059e-05,8.912456129681822e-07,1.4435328292739432e-06,0.000100267474614434,6.889327980652724e-07,1.3321446636230688e-06,9.02947732556125e-07,3.3325375515678617e-06
205,1.1739343927473657e-06,1.7773472348673551e-06,2.2562746647272624e-06,1.0569143196790849e-05,6.150025819118475e-07,1.2158389393033144e-06,7.95111032846953e-07,9.045759718233726e-07,9.718488614955221e-06,8.671379161622595e-07,1.4405216295559107e-06,0.00010109956423032292,7.038063221474106e-07,1.3872826764192287e-06,9.090334270773371e-07,3.36673554355814e-06
206,1.192023263081708e-06,1.8237786173963975e-06,2.221928624969077e-06,1.0772982555544549e-05,6.016952521654563e-07,1.181137499145959e-06,7.941576221138616e-07,9.077091578127984e-07,9.03543898387421e-06,8.479172445726942e-07,1.4382454181966235e-06,0.00010190636190225286,7.184090138982559e-07,1.4419299228425907e-06,9.146334233496991e-07,3.389520430425278e-06
207,1.2074024121515214e-06,1.8722066182548975e-06,2.1831256131788688e-06,1.0964617492060467e-05,5.887823607020197e-07,1.14582026869569e-06,7.952119259836525e-07,9.111643456920407e-07,8.371416794920495e-06,8.334487017838808e-07,1.4372181932190135e-06,0.00010270994958537597,7.32596200144063e-07,1.4947319041289669e-06,9.194837546418555e-07,3.39882760988458e-06
208,1.2197020534870343e-06,1.922755452117486e-06,2.140945187295813e-06,1.1138769955445209e-05,5.764420311151373e-07,1.1103003423020915e-06,7.983334959467373e-07,9.148564389101629e-07,7.732783564864214e-06,8.235944382895424e-07,1.4378847691036344e-06,0.00010354272843178984,7.464057895971442e-07,1.544510374247536e-06,9.235985970983187e-07,3.393229264490322e-06
209,1.228627033606941e-06,1.9753379824982077e-06,2.0961221269395676e-06,1.1289058919867608e-05,5.648302652421168e-07,1.074880778104059e-06,8.036139106499381e-07,9.187445548672054e-07,7.124780396359703e-06,8.18213693293543e-07,1.440578927055624e-06,0.00010444169970833709,7.599611770616012e-07,1.5903082516096194e-06,9.272430158795668e-07,3.372104741214932e-06
210,1.2340600021063288e-06,2.029760422167509e-06,2.049134982997112e-06,1.1408887915832458e-05,5.540700376531536e-07,1.039857644968811e-06,8.111026021966676e-07,9.227934611051362e-07,6.551791279327414e-06,8.171446316937667e-07,1.4455317421910937e-06,0.00010543898072437219,7.733398375067572e-07,1.6313177762745713e-06,9.307920210391268e-07,3.3356214482644833e-06
211,1.2360978358909353e-06,2.0858510160689442e-06,2.0004113834002826e-06,1.1492542997123339e-05,5.442653349338158e-07,1.0055768519463841e-06,8.20774295978377e-07,9.269038713375831e-07,6.017455032504165e-06,8.201590877773398e-07,1.4528853172195752e-06,0.00010655894908784963,7.864926884966354e-07,1.666893157928678e-06,9.345894633507617e-07,3.2846721574614044e-06
212,1.2350662342773046e-06,2.1435568310542435e-06,1.9504890545045226e-06,1.1536270028122893e-05,5.355117684583875e-07,9.724056289826161e-07,8.325529415616291e-07,9.309170868862697e-07,5.524636495203422e-06,8.269397885446899e-07,1.462672605700427e-06,0.00010782359554889675,7.992208546374562e-07,1.6966695859803516e-06,9.389063731874026e-07,3.220818149646387e-06
213,1.231518436155644e-06,2.2030258474865507e-06,1.9000138527694855e-06,1.1538860299980912e-05,5.278924582115406e-07,9.406599235233207e-07,8.463322893944578e-07,9.347182273994994e-07,5.075462700245175e-06,8.371284909420471e-07,1.4747515417451043e-06,0.00010925630242471668,8.112111646766964e-07,1.720617721763977e-06,9.440190491662443e-07,3.1461091780868762e-06
214,1.2261756124075288e-06,2.2646379639345196e-06,1.8496012748686037e-06,1.1501234537517527e-05,5.214656954040326e-07,9.105570724386876e-07,8.619986180157407e-07,9.383450900342371e-07,4.671547390905182e-06,8.503828931278049e-07,1.4887337168986439e-06,0.00011087822046509485,8.221480950990692e-07,1.7389367245327767e-06,9.503016083131188e-07,3.0627390891232998e-06
215,1.2198043599513154e-06,2.3289015263266935e-06,1.799709341894308e-06,1.1425078253335035e-05,5.162535323278548e-07,8.822423377158727e-07,8.794962574915333e-07,9.420109006375656e-07,4.314275581250303e-06,8.663660765725784e-07,1.5039793197060074e-06,0.00011270215549312954,8.318449410348181e-07,1.7518736088877959e-06,9.582128906656848e-07,2.9727854203356357e-06
216,1.2130878803330722e-06,2.3962163781172166e-06,1.7506330657517197e-06,1.1311428169381473e-05,5.122545283366345e-07,8.558415510725971e-07,8.988869178880271e-07,9.46037298634762e-07,4.0049949678180244e-06,8.847034789814409e-07,1.519725348542646e-06,0.00011472966449183801,8.402877969355251e-07,1.7596169621095349e-06,9.681914861120615e-07,2.8781447661309674e-06
217,1.206553795933462e-06,2.466619776453932e-06,1.7025847112480529e-06,1.116027743728862e-05,5.094829657712915e-07,8.314671664940475e-07,9.203196709964637e-07,9.50748695585076e-07,3.745080225996686e-06,9.049988773669495e-07,1.5353141766232535e-06,0.00011695101124213251,8.475631862843026e-07,1.7622985539375653e-06,9.805649987338258e-07,2.7804661984249584e-06
218,1.200577682369387e-06,2.5396385389446743e-06,1.6557259558354842e-06,1.0971300257452308e-05,5.079866996277942e-07,8.092234132782523e-07,9.439137012629758e-07,9.563834385073373e-07,3.5358462074269543e-06,9.269067722439726e-07,1.5503221003792526e-06,0.00011934459777249076,8.537656779859395e-07,1.7600397533611753e-06,9.955171287923753e-07,2.6810839802019695e-06
219,1.1954396180497674e-06,2.614290366795192e-06,1.610099136831558e-06,1.0744914959451261e-05,5.078129093505116e-07,7.892503286031584e-07,9.696408731815564e-07,9.630653696073832e-07,3.3783638158351947e-06,9.501613683059471e-07,1.564453492075204e-06,0.0001218741421320989,8.589933906672469e-07,1.7530072054688e-06,1.0130976219298559e-06,2.581155523204994e-06
220,1.191395778978772e-06,2.6892155744523054e-06,1.565606391734231e-06,1.0483045451668263e-05,5.08971237603772e-07,7.717232894839411e-07,9.972802206505817e-07,9.70826005239938e-07,3.2734270707429775e-06,9.74515449934348e-07,1.5773577065221552e-06,0.00012448420183734386,8.63392803442257e-07,1.741445948205e-06,1.033272808787349e-06,2.481941380937828e-06
221,1.188721563150873e-06,2.7628979561643346e-06,1.5221764566485784e-06,1.01893627951781e-05,5.114500142276667e-07,7.567936454326362e-07,1.0264628228419324e-06,9.796168536720094e-07,3.2217473831146396e-06,9.99659448490356e-07,1.5885815416053772e-06,0.00012709594549821442,8.671657429557254e-07,1.7256566229454887e-06,1.0559731682348672e-06,2.3849348699404505e-06
222,1.1876859221807082e-06,2.8339068070292297e-06,1.4799945843509292e-06,9.868928069742433e-06,5.152621225301348e-07,7.445539515480296e-07,1.056791730871653e-06,9.89304361846094e-07,3.224046435379442e-06,1.0252156923146858e-06,1.5976430211522009e-06,0.000129607468258766,8.705739498918237e-07,1.7059589404285275e-06,1.081095032375337e-06,2.291705720678816e-06
223,1.1884735427384798e-06,2.9010628476752403e-06,1.4395594405697093e-06,9.527279170604569e-06,5.204620091180498e-07,7.350350433295443e-07,1.087969574409923e-06,9.996998598377522e-07,3.2808557401228475e-06,1.0508094209915933e-06,1.6041194111776082e-06,0.00013190440680814166,8.739558895990133e-07,1.6827065184799855e-06,1.1085031002882587e-06,2.20361944145297e-06
224,1.191146644425625e-06,2.963445280105218e-06,1.4015163379646542e-06,9.169309249167948e-06,5.271120398940649e-07,7.28209637867885e-07,1.1198491651449724e-06,1.0106100765254199e-06,3.392275970885966e-06,1.076119219136316e-06,1.607728670705868e-06,0.00013388150910298508,8.776794662717068e-07,1.6563477352728039e-06,1.1380510789582396e-06,2.121686305340974e-06
225,1.1956881805936839e-06,3.020227730618421e-06,1.366438065715709e-06,8.79860968112285e-06,5.352361151286801e-07,7.240135000715367e-07,1.1523846845449398e-06,1.0218413690142767e-06,3.557889314294515e-06,1.1008376302051082e-06,1.6084154722439312e-06,0.0001354661074851263,8.820528500679839e-07,1.6274642526626597e-06,1.1695799400877832e-06,2.046587709231559e-06
226,1.2020496336506967e-06,3.070410179469835e-06,1.3347065514623026e-06,8.417712575242054e-06,5.448286692091362e-07,7.223630494430945e-07,1.1855356907108173e-06,1.0331681487208833e-06,3.776728300795823e-06,1.1246085507595987e-06,1.606408729376336e-06,0.00013662968468551606,8.87276668931979e-07,1.5967253967562358e-06,1.2029066738799123e-06,1.9787194500183334e-06
227,1.2101391767732512e-06,3.112580773042754e-06,1.3064648505507149e-06,8.02891841994265e-06,5.559277910901878e-07,7.231331074426747e-07,1.2192025652930791e-06,1.0443319233154969e-06,4.047321375067104e-06,1.1470458192744233e-06,1.6021882851604357e-06,0.00013737963504984908,8.934472947994722e-07,1.564768115166237e-06,1.2378182217970541e-06,1.918180402066217e-06
228,1.219777234286412e-06,3.144873985112535e-06,1.2815739480414494e-06,7.635052434417716e-06,5.686648301054566e-07,7.261175965370146e-07,1.2532227227064193e-06,1.0550823634339343e-06,4.367928802142427e-06,1.167784871899912e-06,1.5963346966804933e-06,0.00013773683502992976,9.005922184665726e-07,1.5320964798443457e-06,1.2740962234436972e-06,1.8648076391517872e-06
229,1.2306734823006568e-06,3.165187347310222e-06,1.2595955815373418e-06,7.239726413904078e-06,5.832267660678637e-07,7.310135799212212e-07,1.287368154901965e-06,1.0652198362968373e-06,4.736760820409204e-06,1.1864586734236409e-06,1.5893227361991987e-06,0.00013771616121021737,9.086939033628101e-07,1.4991077590676045e-06,1.311617655325401e-06,1.8183398339938655e-06
230,1.2424550342377618e-06,3.1715454497764963e-06,1.2398410188464664e-06,6.847026169361166e-06,5.997954009435557e-07,7.37428218967482e-07,1.3212839925177653e-06,1.0746197114941422e-06,5.151860452252997e-06,1.202665839020791e-06,1.5813811104862527e-06,0.0001373240548008299,9.176664908967375e-07,1.4662232946853785e-06,1.3504442766081166e-06,1.7786901494850049e-06
231,1.2547392995788936e-06,3.1624800951116738e-06,1.2214847392571472e-06,6.460838146351726e-06,6.185362873643699e-07,7.44892711510845e-07,1.354415023089124e-06,1.083244391010795e-06,5.610727999608712e-06,1.216040735849995e-06,1.5724807887968862e-06,0.00013657007033061088,9.273421874946145e-07,1.4339688569819666e-06,1.3907818170458409e-06,1.7462066324641343e-06
232,1.2672209016120546e-06,3.137370925040315e-06,1.203682415824836e-06,6.084225972963165e-06,6.395997848332055e-07,7.528899928352125e-07,1.3859988154760308e-06,1.091141360842592e-06,6.110059067751317e-06,1.2263306608927794e-06,1.5623824291864698e-06,0.00013547783655056583,9.37546026317143e-07,1.4029080277233136e-06,1.4328352390141506e-06,1.7217312753831166e-06
233,1.2797419895333732e-06,3.0966764905470444e-06,1.1856074272514956e-06,5.7192656258214125e-06,6.630877382836616e-07,7.609463234005227e-07,1.4151340790279742e-06,1.0984335293742083e-06,6.645823189476473e-06,1.2333823672256144e-06,1.550690836301404e-06,0.00013408542946416019,9.482106814565811e-07,1.3734947900450721e-06,1.4766525695195353e-06,1.7063853075765123e-06
234,1.292307480687146e-06,3.0419371238590372e-06,1.1664143095009242e-06,5.367389397983292e-06,6.890153615632353e-07,7.687812080025003e-07,1.4409066551857405e-06,1.1053285692706177e-06,7.21361759198589e-06,1.237165104772189e-06,1.5369703045378692e-06,0.00013243513731527544,9.593928466689167e-07,1.345987621608733e-06,1.5220167789445536e-06,1.7012375824779435e-06
235,1.3050134843959676e-06,2.9754977866302255e-06,1.1452809611591045e-06,5.0298388528431955e-06,7.173102872323618e-07,7.763716741439143e-07,1.4625357758002651e-06,1.112133281259286e-06,7.808982186718926e-06,1.2379236944289724e-06,1.5209191602197675e-06,0.00013055987310836865,9.71196569946449e-07,1.3204840983728887e-06,1.5684042376060018e-06,1.7070711750722429e-06
236,1.3179323990269587e-06,2.9000746023558512e-06,1.1216126729856107e-06,4.7078757582468515e-06,7.478584515475362e-07,7.838567384358806e-07,1.4794714344947809e-06,1.1192123306224928e-06,8.427260988225972e-06,1.2362973513118898e-06,1.5024972134256073e-06,0.00012847739843751025,9.837145498638814e-07,1.2969843189654154e-06,1.6150199038162663e-06,1.7242996272862378e-06
237,1.3310465584245958e-06,2.8183739530338557e-06,1.0952464793669515e-06,4.4027722003302755e-06,7.80559361026358e-07,7.91408363126311e-07,1.491425021256619e-06,1.12690940763089e-06,9.062986849383163e-06,1.2332184852463186e-06,1.4819128742157557e-06,0.00012619715720614395,9.970179585955572e-07,1.275386231662268e-06,1.6608935167999718e-06,1.7529524041136662e-06
238,1.3442406077334187e-06,2.7328569312143276e-06,1.0664662363212072e-06,4.115714518359548e-06,8.153206669350004e-07,7.991726678213113e-07,1.498375185301716e-06,1.135518189304747e-06,9.709377512484741e-06,1.2296636215641116e-06,1.4594666543820425e-06,0.00012372942192653128,1.0112095706005145e-06,1.2554278496713083e-06,1.704952227568449e-06,1.7926681933536269e-06
239,1.3572906924933988e-06,2.6456116431563285e-06,1.0358490246284085e-06,3.847653163740639e-06,8.51997274927039e-07,8.07241021016987e-07,1.5005431082035466e-06,1.1452937304398672e-06,1.0358366366733307e-05,1.22649706946556e-06,1.4353868293365523e-06,0.00012108424080768742,1.0264968631078197e-06,1.2366311119630073e-06,1.7460359817332475e-06,1.8426895892608686e-06
240,1.369862168813742e-06,2.5582996913411543e-06,1.0040897415218384e-06,3.5991143118605125e-06,8.903630293842849e-07,8.156253826507065e-07,1.4982863141522832e-06,1.1564249080542558e-06,1.1000886062231312e-05,1.2244808531081242e-06,1.4098104697549554e-06,0.00011826428379681379,1.043152875244086e-06,1.2182815531214702e-06,1.7829820225990214e-06,1.9018741538088719e-06
241,1.3815914219469068e-06,2.472154821032009e-06,9.718947700448905e-07,3.3700880549848276e-06,9.301483955350238e-07,8.242957061452996e-07,1.4919662419652242e-06,1.1689656186413127e-06,1.1627127265661682e-05,1.224307167110963e-06,1.3828706787401068e-06,0.00011526586077156804,1.061375723276285e-06,1.1994532590645976e-06,1.8148331271613305e-06,1.968761975231595e-06
242,1.3922150331473634e-06,2.387984835737064e-06,9.39925261492763e-07,3.1601452564700684e-06,9.710907971509856e-07,8.3329298693727e-07,1.481920495338254e-06,1.1827763669086956e-06,1.2226805327637789e-05,1.226593085354277e-06,1.354753062536229e-06,0.00011209173697494108,1.0811959434040414e-06,1.179104768192334e-06,1.84098431235717e-06,2.041745396457282e-06
243,1.4015945444046606e-06,2.306190379397526e-06,9.087535248420137e-07,2.968737089259547e-06,1.0129345214032856e-06,8.428318348994278e-07,1.4685250715291855e-06,1.1974873004107403e-06,1.2789357943752557e-05,1.231880722061471e-06,1.3256722765145133e-06,0.000108765728715503,1.1024791932888118e-06,1.156305110598647e-06,1.8611497372673494e-06,2.119284086358296e-06
244,1.4096142539325091e-06,2.226873428760353e-06,8.788741318733814e-07,2.7953883669396394e-06,1.0553687154252948e-06,8.533055257843378e-07,1.452227722641034e-06,1.212468864637853e-06,1.3304589673517133e-05,1.240603928263441e-06,1.2958106783056081e-06,0.00010533848855799248,1.1249706077926454e-06,1.1305412416692706e-06,1.8752736324050056e-06,2.199993016174434e-06
245,1.4161113681327746e-06,2.1500144487721307e-06,8.507933173809702e-07,2.6396076532959455e-06,1.0979689967445842e-06,8.651890362406238e-07,1.433538135638836e-06,1.2268308219077338e-06,1.376471899663754e-05,1.2530057996729775e-06,1.265350239882347e-06,0.00010188088436948942,1.1483593500771488e-06,1.1019021526280651e-06,1.883482958212795e-06,2.2825158011767226e-06
246,1.4209034426953177e-06,2.0756129427270616e-06,8.250936535579511e-07,2.500703895491609e-06,1.1402195954524663e-06,8.789087972968702e-07,1.41301643713532e-06,1.2395128677186468e-06,1.41667077338816e-05,1.2690854126517936e-06,1.234641601798373e-06,9.846884554614203e-05,1.1723638756163947e-06,1.070985094709263e-06,1.8860057255110657e-06,2.365327699682581e-06
247,1.4238087474921877e-06,2.0037369728810433e-06,8.023842499249583e-07,2.3777793122275167e-06,1.181590829493613e-06,8.947544788270074e-07,1.391226502114351e-06,1.2495057078209275e-06,1.4512145809111148e-05,1.2886112596883253e-06,1.2042858051689275e-06,9.516896388615436e-05,1.1968012691772166e-06,1.0385987132919267e-06,1.883016843851467e-06,2.446687626593387e-06
248,1.424618520762948e-06,1.9345047837194185e-06,7.831930611373891e-07,2.2698874869919745e-06,1.2215721297344374e-06,9.128489165160312e-07,1.3686288877551553e-06,1.2561045472883177e-06,1.4804678897064617e-05,1.3111773089410613e-06,1.1749761874292141e-06,9.203196129025428e-05,1.2215864464323934e-06,1.0054969903414596e-06,1.8745680320934484e-06,2.524750652460105e-06
249,1.4230887245182465e-06,1.8680514228149833e-06,7.679033369881186e-07,2.1761905307106447e-06,1.2596248480681698e-06,9.331480112699236e-07,1.3455025768892968e-06,1.2589865360502176e-06,1.5048061434827603e-05,1.3362627097130232e-06,1.1472908502280514e-06,8.90927398428863e-05,1.24666283255346e-06,9.722909614997311e-07,1.8607040840651057e-06,2.597649677746192e-06
250,1.4189716021343337e-06,1.8045060012088983e-06,7.567550215716899e-07,2.0960332039654195e-06,1.2950989618160818e-06,9.55461329487046e-07,1.3219653326379143e-06,1.258051305742208e-06,1.5246412794595695e-05,1.3632709527077515e-06,1.121631285823767e-06,8.637177641458545e-05,1.2719383212256886e-06,9.39479812715321e-07,1.841620340813919e-06,2.6634686105866337e-06
251,1.412040042814427e-06,1.7439523986749479e-06,7.498608276188917e-07,2.0289084864728195e-06,1.327167514916535e-06,9.795153772980729e-07,1.298011610879064e-06,1.2532548430997205e-06,1.5405180613300997e-05,1.391568199799051e-06,1.0982490465539013e-06,8.387552127392694e-05,1.2972727205828637e-06,9.07472824861303e-07,1.8177202156202966e-06,2.7202742901605464e-06
252,1.4020884636665066e-06,1.6863549312610606e-06,7.472030589903393e-07,1.9743083105286224e-06,1.3548492773356707e-06,1.0050600994223367e-06,1.2734985137053554e-06,1.2446310359447777e-06,1.553123319843302e-05,1.4205238501408829e-06,1.077256987846675e-06,8.159623514426675e-05,1.3224662883093821e-06,8.765640666278439e-07,1.7895822889486126e-06,2.7663495696743024e-06
253,1.388945313912821e-06,1.6315035653144985e-06,7.48633869786624e-07,1.931536493087044e-06,1.3771743055591095e-06,1.0319356030877584e-06,1.2481572296401963e-06,1.2323776041292523e-06,1.5631928393895923e-05,1.4495045324203219e-06,1.058633905975409e-06,7.951179248035017e-05,1.347195628109642e-06,8.469247230181736e-07,1.7578860844657481e-06,2.8005047248117573e-06
254,1.372520433214509e-06,1.5790522826863639e-06,7.539043528254467e-07,1.8996359479812477e-06,1.3934339570132276e-06,1.0600145996860473e-06,1.221693446454786e-06,1.2168470097494826e-06,1.571364733165329e-05,1.4778450104207821e-06,1.0422588141025645e-06,7.758552312825055e-05,1.3709452549119944e-06,8.186640048381956e-07,1.7233685147396328e-06,2.82224069721869e-06
255,1.3528630371326312e-06,1.5286367609121317e-06,7.627056516614091e-07,1.8774895292302223e-06,1.4033703663206243e-06,1.0890810225478248e-06,1.1939024494326208e-06,1.1984866186133965e-06,1.5780676015181223e-05,1.504910286440869e-06,1.0279931585947894e-06,7.576695564723479e-05,1.393017588330985e-06,7.918965097650133e-07,1.6868412022526626e-06,2.8317231942231733e-06
256,1.3301774741917477e-06,1.4799758919799569e-06,7.746940758469945e-07,1.863970255238282e-06,1.4071916233886298e-06,1.118745414543814e-06,1.1647069462464053e-06,1.1778078544099854e-06,1.5835307692732408e-05,1.5302113464703829e-06,1.0157835873428744e-06,7.399632698164186e-05,1.4126302696021657e-06,7.667302655884928e-07,1.649165115150777e-06,2.8296789893099638e-06
257,1.3047727187153317e-06,1.4328933027149432e-06,7.894854817663143e-07,1.858007995455264e-06,1.4054050029488855e-06,1.1484056546460848e-06,1.1341264435854539e-06,1.1553552323588356e-06,1.587911918673995e-05,1.553383869966356e-06,1.0056967924632247e-06,7.221539736488027e-05,1.4290482695417342e-06,7.432128945105287e-07,1.6111141582726995e-06,2.81721590249276e-06
258,1.2770033247545312e-06,1.3872835150530364e-06,8.066212261841172e-07,1.8585687058322928e-06,1.398568809305651e-06,1.177269310192638e-06,1.1022617053529916e-06,1.1316297898486648e-06,1.5914450667056266e-05,1.574024889962286e-06,9.978473591774946e-07,7.038175355255745e-05,1.4416851288408074e-06,7.213355208825184e-07,1.5732395559898794e-06,2.7955139822215163e-06
259,1.2472718747919256e-06,1.3430771513855657e-06,8.255504161992457e-07,1.8646164627396898e-06,1.3871131654809043e-06,1.2044680556521545e-06,1.069333301603973e-06,1.1070371241286844e-06,1.594490178963817e-05,1.5915644143290113e-06,9.922962381729814e-07,6.847842595636715e-05,1.4501297941271786e-06,7.01090159654826e-07,1.5358507588107597e-06,2.765576111551781e-06
260,1.2160469851952775e-06,1.3002216974332873e-06,8.456806332714645e-07,1.8751373843280732e-06,1.3713460002139304e-06,1.2292094491739197e-06,1.0356946886097306e-06,1.081938217224976e-06,1.59743616132412e-05,1.6052601892936464e-06,9.890099724976367e-07,6.651253044799693e-05,1.454102024668088e-06,6.824913254416768e-07,1.499108015802177e-06,2.7282199097639107e-06
261,1.183797729943015e-06,1.2586650236544162e-06,8.664766932251681e-07,1.8892578289020191e-06,1.3516193611112552e-06,1.250872695612329e-06,1.0017675679842058e-06,1.056739618387178e-06,1.600557255483179e-05,1.6142974704734987e-06,9.878773109269632e-07,6.450430612716687e-05,1.4534041223373053e-06,6.655508786903418e-07,1.4631669345130704e-06,2.6841479433759156e-06
262,1.150864354198923e-06,1.218343620908031e-06,8.8754025637509e-07,1.9064045204099296e-06,1.3284713092063045e-06,1.2690169824454e-06,9.679952924690898e-07,1.0319334247903202e-06,1.603980643329663e-05,1.617942888610471e-06,9.88720080220126e-07,6.247440316395259e-05,1.4479742816459072e-06,6.502773911742144e-07,1.4282655454884676e-06,2.633963222939822e-06
263,1.1173746803577576e-06,1.1791860859476078e-06,9.086401128932528e-07,1.9264258424551847e-06,1.3025860808958895e-06,1.28335712894836e-06,9.348717053847051e-07,1.0080752814979655e-06,1.6077826646566556e-05,1.6156922268850575e-06,9.912672899158336e-07,6.0437760166331145e-05,1.438021339309358e-06,6.366993451147106e-07,1.3946645100945371e-06,2.5782732245197617e-06
264,1.0832701812900777e-06,1.1411015470915575e-06,9.296942569922485e-07,1.9496296772940804e-06,1.2746263328361154e-06,1.2937719544945073e-06,9.029587047976183e-07,9.857178314499322e-07,1.612098227543377e-05,1.6073663854092603e-06,9.951378382759983e-07,5.840569852247415e-05,1.42407650312681e-06,6.248508394512146e-07,1.3624947089016917e-06,2.517950031454066e-06
265,1.0484362651305453e-06,1.1039194828400706e-06,9.506988327790573e-07,1.976734096326018e-06,1.24513170946642e-06,1.3003220855941528e-06,8.728421642467818e-07,9.653283736773428e-07,1.6171702629009345e-05,1.5930992492613632e-06,9.998890954181572e-07,5.639060720575463e-05,1.4068993425883126e-06,6.147256319164464e-07,1.3316453598655705e-06,2.454359659600664e-06
266,1.0128618839906431e-06,1.0673403932463373e-06,9.716343553352128e-07,2.0087767795545917e-06,1.214561738760874e-06,1.303192181154858e-06,8.450790881743824e-07,9.472329306520171e-07,1.623338599090783e-05,1.5731956622876733e-06,1.0051127828006434e-06,5.440721506241126e-05,1.3873377286618287e-06,6.062452543749351e-07,1.301781247952932e-06,2.3893630647689537e-06
267,9.767235330018235e-07,1.0309733671643786e-06,9.924132829815506e-07,2.0470349890799297e-06,1.1833512374180821e-06,1.3025471042889452e-06,8.20178946848993e-07,9.31613410612173e-07,1.6309598191190303e-05,1.5479900825111489e-06,1.0105307801911433e-06,5.246955811971882e-05,1.366219639171817e-06,5.992657279082853e-07,1.2724889115934857e-06,2.325103551042292e-06
268,9.403768908208157e-07,9.94434555754308e-07,1.012869169147395e-06,2.0929121501372987e-06,1.151874434730357e-06,1.2984099616909182e-06,7.986076646679189e-07,9.185355422947657e-07,1.640279637021356e-05,1.5178836437518652e-06,1.0160634519381898e-06,5.058858654034914e-05,1.3442673977505531e-06,5.936244411038826e-07,1.2434527997247904e-06,2.2637363580440334e-06
269,9.043174618945529e-07,9.57462107500172e-07,1.032750051518081e-06,2.1477343649954076e-06,1.1203927360670202e-06,1.290645026334486e-06,7.807908370832033e-07,9.07979726992792e-07,1.651365984875519e-05,1.4834856647811297e-06,1.0218185954535018e-06,4.877371812612029e-05,1.3220193593792762e-06,5.89189293213115e-07,1.214520066668119e-06,2.2072149635816393e-06
270,8.691255804672658e-07,9.2004105943394e-07,1.0517385982330127e-06,2.2125569863198145e-06,1.0890615290928058e-06,1.2790165184470417e-06,7.671080347178589e-07,8.999062551254312e-07,1.6641497910354577e-05,1.4456108073615366e-06,1.0279766020567686e-06,4.703422947894058e-05,1.2997888816525934e-06,5.858718498583492e-07,1.1856161047184473e-06,2.157159601320962e-06
271,8.353728415373976e-07,8.824899598213199e-07,1.0695246658540096e-06,2.2880978735324555e-06,1.057974723756907e-06,1.263299182480347e-06,7.578722863904129e-07,8.943513319886824e-07,1.678451946834321e-05,1.4051324429275592e-06,1.034655375786967e-06,4.537828436848081e-05,1.2777196981210257e-06,5.836160063110013e-07,1.1566533817379942e-06,2.1147965013224857e-06
272,8.035225035862674e-07,8.454282294302103e-07,1.0858950016233155e-06,2.3747573395965103e-06,1.0272312286577453e-06,1.2434534574862247e-06,7.532970023905414e-07,8.914547851323355e-07,1.693913092990638e-05,1.3628926605248112e-06,1.0418470604023012e-06,4.381295324373368e-05,1.255933175977469e-06,5.823998066246171e-07,1.1275802204643338e-06,2.0809374934842324e-06
273,7.738897292148866e-07,8.096223780992577e-07,1.1008016243035348e-06,2.4726733518188353e-06,9.970187550706801e-07,1.2197967838579781e-06,7.534691376227662e-07,8.91383414729216e-07,1.709934790399308e-05,1.3196935199948463e-06,1.0494432649872653e-06,4.234472113893843e-05,1.234644339610029e-06,5.82268374141618e-07,1.098497819653462e-06,2.0559740248473575e-06
274,7.46664631303903e-07,7.758186630107855e-07,1.1143878484769984e-06,2.5818183779695847e-06,9.676738926131936e-07,1.1930426098800362e-06,7.58334102256073e-07,8.942411011068508e-07,1.725743224157495e-05,1.2763001527312707e-06,1.0573465254956296e-06,4.097784381470941e-05,1.2141558392583003e-06,5.833590180534681e-07,1.0696625755349021e-06,2.0399046066260227e-06
275,7.219413849675373e-07,7.446579031615928e-07,1.126933747474568e-06,2.7020984940401686e-06,9.396775374732604e-07,1.164166144224058e-06,7.676872593384367e-07,9.000301068013003e-07,1.7405204634577682e-05,1.233477198770188e-06,1.0656058660201252e-06,3.97122224737602e-05,1.1947801738012078e-06,5.858673082008384e-07,1.041356779810749e-06,2.0323907420915366e-06
276,6.997323064160905e-07,7.166559425324682e-07,1.1387190988313195e-06,2.8333966658119873e-06,9.135772099608584e-07,1.1341911394347736e-06,7.811767355744188e-07,9.086417147572123e-07,1.753489033860564e-05,1.1920230050243055e-06,1.0744318230126798e-06,3.854266774045316e-05,1.1767629568996938e-06,5.899870306514368e-07,1.0137916557905058e-06,2.0327854159099395e-06
277,6.799839508575381e-07,6.921931202688132e-07,1.1498912255254116e-06,2.9755505472447783e-06,8.898675268853836e-07,1.1040431064063666e-06,7.983260665932433e-07,9.198586635738025e-07,1.7638925088118667e-05,1.1527197144087643e-06,1.0840774836443904e-06,3.7459823286743915e-05,1.1602186869001395e-06,5.958838726560503e-07,9.871482214584824e-07,2.0401346096715525e-06
278,6.625827100893284e-07,6.715050186393137e-07,1.160413045770966e-06,3.128293026960943e-06,8.688953028431724e-07,1.074533308337434e-06,8.185888797750712e-07,9.333650121803662e-07,1.7708858253367352e-05,1.116249152106649e-06,1.0947552007165878e-06,3.645307666214508e-05,1.1450908364342463e-06,6.036927597817601e-07,9.61657585359734e-07,2.0532138803534635e-06
279,6.473498543275168e-07,6.54685327774829e-07,1.1700634973896486e-06,3.2912173455799135e-06,8.508374937531153e-07,1.0463980724618367e-06,8.41423246290095e-07,9.487551107507497e-07,1.7734581163407102e-05,1.083174078833721e-06,1.1066626160709806e-06,3.551369915662542e-05,1.131176533689096e-06,6.135256503925158e-07,9.375883336633192e-07,2.070646001147424e-06
280,6.340654953986063e-07,6.417058878164905e-07,1.1784372656711415e-06,3.4638430237698463e-06,8.357394632650696e-07,1.020289629174999e-06,8.663361603450421e-07,9.655838138819823e-07,1.7705583094779543e-05,1.053990339531839e-06,1.1200023758444644e-06,3.463644695257426e-05,1.1182127635638908e-06,6.254884203245494e-07,9.15196007178888e-07,2.0910650639738835e-06
281,6.225072969842076e-07,6.324632092042328e-07,1.1849643492095558e-06,3.645787991948242e-06,8.235547865900934e-07,9.967142197265827e-07,8.928833292529709e-07,9.83495366777652e-07,1.7614273407692063e-05,1.029174003531275e-06,1.1349110387398928e-06,3.38208733352005e-05,1.1059638758337235e-06,6.396641053832481e-07,8.947280490079937e-07,2.1132599618390116e-06
282,6.124517691761308e-07,6.268265583326335e-07,1.1889955871742958e-06,3.83692471087308e-06,8.141394252726626e-07,9.759824994791729e-07,9.206683591528164e-07,1.002353145487158e-06,1.7458884096823594e-05,1.0091793059123248e-06,1.1513668053820994e-06,3.307288321707212e-05,1.0942733020503489e-06,6.560603510190625e-07,8.764436263207763e-07,2.136342994383102e-06
283,6.036709287400404e-07,6.246530409955396e-07,1.1899400765875348e-06,4.0373456274310634e-06,8.072279074287173e-07,9.582256235561384e-07,9.493512753522393e-07,1.0222447110468109e-06,1.7243330513083757e-05,9.944266808806449e-07,1.169180549397384e-06,3.2404270118776796e-05,1.0830825193733756e-06,6.745746849649587e-07,8.606111405985878e-07,2.159964936375532e-06
284,5.959707121292032e-07,6.258051554944578e-07,1.187420959553608e-06,4.2470789256457365e-06,8.024386555818906e-07,9.434683401225674e-07,9.786136721954362e-07,1.04334499423902e-06,1.6974830115364747e-05,9.85284082639816e-07,1.1880472855943645e-06,3.1828987883565716e-05,1.072431686286177e-06,6.949804394575414e-07,8.474983023608839e-07,2.1843744288429576e-06
285,5.89213462747017e-07,6.301984833205856e-07,1.1814258704080734e-06,4.4657371586991425e-06,7.992949141650653e-07,9.316813452411884e-07,1.008074613097134e-06,1.0657449934698643e-06,1.6662513871358165e-05,9.82007802285631e-07,1.2075696109919257e-06,3.135831555200773e-05,1.0624378501917073e-06,7.169086054753381e-07,8.373755150672762e-07,2.210169169776627e-06
286,5.832873360430006e-07,6.378134760833768e-07,1.1723755485952124e-06,4.69239988347096e-06,7.972527917202426e-07,9.227693361538017e-07,1.0372179089268736e-06,1.0893436111760162e-06,1.6317633214197632e-05,9.846833705761977e-07,1.227304786405503e-06,3.0997792878735616e-05,1.0532415283718619e-06,7.398541190121134e-07,8.305332697926239e-07,2.2379356542863308e-06
287,5.780761390964008e-07,6.486350016904347e-07,1.1610176584154056e-06,4.925800341357198e-06,7.957736419062955e-07,9.165400310825692e-07,1.0653515643654895e-06,1.113807694446093e-06,1.5953340675423484e-05,9.93225609906918e-07,1.2469307573147822e-06,3.0746376418778776e-05,1.0449885211070124e-06,7.632413783310962e-07,8.272536326541296e-07,2.268033430913436e-06
288,5.734736471001671e-07,6.625859940530679e-07,1.148183551202702e-06,5.16455942655077e-06,7.944438323706287e-07,9.127087971562023e-07,1.091588778496585e-06,1.1385806412575952e-06,1.5583518134746198e-05,1.0074243617356261e-06,1.266414442630982e-06,3.05966096945051e-05,1.0378792413855864e-06,7.86500025859921e-07,8.277329162211376e-07,2.3004957480238928e-06
289,5.694314763753453e-07,6.795162246313075e-07,1.1345814459789982e-06,5.407195559405063e-06,7.930740657149764e-07,9.109711188318097e-07,1.1148832473018133e-06,1.1629401410117021e-06,1.5221489224541946e-05,1.0269755157302041e-06,1.2859970408116445e-06,3.053509837819143e-05,1.0321821448611279e-06,8.090974370379409e-07,8.32037664294378e-07,2.3349474216033423e-06
290,5.659819984576998e-07,6.992497147756908e-07,1.1207358555970946e-06,5.651882262350639e-06,7.917025187190433e-07,9.111215676828397e-07,1.1341436733036209e-06,1.1860753503687561e-06,1.4879179405081173e-05,1.0514785589033415e-06,1.306044773172442e-06,3.0543109543016546e-05,1.0281742047943399e-06,8.305733076047582e-07,8.401153121076701e-07,2.3706111508159356e-06
291,5.632090622584326e-07,7.216416667388158e-07,1.1070096962959143e-06,5.896138496902758e-06,7.904946107389424e-07,9.131028240166501e-07,1.1483802333538578e-06,1.2071569940318085e-06,1.4567184080138363e-05,1.0804414920893404e-06,1.326927658395521e-06,3.059703421538099e-05,1.0260783449735282e-06,8.505783769129455e-07,8.51833593271244e-07,2.4064933433362736e-06
292,5.612116879725057e-07,7.465774516068387e-07,1.0936054977148104e-06,6.136704255195232e-06,7.896078432625168e-07,9.169190717080207e-07,1.1568262905466047e-06,1.225452407640362e-06,1.4295482070192077e-05,1.113343432786813e-06,1.3489278911575492e-06,3.0668782427762024e-05,1.0260285680890717e-06,8.688552372131443e-07,8.670240358863944e-07,2.441698452054009e-06
293,5.600797942509565e-07,7.739272943451556e-07,1.08054995808916e-06,6.3698143960558446e-06,7.891019268351012e-07,9.225242939864169e-07,1.1590239999042265e-06,1.2405093623011324e-06,1.4073806975643876e-05,1.149753170179758e-06,1.3721344399404523e-06,3.0726983838686236e-05,1.0280875051107752e-06,8.852306166196714e-07,8.854770969821249e-07,2.4756967259778197e-06
294,5.598579196525573e-07,8.035088140380605e-07,1.067742384282526e-06,6.591915329110018e-06,7.889281336578261e-07,9.297860162258167e-07,1.1548491999445862e-06,1.252270436206188e-06,1.391133638180774e-05,1.189397250741527e-06,1.3964065980096493e-06,3.0740217522818274e-05,1.032340303664972e-06,8.996698836942355e-07,9.068811300684572e-07,2.5083425509435195e-06
295,5.60517098661945e-07,8.350619747219309e-07,1.0550865175133036e-06,6.800530063493132e-06,7.889692211302051e-07,9.384860637180681e-07,1.1444292172514364e-06,1.2609747802195972e-06,1.3816124830894922e-05,1.2320835785877735e-06,1.4214474533168263e-06,3.0682212996083656e-05,1.0389919614763358e-06,9.122525581737429e-07,9.307854509976455e-07,2.5396085764074305e-06
296,5.619939374021764e-07,8.682323612379656e-07,1.042607946492618e-06,6.994723132303765e-06,7.890638848587115e-07,9.483383218835534e-07,1.1280165797872309e-06,1.2669442992377708e-06,1.3794636869384992e-05,1.2775375893435675e-06,1.4468848942767298e-06,3.0536525202709916e-05,1.048352152870071e-06,9.230266005794371e-07,9.56629283422184e-07,2.5692576177654764e-06
297,5.642935762142208e-07,9.025607495898418e-07,1.0304489040688916e-06,7.174783572423786e-06,7.890054325597352e-07,9.590270745234469e-07,1.1059845951775838e-06,1.2704624661221567e-06,1.385135715687324e-05,1.3252737714549182e-06,1.4722621951454714e-06,3.029740872603432e-05,1.0607075202665073e-06,9.319020101619893e-07,9.837832204810166e-07,2.5967172513889987e-06
298,5.675524735788094e-07,9.374742326759341e-07,1.0187532235322672e-06,7.341279020690116e-06,7.885881956428148e-07,9.702203806517267e-07,1.078957312773665e-06,1.2717729706441885e-06,1.3988361443314247e-05,1.3745668027998689e-06,1.496959011380039e-06,2.9966022595098926e-05,1.0762092337693464e-06,9.386588509627882e-07,1.0115638711800717e-06,2.62122761765386e-06
299,5.719829753149335e-07,9.722840600274034e-07,1.007558683033383e-06,7.494120642883804e-06,7.87692016688113e-07,9.815908300388668e-07,1.0478951763991419e-06,1.2711033525744225e-06,1.4205100338474919e-05,1.4245207796371682e-06,1.5201612891733645e-06,2.9545059985980087e-05,1.0948547047029013e-06,9.429825723152787e-07,1.0392463281675546e-06,2.6420866027668816e-06
300,5.777659007509612e-07,1.0062251761349786e-06,9.96790726450536e-07,7.63221939438142e-06,7.862848088322765e-07,9.928990603224507e-07,1.0140453361466577e-06,1.2686965547009344e-06,1.4498646076011667e-05,1.4742135270671238e-06,1.540972639029645e-06,2.9036867676327934e-05,1.116503455436361e-06,9.44462049548392e-07,1.0661053242137245e-06,2.6587138370582646e-06
301,5.849961189652982e-07,1.0385764033764614e-06,9.86349043624373e-07,7.753765774516091e-06,7.843471034982395e-07,1.0040611348940413e-06,9.788136211394875e-07,1.2648667510636098e-06,1.4864049430871643e-05,1.5228793702164338e-06,1.5586183011268044e-06,2.8446719765930053e-05,1.1408604138185756e-06,9.426180504710761e-07,1.0915045968675225e-06,2.670485350884132e-06
302,5.936977494597708e-07,1.0688077855366115e-06,9.762030101590114e-07,7.856830998591275e-06,7.818243006177234e-07,1.0151075033717069e-06,9.436157239672482e-07,1.2600160801156163e-06,1.5294445060798978e-05,1.570039801760362e-06,1.5726089061696106e-06,2.778723878593949e-05,1.167448892985727e-06,9.370504624131507e-07,1.1150286550677283e-06,2.6766406315931022e-06
303,6.038666621577486e-07,1.0966570369125474e-06,9.664286221908e-07,7.940067994224431e-06,7.786236437985984e-07,1.0260643439231094e-06,9.097519032145159e-07,1.2545619071477793e-06,1.578106753851968e-05,1.6154855335988525e-06,1.5827998986031205e-06,2.7079233282256765e-05,1.1956115731300363e-06,9.276404907299725e-07,1.13655293600233e-06,2.67649581601865e-06
304,6.15485402856428e-07,1.1221157565525393e-06,9.571896998180982e-07,8.003338307409792e-06,7.746385319014265e-07,1.0368540399497446e-06,8.783446504567937e-07,1.2488609517388524e-06,1.63133719988732e-05,1.6591289796410325e-06,1.5893481619471978e-06,2.6348247612710872e-05,1.2245394853805042e-06,9.14624547984678e-07,1.1561434244723907e-06,2.669828609349654e-06
305,6.284895984589745e-07,1.1453600843454252e-06,9.486862263645159e-07,8.048043207828706e-06,7.697959044312496e-07,1.0472598930079346e-06,8.503314047696593e-07,1.2432025446773074e-06,1.6879192417049564e-05,1.700826192441052e-06,1.5925634580633907e-06,2.5619485741963745e-05,1.2533045266092312e-06,8.984694306647009e-07,1.1738814560290202e-06,2.657180127471036e-06
306,6.427230635820888e-07,1.1666449650938385e-06,9.411034773554924e-07,8.077044716182777e-06,7.640949678353403e-07,1.0569473195887813e-06,8.264777115885344e-07,1.2378132526514776e-06,1.7464903447805544e-05,1.740228218086716e-06,1.5927358058834255e-06,2.4914046867007405e-05,1.2808795566363518e-06,8.796962955256879e-07,1.189779786066666e-06,2.639903717795373e-06
307,6.579132920322287e-07,1.1861762229526627e-06,9.346321838210429e-07,8.094280680850992e-06,7.576071159029038e-07,1.0655509898698723e-06,8.073906032917929e-07,1.2328478981478428e-06,1.8055740126418583e-05,1.7767042553255742e-06,1.5900974154946502e-06,2.4247420063854354e-05,1.3062039200419575e-06,8.588001687254562e-07,1.2037789956321315e-06,2.619913887517651e-06
308,6.736653791732479e-07,1.2040103346963145e-06,9.295480145007004e-07,8.104288392026298e-06,7.504571451865888e-07,1.072800836643912e-06,7.935265427548575e-07,1.228389733578724e-06,1.863633156579665e-05,1.809395876159343e-06,1.5849346780670184e-06,2.362938158952021e-05,1.3283408870407067e-06,8.362607209331573e-07,1.2157637341405255e-06,2.5992718653493754e-06
309,6.89484498430073e-07,1.2200366684948858e-06,9.262256434805947e-07,8.111778825943384e-06,7.428367098310081e-07,1.0786014620989588e-06,7.851940815308143e-07,1.2244371713312211e-06,1.9191003376538154e-05,1.8373920068792947e-06,1.5776717128500749e-06,2.3064281556038546e-05,1.3466287105841005e-06,8.125828159842247e-07,1.225621268116468e-06,2.579816865658278e-06
310,7.048515543710626e-07,1.2340459478360434e-06,9.250645316360665e-07,8.121250837082358e-06,7.350207052073208e-07,1.0830230716843912e-06,7.825585612283249e-07,1.2209170401583285e-06,1.970340758629901e-05,1.8599086583240776e-06,1.5687926994102094e-06,2.255129361196428e-05,1.3607070874088524e-06,7.882989853449723e-07,1.2333279689335473e-06,2.562962423395125e-06
311,7.193344631170348e-07,1.2458465566572608e-06,9.264371631718701e-07,8.136566686147658e-06,7.273098248729504e-07,1.0862242243565116e-06,7.856490927668522e-07,1.2177932768281955e-06,2.0156511922741832e-05,1.876330570101697e-06,1.5587074453588858e-06,2.2084638156674843e-05,1.3704052202342094e-06,7.639279467403432e-07,1.2389831183770437e-06,2.5496652845070676e-06
312,7.326695411920074e-07,1.2553582034108747e-06,9.306841788813661e-07,8.160494700049368e-06,7.199445314402808e-07,1.0883432538247025e-06,7.943542639268541e-07,1.215180144464742e-06,2.0534662009662763e-05,1.886103707672556e-06,1.547697494631226e-06,2.1654358576421037e-05,1.3755706089071004e-06,7.399645592939835e-07,1.2427560256897887e-06,2.5405065401546594e-06
313,7.447791758472705e-07,1.2626193824391421e-06,9.380834748330942e-07,8.194318041645659e-06,7.130973140320796e-07,1.0894234834818824e-06,8.084135290754239e-07,1.2133243370751345e-06,2.0826899303035394e-05,1.888721848267788e-06,1.5358922350540177e-06,2.1248698654447237e-05,1.375999618040412e-06,7.16893776081993e-07,1.2447912808280444e-06,2.535828636254035e-06
314,7.557564324011177e-07,1.2677406640897187e-06,9.48786118740722e-07,8.237578542953234e-06,7.069293717757418e-07,1.089440746388999e-06,8.274263222730855e-07,1.2124917151114718e-06,2.10286362569864e-05,1.8839705706594135e-06,1.523251054743131e-06,2.085818240839467e-05,1.3715689157962503e-06,6.951602340282363e-07,1.2451285140780414e-06,2.5358841478208257e-06
315,7.65837088285672e-07,1.2708935642695457e-06,9.62768936792796e-07,8.287969688978769e-06,7.016125011542987e-07,1.0884094395027232e-06,8.50869045408946e-07,1.2129047783250616e-06,2.1140642766565963e-05,1.8721593830327895e-06,1.5096265485641827e-06,2.047952249935195e-05,1.3624549009964874e-06,6.751243392181562e-07,1.2436514300200311e-06,2.5408852288312035e-06
316,7.753360431912933e-07,1.2723663322588399e-06,9.79829763852331e-07,8.34136948135998e-06,6.972930953392378e-07,1.086453160069568e-06,8.78101293888668e-07,1.214801227163612e-06,2.1166673915126737e-05,1.8540432166097407e-06,1.4948872537963494e-06,2.011712813279813e-05,1.3492162283441177e-06,6.57061589877199e-07,1.240065075051644e-06,2.5508828174507954e-06
317,7.845532620655236e-07,1.272660207724362e-06,9.99653164936532e-07,8.391997529209975e-06,6.940631907600969e-07,1.0837625087607053e-06,9.08362720047538e-07,1.21852821649371e-06,2.1110915178493148e-05,1.8305454628778193e-06,1.4790343018852538e-06,1.9781779269544864e-05,1.3326445824833387e-06,6.411969298019566e-07,1.2339510047083085e-06,2.565643522563752e-06
318,7.936981043020054e-07,1.2725692546311445e-06,1.0219503591988803e-06,8.43279970964061e-06,6.919624680345866e-07,1.0804974562833958e-06,9.407586644470117e-07,1.2245318872884518e-06,2.0975938883072997e-05,1.80258436424052e-06,1.4622752894900636e-06,1.9487611813786114e-05,1.3135381540473662e-06,6.277394562523627e-07,1.2249532490950973e-06,2.584700249202127e-06
319,8.028527048379198e-07,1.27315859039854e-06,1.0465685976791309e-06,8.456283185053071e-06,6.909786920191086e-07,1.0767679370806988e-06,9.742526988118812e-07,1.2332241993937048e-06,2.0762523627636404e-05,1.771095164549873e-06,1.4449905325871686e-06,1.9248892331781897e-05,1.2926046446922142e-06,6.168829424541946e-07,1.212992719348573e-06,2.607457958609806e-06
320,8.119665138110426e-07,1.2756209370164311e-06,1.073452855111212e-06,8.45581772624646e-06,6.910476146125697e-07,1.0727183856429503e-06,1.0077091186592832e-06,1.244843079933811e-06,2.0472027798495453e-05,1.73709909534987e-06,1.4275870253317874e-06,1.907807777670467e-05,1.2704867011722199e-06,6.087700595591167e-07,1.1983021230883195e-06,2.633161421870093e-06
321,8.208842368395677e-07,1.281113113098842e-06,1.1024968374728344e-06,8.426983463085571e-06,6.92064839081457e-07,1.0685861121055721e-06,1.039988200450604e-06,1.2593899189799216e-06,2.0109500827354357e-05,1.7016786534503368e-06,1.4103804329164558e-06,1.8986172310198832e-05,1.2477707207003864e-06,6.034539916372601e-07,1.1812697130578398e-06,2.6607336705582508e-06
322,8.293895808216233e-07,1.2906735092788324e-06,1.1334210488613433e-06,8.368339321157976e-06,6.938995220109532e-07,1.0646421970442848e-06,1.0700530466576862e-06,1.276622817954721e-06,1.968464997218458e-05,1.6658680091032763e-06,1.3936038833245207e-06,1.8984840448608203e-05,1.2249567866230013e-06,6.008779135351919e-07,1.1623122565740034e-06,2.6886583746462596e-06
323,8.372184146944084e-07,1.3052106539624397e-06,1.165737068945308e-06,8.281252853200784e-06,6.964145818354414e-07,1.0610994629030966e-06,1.0970563377953347e-06,1.296078748958055e-06,1.9209751559524133e-05,1.630588858997667e-06,1.377452998517576e-06,1.9088600167022465e-05,1.202452137974365e-06,6.008692948812975e-07,1.1418846557759253e-06,2.715087588532244e-06
324,8.44026002330089e-07,1.3254903668745798e-06,1.1987539633160316e-06,8.168962729033013e-06,6.994836563689919e-07,1.0581034070296439e-06,1.1204016511869089e-06,1.3171399314951498e-06,1.8696504031141977e-05,1.5967282171044411e-06,1.362099009740888e-06,1.931584179802678e-05,1.180558345817845e-06,6.031496696799243e-07,1.1205210960408388e-06,2.7381935633887123e-06
325,8.493619990670007e-07,1.3520943677784059e-06,1.2316108048470296e-06,8.03536328987439e-06,7.029974818261944e-07,1.055781822292784e-06,1.1397719635750726e-06,1.3391176599576453e-06,1.8154119765228906e-05,1.5652471755310564e-06,1.347741083110051e-06,1.9688305969375784e-05,1.1594206860627536e-06,6.073568313177554e-07,1.0988230626164852e-06,2.756587229875927e-06
326,8.527390419938461e-07,1.385395977806819e-06,1.2633691229431581e-06,7.883947868637242e-06,7.069085341809888e-07,1.054261229235782e-06,1.1550916947273164e-06,1.3612726387113756e-06,1.758888552193991e-05,1.5371528647461219e-06,1.3346695457393622e-06,2.0229154609509605e-05,1.1390428221930034e-06,6.130701342119778e-07,1.077401798795267e-06,2.769586397152038e-06
327,8.538171912740848e-07,1.4255807822523628e-06,1.293145597573864e-06,7.71726613826554e-06,7.113041363324393e-07,1.0536249054638138e-06,1.1664077819490014e-06,1.382773579977665e-06,1.7004649631729045e-05,1.5133962673863731e-06,1.3232179106706602e-06,2.096035244523002e-05,1.119432863228819e-06,6.198528004801089e-07,1.0567977507305836e-06,2.77722743669561e-06
328,8.526003628672438e-07,1.4726664617021286e-06,1.3202245044984774e-06,7.537105866600791e-06,7.16403307119774e-07,1.0538601163481548e-06,1.1737709153645038e-06,1.4027168512243885e-06,1.6403935171483117e-05,1.494833836987857e-06,1.3136650704690574e-06,2.190061695756347e-05,1.1007351087277597e-06,6.273104306068242e-07,1.0374097109737765e-06,2.7800546762672437e-06
329,8.494905675495963e-07,1.5264820776016528e-06,1.3441157700495516e-06,7.345149892509865e-06,7.22455212188472e-07,1.0548382184517462e-06,1.177227251470074e-06,1.4202596983143107e-06,1.578899879488039e-05,1.4822280482775647e-06,1.306205128499578e-06,2.306450241911733e-05,1.0831953804299074e-06,6.351181752311606e-07,1.01949177100001e-06,2.7787999331009206e-06
330,8.451547401320071e-07,1.5866453766309341e-06,1.3645395814060777e-06,7.1435902845340225e-06,7.29633844263549e-07,1.0563247530298703e-06,1.1768935749178287e-06,1.434743557971274e-06,1.5162311497082055e-05,1.4762713137890586e-06,1.3009224566890904e-06,2.4462062249960795e-05,1.0670726352780911e-06,6.430268265444632e-07,1.003224795709143e-06,2.774060024856562e-06
