,EMG1,EMG2,EMG3,EMG4,EMG5,EMG6,EMG7,EMG8,EMG9,EMG10,EMG11,EMG12,EMG13,EMG14,EMG15,EMG16
0,1.5236695850554914e-07,4.08802913333538e-08,5.304896415599345e-07,2.442322071503597e-06,1.570950888420748e-07,7.358263205795277e-08,4.6621416981144605e-07,-8.443687892647951e-08,8.325181138633427e-07,2.63519675519063e-07,5.823411317321473e-07,-4.901329950515702e-07,2.985263266144261e-07,1.9000246112836357e-07,1.1953379842861746e-07,4.174574838993413e-07
1,1.8643238273769155e-07,1.1780109437478208e-07,6.490522789734171e-07,2.752482578213733e-06,2.7129477318760535e-07,1.336490263734493e-07,5.093097274781953e-07,1.7266581839447766e-07,1.6745272677087183e-06,3.120655342697437e-07,6.767546079894642e-07,7.491882518405619e-07,3.4451584456465517e-07,2.220679102002313e-07,1.830190563783587e-07,5.215690453250166e-07
2,2.208920593053304e-07,1.928752989827366e-07,7.676005591619949e-07,3.0748680668173355e-06,3.813601178518438e-07,1.9196745567810601e-07,5.5444738433328e-07,4.2359730948813994e-07,2.4942035975018937e-06,3.6101025149623646e-07,7.707472259880795e-07,1.9671668029483106e-06,3.914609745039283e-07,2.5397245852057063e-07,2.4406705101110093e-07,6.255720699478207e-07
3,2.5548803142673157e-07,2.640340966603762e-07,8.844398797952223e-07,3.4082007388545027e-06,4.862298379181372e-07,2.473875679262047e-07,6.011977657003546e-07,6.659896594981983e-07,3.287150676556412e-06,4.097473729652025e-07,8.636296030820144e-07,3.123546647061979e-06,4.389429210157897e-07,2.853295028919874e-07,3.016404737404275e-07,7.291479844590794e-07
4,2.901031840531593e-07,3.29773712655103e-07,9.978238940386798e-07,3.751070204006256e-06,5.848511866678715e-07,2.9891592284998047e-07,6.491147110173111e-07,8.978282311424114e-07,4.049016601661609e-06,4.577353509121397e-07,9.547145100464158e-07,4.189403468420863e-06,4.866324019262245e-07,3.1589708585782873e-07,3.551068683160907e-07,8.32167399943376e-07
5,3.247086743867217e-07,3.8930326748828005e-07,1.1061038794057846e-06,4.1018649086507685e-06,6.762114908974009e-07,3.4576456683255645e-07,6.978232682887075e-07,1.117400606719343e-06,4.7750470799803816e-06,5.045945192442552e-07,1.0433110684424745e-06,5.151334177380426e-06,5.342801804851566e-07,3.455221622889337e-07,4.042272234635492e-07,9.345469627677252e-07
6,3.5933632604412073e-07,4.4250168869149486e-07,1.2079400437443632e-06,4.458595211947126e-06,7.594128534735869e-07,3.8745919997286023e-07,7.470843085278931e-07,1.3231726877117186e-06,5.459773306694946e-06,5.501557114174731e-07,1.1286958945780225e-06,6.01090875365873e-06,5.816470642247837e-07,3.7410006389710394e-07,4.490129136608543e-07,1.0360955641200882e-06
7,3.940673096195891e-07,4.897307643412334e-07,1.3024326432610216e-06,4.818702704031746e-06,8.337895414103531e-07,4.2393367321467584e-07,7.967685846297911e-07,1.5137860609317441e-06,6.096921519182709e-06,5.943871732636618e-07,1.2101037946056182e-06,6.7800528727270675e-06,6.284308815468246e-07,4.015969624635178e-07,4.895915976458873e-07,1.1364419260446372e-06
8,4.2901154818411257e-07,5.316023252287201e-07,1.3890758165888072e-06,5.179043893683108e-06,8.990174842698972e-07,4.5546537881027765e-07,8.467757213756037e-07,1.6882149691619383e-06,6.67955827088067e-06,6.37265086548275e-07,1.286798022035987e-06,7.475903288423432e-06,6.742364245087625e-07,4.280684360455325e-07,5.261325243992182e-07,1.235041864172606e-06
9,4.6430462665336055e-07,5.687899473174994e-07,1.4675668906995964e-06,5.536036210866199e-06,9.551561326397548e-07,4.82504449928044e-07,8.969813102293575e-07,1.8459295221032894e-06,7.20068447546029e-06,6.786883766867349e-07,1.3581555296045856e-06,8.117433387756232e-06,7.185861100079836e-07,4.5361831717806305e-07,5.58823155771454e-07,1.3312548355694334e-06
10,5.00114103467897e-07,6.019393206520294e-07,1.5376461748506584e-06,5.885730985552894e-06,1.0026192196947996e-06,5.055662826717656e-07,9.472156039405142e-07,1.986950013969864e-06,7.654207662625324e-06,7.184710956554588e-07,1.423659740276232e-06,8.723678443420146e-06,7.609527883950222e-07,4.783411453056093e-07,5.878971722938354e-07,1.4244748373314836e-06
11,5.366139324136903e-07,6.316505447188487e-07,1.5991482438050913e-06,6.223680566080082e-06,1.0420927008233608e-06,5.252218296138118e-07,9.972349891775658e-07,2.111816755518269e-06,8.035855609860245e-06,7.563787968231957e-07,1.482819692165339e-06,9.312772803622189e-06,8.008214588039507e-07,5.02298883044093e-07,6.136707766166261e-07,1.5142675800761152e-06
12,5.739331971563212e-07,6.584605213943962e-07,1.652212571830292e-06,6.544718809448153e-06,1.0743959998752072e-06,5.421089263126564e-07,1.0466898445867233e-06,2.2215529837790076e-06,8.34364682698593e-06,7.921711345352048e-07,1.5351804542714482e-06,9.901602628659147e-06,8.377905320093851e-07,5.255426196107065e-07,6.365208284138759e-07,1.6004785198063579e-06
13,6.121206167552408e-07,6.828155289890596e-07,1.6974054478753088e-06,6.842898273146761e-06,1.1003106911257588e-06,5.569071391651441e-07,1.0950951107893216e-06,2.317617275069598e-06,8.577775767413837e-06,8.256464706123213e-07,1.5804920623361045e-06,1.0505965029457661e-05,8.716794059512684e-07,5.481619342287942e-07,6.568193719193027e-07,1.6832766749626042e-06
14,6.511456322512077e-07,7.050754671723804e-07,1.7356306365705533e-06,7.111770735401863e-06,1.1204517456066375e-06,5.702834180863283e-07,1.141801463339832e-06,2.4017402356532654e-06,8.740089134945707e-06,8.566726585916643e-07,1.618807591699961e-06,1.1140697794614545e-05,9.025885564286728e-07,5.703023754032613e-07,6.749124928518372e-07,1.7630635904913794e-06
15,6.909204243097434e-07,7.255639703577662e-07,1.7679293355804827e-06,7.345016898334145e-06,1.1352251690033226e-06,5.828501704019994e-07,1.1859762293862633e-06,2.475648044916627e-06,8.833544571957053e-06,8.852019035991978e-07,1.6503351923149343e-06,1.1819299410414708e-05,9.308783271369334e-07,5.921390214948975e-07,6.911614928956761e-07,1.84024655300517e-06
16,7.313042810090079e-07,7.446485758365193e-07,1.7952968928882667e-06,7.537245826284104e-06,1.1448456187050079e-06,5.951481096857629e-07,1.2265884423401386e-06,2.5408859117283106e-06,8.861777786700013e-06,9.113027627438308e-07,1.6752417545438472e-06,1.2553201569135596e-05,9.570640074046498e-07,6.138576549163239e-07,7.05965643589239e-07,1.9150149838043646e-06
17,7.720672370764716e-07,7.627975572632446e-07,1.818553524657055e-06,7.684718018977647e-06,1.1494075736256194e-06,6.076449684126223e-07,1.2624235526708012e-06,2.5988579511952405e-06,8.828541931542106e-06,9.351711200027791e-07,1.6936350904784324e-06,1.335124167111631e-05,9.816762336683413e-07,6.356386341966903e-07,7.197217251979472e-07,1.9872362599446613e-06
18,8.128411593813399e-07,7.805461551024169e-07,1.838260824271966e-06,7.785800036242145e-06,1.14903661616803e-06,6.207453262456652e-07,1.2922211720876982e-06,2.650914263799356e-06,8.737170564880013e-06,9.570448941565274e-07,1.7056281666558952e-06,1.4219591555647546e-05,1.0051628802192798e-06,6.576180758230923e-07,7.327625791772757e-07,2.0564583072690352e-06
19,8.531041860480034e-07,7.983931002857237e-07,1.854697626771667e-06,7.841045822448881e-06,1.1440541065166663e-06,6.347890538440312e-07,1.3149480004082304e-06,2.6982947735941505e-06,8.590698653622052e-06,9.770782903016362e-07,1.7113063534280692e-06,1.516199002601449e-05,1.0278509640718768e-06,6.798487151017976e-07,7.453183823616812e-07,2.1219885776490057e-06
20,8.922126332949262e-07,8.167135151196924e-07,1.8679255963889211e-06,7.852899382029262e-06,1.1350259352082692e-06,6.500258679514795e-07,1.330054047535267e-06,2.741952822514578e-06,8.39263106170725e-06,9.953152211773127e-07,1.7106713492553984e-06,1.6180105878816027e-05,1.0499230368086067e-06,7.022857098009562e-07,7.575063371153316e-07,2.1830206796565207e-06
21,9.294709516261244e-07,8.357193477298845e-07,1.8778961034105052e-06,7.825116768349146e-06,1.1226750761654284e-06,6.665889940155227e-07,1.3375854030994768e-06,2.7824459588773685e-06,8.147542166825434e-06,1.011778370092862e-06,1.7037233670093416e-06,1.727393041387571e-05,1.0713910870077736e-06,7.248112908312447e-07,7.693431848243208e-07,2.238719537047375e-06
22,9.64208782740717e-07,8.554495312565205e-07,1.8844673884662956e-06,7.762015512439641e-06,1.10775313303344e-06,6.844809379921271e-07,1.3381597454452496e-06,2.820009610283648e-06,7.86108564673037e-06,1.0265467589789715e-06,1.6906452931983874e-06,1.8441916150193254e-05,1.0921063505279224e-06,7.472987767689663e-07,7.807702934640885e-07,2.2882355668370723e-06
23,9.958101110690251e-07,8.757945269602204e-07,1.88730935658334e-06,7.667646687584552e-06,1.0909603837177325e-06,7.03561664519834e-07,1.3328359222687572e-06,2.8547173149646645e-06,7.539774184789564e-06,1.039762112154372e-06,1.6719453368507067e-06,1.96805401544914e-05,1.1118360635397126e-06,7.696661585837859e-07,7.916754964243246e-07,2.3307666031931615e-06
24,1.0237005533267235e-06,8.965644651022572e-07,1.8858726294491383e-06,7.545161983940199e-06,1.0729369185488824e-06,7.235419293330058e-07,1.32290112238784e-06,2.8865966138906733e-06,7.190905209617301e-06,1.0516441260993648e-06,1.6484591478899882e-06,2.0983656165326405e-05,1.1303667340410225e-06,7.918453399877004e-07,8.018894507715938e-07,2.365727531236961e-06
25,1.0473855782145207e-06,9.175544301884724e-07,1.8795617829512665e-06,7.396747553460229e-06,1.054286476096911e-06,7.440049633113063e-07,1.3096421227818095e-06,2.9156893030053682e-06,6.8225423222066814e-06,1.0625285846986585e-06,1.6211868212287253e-06,2.234259025507969e-05,1.1475330718072262e-06,8.136962426469747e-07,8.11163777721059e-07,2.3928859008801546e-06
26,1.066552651481898e-06,9.385517884224912e-07,1.8679994673889281e-06,7.224113718655679e-06,1.0355752356615134e-06,7.644785434071235e-07,1.2941918739544252e-06,2.942091333967586e-06,6.443312699982946e-06,1.0728401421948695e-06,1.5910718818044453e-06,2.3747065027112945e-05,1.1631546043976883e-06,8.349903519138864e-07,8.192022362866333e-07,2.41234802004537e-06
27,1.0811356579131216e-06,9.593207267788697e-07,1.8511702430267867e-06,7.029095246867895e-06,1.0172833135859055e-06,7.845547393715799e-07,1.2774867891083132e-06,2.9659640165559594e-06,6.062023439921369e-06,1.0829909084892262e-06,1.55887556888291e-06,2.51858932501129e-05,1.177004804221579e-06,8.554709099218136e-07,8.257713055080989e-07,2.424489859582371e-06
28,1.091306810965764e-06,9.79626996851929e-07,1.8293755335059096e-06,6.81398725534964e-06,9.997427898174478e-07,8.040223311754124e-07,1.260270168246684e-06,2.9874529150421583e-06,5.687219311794646e-06,1.0932713385554247e-06,1.525206843110201e-06,2.6646962130357056e-05,1.188881780862479e-06,8.748748665181289e-07,8.307934493266248e-07,2.4299248204854554e-06
29,1.0974504491008257e-06,9.992664842292875e-07,1.8030752411703873e-06,6.581563983644992e-06,9.831285215330863e-07,8.229613856085152e-07,1.2430671963091111e-06,3.0065004027795802e-06,5.326747998702749e-06,1.103792492550486e-06,1.4906716755058437e-06,2.8117203254632724e-05,1.1986724245817373e-06,8.928961265270596e-07,8.34353623959425e-07,2.429403293468602e-06
30,1.1001510913805586e-06,1.0180241982418374e-06,1.7727028200821648e-06,6.334898937234071e-06,9.675312312494666e-07,8.417586344406381e-07,1.2261590649376328e-06,3.0227125652122987e-06,4.9874436199410975e-06,1.1145074605654881e-06,1.4559844632355052e-06,2.9582940327048014e-05,1.2063468456490057e-06,9.091463055447828e-07,8.366563134208331e-07,2.4235946639476602e-06
31,1.1001759919382545e-06,1.0356023298394344e-06,1.7385020704622005e-06,6.0771078791011375e-06,9.530597207555025e-07,8.610352493810348e-07,1.2096280881194434e-06,3.035447158875735e-06,4.675025784589948e-06,1.1252670671348581e-06,1.42190550196996e-06,3.102986940570181e-05,1.2120100429105661e-06,9.23134787087219e-07,8.379650507162493e-07,2.412972789297863e-06
32,1.0984033812363565e-06,1.0516466152721773e-06,1.7004543068621761e-06,5.811107788009445e-06,9.398969235264269e-07,8.815189814116944e-07,1.1934579633208006e-06,3.0440298992241712e-06,4.394166817193564e-06,1.1358659580852735e-06,1.3891020911624739e-06,3.244187611106922e-05,1.2160357221296887e-06,9.343317168039696e-07,8.385531500386299e-07,2.3979535648339516e-06
33,1.0956938919488773e-06,1.0659034411970744e-06,1.6583476547105257e-06,5.5394938574418235e-06,9.282776408251552e-07,9.039095673277019e-07,1.1775927601488092e-06,3.0478973685147494e-06,4.148671744706694e-06,1.1461020067535559e-06,1.3580701409841562e-06,3.379892205913411e-05,1.219074711466568e-06,9.423615647625404e-07,8.387152348311025e-07,2.379098660755462e-06
34,1.092777911153887e-06,1.0783556280326738e-06,1.6119327436264843e-06,5.2645833218990996e-06,9.184070007308243e-07,9.287814587876812e-07,1.1619052540048872e-06,3.0466379818300874e-06,3.941738738315597e-06,1.1558094843213665e-06,1.3291057767485602e-06,3.507497792712946e-05,1.2218636855071754e-06,9.471876912997794e-07,8.388031507749718e-07,2.357201353710693e-06
35,1.0902031486203624e-06,1.0891828617197087e-06,1.5610823006557442e-06,4.988525024368324e-06,9.103917959312716e-07,9.565461397077526e-07,1.1461435931971924e-06,3.040027370782333e-06,3.776171350325156e-06,1.164806634534028e-06,1.3022972720572694e-06,3.6237454221506015e-05,1.225020095405098e-06,9.491048551952692e-07,8.392041454316337e-07,2.3333081376899434e-06
36,1.0883195119308464e-06,1.0985879200762058e-06,1.505927322329891e-06,4.713354059835887e-06,9.042572608363555e-07,9.874530629162862e-07,1.1299662946522995e-06,3.028105070168613e-06,3.654456419280598e-06,1.1728334508765362e-06,1.277538955476785e-06,3.724984972088662e-05,1.2289631843084204e-06,9.485610419444127e-07,8.402723778243827e-07,2.3087133547898243e-06
37,1.0872885442179095e-06,1.1066464613660995e-06,1.4469269834319235e-06,4.441028437144566e-06,9.000315512804494e-07,1.0215891786789056e-06,1.1130913879985563e-06,3.011242805884801e-06,3.578795454271585e-06,1.1795607452276847e-06,1.2545637343158444e-06,3.807776632873227e-05,1.233922626152569e-06,9.459955374057808e-07,8.422763623001208e-07,2.2848295408011307e-06
38,1.087134362787835e-06,1.1132623440079953e-06,1.3847955841851687e-06,4.173509664498843e-06,8.977977276328065e-07,1.058871311079182e-06,1.0954837407226949e-06,2.9901195276569136e-06,3.5511769073392064e-06,1.1846847260791257e-06,1.2330035955457352e-06,3.869539510592443e-05,1.2399684867257395e-06,9.418324744201037e-07,8.453839269324009e-07,2.262941534670718e-06
39,1.0878122570449667e-06,1.1181884469254624e-06,1.3203154104104595e-06,3.912809352352354e-06,8.97655224384231e-07,1.099046690538999e-06,1.0774660699163805e-06,2.9655754476628397e-06,3.5734281277557847e-06,1.1880909228843585e-06,1.212497553498767e-06,3.908853930350182e-05,1.2470390982763117e-06,9.365647637058116e-07,8.496683676162236e-07,2.2440267556464613e-06
40,1.089219245176855e-06,1.121048542739645e-06,1.25421531483249e-06,3.6609274080313075e-06,8.996526773240985e-07,1.1417081756745835e-06,1.0596642868541512e-06,2.9384200700147823e-06,3.6471257122814448e-06,1.1899446055738396e-06,1.1928252043461256e-06,3.925258217354272e-05,1.2549467122864611e-06,9.307606134196664e-07,8.551166215250555e-07,2.2287697630861304e-06
41,1.0911298665459739e-06,1.1213907421800231e-06,1.1871847047366906e-06,3.4197478189964077e-06,9.037640092233034e-07,1.1863465396721259e-06,1.0428097326727897e-06,2.9093253257203982e-06,3.773379330385308e-06,1.1905904886739508e-06,1.1739989145670045e-06,3.918688363196744e-05,1.2633835122686165e-06,9.24987061328757e-07,8.616635755087867e-07,2.2177034163893646e-06
42,1.0931355842409915e-06,1.1188596608829274e-06,1.1198946295292825e-06,3.190985436732847e-06,9.098978445270507e-07,1.2324426494802254e-06,1.0275453787711917e-06,2.878864975036714e-06,3.952692501850736e-06,1.1904083669871986e-06,1.1562712557691829e-06,3.8889205283169864e-05,1.2719918430173826e-06,9.197677019886203e-07,8.692688150363231e-07,2.211287597826268e-06
43,1.0946695168730557e-06,1.113436954058547e-06,1.0529935806396832e-06,2.9761838957822223e-06,9.17923786380445e-07,1.2795409290669826e-06,1.0143449734582886e-06,2.8475982117599173e-06,4.185031031572549e-06,1.1897614100447937e-06,1.1400617178237e-06,3.835526442445186e-05,1.28046085101957e-06,9.15586957846923e-07,8.779536305500643e-07,2.2098215283528758e-06
44,1.09512265237851e-06,1.1055509034077809e-06,9.871263114856977e-07,2.776693940992083e-06,9.276932437123642e-07,1.3272649244393568e-06,1.0035135380293181e-06,2.8160205883740853e-06,4.469977894445638e-06,1.1889476133326648e-06,1.1258338041848864e-06,3.758590090688504e-05,1.2885498297229704e-06,9.128926369087874e-07,8.877514147748384e-07,2.213297099801883e-06
45,1.0939818353512899e-06,1.0959494055311645e-06,9.229309468817363e-07,2.5935763985939105e-06,9.390156862877594e-07,1.3752833823188656e-06,9.952187535872134e-07,2.78436606478764e-06,4.806818009111146e-06,1.1881172115170342e-06,1.1139953957733821e-06,3.659679379465173e-05,1.2960760505866407e-06,9.120989048176508e-07,8.986504414039668e-07,2.2213537717482585e-06
46,1.0909376679271105e-06,1.0854563481410874e-06,8.610116524885496e-07,2.4274591179130417e-06,9.516242847991246e-07,1.4232250374929768e-06,9.895548870412507e-07,2.75246731285151e-06,5.194533994566797e-06,1.1872310300531142e-06,1.104917312370061e-06,3.5422311225402736e-05,1.3029120531652704e-06,9.135814662841836e-07,9.105838509674614e-07,2.2333757641872996e-06
47,1.085957382823171e-06,1.0747916753282653e-06,8.019226674743688e-07,2.278447958321725e-06,9.651786461858358e-07,1.4705569896846454e-06,9.86597060872608e-07,2.719814463947747e-06,5.631713939656474e-06,1.1860826103238264e-06,1.0990494394657896e-06,3.411047693671408e-05,1.3089333449378534e-06,9.176345028334507e-07,9.234661055889988e-07,2.248644772097447e-06
48,1.079289137230946e-06,1.06449097334017e-06,7.461416798371735e-07,2.146170659843672e-06,9.792805800929082e-07,1.5164919757524975e-06,9.863765127843825e-07,2.6857008496762715e-06,6.116347567063856e-06,1.1843769815017337e-06,1.096974773320509e-06,3.271334251964036e-05,1.3139779177011166e-06,9.244137939820135e-07,9.372440725797424e-07,2.266413741373884e-06
49,1.0713590791814378e-06,1.054869504706443e-06,6.94040888898608e-07,2.029926876101388e-06,9.934831686925147e-07,1.5599995684715155e-06,9.88811229235203e-07,2.6493177627089903e-06,6.645643569612628e-06,1.181838555063758e-06,1.0993235524250173e-06,3.127946641498371e-05,1.3179283487932352e-06,9.339141760593844e-07,9.518831345802224e-07,2.285900129761692e-06
50,1.0626110732212283e-06,1.046019640160061e-06,6.458989159061513e-07,1.928821398988978e-06,1.007309899563308e-06,1.5999606382430666e-06,9.936949730157624e-07,2.6098186167927866e-06,7.216081986655721e-06,1.1782910343027182e-06,1.1066356643617084e-06,2.9852170396204164e-05,1.3208387602858403e-06,9.459700214496846e-07,9.672971842351588e-07,2.306342045927602e-06
51,1.0534124712019345e-06,1.0378446105814547e-06,6.019557198742178e-07,1.8417888833807473e-06,1.0202947385703504e-06,1.635420993863111e-06,1.0007687710919523e-06,2.566444909291987e-06,7.823642949433832e-06,1.1736584915557112e-06,1.119273021800774e-06,2.847246092705102e-05,1.3229828421915335e-06,9.60244170244797e-07,9.833130199335778e-07,2.327189201496299e-06
52,1.044081266859991e-06,1.030120949367363e-06,5.624562075896644e-07,1.7675296879860868e-06,1.0320378456988905e-06,1.6658001870660812e-06,1.0097842064208006e-06,2.5187392558361802e-06,8.464018243206906e-06,1.167888225310397e-06,1.1374220882666862e-06,2.7182748032391808e-05,1.3248226617181852e-06,9.762282382397972e-07,9.996794813778592e-07,2.3483410321885802e-06
53,1.034950493947281e-06,1.0226053286935171e-06,5.276283772791601e-07,1.7044318769540184e-06,1.0422625324734306e-06,1.6909015172530702e-06,1.0204718535932111e-06,2.466755472240799e-06,9.132827578565027e-06,1.1609021990068815e-06,1.1611589157596047e-06,2.6028058821077216e-05,1.3269240465241924e-06,9.933321510176428e-07,1.0160991699772075e-06,2.3702575417610566e-06
54,1.026379412290338e-06,1.0151639176530096e-06,4.976274554962885e-07,1.6505656640961102e-06,1.0508649349889718e-06,1.7107096047624293e-06,1.0324619728788424e-06,2.4111451447593163e-06,9.825805284520405e-06,1.1526387666895932e-06,1.1904982387642323e-06,2.505415875276522e-05,1.329835795579348e-06,1.0110928711340273e-06,1.0322673564633012e-06,2.3937999809666507e-06
55,1.018713290363052e-06,1.0078313944739375e-06,4.725155956008213e-07,1.6038114243960624e-06,1.057950577519918e-06,1.7251530148417217e-06,1.0452436251393853e-06,2.35307750946403e-06,1.0538583814704721e-05,1.14306821767758e-06,1.2254171499403184e-06,2.43044905969953e-05,1.3340177686725759e-06,1.0293810438225372e-06,1.0478758347411167e-06,2.4198587313600206e-06
56,1.0122202360029597e-06,1.00075038652733e-06,4.522815847016625e-07,1.562080851778929e-06,1.063824604917002e-06,1.7340322352507958e-06,1.0581548591026912e-06,2.2940332396824324e-06,1.1265913202747967e-05,1.1321376784520594e-06,1.2658869492867755e-06,2.381832291724549e-05,1.3398420490126456e-06,1.0484233451352761e-06,1.0626169504645733e-06,2.4490204428303888e-06
57,1.0070298912353398e-06,9.940597684786294e-07,4.368671872840739e-07,1.523506086090315e-06,1.0688993502705375e-06,1.7371135194340329e-06,1.0704144672531214e-06,2.235551631281784e-06,1.2000901160702316e-05,1.119775659502798e-06,1.3118670234432667e-06,2.363092850241875e-05,1.347582358139908e-06,1.0686298597673905e-06,1.0762767629681425e-06,2.4814336763263964e-06
58,1.0030993342599437e-06,9.878365365788857e-07,4.2618329343106677e-07,1.486520846230281e-06,1.0735637860122152e-06,1.7342289031184582e-06,1.081246307212135e-06,2.179010443903643e-06,1.2734943496180713e-05,1.1059973418034777e-06,1.3632399656072313e-06,2.377467481766636e-05,1.3573974623712323e-06,1.0904005858174322e-06,1.088846215270819e-06,2.5168262285079047e-06
59,1.0002035492778304e-06,9.82128701983876e-07,4.2011257575779924e-07,1.449890684864973e-06,1.0781172296886823e-06,1.7252962613685698e-06,1.0900305421799422e-06,2.1254775874747056e-06,1.3458284009300628e-05,1.0910048434960004e-06,1.419756735054524e-06,2.4279375319848858e-05,1.3693392781188478e-06,1.1140391596880335e-06,1.1004821629302666e-06,2.5545622089065707e-06
60,9.979466869712422e-07,9.770254157175003e-07,4.1852149799892903e-07,1.4127823590290466e-06,1.0827761546272761e-06,1.7103253473521725e-06,1.0963501708132027e-06,2.075625596828562e-06,1.4160677801018938e-05,1.0752096530179356e-06,1.481045108778475e-06,2.5171369173394342e-05,1.3833278296956879e-06,1.1397735478500786e-06,1.1113349738960325e-06,2.593665181736724e-06
61,9.958045942278807e-07,9.726726151016176e-07,4.2130768847834516e-07,1.3748606243596577e-06,1.0876669571366028e-06,1.6894933077604906e-06,1.099921201323205e-06,2.0296913067494457e-06,1.4831653263638892e-05,1.0591851134330035e-06,1.5466665476694693e-06,2.6472225730136064e-05,1.399116734573228e-06,1.1678065056479565e-06,1.1214167948071202e-06,2.6328564986099702e-06
62,9.931976221053437e-07,9.691985342141244e-07,4.2845881317461547e-07,1.3363493959358547e-06,1.0927917384567073e-06,1.6632521891508347e-06,1.100513439934285e-06,1.9874715171854324e-06,1.5460145119575768e-05,1.0435599699266075e-06,1.6161451824129833e-06,2.81979620429298e-05,1.416342416931217e-06,1.1982895594538874e-06,1.1305918147192415e-06,2.6706820253256075e-06
63,9.895984675305468e-07,9.66606333418408e-07,4.4009029487423835e-07,1.2980272391164619e-06,1.0980322859244433e-06,1.6323345351850047e-06,1.0979226961635939e-06,1.948356433260251e-06,1.6033826375310324e-05,1.028881703020597e-06,1.6889389213462955e-06,3.035859341079164e-05,1.4346459817754426e-06,1.2312235389699931e-06,1.1386291442230084e-06,2.7056862875369944e-06
64,9.846630425741588e-07,9.647150901883284e-07,4.5645541991257117e-07,1.2611332480872056e-06,1.103192123087982e-06,1.5976080183262816e-06,1.0919455619566317e-06,1.9114433857234582e-06,1.6538874321804677e-05,1.0155250515926999e-06,1.7644356091067032e-06,3.295766067492261e-05,1.4537836614748792e-06,1.2663820021452293e-06,1.1452540261766794e-06,2.7366060524953547e-06
65,9.78316327323332e-07,9.63175888896025e-07,4.779182115475413e-07,1.227185427515366e-06,1.108011531707975e-06,1.559932642200564e-06,1.0823434320278708e-06,1.8757469885840113e-06,1.6960744601151567e-05,1.0036652832970009e-06,1.8420243103985235e-06,3.5991887950860905e-05,1.4736714337585066e-06,1.303280332475775e-06,1.1502001702282449e-06,2.7626059831851993e-06
66,9.707356055589682e-07,9.615349363857777e-07,5.049110580554864e-07,1.1977817595301162e-06,1.1121502527587906e-06,1.520190950778398e-06,1.0688857531753008e-06,1.8404065112011665e-06,1.7285800054347324e-05,9.932707806367733e-07,1.9211735827352848e-06,3.945102940549984e-05,1.4943385374550729e-06,1.3411608769536902e-06,1.1532819379232562e-06,2.7834889685385964e-06
67,9.622414443391815e-07,9.593034839718698e-07,5.379190772614327e-07,1.1744509444220207e-06,1.1152314055168115e-06,1.479399313794363e-06,1.0514957608902417e-06,1.804786768368992e-06,1.7502414544568695e-05,9.841219833526135e-07,2.001438961968813e-06,4.331766596276635e-05,1.5158072891329084e-06,1.378986864737689e-06,1.154465742326801e-06,2.7997199761133776e-06
68,9.531596237896525e-07,9.560090562864884e-07,5.774699150024007e-07,1.1585758215151884e-06,1.1169786873054923e-06,1.4386802537795387e-06,1.0303786142451756e-06,1.7684875133903158e-06,1.7600615066062522e-05,9.758840167363686e-07,2.0823775263729077e-06,4.7566805294081884e-05,1.5379863687994592e-06,1.4154447985102195e-06,1.1538871906010476e-06,2.812189976990549e-06
69,9.437478773815995e-07,9.512355414122641e-07,6.241062718789984e-07,1.1514054137372202e-06,1.1173097298953868e-06,1.399102596624198e-06,1.0060225002629102e-06,1.7313339688084002e-06,1.7572733201319276e-05,9.681810066242265e-07,2.163395528994646e-06,5.216529563554578e-05,1.560625483232561e-06,1.4489777778164284e-06,1.151774210300579e-06,2.821873321018304e-06
70,9.34206176957838e-07,9.446889684954418e-07,6.783633125048092e-07,1.1541306160823869e-06,1.116279055951342e-06,1.3615568359197372e-06,9.79083837152134e-07,1.693380107395573e-06,1.741725633907708e-05,9.606005009744403e-07,2.2436387265149982e-06,5.707110085558935e-05,1.5833230461412331e-06,1.4779024479241525e-06,1.1483232211202437e-06,2.8296146725807303e-06
71,9.246731679125077e-07,9.362882748571563e-07,7.407435220482734e-07,1.1679391426738003e-06,1.1139607555400334e-06,1.3267096366920381e-06,9.502411623921167e-07,1.6548908060596893e-06,1.714224917394362e-05,9.526509611064704e-07,2.3220398689985097e-06,6.223250077998697e-05,1.6056118687314835e-06,1.5006215939348529e-06,1.1436229674273041e-06,2.8361157496875215e-06
72,9.151870829497528e-07,9.262019128007157e-07,8.11680018450281e-07,1.1940048312448876e-06,1.1104191340386808e-06,1.2949838873862138e-06,9.200836125992556e-07,1.6162499678706169e-06,1.6763958680414434e-05,9.437747366331706e-07,2.3974652873550566e-06,6.75872307598327e-05,1.627084028895279e-06,1.5158661286560922e-06,1.1376231239799784e-06,2.841965267968544e-06
73,9.057145734842627e-07,9.147624839074776e-07,8.915136949560518e-07,1.23345661694413e-06,1.1057863080994963e-06,1.2665514903827815e-06,8.890530852242772e-07,1.577804637354733e-06,1.6301953275301716e-05,9.334730956853524e-07,2.468785007859642e-06,7.306123052607642e-05,1.6474582003671618e-06,1.5228889225742188e-06,1.1301037691637162e-06,2.84756071734729e-06
74,8.962632744318762e-07,9.023161005907849e-07,9.804898104862558e-07,1.287376781766429e-06,1.1003327398917878e-06,1.2413632383008938e-06,8.574588160942935e-07,1.5397543520900435e-06,1.5774796412252053e-05,9.214791432537171e-07,2.5348152763535437e-06,7.856746349436968e-05,1.6665820229162943e-06,1.5215816790046325e-06,1.1207118135495523e-06,2.8530642181523256e-06
75,8.869478459031121e-07,8.891484295210593e-07,1.0787448678428107e-06,1.356805851521926e-06,1.0944358325009321e-06,1.2192180460963895e-06,8.255750426595679e-07,1.5021996724058013e-06,1.519805812088537e-05,9.078628852940837e-07,2.594276542467711e-06,8.40085872466437e-05,1.684390174359248e-06,1.5124767122568885e-06,1.1091386914681271e-06,2.8585608995538323e-06
76,8.779248890104478e-07,8.75546258366477e-07,1.1862630963341498e-06,1.4426988815581092e-06,1.088488283974709e-06,1.1998192853685405e-06,7.937518762329375e-07,1.4653006221895883e-06,1.4584279528547459e-05,8.930029818192187e-07,2.6459034208154497e-06,8.92871769519813e-05,1.7008497941417045e-06,1.496561244349413e-06,1.0953444525973554e-06,2.864254062948864e-06
77,8.692709339082766e-07,8.618897821819063e-07,1.3028214554825054e-06,1.5458422876920976e-06,1.0828484579359582e-06,1.1827987768221346e-06,7.624373061985969e-07,1.4293495675088903e-06,1.3944035690266678e-05,8.774424266061752e-07,2.6886509039226443e-06,9.43190614310011e-05,1.715982181933421e-06,1.4749560720674579e-06,1.0796489258957752e-06,2.8705125476173902e-06
78,8.609171222864984e-07,8.48647422067619e-07,1.42795298789676e-06,1.6668284086975242e-06,1.0778463278441402e-06,1.1677552540576772e-06,7.321080494229511e-07,1.3946739403304105e-06,1.3287213967511191e-05,8.617182158261831e-07,2.7218377325731936e-06,9.903889055537477e-05,1.7299245941746366e-06,1.4486560967621594e-06,1.0626546313830786e-06,2.8778077358370862e-06
79,8.526856566259913e-07,8.362931108134348e-07,1.5609380992721252e-06,1.8061410164849735e-06,1.0737823482223422e-06,1.1542847431757004e-06,7.031889414809504e-07,1.3615180028817944e-06,1.2623721672745232e-05,8.462707704939569e-07,2.7451548491667376e-06,0.00010339212875943815,1.7428688052034951e-06,1.418444288622997e-06,1.0451048465884196e-06,2.8865974459502096e-06
80,8.444057622112672e-07,8.252396910397761e-07,1.7008167732390323e-06,1.9642625142377047e-06,1.0708986654775126e-06,1.1419626498257501e-06,6.760062923304201e-07,1.3300399012560786e-06,1.1963429998595889e-05,8.314526621143298e-07,2.758579378945744e-06,0.00010731915856781912,1.7548861602526385e-06,1.3849647649729886e-06,1.0277399829305111e-06,2.8971625987397724e-06
81,8.360224594549895e-07,8.157971192601868e-07,1.8464111514637217e-06,2.1416983466686037e-06,1.0693530044450579e-06,1.1303454494301068e-06,6.5077888149081e-07,1.3003505671977303e-06,1.1315738306588113e-05,8.17565808266846e-07,2.7622689855087164e-06,0.00011074387992093594,1.7658067185586122e-06,1.348898438230237e-06,1.0111689691700011e-06,2.909425807459069e-06
82,8.276306668197276e-07,8.081370777665256e-07,1.996356483891841e-06,2.3389129646307657e-06,1.0692069889951725e-06,1.1190230349324102e-06,6.276496422981659e-07,1.27252877498426e-06,1.068917587036706e-05,8.048866712136782e-07,2.7564877121645502e-06,0.00011357591869528289,1.7752245735536301e-06,1.3110802043125905e-06,9.957960007690906e-07,2.922865034818992e-06
83,8.19467806993645e-07,8.022967579999515e-07,2.1491425626135855e-06,2.5562028553854784e-06,1.0704158605068985e-06,1.1076523200657715e-06,6.067353554687583e-07,1.2466845628061708e-06,1.0091117057027273e-05,7.936872238452112e-07,2.741533056178225e-06,0.00011572550995989027,1.7825987460353014e-06,1.2724198664088846e-06,9.818245239920062e-07,2.936655337883104e-06
84,8.119072496528078e-07,7.982193236719747e-07,2.303169071424073e-06,2.793525539279967e-06,1.0728092699781166e-06,1.0959512466509352e-06,5.881431463087728e-07,1.223046161957452e-06,9.527472272086354e-06,7.842612894186259e-07,2.7176129866922583e-06,0.00011712066396315443,1.7873807405245174e-06,1.233724990737879e-06,9.693156775427357e-07,2.9499561250255246e-06
85,8.05426908360148e-07,7.957680792538231e-07,2.4568287489480954e-06,3.050345021726362e-06,1.0760689144172423e-06,1.083686135401392e-06,5.719415172090341e-07,1.2019382818054222e-06,9.00241889179363e-06,7.769458907187712e-07,2.684761331063862e-06,0.00011771293690961238,1.7891075332525927e-06,1.1956184899990314e-06,9.58284402455939e-07,2.9620762989826084e-06
86,8.005336586906515e-07,7.94701718325376e-07,2.6086169693984387e-06,3.3255573711068808e-06,1.0797433887293787e-06,1.070658457802226e-06,5.581340082161404e-07,1.183681704707142e-06,8.51851126178955e-06,7.720939433496306e-07,2.642889531737886e-06,0.00011746770992182902,1.7875059930431147e-06,1.1586099725786037e-06,9.488130704531899e-07,2.972419650379309e-06
87,7.976817859454809e-07,7.946783246443839e-07,2.7571833338872984e-06,3.617503539962492e-06,1.0833202279837888e-06,1.0566967731574374e-06,5.466685943778107e-07,1.1685613101730236e-06,8.077267416366812e-06,7.700229745420973e-07,2.591891781464718e-06,0.00011635511590090582,1.7826299570863116e-06,1.123205151140356e-06,9.410917375542273e-07,2.980356129377509e-06
88,7.97220360881851e-07,7.953281434049703e-07,2.9012079565555904e-06,3.924063520805446e-06,1.086276355748915e-06,1.0416593200513642e-06,5.374762472714059e-07,1.1568535966983646e-06,7.67977149203655e-06,7.710023061238021e-07,2.5317490476410273e-06,0.00011435925268295835,1.774872531092474e-06,1.0899018991208353e-06,9.353325729988245e-07,2.9851802067467157e-06
89,7.993645990747379e-07,7.963474134028882e-07,3.0391701604136738e-06,4.242827238850662e-06,1.0880439224049445e-06,1.0254185919645498e-06,5.305227444231813e-07,1.1487906768292147e-06,7.3267564944705495e-06,7.752482122791364e-07,2.462677880428259e-06,0.0001114985625948324,1.7647788793471319e-06,1.0591111912687093e-06,9.316784095246144e-07,2.9862097244316616e-06
90,8.04185677373825e-07,7.975435695072188e-07,3.169271016001972e-06,4.571308070846203e-06,1.0879812568423906e-06,1.0078460270687512e-06,5.258266147035602e-07,1.144465445146059e-06,7.018188536294911e-06,7.828951615570081e-07,2.3852381304545455e-06,0.00010783825314990365,1.752869922394078e-06,1.0311530243496965e-06,9.30225708001343e-07,2.9829537520830817e-06
91,8.116134111744879e-07,7.988144690742143e-07,3.2896607252668236e-06,4.90712498950311e-06,1.0854686379120847e-06,9.888556192499957e-07,5.234126652901386e-07,1.14379093729414e-06,6.752912943351901e-06,7.939838497762245e-07,2.300308787138517e-06,0.00010348731209425389,1.7396410981909708e-06,1.0063192489022126e-06,9.311021095270489e-07,2.9752203724742776e-06
92,8.21433417430764e-07,8.000897023590374e-07,3.398879682506154e-06,5.248019143611659e-06,1.0801115332687825e-06,9.684508043617974e-07,5.23250054399452e-07,1.146544471728899e-06,6.528816234807143e-06,8.084917651793416e-07,2.209062523842449e-06,9.858373923864293e-05,1.7255967438633601e-06,9.849051394865342e-07,9.344732403602296e-07,2.96308967173038e-06
93,8.332883714508496e-07,8.012652121614214e-07,3.4963088528351645e-06,5.59160950161369e-06,1.0719246551739255e-06,9.466728779962948e-07,5.252260129846375e-07,1.1524163190775196e-06,6.343373980744983e-06,8.26358890480976e-07,2.1130253482170047e-06,9.3274977441817e-05,1.711173690792442e-06,9.672016937251436e-07,9.404666427072819e-07,2.946736363616234e-06
94,8.466951539128885e-07,8.021707624379664e-07,3.582418898955088e-06,5.935011596998448e-06,1.0613783864037345e-06,9.234858848370653e-07,5.291516587918401e-07,1.1609952964236101e-06,6.194148160776978e-06,8.474588529470403e-07,2.0140466022220687e-06,8.770095933409769e-05,1.696656374717652e-06,9.534602209828917e-07,9.491036684961206e-07,2.9261927545588853e-06
95,8.610611256250096e-07,8.02621971769135e-07,3.6587021853868052e-06,6.2745740807046755e-06,1.049287158551929e-06,8.987176115377802e-07,5.347844778167878e-07,1.1717167538378846e-06,6.0789526573233475e-06,8.715548921318955e-07,1.9140629996721907e-06,8.198502117692967e-05,1.6822207695053483e-06,9.438199053411885e-07,9.602920408970228e-07,2.901274722036655e-06
96,8.757328212582927e-07,8.025527059998539e-07,3.727334724120815e-06,6.605800558070469e-06,1.0366214636204368e-06,8.721399467687228e-07,5.418669296921523e-07,1.1838478141881536e-06,5.995677829105767e-06,8.98301720539803e-07,1.8148379476167847e-06,7.623250254076064e-05,1.668043361205123e-06,9.38238466877208e-07,9.738399496419884e-07,2.8717486317769925e-06
97,8.901180427344122e-07,8.021378415894436e-07,3.790703816472901e-06,6.923288075708461e-06,1.0243344051089569e-06,8.436671951432345e-07,5.50168154763281e-07,1.196525347835494e-06,5.9419287970737986e-06,9.272714127527752e-07,1.7178574716169996e-06,7.053244730170903e-05,1.6543290540445644e-06,9.364833513996464e-07,9.894505239489223e-07,2.8375506936164082e-06
98,9.038074677482644e-07,8.018069675723275e-07,3.850937794611215e-06,7.220681351842866e-06,1.0132399351717838e-06,8.1350009901027e-07,5.59488332193643e-07,1.2087989444019095e-06,5.914639181599584e-06,9.579653969055591e-07,1.6243222037908897e-06,6.495906795654318e-05,1.6412335540197952e-06,9.381929477284825e-07,1.0067161772924254e-06,2.798903187786854e-06
99,9.165936809556025e-07,8.021376769044655e-07,3.909560485945092e-06,7.491040558619552e-06,1.0039497036091554e-06,7.820703804554789e-07,5.696087142084019e-07,1.219722837434658e-06,5.909837673764209e-06,9.898260366039788e-07,1.53515824057117e-06,5.957265071781151e-05,1.6287521887168325e-06,9.429452119810158e-07,1.0251355479549225e-06,2.7563477933077417e-06
100,9.283776048166838e-07,8.037331449245994e-07,3.967342423724532e-06,7.727894883408086e-06,9.968670085560476e-07,7.498963200893006e-07,5.802340983679945e-07,1.2286002356747345e-06,5.9227178676487745e-06,1.0222419999358125e-06,1.4510705359248466e-06,5.442020943119365e-05,1.6166482971824323e-06,9.502645896283314e-07,1.0441533880664646e-06,2.7107765710865255e-06
101,9.390351946452532e-07,8.071688157350468e-07,4.024299648210344e-06,7.926614626880588e-06,9.922220208056228e-07,7.175210695313828e-07,5.90997633855757e-07,1.2352674182628725e-06,5.947953651905063e-06,1.0545452949621284e-06,1.372607141236035e-06,4.953613065720972e-05,1.6044890951605854e-06,9.596154487689577e-07,1.0632343427523223e-06,2.663520931183755e-06
102,9.483637413106802e-07,8.12961707406006e-07,4.079704666490845e-06,8.085422404836608e-06,9.90115638168196e-07,6.854968809783322e-07,6.015495618696637e-07,1.24013926550637e-06,5.9801520054771855e-06,1.0860725421161771e-06,1.3001984909125627e-06,4.49432917026599e-05,1.5918012064699734e-06,9.704513914098342e-07,1.0819279095272751e-06,2.616465128468352e-06
103,9.561789105850651e-07,8.215167719345984e-07,4.132068106368598e-06,8.205605707335444e-06,9.9053390490923e-07,6.543320461422017e-07,6.116625291413291e-07,1.243951284536104e-06,6.014461954612079e-06,1.1163065940888906e-06,1.2342086396341592e-06,4.065478742803886e-05,1.5782357500944648e-06,9.822599728668238e-07,1.0998509409415057e-06,2.57203223877468e-06
104,9.624888749372176e-07,8.330813047918143e-07,4.179218249064995e-06,8.290879601975854e-06,9.933291950323035e-07,6.244434764694218e-07,6.212509597760457e-07,1.2474248443766906e-06,6.0472179220401365e-06,1.1449567137152397e-06,1.1749730273903743e-06,3.667565907272732e-05,1.5635956287306559e-06,9.945429332754015e-07,1.11663175497286e-06,2.5329270520094387e-06
105,9.675876788810818e-07,8.477241951946033e-07,4.218582229804024e-06,8.346126158904864e-06,9.982242664009142e-07,5.961567022059735e-07,6.302945571652203e-07,1.2510812979211308e-06,6.076245711256875e-06,1.1718645600197102e-06,1.1227546568968608e-06,3.3003970120759315e-05,1.5477323856352689e-06,1.0067945989070623e-06,1.131876248725513e-06,2.5017390646641936e-06
106,9.719841057520183e-07,8.653374332170116e-07,4.247600691070673e-06,8.376026047280002e-06,1.0048750718107416e-06,5.697262869687403e-07,6.387604809038691e-07,1.2552165647413086e-06,6.100532149133355e-06,1.1968431917613073e-06,1.077657529602791e-06,2.9631420958169325e-05,1.53047651866953e-06,1.0185492545499997e-06,1.145147176941127e-06,2.480662734687543e-06
107,9.762448430716088e-07,8.856638653331648e-07,4.2641365973034445e-06,8.384364601863644e-06,1.0129358815701894e-06,5.453660326906537e-07,6.465917134774762e-07,1.259919288306576e-06,6.1194191039062115e-06,1.2196431145310448e-06,1.039581466701102e-06,2.654431162756763e-05,1.5116427146336262e-06,1.0294591176851381e-06,1.1560157503751056e-06,2.471492646978427e-06
108,9.809054441875651e-07,9.083267957611338e-07,4.266779756372836e-06,8.374355372842191e-06,1.02207375763971e-06,5.232803423185228e-07,6.537308586901872e-07,1.2650768668593752e-06,6.132069581427925e-06,1.2400866463351187e-06,1.008219928503792e-06,2.3725281849861627e-05,1.4910147225535412e-06,1.0392999196887525e-06,1.1641954193438272e-06,2.4758134738874328e-06
109,9.864830814579953e-07,9.328268223504633e-07,4.254993981834027e-06,8.349434638125696e-06,1.0319523286041673e-06,5.036547296004225e-07,6.601199084560074e-07,1.27038528937098e-06,6.1378483022885375e-06,1.2582288476047718e-06,9.830599221679216e-07,2.1155418196642517e-05,1.4683696406808692e-06,1.0478824757730597e-06,1.1695968767676224e-06,2.49514467196614e-06
110,9.93485591636292e-07,9.58528847962953e-07,4.229095847295783e-06,8.313901768816486e-06,1.0421970086139967e-06,4.866106972868911e-07,6.656808372410408e-07,1.2753738382561752e-06,6.1372918731990275e-06,1.2743579375863262e-06,9.634049364627962e-07,1.881593147851109e-05,1.4436236939415933e-06,1.0549874946824189e-06,1.1722453882189395e-06,2.530877171548243e-06
111,1.0023670791821134e-06,9.84668866366106e-07,4.190101851609332e-06,8.273294743078413e-06,1.0523311553295554e-06,4.721783212070901e-07,6.703071893577192e-07,1.2794774947829228e-06,6.132776893506538e-06,1.2888044196298735e-06,9.484866862921072e-07,1.6688979602644906e-05,1.4169318085196932e-06,1.060418819761384e-06,1.1721996044195462e-06,2.5841063686337113e-06
112,1.0134958965271156e-06,1.0103569849723222e-06,4.139510661050857e-06,8.234592014832081e-06,1.0617278290364726e-06,4.603006478287026e-07,6.738459065781311e-07,1.2821486567837321e-06,6.1283852276786804e-06,1.3017231408759056e-06,9.376128789326176e-07,1.4757879666317708e-05,1.3885962527967796e-06,1.064107041667837e-06,1.169538203417293e-06,2.655534678076494e-06
113,1.0271617283888143e-06,1.0346020446858964e-06,4.079083728499436e-06,8.206294850089052e-06,1.069670400108259e-06,4.508464737556716e-07,6.760655892327431e-07,1.2828964414556168e-06,6.129112576258353e-06,1.3129956326991757e-06,9.301986525008003e-07,1.3007208994719044e-05,1.3589291468802956e-06,1.0661328691085303e-06,1.1643581596963873e-06,2.7454501770938155e-06
114,1.0435895129535678e-06,1.0564078372613951e-06,4.010662529211253e-06,8.198359910794529e-06,1.075550438484626e-06,4.4362418395012377e-07,6.76667174994225e-07,1.2812422691015423e-06,6.139923079091856e-06,1.3222883692324344e-06,9.25699177750334e-07,1.1423009500502516e-05,1.3282235687966218e-06,1.0666650411467593e-06,1.1567509920390457e-06,2.8537614841711732e-06
115,1.0629663623722538e-06,1.074887227734783e-06,3.935996612445802e-06,8.221851037222203e-06,1.0790755991799749e-06,4.384179533791525e-07,6.753420240637878e-07,1.2767172270852093e-06,6.165056583889504e-06,1.329252084360176e-06,9.23576177961169e-07,9.992995089674423e-06,1.2967712419371996e-06,1.0659509215324305e-06,1.1467644440120816e-06,2.9800555485097764e-06
116,1.0854607274483891e-06,1.0893450393476764e-06,3.856540106611295e-06,8.288242883666597e-06,1.0803156793110498e-06,4.350428196163027e-07,6.718096326105062e-07,1.2689137052457686e-06,6.20765542423581e-06,1.3337462301540207e-06,9.233256979515554e-07,8.706621302044637e-06,1.2648637207718415e-06,1.0644005274072577e-06,1.1344212648788928e-06,3.1235687839346166e-06
117,1.111173790254784e-06,1.099364213738921e-06,3.7733439445673055e-06,8.408528959070987e-06,1.079577869161111e-06,4.333669184378006e-07,6.658431538510502e-07,1.2575144198094496e-06,6.269579937715636e-06,1.3358925637434108e-06,9.245489969933282e-07,7.554928837150996e-06,1.2328256767529962e-06,1.0626168006247469e-06,1.1198521560715312e-06,3.283083606775554e-06
118,1.1400602021710006e-06,1.1048623920917199e-06,3.687206889010493e-06,8.592442685643636e-06,1.0772292005805342e-06,4.3329277437286903e-07,6.573509500281464e-07,1.2423165531281681e-06,6.351293563997925e-06,1.335935718544131e-06,9.2699002587761e-07,6.530127529441597e-06,1.2010706280655788e-06,1.0612883738868837e-06,1.1034325978803136e-06,3.4568611013204242e-06
119,1.1719123531757587e-06,1.1060187126313394e-06,3.5989310207552386e-06,8.848034889514567e-06,1.0735481864919534e-06,4.347588267809353e-07,6.464588348918156e-07,1.2233035622830278e-06,6.451817948407398e-06,1.3341218545136346e-06,9.304551031279265e-07,5.6250063300235156e-06,1.1700861802458306e-06,1.0610317592065056e-06,1.0857811989670732e-06,3.6426464254367296e-06
120,1.2064126452105269e-06,1.1031149733965123e-06,3.509397403402057e-06,9.181562049823376e-06,1.0686402955529196e-06,4.377744508604155e-07,6.334766813744085e-07,1.2007472535893977e-06,6.568898227825981e-06,1.3307010900568045e-06,9.347277317016932e-07,4.832400202586857e-06,1.1403496646012327e-06,1.0622948250984292e-06,1.0676248688324074e-06,3.837705877740126e-06
121,1.2431816677910374e-06,1.0964524880718737e-06,3.4194386089369494e-06,9.597424805303027e-06,1.062423693090942e-06,4.4242727715183367e-07,6.187700378033971e-07,1.1752825022493104e-06,6.699501218911898e-06,1.3259333124619692e-06,9.395997530926669e-07,4.144988254159568e-06,1.1122910133462527e-06,1.0653549293122035e-06,1.0496351246799638e-06,4.0387910933977234e-06
122,1.281778296346948e-06,1.0863581725319962e-06,3.3296823238142524e-06,1.0098015109555599e-05,1.0546635792483115e-06,4.488350437046284e-07,6.026650930617005e-07,1.1479037675864495e-06,6.840541787808668e-06,1.3200675956279688e-06,9.449089111634428e-07,3.5554847364900435e-06,1.0863211045759892e-06,1.0703727123828526e-06,1.0323397367698026e-06,4.241986123984253e-06
123,1.3216786692353326e-06,1.07317409590468e-06,3.2405276808695134e-06,1.0683561244979945e-05,1.0450483864884533e-06,4.5708653675816443e-07,5.854537993306307e-07,1.119864614814897e-06,6.989537764435411e-06,1.3134069980848125e-06,9.504702247507813e-07,3.0569555652334687e-06,1.0628365254464286e-06,1.077444598437899e-06,1.0161211216511578e-06,4.4425736164710634e-06
124,1.36228351849179e-06,1.0572485115527901e-06,3.152310587808979e-06,1.1352113874393604e-05,1.033304215054901e-06,4.672112743730861e-07,5.674464305096207e-07,1.0925166259493554e-06,7.144901810891721e-06,1.3064388812587908e-06,9.559864116417615e-07,2.6429689661276117e-06,1.0422343743596067e-06,1.0866237625562166e-06,1.0012211094107596e-06,4.635173639581282e-06
125,1.4029440706358832e-06,1.0390032022540545e-06,3.065531796998441e-06,1.209970494904059e-05,1.0193164736141726e-06,4.791705952079864e-07,5.489933050594825e-07,1.067164437113713e-06,7.305671279941772e-06,1.2998927314066021e-06,9.610649409203736e-07,2.307588228811359e-06,1.024995885902715e-06,1.0979030156917993e-06,9.87715530806971e-07,4.814347433179414e-06
126,1.4429368831739785e-06,1.019007114674749e-06,2.980906795688715e-06,1.2920607715284704e-05,1.0032149606286236e-06,4.928628404138764e-07,5.304547877208358e-07,1.0449904723941303e-06,7.470771157608103e-06,1.2946583835028671e-06,9.653212640413769e-07,2.0453659956667483e-06,1.0117177363208063e-06,1.1111669375019414e-06,9.754866237008205e-07,4.9755314326358004e-06
127,1.4813623926382047e-06,9.979341076566436e-07,2.899174700425876e-06,1.3807597598045264e-05,9.853604089032883e-07,5.081523680992296e-07,5.121460225880471e-07,1.0270356988889803e-06,7.63840080108132e-06,1.2916142808080664e-06,9.68421079662004e-07,1.8513281066181592e-06,1.0030109580063092e-06,1.126159743076437e-06,9.642192253860607e-07,5.115816871549714e-06
128,1.5170375792888934e-06,9.764291124463514e-07,2.8209159227446384e-06,1.4752072408597517e-05,9.662200481434377e-07,5.249173385475912e-07,4.942937048880849e-07,1.0141947761885405e-06,7.805916992272643e-06,1.2914929045687406e-06,9.700182416950854e-07,1.720817058344159e-06,9.993763560774456e-07,1.1425186214910133e-06,9.534715009238995e-07,5.234127041400685e-06
129,1.5484542285179364e-06,9.550046621195586e-07,2.746632390928378e-06,1.574388978199686e-05,9.462562472950359e-07,5.430815566380635e-07,4.770256070271964e-07,1.0072240757936833e-06,7.969826255372723e-06,1.2948578354058735e-06,9.69732935144013e-07,1.6492435726389562e-06,1.0011393942410935e-06,1.1598549260045414e-06,9.42854749963438e-07,5.330754316788406e-06
130,1.5738259862051496e-06,9.340084124326717e-07,2.676994924307252e-06,1.677094576872024e-05,9.259060994252405e-07,5.625953371809521e-07,4.603827102496752e-07,1.0067939471692272e-06,8.125692754867838e-06,1.302118606269047e-06,9.672654133025795e-07,1.6319202782136207e-06,1.0084421752632104e-06,1.1778418586064415e-06,9.322320635802858e-07,5.406555863721687e-06
131,1.591290135310186e-06,9.136258161342465e-07,2.612937106200686e-06,1.7818684039961296e-05,9.05557182811886e-07,5.833853671876998e-07,4.443409080851584e-07,1.0135846162564303e-06,8.268434747776822e-06,1.3134949862424763e-06,9.625624906757214e-07,1.6639859497487899e-06,1.0212836634866973e-06,1.1962681929874718e-06,9.217881148593518e-07,5.462179764228811e-06
132,1.5993019666024077e-06,8.939187633384443e-07,2.5554590845086028e-06,1.8869601897302593e-05,8.854809337806143e-07,6.053244264063483e-07,4.2886888319808567e-07,1.028370477416961e-06,8.393238475588648e-06,1.3289707578490589e-06,9.559025366884499e-07,1.7403767637406365e-06,1.0395514093450628e-06,1.2150080039478647e-06,9.119302341430243e-07,5.497684350142658e-06
133,1.5970281054605724e-06,8.74912135303147e-07,2.505318937211242e-06,1.9902806239430822e-05,8.65790103944993e-07,6.2824022359259e-07,4.140327845249543e-07,1.0520262542719507e-06,8.496589436788922e-06,1.348300734994875e-06,9.478286785270627e-07,1.8559614648686825e-06,1.0630014594323637e-06,1.2339528463877596e-06,9.031167593241343e-07,5.512653395650129e-06
134,1.584445648033975e-06,8.566861000598198e-07,2.462876671047147e-06,2.089430022110332e-05,8.464272386682715e-07,6.519354354005072e-07,4.0006869109914205e-07,1.0854422950171306e-06,8.57671850437959e-06,1.371041217578281e-06,9.389714984087589e-07,2.0058892389921393e-06,1.0912548671571264e-06,1.2530060932470055e-06,8.957455982161575e-07,5.506498054928751e-06
135,1.5620831796779807e-06,8.394182819308187e-07,2.4281493201605266e-06,2.1818857402191736e-05,8.271685163784899e-07,6.761788493364994e-07,3.873478503825199e-07,1.1294223203345732e-06,8.633223910788304e-06,1.3965850361295944e-06,9.298855917891798e-07,2.185949357336603e-06,1.1238557160445582e-06,1.2721023447455689e-06,8.901595244897728e-07,5.478644478800458e-06
136,1.5306218322802572e-06,8.233548681120556e-07,2.40090357126575e-06,2.2653210870518192e-05,8.076693006943432e-07,7.007079001110026e-07,3.76275392866466e-07,1.1846564863765987e-06,8.666182816601035e-06,1.424227229156934e-06,9.209865815044327e-07,2.392717887740256e-06,1.1603106912440326e-06,1.291163253244503e-06,8.866951461500268e-07,5.42859922598213e-06
137,1.490646172480648e-06,8.087271359982893e-07,2.380715379918507e-06,2.33792714689015e-05,7.875594312682249e-07,7.25303955603399e-07,3.672111657746137e-07,1.2517671137020138e-06,8.67519136171701e-06,1.4532272651599698e-06,9.125847379146009e-07,2.623477727104035e-06,1.2000600880439545e-06,1.3100103517011302e-06,8.856718805135659e-07,5.356062745759736e-06
138,1.442640806837237e-06,7.95663514205447e-07,2.36712838498544e-06,2.3986176241824927e-05,7.665314590651571e-07,7.498591847890248e-07,3.604407826136954e-07,1.331335320790842e-06,8.658607938945129e-06,1.4828672398847465e-06,9.049552305844097e-07,2.8760702481903e-06,1.2424468801841396e-06,1.3282897737988672e-06,8.873414326260948e-07,5.261222888090991e-06
139,1.3870853668470553e-06,7.841580931335666e-07,2.359881035284293e-06,2.4470542985019304e-05,7.443664803111575e-07,7.743277418413419e-07,3.5617317652136416e-07,1.4238481368011085e-06,8.613284308561308e-06,1.512573759269451e-06,8.983924327836848e-07,3.14882644551326e-06,1.286720713708685e-06,1.3454363106463298e-06,8.918885064677787e-07,5.145097174041875e-06
140,1.3245178924284679e-06,7.741118971259595e-07,2.358951727834562e-06,2.483478879152195e-05,7.209557664349654e-07,7.986314364165747e-07,3.5454361584913225e-07,1.5295939293722727e-06,8.535198570444534e-06,1.5420060645195543e-06,8.932368177890526e-07,3.4405764841886613e-06,1.3320425638781722e-06,1.360716353302629e-06,8.99464893214462e-07,5.009642528013948e-06
141,1.2556152954465547e-06,7.653900407376865e-07,2.3643423459343135e-06,2.5083788831443884e-05,6.963845247930384e-07,8.226416903055684e-07,3.556157782969571e-07,1.648571834375333e-06,8.42103489933316e-06,1.5709340726289836e-06,8.89847558175375e-07,3.7506157970791567e-06,1.3774910083200194e-06,1.3733713415183157e-06,9.101676141971361e-07,4.857526689003381e-06
142,1.181371593653932e-06,7.578431063841096e-07,2.3758347518945114e-06,2.522110439221424e-05,6.709757350271608e-07,8.46210546796239e-07,3.593889623319212e-07,1.7804553822676792e-06,8.269931738475324e-06,1.5989944634246803e-06,8.885230203988303e-07,4.078565897372286e-06,1.4220687741114944e-06,1.3828259361365762e-06,9.239671037495847e-07,4.691657744432717e-06
143,1.1033110584146844e-06,7.513197209876164e-07,2.3930008795793618e-06,2.524697881671598e-05,6.452067154702111e-07,8.6916122208125e-07,3.6581686639963956e-07,1.924605576659435e-06,8.084333485883638e-06,1.6255554639527512e-06,8.894499561447454e-07,4.424186300702092e-06,1.4646903585984706e-06,1.3888788434114102e-06,9.406595071783234e-07,4.5146959831146795e-06
144,1.0235606102381612e-06,7.456804920598342e-07,2.415475419611562e-06,2.5159228065514232e-05,6.195903614223785e-07,8.912504137334772e-07,3.748276465185344e-07,2.080097362099832e-06,7.869532502223499e-06,1.6497348468976358e-06,8.927296506426193e-07,4.787197374459681e-06,1.5041991313698293e-06,1.3917515581724015e-06,9.598598325143437e-07,4.328874313879017e-06
145,9.446976654255149e-07,7.407789188969379e-07,2.4432079113425903e-06,2.4955762304704828e-05,5.946014075472066e-07,9.121803940924413e-07,3.863467266550024e-07,2.2457257999318244e-06,7.632349979132948e-06,1.6704999516908876e-06,8.984330498974522e-07,5.167142599610571e-06,1.5394335156190508e-06,1.3919172200436857e-06,9.810114742051799e-07,4.136212562222131e-06
146,8.694945709848252e-07,7.364629276263741e-07,2.4764557464372025e-06,2.4636901322849986e-05,5.706466183025042e-07,9.316736607599663e-07,4.003348473489803e-07,2.420003417730813e-06,7.379726969665586e-06,1.686852105386908e-06,9.066081248123787e-07,5.563323185225941e-06,1.569292355066458e-06,1.3898146585913339e-06,1.0034368612341512e-06,3.938793704570582e-06
147,8.007379810608326e-07,7.32647411197781e-07,2.515559181687338e-06,2.420677170035334e-05,5.480676043217223e-07,9.495332662760814e-07,4.168073188984507e-07,2.601212035095023e-06,7.117730488587818e-06,1.6980680439270233e-06,9.172566440333217e-07,5.974800193766437e-06,1.5928332976550485e-06,1.3856496980429388e-06,1.0264892533209136e-06,3.7388316950083555e-06
148,7.411642437833015e-07,7.29358465054881e-07,2.5606715428097955e-06,2.3673842678845206e-05,5.27141032052176e-07,9.656133703944735e-07,4.35796563867765e-07,2.7875588696028227e-06,6.8510429260042735e-06,1.7038162470961527e-06,9.303341885842886e-07,6.40037187020736e-06,1.6094263947377312e-06,1.3793696338668168e-06,1.0497524924693803e-06,3.538592942590811e-06
149,6.934388422541985e-07,7.266839298618151e-07,2.611582424622696e-06,2.3050801754236133e-05,5.080625734561404e-07,9.797310453493663e-07,4.573020231479128e-07,2.9773890825567226e-06,6.582763274434301e-06,1.704017301995608e-06,9.457393825511206e-07,6.838426407835532e-06,1.6188186224785135e-06,1.3707603158647959e-06,1.0730970372595786e-06,3.3402862791686056e-06
150,6.601526229177073e-07,7.247078496530509e-07,2.667712530597783e-06,2.2354015989827033e-05,4.909497379085996e-07,9.91647269537038e-07,4.812823717503807e-07,3.1693189834725193e-06,6.3143659170717394e-06,1.6986125225838514e-06,9.632859849727895e-07,7.286643954012064e-06,1.6209995082344724e-06,1.3595833612583308e-06,1.0965219357364844e-06,3.145928728297667e-06
151,6.438833891794865e-07,7.234776582902915e-07,2.7282379847059064e-06,2.1602836550848044e-05,4.758841449229444e-07,1.0011736934370658e-06,5.076654568652956e-07,3.3621764920208735e-06,6.045811790252533e-06,1.6875342445815214e-06,9.82712630352351e-07,7.741594287037632e-06,1.6159830613846514e-06,1.345689383674446e-06,1.1199509111537604e-06,2.957190830179386e-06
152,6.47327292827822e-07,7.229823090806575e-07,2.792168034696869e-06,2.081875332921472e-05,4.6296593715946364e-07,1.008285418870986e-06,5.363426293787831e-07,3.554740645878292e-06,5.775948067556564e-06,1.6709198294340614e-06,1.0037342408970025e-06,8.198362637159032e-06,1.6037127199554486e-06,1.3290672880434314e-06,1.1431470363652068e-06,2.77529886328028e-06
153,6.733987738674583e-07,7.23136848212346e-07,2.858271453467063e-06,2.0024038672939278e-05,4.523278669350675e-07,1.0130968378397255e-06,5.671555661561813e-07,3.7453838541309075e-06,5.503295694256481e-06,1.6493349742641378e-06,1.0261065874065283e-06,8.650399910577396e-06,1.5841477790358727e-06,1.3098204496597022e-06,1.1657709705841767e-06,2.601066545770801e-06
154,7.252013916297997e-07,7.237833521881293e-07,2.9250225541135742e-06,1.9239864300511982e-05,4.440957626258494e-07,1.0157399454669773e-06,5.99880195329148e-07,3.931776700255187e-06,5.2270494752131365e-06,1.623816520349413e-06,1.0496648898120917e-06,9.08985694590807e-06,1.5574199571677311e-06,1.2881258841453922e-06,1.1875145417362666e-06,2.4349916030529435e-06
155,8.059079502066788e-07,7.247016911177327e-07,2.9907900734330377e-06,1.848493342869253e-05,4.3834123597228384e-07,1.0163014967859672e-06,6.34218611602099e-07,4.110763299403754e-06,4.947863910690559e-06,1.5957386502447235e-06,1.0742889615800017e-06,9.508527738539595e-06,1.5239562103369058e-06,1.2642570671428713e-06,1.2081650891196043e-06,2.277288425442687e-06
156,9.186584605176355e-07,7.256161177850311e-07,3.05418198625071e-06,1.7775602012850518e-05,4.350634313927729e-07,1.0148779182085395e-06,6.698200283733182e-07,4.278465763657441e-06,4.668058412471077e-06,1.5666036495223072e-06,1.0998117439097758e-06,9.898950608080719e-06,1.4845187340604965e-06,1.238648547678252e-06,1.227542165768456e-06,2.127901629533354e-06
157,1.066501287891775e-06,7.262133893500223e-07,3.1142806791243185e-06,1.7126957810211693e-05,4.341969896068094e-07,1.0116868650827124e-06,7.063151594867022e-07,4.430694933523496e-06,4.391215951137113e-06,1.537852996969804e-06,1.1259631887598722e-06,1.0254783925178674e-05,1.4401346007824966e-06,1.211907912279001e-06,1.245422775816057e-06,1.9866746213734332e-06
158,1.2523574453677948e-06,7.26181186618896e-07,3.1706543428100864e-06,1.6553716163793466e-05,4.3563856455736127e-07,1.0071451816972874e-06,7.433250134144236e-07,4.563614663782605e-06,4.1214726407815185e-06,1.510747421971453e-06,1.152389844068622e-06,1.0570215440323102e-05,1.3919575215898785e-06,1.1847555430120343e-06,1.261509832979144e-06,1.8536443407893994e-06
159,1.4790062276326792e-06,7.252209597941369e-07,3.2232134199518177e-06,1.607048740888286e-05,4.3927311435932266e-07,1.001830774410367e-06,7.804508753808675e-07,4.674311817988055e-06,3.8628478503257615e-06,1.4863297890092738e-06,1.1786703239581678e-06,1.083970448648553e-05,1.3411319464288276e-06,1.1579305775601186e-06,1.2754042329100564e-06,1.7291912717167263e-06
160,1.749071189968102e-06,7.230417880683738e-07,3.272019453325524e-06,1.5691413346023394e-05,4.4497255639291333e-07,9.963292255876023e-07,8.172987394929402e-07,4.760837750645586e-06,3.6188062821197934e-06,1.465450935274208e-06,1.2042623227252613e-06,1.1059606574651647e-05,1.288693328699464e-06,1.1320817456951198e-06,1.2866470163057355e-06,1.6139020133742504e-06
161,2.0650377213690705e-06,7.194206880324108e-07,3.3171113158610023e-06,1.5429253871503956e-05,4.5258628687046874e-07,9.910796583479821e-07,8.53534086900653e-07,4.821669998318386e-06,3.3920733486245695e-06,1.4487962580467763e-06,1.2284518396806707e-06,1.1231035909604325e-05,1.2355472082944786e-06,1.1076852793013316e-06,1.2948366044289973e-06,1.5083400548712586e-06
162,2.429354541254005e-06,7.143100396691222e-07,3.35840045047118e-06,1.5294332444169788e-05,4.6195473735480866e-07,9.863129695035549e-07,8.888943754121201e-07,4.855118653138727e-06,3.1846348439865603e-06,1.4368722260961404e-06,1.250420435572473e-06,1.1361375326100964e-05,1.1825088692420744e-06,1.0850324324241483e-06,1.2996616726531908e-06,1.412972666089918e-06
163,2.844510913202173e-06,7.078528232849862e-07,3.395658940929799e-06,1.5293923045325216e-05,4.729214843547428e-07,9.820696096250094e-07,9.231429784849558e-07,4.859272027414119e-06,2.9978468915945022e-06,1.4299774570985514e-06,1.269392601964737e-06,1.1462895873040228e-05,1.1302991776794944e-06,1.0642538578505485e-06,1.3008834116145874e-06,1.328217895810727e-06
164,3.3129520686859307e-06,7.00284335803912e-07,3.4285025160673524e-06,1.5432140141316392e-05,4.853165197936769e-07,9.7825912726047e-07,9.560182829076698e-07,4.832506351408972e-06,2.8325702370593996e-06,1.4281813315809205e-06,1.2846974111994176e-06,1.154994445679018e-05,1.079514259042317e-06,1.0453574576147955e-06,1.2984052595279578e-06,1.2544445219838178e-06
165,3.836899001227081e-06,6.918549781485279e-07,3.45625663544281e-06,1.570987364463353e-05,4.989410317152529e-07,9.747529752352792e-07,9.871975494132353e-07,4.774137676197646e-06,2.689230169333094e-06,1.4313224776593657e-06,1.2957695785111521e-06,1.1637054844355728e-05,1.0306668066708128e-06,1.0282899666720188e-06,1.2923207865433938e-06,1.1919224050078815e-06
166,4.418203043775671e-06,6.828268499672735e-07,3.4778351232517297e-06,1.6124571295095707e-05,5.136082379558542e-07,9.714832451826493e-07,1.0162641622095383e-06,4.684863289465426e-06,2.567811404853928e-06,1.4390825811202956e-06,1.3022235700665825e-06,1.1738144925075331e-05,9.842557623452988e-07,1.012990453099762e-06,1.2828406099270725e-06,1.1407988850098267e-06
167,5.05821129472839e-06,6.73468805575481e-07,3.491862486424334e-06,1.667004378748144e-05,5.292348356956205e-07,9.68473959472974e-07,1.0427256539094167e-06,4.566866553109415e-06,2.4678779060197425e-06,1.4511375269288234e-06,1.3039037887403963e-06,1.1865928468163173e-05,9.407863385868311e-07,9.9943085409903e-07,1.2702132166093204e-06,1.101101343066954e-06
168,5.757564312100093e-06,6.64036574264934e-07,3.4970073879663155e-06,1.733634025727752e-05,5.458928960156341e-07,9.65771252559245e-07,1.0661152125553391e-06,4.423613247974317e-06,2.3886631986491176e-06,1.4672525524387738e-06,1.3008654364887934e-06,1.2031636502846065e-05,9.007589599935643e-07,9.876717000667605e-07,1.2547266594325277e-06,1.072739572582308e-06
169,6.515974708439946e-06,6.547837284604741e-07,3.492296238329297e-06,1.8109636647950222e-05,5.63768695829628e-07,9.633633858696979e-07,1.086069320552687e-06,4.259460602960944e-06,2.329258866716261e-06,1.4872075593975184e-06,1.2934493349076303e-06,1.2245014567988677e-05,8.646419558642133e-07,9.778870051542159e-07,1.2367042515945439e-06,1.0554958523723562e-06
170,7.3320571996227385e-06,6.459801344912336e-07,3.4772615710935118e-06,1.897222447677017e-05,5.830869096281672e-07,9.611844128660971e-07,1.102290608863075e-06,4.079199995637724e-06,2.288823983899809e-06,1.5106469897296366e-06,1.2824045961352724e-06,1.2514035109388879e-05,8.328182021514584e-07,9.703044226482633e-07,1.2164032624037549e-06,1.0490178609639995e-06
171,8.203168494416952e-06,6.379276191480436e-07,3.451929870627809e-06,1.9902605326328976e-05,6.040545136749053e-07,9.591618241989768e-07,1.1144882504977723e-06,3.8875889235802205e-06,2.2666051415809244e-06,1.5370539480273245e-06,1.2688324304133228e-06,1.2844371823609136e-05,8.055425422577674e-07,9.651116465263958e-07,1.1939140638540273e-06,1.0528466253526282e-06
172,9.125318272903172e-06,6.31011784382156e-07,3.4167262465858084e-06,2.0875467933084037e-05,6.268232078410681e-07,9.572349290615254e-07,1.1223921018657874e-06,3.6889324882690584e-06,2.2617378102574747e-06,1.5658416273898647e-06,1.2539390011409165e-06,1.3239098047172413e-05,7.829519483166694e-07,9.623975975613787e-07,1.1691994674073392e-06,1.0664620049545664e-06
173,1.009340884487865e-05,6.257345714138127e-07,3.3723696224221877e-06,2.1861683274631878e-05,6.514672417164121e-07,9.553321199203677e-07,1.1257696847842365e-06,3.486842730996361e-06,2.2730394146657053e-06,1.5963973984852376e-06,1.2388150404824264e-06,1.3699061739932957e-05,7.650959519457903e-07,9.621222404663415e-07,1.1422457683799335e-06,1.089277782948058e-06
174,1.1101797131562329e-05,6.226476043823503e-07,3.3197827683625074e-06,2.282922586033602e-05,6.77973061161968e-07,9.533332747245638e-07,1.1243788809406219e-06,3.2842294540325106e-06,2.2989249790307755e-06,1.6280784706139506e-06,1.2243918082862302e-06,1.4224618831122267e-05,7.519269038152933e-07,9.641037479012212e-07,1.113187239990347e-06,1.1205667520114945e-06
175,1.2144655759496804e-05,6.222430474333751e-07,3.259961961840856e-06,2.37457701769575e-05,7.062540327430866e-07,9.510733571911919e-07,1.1179536770119816e-06,3.0834136664615794e-06,2.337404656136501e-06,1.6602387163877338e-06,1.2114991097826326e-06,1.48186046504277e-05,7.432637244161197e-07,9.680626953325417e-07,1.0823202883077907e-06,1.1593850632889754e-06
176,1.3215597937229918e-05,6.248950003120733e-07,3.193754194966397e-06,2.4582436182929927e-05,7.361952574389991e-07,9.484221644248119e-07,1.1063097863320418e-06,2.886269049622555e-06,2.386119658757489e-06,1.6922530693929892e-06,1.2008876002268677e-06,1.5488492217523923e-05,7.387743920547256e-07,9.737469548777162e-07,1.0500329078520657e-06,1.2045558935715982e-06
177,1.4306703485285209e-05,6.308588802227286e-07,3.121671313596846e-06,2.5317234701760385e-05,7.676712913533306e-07,9.453880565727064e-07,1.0894943548251399e-06,2.694377102133847e-06,2.4424508875068986e-06,1.7235214272011752e-06,1.1931853075178552e-06,1.6245690606740578e-05,7.379857851680807e-07,9.810414594765904e-07,1.0167112248992654e-06,1.254697922080372e-06
178,1.5407794280834115e-05,6.402918796711591e-07,3.0439510572975637e-06,2.5936861127490546e-05,8.004965544313488e-07,9.421516901633908e-07,1.0678731200334998e-06,2.5091304320177844e-06,2.503746655786952e-06,1.7534905406902688e-06,1.1888433864364498e-06,1.7102878974992864e-05,7.403326588804721e-07,9.89928953723571e-07,9.826818634595076e-07,1.308269693662441e-06
179,1.6506526906288448e-05,6.532614608967154e-07,2.9608663137526468e-06,2.6436152658828032e-05,8.343629141602287e-07,9.389943774526068e-07,1.0421200799250924e-06,2.3316949192643564e-06,2.5676373125930667e-06,1.7816805800428464e-06,1.1881179534422068e-06,1.8072064537248852e-05,7.452272208428426e-07,1.0003522128330436e-06,9.482587909356324e-07,1.3636713986663076e-06
180,1.758886599090482e-05,6.69731597065367e-07,2.8730961885079477e-06,2.6815387979770175e-05,8.688421523916595e-07,9.361886041818591e-07,1.0131061443641244e-06,2.162866512245764e-06,2.632297800007422e-06,1.8076994005972618e-06,1.1910827524492195e-06,1.916394410579366e-05,7.520933801703369e-07,1.0121599791897068e-06,9.138875435262465e-07,1.4194444681698744e-06
181,1.863919718091264e-05,6.895480305193213e-07,2.7819538188701796e-06,2.7076363279720175e-05,9.034350589531881e-07,9.339446764923752e-07,9.81727697193219e-07,2.0029702970639445e-06,2.6965132749402845e-06,1.8312899703272236e-06,1.1976481213637409e-06,2.038731448752632e-05,7.603988095509583e-07,1.0251614412262986e-06,8.802432760574805e-07,1.4744215416411924e-06
182,1.963979354697282e-05,7.124527249140211e-07,2.6893119257966906e-06,2.721885829764978e-05,9.375875873361447e-07,9.324106655398974e-07,9.487807889077529e-07,1.8519145242844912e-06,2.7595422107362965e-06,1.8524208040225333e-06,1.2075780511008469e-06,2.174887407469799e-05,7.697291317061532e-07,1.0391566805634604e-06,8.481657636951815e-07,1.5276950277290208e-06
183,2.0570043184749164e-05,7.381173155155908e-07,2.5972380575856815e-06,2.7239397689778974e-05,9.706956870193193e-07,9.31655445865631e-07,9.149301721306848e-07,1.7093925610235392e-06,2.820881423658098e-06,1.8713104695584818e-06,1.2204928755781393e-06,2.3254425704878685e-05,7.798197496868917e-07,1.053923303878569e-06,8.184979046913254e-07,1.5786207507601762e-06
184,2.14066797934567e-05,7.661468889011271e-07,2.50757301588966e-06,2.7132825157552025e-05,1.0021682642237734e-06,9.31620526009299e-07,8.807081031591121e-07,1.5751285605518314e-06,2.8800263711900878e-06,1.8882945055607208e-06,1.2358614893941114e-06,2.491038535482388e-05,7.90498683193737e-07,1.0692542852550172e-06,7.919692970252811e-07,1.6270037811166827e-06
185,2.2126039080898763e-05,7.96060175320032e-07,2.4216805817484017e-06,2.6895103601006428e-05,1.0314953088680816e-06,9.320942666134928e-07,8.465088090168238e-07,1.4490431850574414e-06,2.936297762782195e-06,1.9036172453857526e-06,1.2530195850145562e-06,2.6723850541409223e-05,8.016218842385076e-07,1.0850361197842964e-06,7.691646668882621e-07,1.6731694895001e-06
186,2.2707636484756567e-05,8.273116359607803e-07,2.3403841728314618e-06,2.6525583408742893e-05,1.0582495171386125e-06,9.327611064121456e-07,8.126213028978005e-07,1.3312761836909144e-06,2.988761537528736e-06,1.9172812141184644e-06,1.2712110762760088e-06,2.8701030586005976e-05,8.130404454412513e-07,1.101272424813253e-06,7.50527101774285e-07,1.7177325889191543e-06
187,2.3136972485955323e-05,8.593498566465186e-07,2.263985937851499e-06,2.6028151691447982e-05,1.082068876328535e-06,9.333181728868959e-07,7.79310663982816e-07,1.2220896167304979e-06,3.0362546394218185e-06,1.9289687691101005e-06,1.2896611075039577e-06,3.084492995986702e-05,8.245792225259247e-07,1.1180275907725426e-06,7.363640546401148e-07,1.7612917975416907e-06
188,2.3405656841414583e-05,8.916475451893699e-07,2.1923063637389876e-06,2.5411355075208312e-05,1.102687668534249e-06,9.335872678423132e-07,7.469015141015103e-07,1.121733034073247e-06,3.0776032162188464e-06,1.9380208975383655e-06,1.307722274410966e-06,3.315317531254413e-05,8.36062579143931e-07,1.1353253877603442e-06,7.268569700949551e-07,1.8042481664713269e-06
189,2.3508736709571646e-05,9.23737725293818e-07,2.124741642939188e-06,2.468785345139217e-05,1.1199991110414501e-06,9.335602634064802e-07,7.158123518020139e-07,1.0303497389022552e-06,3.1119515454563173e-06,1.943518685363952e-06,1.32500880442119e-06,3.56164446244741e-05,8.474023551270428e-07,1.1530661957365804e-06,7.220671478180232e-07,1.8467172134064531e-06
190,2.3441913632155775e-05,9.552958329824827e-07,2.0603307031197057e-06,2.3873629869070682e-05,1.1340836193314066e-06,9.333731379721075e-07,6.865172133278972e-07,9.479429469999707e-07,3.1388542736996075e-06,1.9445019924110043e-06,1.3413838825427907e-06,3.8217607102253144e-05,8.586429510333326e-07,1.1710325460742255e-06,7.219318453405585e-07,1.8884986841262953e-06
191,2.3201976662074992e-05,9.861471502444015e-07,1.997813504425717e-06,2.2987162972761563e-05,1.145157710277993e-06,9.332281811132063e-07,6.59459545963674e-07,8.743819255762884e-07,3.1580415450325755e-06,1.94026336247861e-06,1.3568161785673157e-06,4.0931502073418524e-05,8.699054201278536e-07,1.188959310081574e-06,7.262764260264438e-07,1.929142872102622e-06
192,2.2790366908311053e-05,1.0161371723747308e-06,1.9357758969845403e-06,2.2048554634844087e-05,1.1534557568479828e-06,9.333073975641416e-07,6.349837503703236e-07,8.094460954185792e-07,3.169201420871669e-06,1.930542318900136e-06,1.3712462554618804e-06,4.372503776279385e-05,8.813436882557838e-07,1.2065761267678902e-06,7.348751275947513e-07,1.9680828343979916e-06
193,2.2216595628236808e-05,1.0450093306015506e-06,1.8730113035939043e-06,2.107855613656238e-05,1.1591288200674064e-06,9.337399218351659e-07,6.133330568257348e-07,7.528879706657499e-07,3.1720652996572435e-06,1.9154962632254342e-06,1.3845801068407205e-06,4.655764898636066e-05,8.931773704484489e-07,1.2236015457683978e-06,7.475374618659398e-07,2.0047135329280716e-06
194,2.1498886281996882e-05,1.072403337542703e-06,1.808980936720958e-06,2.0097411863264384e-05,1.162261362458012e-06,9.346136209848549e-07,5.946905464893166e-07,7.044548997654849e-07,3.166734803879356e-06,1.895530933065147e-06,1.3967455940971931e-06,4.9383847798438404e-05,9.056907794618052e-07,1.2397260765832318e-06,7.641507325399945e-07,2.0383887998934948e-06
195,2.0661730908490027e-05,1.097915384917171e-06,1.744041506020792e-06,1.9123514401145086e-05,1.1629935434616593e-06,9.359734554789433e-07,5.792049557487427e-07,6.638496921287987e-07,3.15395677944399e-06,1.871130202474249e-06,1.4076608450404804e-06,5.215991549409565e-05,9.191383877972782e-07,1.2545782489421021e-06,7.846403934370953e-07,2.068419876939088e-06
196,1.9731736320345582e-05,1.1211140426703464e-06,1.6792476678634137e-06,1.8172144093368352e-05,1.161596019199835e-06,9.378236696613527e-07,5.66990992507596e-07,6.306806335211098e-07,3.135041037758064e-06,1.8427649254947595e-06,1.4171475216604217e-06,5.485278474740953e-05,9.33653431593471e-07,1.2676634566541461e-06,8.08888027687639e-07,2.0940873327009077e-06
197,1.873388890375364e-05,1.1415046487985072e-06,1.6159327686782361e-06,1.7254758080913478e-05,1.1583935246371384e-06,9.401446011534225e-07,5.581236911746356e-07,6.044396283250351e-07,3.1114318577337345e-06,1.810945394153817e-06,1.4249428830949544e-06,5.7445288284930355e-05,9.492457771614563e-07,1.2783327882642108e-06,8.367102196732427e-07,2.1145865118113173e-06
198,1.7689751386973345e-05,1.1585392065418397e-06,1.5554159975672703e-06,1.63791357644779e-05,1.1536330146056016e-06,9.428792955091e-07,5.526214159168348e-07,5.84495869488228e-07,3.0843461614072444e-06,1.7763576279426665e-06,1.4308289701862826e-06,5.993405401255932e-05,9.658588128395024e-07,1.2858415224826393e-06,8.679482589506591e-07,2.1289425649537217e-06
199,1.6617478593568405e-05,1.171731739739e-06,1.4988815549188643e-06,1.555022247249754e-05,1.1474223200809256e-06,9.459324167572655e-07,5.50416817091786e-07,5.70102670487034e-07,3.054720993997409e-06,1.7398973707661911e-06,1.4347319418714209e-06,6.232169295091716e-05,9.834053952611125e-07,1.2894814742892343e-06,9.025645119378921e-07,2.1360711583917226e-06
200,1.5532552435792708e-05,1.1807929969624816e-06,1.4472930668714118e-06,1.4771133302175572e-05,1.1397540523168266e-06,9.492476351145782e-07,5.513359548654592e-07,5.604463428009557e-07,3.0232150803469762e-06,1.7025367763744182e-06,1.4366668022560058e-06,6.460905055124217e-05,1.0017640856022298e-06,1.2887328015051526e-06,9.406166059890679e-07,2.135041679044077e-06
201,1.4448453273522425e-05,1.1856411900365425e-06,1.401319391022601e-06,1.4043915136226294e-05,1.1306057262337888e-06,9.529016643743842e-07,5.550946014243648e-07,5.547361820020955e-07,2.9900810272338614e-06,1.665152369726667e-06,1.4366084622031582e-06,6.679451224652589e-05,1.0207998581764708e-06,1.28337998963361e-06,9.821308117764331e-07,2.125387037931206e-06
202,1.3377045906537243e-05,1.186294347596567e-06,1.36130974888226e-06,1.3370013724276253e-05,1.1200748484978086e-06,9.571265391263112e-07,5.613128624513209e-07,5.522930605704143e-07,2.9551374604002483e-06,1.6284430098634357e-06,1.4344792420947341e-06,6.888184583093273e-05,1.0404176048768368e-06,1.2735222278861657e-06,1.0269940509331342e-06,2.1072739866999173e-06
203,1.2328642728915764e-05,1.182816656534871e-06,1.3273424945121974e-06,1.275047801869013e-05,1.1084643807893216e-06,9.622457629290082e-07,5.695613780509564e-07,5.526110470018816e-07,2.9180501922842607e-06,1.5929175156270131e-06,1.4302804978015964e-06,7.088899593632945e-05,1.06054738309481e-06,1.2594655617568513e-06,1.0749335528547763e-06,2.0814507123443628e-06
204,1.1311847919599274e-05,1.175389514569069e-06,1.2993542725780019e-06,1.2185905418789427e-05,1.0962873309460346e-06,9.685665906970643e-07,5.794293150521404e-07,5.553904748756544e-07,2.878748111066338e-06,1.5588874458378834e-06,1.4242006384105156e-06,7.284907859428441e-05,1.0810569638851051e-06,1.2415854980902656e-06,1.1255424950965602e-06,2.0490176924418916e-06
205,1.0333419938939165e-05,1.164382657038901e-06,1.2772979396056585e-06,1.1676188991342983e-05,1.0842104772764022e-06,9.763112466896881e-07,5.905570040398269e-07,5.605192700225554e-07,2.8375717915160413e-06,1.5264746417384098e-06,1.4165622506096257e-06,7.48022637313882e-05,1.101699837994991e-06,1.2202218194422126e-06,1.1782683766758233e-06,2.0111507634521683e-06
206,9.398333176654377e-06,1.150347147754314e-06,1.2612453906705564e-06,1.1220188589365518e-05,1.0729516079662495e-06,9.85613271046755e-07,6.026238368170431e-07,5.679888570718414e-07,2.7950256434975546e-06,1.4956271349805635e-06,1.4076945598772449e-06,7.678412662303827e-05,1.122111758027297e-06,1.195617176405982e-06,1.2323669381594717e-06,1.9688969612486323e-06
207,8.510045492638658e-06,1.1339736804612652e-06,1.2513914568099784e-06,1.0815484208835026e-05,1.063153404206101e-06,9.965113259232123e-07,6.15365085768049e-07,5.777995479378386e-07,2.7515408668432713e-06,1.466119285995644e-06,1.3979133313562957e-06,7.881740249040426e-05,1.1418234763982417e-06,1.1679514474154117e-06,1.2868800804041769e-06,1.9231616571129038e-06
208,7.670851346208153e-06,1.1160276390744493e-06,1.2479623392989997e-06,1.04584318350686e-05,1.05528676036947e-06,1.0089267184942875e-06,6.286329412569663e-07,5.899135323273409e-07,2.7075941290140086e-06,1.4376151328442363e-06,1.3875881828224804e-06,8.09100620114854e-05,1.1603160928744834e-06,1.1374892417801978e-06,1.3406501432387862e-06,1.8749195040896782e-06
209,6.8822035174210125e-06,1.0972454151186525e-06,1.251074489935116e-06,1.0144733090893184e-05,1.0496169170777233e-06,1.0226755007598076e-06,6.424282996947727e-07,6.042412789575963e-07,2.6639326192115286e-06,1.4098363071936628e-06,1.3771508337052354e-06,8.305661129105349e-05,1.1770801024441622e-06,1.1047493665426452e-06,1.392386960644025e-06,1.8254139111331837e-06
210,6.144964984946676e-06,1.0782584903520812e-06,1.2606214850225575e-06,9.870486075015257e-06,1.04622114913604e-06,1.0374934814070743e-06,6.568656424677321e-07,6.20637103928631e-07,2.621594741894075e-06,1.3826673060648653e-06,1.3670546036190608e-06,8.523843236988081e-05,1.191591786162905e-06,1.0705645540263153e-06,1.440826904655684e-06,1.776077933246855e-06
211,5.4595863226730095e-06,1.0595959128578311e-06,1.276240630943242e-06,9.633307232438511e-06,1.0450342006258798e-06,1.0530363386408666e-06,6.720962821654108e-07,6.389035031207075e-07,2.5817930955203176e-06,1.3560888365489705e-06,1.3577632685549166e-06,8.742525910632447e-05,1.2032820054558577e-06,1.0359703930022912e-06,1.4849444136595814e-06,1.728273622671628e-06
212,4.82619939013914e-06,1.0416934491211375e-06,1.2973696086754462e-06,9.432969339254152e-06,1.0458862924321334e-06,1.0688932491046965e-06,6.882322565057617e-07,6.587829853864066e-07,2.5457805128101564e-06,1.3301091980451262e-06,1.349724185012906e-06,8.958233986043531e-05,1.2116274359220746e-06,1.0020159801589337e-06,1.524088598407174e-06,1.683130907959259e-06
213,4.2446543556916785e-06,1.0248750315421099e-06,1.3233681164649022e-06,9.27124742957487e-06,1.048499762914316e-06,1.0846178415721568e-06,7.053001022128955e-07,6.799331983238433e-07,2.514709695198168e-06,1.3048204488526317e-06,1.343296209757442e-06,9.168031440645266e-05,1.2162888701278022e-06,9.696371681431189e-07,1.5579709413965422e-06,1.6415387423330527e-06
214,3.714549398087527e-06,1.0093749091149027e-06,1.3536239680729539e-06,9.15102727005616e-06,1.0524581247805623e-06,1.099740562739819e-06,7.232215737973146e-07,7.019313272898183e-07,2.489556167536253e-06,1.280440504047257e-06,1.3387014289842323e-06,9.370011240427198e-05,1.21712153844843e-06,9.396247504977356e-07,1.5865800085474593e-06,1.6041791238156781e-06
215,3.235243000218022e-06,9.954116102105934e-07,1.3875665577555176e-06,9.075073117495232e-06,1.057196990705341e-06,1.1138188941107872e-06,7.41807224480526e-07,7.243475235336849e-07,2.4711749391398112e-06,1.257220397128214e-06,1.3360073616556312e-06,9.56302585837465e-05,1.2140320420266059e-06,9.126350535538156e-07,1.6101164054368428e-06,1.5715923936336465e-06
216,2.805802570636974e-06,9.83242785514173e-07,1.4245945840830125e-06,9.045192175662935e-06,1.06203158843974e-06,1.1265586159270378e-06,7.60768912174218e-07,7.468600977478079e-07,2.4603720647507787e-06,1.235307287313848e-06,1.3351078192351427e-06,9.74596899582474e-05,1.206830854165241e-06,8.89189283330283e-07,1.6289133786458703e-06,1.5442817975603427e-06
217,2.4249181985730695e-06,9.731458421061272e-07,1.4639791638347524e-06,9.062323295717182e-06,1.066180758967223e-06,1.1378938283001165e-06,7.79754815123991e-07,7.693215120740593e-07,2.457822018267357e-06,1.2147017269594722e-06,1.3357637037093693e-06,9.917029744550425e-05,1.1952340560179646e-06,8.69655213656886e-07,1.6433073493857107e-06,1.5227643322621006e-06
218,2.0908695086269493e-06,9.653356528585395e-07,1.5048097077883415e-06,9.127277720788269e-06,1.0687518821603632e-06,1.1479420626379841e-06,7.98366313559526e-07,7.917187378376829e-07,2.4638705915672186e-06,1.1953183210728208e-06,1.3377328826774624e-06,0.00010073469459119022,1.1790317202147806e-06,8.542382127157792e-07,1.653543953749819e-06,1.5075305309882977e-06
219,1.8015557614434448e-06,9.598987256608592e-07,1.5460287225761227e-06,9.241509758245743e-06,1.0687185157375374e-06,1.1568769901599989e-06,8.161249483476007e-07,8.140809998094369e-07,2.4784001631513154e-06,1.1770833531828846e-06,1.3408774078105869e-06,0.00010212412175649265,1.158325181031691e-06,8.429883147151917e-07,1.65976581480658e-06,1.4990057165038903e-06
220,1.5545215645930313e-06,9.56796673534831e-07,1.586540270294515e-06,9.407534114357526e-06,1.0649959393327333e-06,1.16480533216055e-06,8.324580752340038e-07,8.364345927359342e-07,2.5008552920684315e-06,1.1600372210286629e-06,1.3451596764376216e-06,0.00010332203989010875,1.133667244316998e-06,8.358205557378627e-07,1.6620261343703324e-06,1.4975490735814564e-06
221,1.34697747323068e-06,9.559028428545586e-07,1.6253507458352159e-06,9.62875138011988e-06,1.0566927310625432e-06,1.171752209102176e-06,8.468191449084123e-07,8.588103107258526e-07,2.5303999024330424e-06,1.1443905445424833e-06,1.3505684313081571e-06,0.0001043298224690651,1.1059711149440283e-06,8.32554707152305e-07,1.660324617180771e-06,1.5034184437157998e-06
222,1.175883970959714e-06,9.570486162431256e-07,1.6617129916570432e-06,9.908641759303821e-06,1.0434353358367642e-06,1.1777819532461122e-06,8.589104285191755e-07,8.812304944531191e-07,2.566103261613306e-06,1.130466532755335e-06,1.3570623720037883e-06,0.00010515879870470383,1.0762786351775905e-06,8.329502478636414e-07,1.6546441946976005e-06,1.5166895838324147e-06
223,1.0380900786295524e-06,9.601066717245974e-07,1.6952115694219997e-06,1.0249866195226656e-05,1.0255035471810967e-06,1.1831015695384013e-06,8.687916179299011e-07,9.036827515310003e-07,2.6070699267821324e-06,1.118578699898594e-06,1.3645615728024222e-06,0.0001058219908731212,1.0456165236091885e-06,8.367041719132812e-07,1.6449077334534952e-06,1.537203887966848e-06
224,9.304195181741917e-07,9.6509188526401e-07,1.7257268876917342e-06,1.0654084563753943e-05,1.0036374751008305e-06,1.1880045123705178e-06,8.767753329410601e-07,9.261216318379066e-07,2.6524594869661235e-06,1.1089939716726265e-06,1.3729536390208545e-06,0.00010633676584868454,1.0149966715198719e-06,8.434281151388045e-07,1.630960851506818e-06,1.5645705463394706e-06
225,8.496535530554203e-07,9.722024666916181e-07,1.7533032126233493e-06,1.1122586472714313e-05,9.786894523213623e-07,1.1927201128371976e-06,8.832604762468518e-07,9.48469528238567e-07,2.701356405531647e-06,1.1019979348094343e-06,1.382097615307088e-06,0.00010672842822153057,9.854335192313008e-07,8.526264651039288e-07,1.612722413794666e-06,1.5981849438153144e-06
226,7.925101067709878e-07,9.8175551051239e-07,1.7779986879977635e-06,1.1656988382605234e-05,9.513914532669867e-07,1.1973185835894184e-06,8.886231128584649e-07,9.70607042766405e-07,2.7526085134619218e-06,1.0979079958515733e-06,1.3918375917915356e-06,0.00010702824107375141,9.57908611000291e-07,8.63676845893179e-07,1.5903186821535004e-06,1.6372990917155319e-06
227,7.557270067321856e-07,9.940562635689713e-07,1.7997707495163534e-06,1.2259325923311223e-05,9.223175528846188e-07,1.2017146451909203e-06,8.931531748687996e-07,9.92398295098858e-07,2.80475867219614e-06,1.0970215786973724e-06,1.4020775216688737e-06,0.0001072749250199545,9.333495244445134e-07,8.758479237897881e-07,1.564027670694848e-06,1.6812139805960151e-06
228,7.362115725077989e-07,1.0092945097038565e-06,1.8184027769615998e-06,1.2931418519695673e-05,8.919617907431856e-07,1.2056946509233005e-06,8.970258477010883e-07,1.013758658347212e-06,2.8559880847433487e-06,1.0996050745846581e-06,1.412923128241158e-06,0.00010751739653106586,9.126546959642615e-07,8.883964235928251e-07,1.534227036782869e-06,1.7294503304013566e-06
229,7.311560060109196e-07,1.027510944309936e-06,1.8334398875775308e-06,1.3673798997620291e-05,8.60832837767218e-07,1.2089269972140147e-06,9.003107236899145e-07,1.0346889008958485e-06,2.904149698991407e-06,1.1058822397747187e-06,1.4247324576196328e-06,0.0001078073663886325,8.966800164917978e-07,9.007087645057979e-07,1.5014892558891326e-06,1.781682353377605e-06
230,7.380805974977255e-07,1.0485830778524422e-06,1.844123045208543e-06,1.4484818746062869e-05,8.294829950000564e-07,1.211039383643064e-06,9.030130091902951e-07,1.055223143051729e-06,2.9471956452156437e-06,1.115997738260338e-06,1.4379748887157805e-06,0.00010818683871114319,8.861617835637394e-07,9.123816173873975e-07,1.4666617228725485e-06,1.837506448042396e-06
231,7.548401461831031e-07,1.0721941673627743e-06,1.8493730173626172e-06,1.536042080088871e-05,7.984544005246123e-07,1.2117987058188181e-06,9.051168052270761e-07,1.0753800250987903e-06,2.9839527381768724e-06,1.1300499293956433e-06,1.4530332366927302e-06,0.00010868207217481024,8.816576776473289e-07,9.231696561295422e-07,1.430803911488365e-06,1.896284849875061e-06
232,7.796520937072595e-07,1.0978242417446555e-06,1.8478851674161824e-06,1.6294498369701105e-05,7.68209261129522e-07,1.2112506410896897e-06,9.065917388673982e-07,1.0951819887116235e-06,3.014665029194774e-06,1.148173625956972e-06,1.470093460161739e-06,0.00010930308149534158,8.835564460893801e-07,9.328598948560447e-07,1.3950349503572907e-06,1.9571824283863227e-06
233,8.111283583180568e-07,1.1248030651272576e-06,1.8383662242534155e-06,1.7279508064720044e-05,7.390887731755944e-07,1.2096911646204605e-06,9.073647934956296e-07,1.1146428900582746e-06,3.0407846403787672e-06,1.17054312469888e-06,1.4891262981582003e-06,0.0001100441611377828,8.921278944584002e-07,9.412013399052315e-07,1.3603828004212663e-06,2.0193407444831356e-06
234,8.482050270609148e-07,1.1524061420412492e-06,1.819888676327382e-06,1.8307154553518942e-05,7.112932050915035e-07,1.207534543592084e-06,9.073045949147603e-07,1.1336905639898364e-06,3.06423149730667e-06,1.1972751982742297e-06,1.509953615653543e-06,0.00011088618942965696,9.075486039953778e-07,9.479269844409902e-07,1.3277065763500645e-06,2.082038356255031e-06
235,8.899438172047464e-07,1.1799428192655375e-06,1.792212796922633e-06,1.9369027499159807e-05,6.84902115760489e-07,1.2052016002089975e-06,9.062733002741664e-07,1.1521363283912704e-06,3.0868131398552248e-06,1.2283353146630755e-06,1.532406788259624e-06,0.00011180109026572047,9.298738933696651e-07,9.527824129006478e-07,1.297712306843933e-06,2.144755918772971e-06
236,9.353432162760366e-07,1.2068127742151883e-06,1.7558722268984195e-06,2.0457060068223074e-05,6.599592500494048e-07,1.2030445955998116e-06,9.042288948484871e-07,1.169708757141031e-06,3.1100691558219833e-06,1.2635031853002055e-06,1.556493508470356e-06,0.00011275541937222747,9.590010595599686e-07,9.55503513877918e-07,1.2709976572975227e-06,2.2071746591821687e-06
237,9.833057880252179e-07,1.2325326126500222e-06,1.711984635123934e-06,2.1563709378760533e-05,6.365820193622315e-07,1.2012775050774864e-06,9.012760081193654e-07,1.186056384191016e-06,3.1352855347087384e-06,1.3023927891065159e-06,1.5824580067179415e-06,0.00011370925194347862,9.946656882008646e-07,9.55824880913841e-07,1.2480482999183435e-06,2.269138487144095e-06
238,1.032770273277743e-06,1.256714771557972e-06,1.661950095900609e-06,2.2681786184884394e-05,6.150101718556622e-07,1.199927861940963e-06,8.97613581957105e-07,1.2007262464966746e-06,3.163490325582822e-06,1.3445424355709041e-06,1.6106917118417326e-06,0.00011461103050694275,1.0364420343975396e-06,9.535802857722605e-07,1.229202566286446e-06,2.330621142822607e-06
239,1.0828829937900355e-06,1.2789920605771125e-06,1.6071947987232552e-06,2.3803791419503864e-05,5.95552312903511e-07,1.1988433483836521e-06,8.934780018411269e-07,1.2132221355250732e-06,3.1954510949858947e-06,1.3895335782065899e-06,1.641550799294769e-06,0.00011539645100531201,1.083718585578163e-06,9.487982516650755e-07,1.2146578345809023e-06,2.3917806573171183e-06
240,1.1330502953901879e-06,1.2989470671882079e-06,1.5490022185563583e-06,2.492061719518005e-05,5.78487981292658e-07,1.1977679985505127e-06,8.891830749269012e-07,1.2231564471344386e-06,3.2317313670127824e-06,1.4370228077557785e-06,1.6752405997467778e-06,0.0001159965973318962,1.1356770113547835e-06,9.416974795416784e-07,1.2045037169800406e-06,2.4531052104132978e-06
241,1.1828528184064482e-06,1.3161112730388116e-06,1.48845921723974e-06,2.6020136109290798e-05,5.640046873291661e-07,1.1964572105756852e-06,8.851797555029705e-07,1.2303958487486235e-06,3.27284300031974e-06,1.4866550336050127e-06,1.711839104180276e-06,0.00011634864186843495,1.19132916244604e-06,9.326111590836265e-07,1.1987098933219827e-06,2.51547029474199e-06
242,1.231965609855744e-06,1.3300182422954873e-06,1.4265410463423676e-06,2.7087045532691987e-05,5.521892605574631e-07,1.1947355602271372e-06,8.820129568417754e-07,1.2350767821802936e-06,3.319432757719711e-06,1.5379522356419735e-06,1.751311940074705e-06,0.0001164010298285501,1.249622083011228e-06,9.219391998914079e-07,1.1971003078324253e-06,2.579956372276101e-06
243,1.2801590140391757e-06,1.3402436621576234e-06,1.3642438533402882e-06,2.8104628734709472e-05,5.430707463414254e-07,1.1924405238683775e-06,8.801983932781355e-07,1.2374711250486089e-06,3.3723366562479306e-06,1.5902527383927708e-06,1.793431035194332e-06,0.00011611273775758122,1.309513153928603e-06,9.101731656354229e-07,1.1993914592447105e-06,2.6476203682763014e-06
244,1.3272852314641134e-06,1.3463855219925967e-06,1.3026250194941318e-06,2.905748519664856e-05,5.366968083101599e-07,1.189339469138321e-06,8.801204889130861e-07,1.2378790653417086e-06,3.4324395473436133e-06,1.6427051871480519e-06,1.8377428340097573e-06,0.00011544744181578693,1.3699428689402397e-06,8.979064989448715e-07,1.2052643175114025e-06,2.7194733238107963e-06
245,1.3732125756034648e-06,1.3480296280449744e-06,1.2427221610928035e-06,2.9934027915662368e-05,5.331735938458394e-07,1.1851313369185332e-06,8.81991685496297e-07,1.2366722852402593e-06,3.500466774934319e-06,1.6943514552774277e-06,1.8837057074597882e-06,0.0001143644028145791,1.4297769577733271e-06,8.857570512033626e-07,1.2143804234856989e-06,2.796518925539085e-06
246,1.4178140488806656e-06,1.3448396403909856e-06,1.1854268246405952e-06,3.072820587899787e-05,5.326240688504854e-07,1.1795053577934193e-06,8.858480932821315e-07,1.2343450240460346e-06,3.5768032732494543e-06,1.744296505039292e-06,1.9308452255397445e-06,0.00011281773220545951,1.4877817769159748e-06,8.742544847026416e-07,1.2263344980538645e-06,2.879609428367933e-06
247,1.4610298121484334e-06,1.3367908228564401e-06,1.131406117919639e-06,3.144012064380599e-05,5.351195219960355e-07,1.1721737748568843e-06,8.915772603022125e-07,1.2314393440659165e-06,3.661306790224373e-06,1.791813156247669e-06,1.978730466650805e-06,0.00011077402481778007,1.5426379741426441e-06,8.637643822797647e-07,1.2406334230319721e-06,2.969215408612587e-06
248,1.5028899387177668e-06,1.3243358082174419e-06,1.081134704193657e-06,3.2075157329575454e-05,5.406461798595382e-07,1.162878494881898e-06,8.989974159524884e-07,1.2284143932273368e-06,3.7531332096466645e-06,1.8363008949479806e-06,2.0269229914047853e-06,0.00010823660810373598,1.593024552249823e-06,8.544695256377485e-07,1.2567402072141554e-06,3.065362680540174e-06
249,1.5434437954132547e-06,1.3083354870311332e-06,1.035021454475749e-06,3.264135652648812e-05,5.491051883210919e-07,1.1514170704004958e-06,9.079466747448098e-07,1.2255858050772344e-06,3.8506668634017376e-06,1.8772572699386263e-06,2.0750937634459626e-06,0.00010525433132779812,1.6377603981743246e-06,8.463927260776456e-07,1.274105540506104e-06,3.1677848631567644e-06
250,1.5826358789972807e-06,1.2898386498346134e-06,9.935140215381567e-07,3.314565180033238e-05,5.603436846763959e-07,1.1377069869874723e-06,9.183020415976672e-07,1.2231643616791944e-06,3.951588150257258e-06,1.9143579921398243e-06,2.1230987608624555e-06,0.00010190815436883442,1.67592278822842e-06,8.394311545076289e-07,1.2921561050960734e-06,3.276101009908451e-06
251,1.6201873076925362e-06,1.2698928827613186e-06,9.57076588789644e-07,3.3591201502305175e-05,5.742117256193755e-07,1.1218692353235703e-06,9.299232748136473e-07,1.2212982442973004e-06,4.0530402275499805e-06,1.947477772467989e-06,2.1708327766503387e-06,9.828990867616818e-05,1.7069082345554623e-06,8.333963429090656e-07,1.3103240021306525e-06,3.3898196476812986e-06
252,1.655529923899508e-06,1.249477491697308e-06,9.260815735516408e-07,3.3977768067516906e-05,5.905914821664802e-07,1.1042672579573733e-06,9.42604189610934e-07,1.2200539968156717e-06,4.151774653880048e-06,1.976521448565852e-06,2.2180544186034454e-06,9.449084109439625e-05,1.7304155359040884e-06,8.280697334845545e-07,1.3281577801004888e-06,3.5081427109304314e-06
253,1.6878168332097236e-06,1.2295363088302943e-06,9.007315046471552e-07,3.430437721033096e-05,6.093664384770395e-07,1.0854327195317374e-06,9.560864326737293e-07,1.2194105362604423e-06,4.244155445253826e-06,2.0011960447519764e-06,2.264308272889589e-06,9.059939516637134e-05,1.746294967202605e-06,8.232338149912891e-07,1.3454038266310213e-06,3.6297094514909837e-06
254,1.716037638650093e-06,1.2110287893277374e-06,8.810642451551577e-07,3.457201141285483e-05,6.303769677036899e-07,1.0659089359301681e-06,9.700869337359145e-07,1.2193276059229826e-06,4.326177488592836e-06,2.020921761829514e-06,2.3088278083430084e-06,8.66970955997948e-05,1.75431888813694e-06,8.186583900769967e-07,1.3619284819665522e-06,3.752430903671848e-06
255,1.7392254525046089e-06,1.19491546785174e-06,8.670281893731717e-07,3.4785139306855974e-05,6.534052017707282e-07,1.0461358303529133e-06,9.842774966627177e-07,1.2198448102235727e-06,4.393820907971947e-06,2.0349457517558476e-06,2.3504094513096533e-06,8.28523408769047e-05,1.7541087535647287e-06,8.141288152432398e-07,1.377532306410805e-06,3.873447210811576e-06
256,1.7566389510754454e-06,1.1820725414080627e-06,8.585735457834048e-07,3.495211986946953e-05,6.781663843088963e-07,1.0264374040727184e-06,9.982686822383618e-07,1.2211533276127136e-06,4.443717944181753e-06,2.0425933434904188e-06,2.3874107049267083e-06,7.911861181580141e-05,1.7453897883834316e-06,8.095532075175113e-07,1.3918282262078766e-06,3.989201750326786e-06
257,1.7678334382866188e-06,1.1732096669119425e-06,8.55685155456137e-07,3.508483010704113e-05,7.042865738870803e-07,1.0070520837569177e-06,1.0116773808280936e-06,1.2236032469253216e-06,4.473712039564141e-06,2.043511237294564e-06,2.4179304520544546e-06,7.553618109436755e-05,1.7283974513438151e-06,8.050526509485944e-07,1.4042544350530705e-06,4.095681508112965e-06
258,1.7726752097547753e-06,1.168831927734654e-06,8.583519296266634e-07,3.519774080241273e-05,7.312880730276781e-07,9.88144457140036e-07,1.024226725336407e-06,1.2276223188367171e-06,4.4829471434749054e-06,2.0377538672502087e-06,2.4400012665346646e-06,7.21328731578371e-05,1.704047853424373e-06,8.0094801615798e-07,1.4141651571961498e-06,4.188891929338257e-06
259,1.7713676962497155e-06,1.1692370643983534e-06,8.665442170198097e-07,3.530659818484835e-05,7.586164788354512e-07,9.698108971556413e-07,1.035772679231651e-06,1.233573317935127e-06,4.471474818035886e-06,2.025684972217954e-06,2.4516299531251776e-06,6.892454742260037e-05,1.6737295066037893e-06,7.976442072755585e-07,1.4209146746098642e-06,4.265540376979245e-06
260,1.7644560219502452e-06,1.1745336772227265e-06,8.802181343230577e-07,3.542692555891431e-05,7.857356682324531e-07,9.520955046555903e-07,1.0462389918014807e-06,1.2416270203978578e-06,4.439631972373931e-06,2.007818212974835e-06,2.450926008820246e-06,6.591831213579906e-05,1.6389601237406632e-06,7.954938866461088e-07,1.4238665992364451e-06,4.323679163248944e-06
261,1.7527337267111734e-06,1.1846545983478206e-06,8.993067821375818e-07,3.557255064663551e-05,8.122468598338055e-07,9.349914873430427e-07,1.0555127328369087e-06,1.2517163963990673e-06,4.387559483676389e-06,1.9847492477168896e-06,2.4365728436803737e-06,6.311693391585093e-05,1.6011797675386825e-06,7.947214540245963e-07,1.4223705432576504e-06,4.362933286538735e-06
262,1.7370492897672643e-06,1.1993825341882135e-06,9.236917136323247e-07,3.5754245399217714e-05,8.379190549190045e-07,9.184426825563249e-07,1.063367635409611e-06,1.263584008211697e-06,4.315243907132707e-06,1.9571983414315716e-06,2.408249496168299e-06,6.051981175287455e-05,1.5616881869445658e-06,7.95398389031068e-07,1.4158559239981357e-06,4.3841270988593885e-06
263,1.7181289994723206e-06,1.2184426878638309e-06,9.531623868225491e-07,3.597843230014008e-05,8.626133272458596e-07,9.023980995518312e-07,1.0694685373143591e-06,1.2768734789043116e-06,4.223107815176193e-06,1.9260302699959293e-06,2.3665130287972634e-06,5.811952683471492e-05,1.5216339409265264e-06,7.974355167714424e-07,1.4040618236465556e-06,4.3885186266434266e-06
264,1.6965413175190743e-06,1.241624693930908e-06,9.87359351154348e-07,3.6245842687790475e-05,8.862249938577503e-07,8.868895517011226e-07,1.0734481296413492e-06,1.2911818505254567e-06,4.112628568125647e-06,1.892133507161107e-06,2.3123799213824743e-06,5.589797410443292e-05,1.482029689486026e-06,8.005960682661932e-07,1.3872378043290873e-06,4.3771697328846295e-06
265,1.672766465486045e-06,1.2688088225748385e-06,1.0257207655556359e-06,3.655022931378919e-05,9.087030019374953e-07,8.720632380361777e-07,1.07497755406767e-06,1.3060696372720618e-06,3.986431708947066e-06,1.8562136530062382e-06,2.2471471253295566e-06,5.382698239050219e-05,1.4437550783866017e-06,8.045354378848672e-07,1.3661752693908038e-06,4.35085991449514e-06
266,1.647233794058646e-06,1.299857907439276e-06,1.0674575803518228e-06,3.6877802320071525e-05,9.300666579069145e-07,8.581751771056948e-07,1.0737776749712443e-06,1.3211546405517055e-06,3.847790654733935e-06,1.8186693084083142e-06,2.1724610660990283e-06,5.1875395831516585e-05,1.407527533151144e-06,8.088603102584951e-07,1.342043745766113e-06,4.3103913314380535e-06
267,1.6202977470155676e-06,1.334497123075507e-06,1.1115479876736866e-06,3.7208195587316254e-05,9.503815811893924e-07,8.455654242933118e-07,1.069613678391956e-06,1.3363288179494782e-06,3.6999552914181876e-06,1.7796355873648022e-06,2.0902656032830775e-06,5.001938119725268e-05,1.3738881032847352e-06,8.13217503248829e-07,1.3161171337617384e-06,4.256790960588327e-06
268,1.5922162906248873e-06,1.3722985319256366e-06,1.1567338607137594e-06,3.751701265117812e-05,9.697506957176332e-07,8.345917202074109e-07,1.0623135828510721e-06,1.3519219491023832e-06,3.545823676468649e-06,1.739147216588842e-06,2.0025340819443754e-06,4.824872863518235e-05,1.3432424913616854e-06,8.174191084244888e-07,1.2895520771056399e-06,4.19118034460688e-06
269,1.5631449460532063e-06,1.4127316002010036e-06,1.2015268233805027e-06,3.777915360246386e-05,9.88336066275717e-07,8.255781890968145e-07,1.0517629127048995e-06,1.368658158601653e-06,3.38804609715489e-06,1.6973247725061559e-06,1.9110223032434806e-06,4.656471562195122e-05,1.315927324938782e-06,8.215432981101434e-07,1.2633061946940716e-06,4.114539288793192e-06
270,1.5331288971780532e-06,1.4551730758631184e-06,1.2442535469627234e-06,3.797180450039504e-05,1.0063463067687807e-06,8.188240149196117e-07,1.0378717161740879e-06,1.3874472869550701e-06,3.229220535505829e-06,1.6544743471924387e-06,1.8172616798565277e-06,4.497269600908288e-05,1.2922226276826623e-06,8.25915179225971e-07,1.2381527977481986e-06,4.02769493806013e-06
271,1.5021176338355306e-06,1.4988457157665295e-06,1.283201608963621e-06,3.807625466515501e-05,1.0239617993532016e-06,8.145946213685951e-07,1.02062071806227e-06,1.4091508125720408e-06,3.071898650098999e-06,1.6110418063226113e-06,1.722745157002007e-06,4.347590954469867e-05,1.2723217286808416e-06,8.309652826887887e-07,1.2147103913426702e-06,3.9315763093913226e-06
272,1.4700278881168307e-06,1.5427673896330602e-06,1.3168849941964583e-06,3.8078549547741565e-05,1.0412837825158119e-06,8.130669254628657e-07,1.0002041840594576e-06,1.4344576261751643e-06,2.918424267042299e-06,1.5674798351457166e-06,1.629039320658775e-06,4.207357821608845e-05,1.2563176517697589e-06,8.370798277509571e-07,1.1934349608759033e-06,3.827496763761474e-06
273,1.4368302890270308e-06,1.5858141832508692e-06,1.3443026408074655e-06,3.796967472251602e-05,1.0583779741245323e-06,8.143006911537318e-07,9.771296756615328e-07,1.4639476926662385e-06,2.770768047039364e-06,1.5241419395867661e-06,1.5376928253567648e-06,4.0761627562402345e-05,1.2442004174615294e-06,8.445287630329486e-07,1.174595948519518e-06,3.7172269290793597e-06
274,1.4026106071369978e-06,1.6268488053262065e-06,1.3650253203080051e-06,3.774577189756704e-05,1.0753533397755645e-06,8.182648199868629e-07,9.521678500323759e-07,1.498273922559776e-06,2.6304557707311833e-06,1.4812772999414706e-06,1.4500817030215408e-06,3.95327824359151e-05,1.2358674490744289e-06,8.534639488445188e-07,1.1582775716607472e-06,3.6027707934750867e-06
275,1.3675770417334203e-06,1.6647607115151983e-06,1.3790559069112588e-06,3.7408091762420936e-05,1.0923808601849638e-06,8.248794038797701e-07,9.261842293809794e-07,1.5382507934555806e-06,2.4985677086200093e-06,1.4390923903746918e-06,1.36732565702066e-06,3.83750894451835e-05,1.2311550079477548e-06,8.639465944011692e-07,1.1444080842249176e-06,3.4859392878387026e-06
276,1.3320247509898314e-06,1.698448846062154e-06,1.386559238598081e-06,3.696185097735414e-05,1.1096265631511476e-06,8.34026465339559e-07,8.999773626615426e-07,1.5847436827666888e-06,2.3757514217726004e-06,1.3977987824695942e-06,1.2902817388876336e-06,3.727165163957278e-05,1.2298868172447262e-06,8.759579164752721e-07,1.132809591443526e-06,3.3680071735491436e-06
277,1.2962974855695838e-06,1.7268808595072686e-06,1.3877027070987198e-06,3.641344547072769e-05,1.127146906320107e-06,8.455449229188892e-07,8.742271567143164e-07,1.6385053428742985e-06,2.2622272468183012e-06,1.3576383459645871e-06,1.219581048974783e-06,3.6204370384850083e-05,1.231938787981516e-06,8.8938118339646e-07,1.1232347702005958e-06,3.2497573136338706e-06
278,1.2607788182441571e-06,1.7491531538126937e-06,1.3827592982196584e-06,3.576676315770561e-05,1.1448389539595475e-06,8.592498358419136e-07,8.495307060840458e-07,1.7000903543728037e-06,2.157824043274135e-06,1.318878795555702e-06,1.155652770733776e-06,3.5160274909878386e-05,1.2372776733953124e-06,9.039916141709098e-07,1.115363692393848e-06,3.131900617000877e-06
279,1.2259124414728336e-06,1.7644453638608348e-06,1.3723246420088377e-06,3.502091195257915e-05,1.1625170985665508e-06,8.749392590361624e-07,8.264224466200702e-07,1.7697918514416239e-06,2.062071985482361e-06,1.2817630887162615e-06,1.0987189538122453e-06,3.413596655069122e-05,1.245921408593183e-06,9.194781925385513e-07,1.10880459095521e-06,3.015504521885646e-06
280,1.1922164136740552e-06,1.7719745346131065e-06,1.3574151704575184e-06,3.4171267030440113e-05,1.180077273066749e-06,8.923483727483494e-07,8.053408521812034e-07,1.847562365442064e-06,1.9742674561301928e-06,1.246485153817512e-06,1.0487996541252544e-06,3.313658555784453e-05,1.2578315605105188e-06,9.354833878039843e-07,1.1031467513699564e-06,2.902088502062069e-06
281,1.1602424455836322e-06,1.7710698091123216e-06,1.3393900112604964e-06,3.321306759115114e-05,1.1975883780830958e-06,9.110964970751193e-07,7.866014820817969e-07,1.9329643367418947e-06,1.8934952433767545e-06,1.213229056354483e-06,1.0057518290005826e-06,3.217025029637159e-05,1.2728158383857034e-06,9.516471690823131e-07,1.0980471300255573e-06,2.79337229883003e-06
282,1.1304845422990647e-06,1.7613279207074693e-06,1.3197798240672846e-06,3.214520689305947e-05,1.2152221952141062e-06,9.306658920973613e-07,7.704199117595126e-07,2.0251593729530816e-06,1.8188240815832915e-06,1.1821917397531346e-06,9.6933774978357e-07,3.124296572830688e-05,1.290524327389047e-06,9.6769076214973e-07,1.0932952120811546e-06,2.6909062953729706e-06
283,1.1033030660028784e-06,1.7427315413039315e-06,1.3001117554186143e-06,3.097268414978461e-05,1.2331523008631879e-06,9.503861943173985e-07,7.569518579178709e-07,2.1229112052494325e-06,1.749715457712404e-06,1.1535340322401892e-06,9.392743476628115e-07,3.0356652144414044e-05,1.3105392066529655e-06,9.835508721392659e-07,1.088824260655639e-06,2.5958066987979137e-06
284,1.0788983447731303e-06,1.7156690847613782e-06,1.281774714596626e-06,2.970740967553159e-05,1.2515234171576325e-06,9.694242301732193e-07,7.4630522341039e-07,2.2245932082224446e-06,1.6862435635029082e-06,1.127298990500025e-06,9.15214328489588e-07,2.950891454648713e-05,1.3324470794277137e-06,9.994393135668121e-07,1.084662998503104e-06,2.5087141283555825e-06
285,1.0573364483391788e-06,1.6808886049598124e-06,1.2659478466087835e-06,2.8367650607716625e-05,1.270408207075354e-06,9.868520107518853e-07,7.38518320332001e-07,2.328210178402409e-06,1.6288939056388685e-06,1.1034011862066188e-06,8.966952158404677e-07,2.869392189596619e-05,1.3558056431804456e-06,1.0157180667676183e-06,1.0808307478086492e-06,2.4299995584543666e-06
286,1.0386169238189654e-06,1.6394298353522844e-06,1.2535929665811835e-06,2.69766584470017e-05,1.2897511823464986e-06,1.0018418845708966e-06,7.335351624989169e-07,2.4314494393255965e-06,1.5782578545686875e-06,1.0817448129266588e-06,8.83117514760988e-07,2.790466161727252e-05,1.3800606614428964e-06,1.0326888300548346e-06,1.0772536770711965e-06,2.360067897264527e-06
287,1.0227110293158955e-06,1.5925113212522653e-06,1.245472514984866e-06,2.5560926900351258e-05,1.3094004326419296e-06,1.0138937870417966e-06,7.312112083538837e-07,2.531758667182613e-06,1.5348828370084227e-06,1.0623633019596178e-06,8.737729832075152e-07,2.7135444624633386e-05,1.404496357263499e-06,1.0504578897931368e-06,1.073809364335038e-06,2.29948761314576e-06
288,1.0095215156007503e-06,1.5413577984587463e-06,1.2421494238959446e-06,2.4148191344005734e-05,1.3291926935291565e-06,1.0229215993241744e-06,7.313411568371294e-07,2.626437370199926e-06,1.4991692515549592e-06,1.0454254876138177e-06,8.67908427203803e-07,2.638328589913716e-05,1.4282329854304444e-06,1.0689004917668048e-06,1.070431940291017e-06,2.2488428524732026e-06
289,9.98815256982135e-07,1.4870750195798968e-06,1.2439727086498502e-06,2.276519563982261e-05,1.3489832205063125e-06,1.0291543146416888e-06,7.336819878860459e-07,2.712770817353819e-06,1.4712523052624954e-06,1.0311235400287051e-06,8.647796742697594e-07,2.5647738668478963e-05,1.4503003095415063e-06,1.0876762649225502e-06,1.0671281964296284e-06,2.2084757817881966e-06
290,9.902079009394003e-07,1.4306751510575566e-06,1.2510973009189127e-06,2.1435642263124097e-05,1.3686021750622773e-06,1.0329693378609907e-06,7.379861368653762e-07,2.788274041650088e-06,1.450944045078492e-06,1.0195888254540551e-06,8.636731350151621e-07,2.4929636155542603e-05,1.4698170187225877e-06,1.1062798829980513e-06,1.0639380581531155e-06,2.17833550705689e-06
291,9.83226896365546e-07,1.3731764820971353e-06,1.2635623882356069e-06,2.017912204506837e-05,1.3877944503730766e-06,1.034765979818578e-06,7.440686523362836e-07,2.8510333409984944e-06,1.4377278272918165e-06,1.010876813606738e-06,8.639226726864627e-07,2.4229625067277737e-05,1.4862176466691542e-06,1.1241252458847854e-06,1.0609119572640644e-06,2.1579925277806527e-06
292,9.773983408503894e-07,1.3156534104903255e-06,1.2813881203505463e-06,1.901132712609315e-05,1.4061797122305464e-06,1.0348813148847336e-06,7.518697894146611e-07,2.899967533077605e-06,1.4307724810995333e-06,1.0049393849930943e-06,8.649374484700279e-07,2.3547183881612346e-05,1.4993904296933391e-06,1.1406067164163734e-06,1.0580482986113913e-06,2.1467241454370715e-06
293,9.72290808295159e-07,1.2592328927881091e-06,1.3046162966749004e-06,1.7944805591062205e-05,1.4232519405014792e-06,1.033525497155595e-06,7.614405573964225e-07,2.9347954970155853e-06,1.4290216317606335e-06,1.001587832615259e-06,8.66199597751497e-07,2.2880570394032457e-05,1.5095996943223247e-06,1.1550831159040347e-06,1.0552236240677061e-06,2.1435995084775144e-06
294,9.675224758386678e-07,1.2050777875701882e-06,1.3332490149343723e-06,1.698931549073683e-05,1.4384704021869716e-06,1.0307705426503915e-06,7.728421660249641e-07,2.9556807037644565e-06,1.431382326931523e-06,1.0005321377121385e-06,8.67207594737253e-07,2.222783687256024e-05,1.5172319014243655e-06,1.1668906339282261e-06,1.0522615051702704e-06,2.1475935873508954e-06
295,9.627654387823915e-07,1.154346075674183e-06,1.3671299840393973e-06,1.6151606204122786e-05,1.4514187443502399e-06,1.0266246499261755e-06,7.860365934145194e-07,2.9627583849116332e-06,1.4368875913568708e-06,1.0014753122564203e-06,8.674271341305516e-07,2.1588127286682697e-05,1.5225643245401379e-06,1.1755135111627184e-06,1.0491149122435285e-06,2.1577138085931164e-06
296,9.577386323318352e-07,1.1081098394353917e-06,1.4058619507792438e-06,1.543518870055435e-05,1.4618768594136735e-06,1.0211507888584773e-06,8.00836351846815e-07,2.9558516582945376e-06,1.4447039610110182e-06,1.0041628345805023e-06,8.663000058503689e-07,2.0961733654661394e-05,1.5256764606898006e-06,1.1807920590273463e-06,1.0459768063577591e-06,2.17310145927987e-06
297,9.521748673514755e-07,1.067277386322467e-06,1.4487900831856905e-06,1.4840593164365446e-05,1.4697223143198895e-06,1.014560246858076e-06,8.169024227049375e-07,2.934556581451668e-06,1.4540494251734334e-06,1.0083949666310418e-06,8.633131601979832e-07,2.0348477534642084e-05,1.5264887209703909e-06,1.1829490373498776e-06,1.043238400149679e-06,2.1931511786356073e-06
298,9.457840732287131e-07,1.0325691927093561e-06,1.4950145490691895e-06,1.4365915943734965e-05,1.4747881971814907e-06,1.0072383672274178e-06,8.337504035045616e-07,2.8986051243050645e-06,1.4641880078246727e-06,1.0140641407069971e-06,8.581478028584133e-07,1.9746254950886222e-05,1.5248777364105284e-06,1.182415470503424e-06,1.041362188546723e-06,2.2176090071719916e-06
299,9.382419396074568e-07,1.0045328515029831e-06,1.543431141899505e-06,1.4007198553090437e-05,1.4768495126864e-06,9.99683196085582e-07,8.507704558657734e-07,2.8482659782309507e-06,1.4744899868970175e-06,1.0211574427422588e-06,8.508380117834444e-07,1.915173611365015e-05,1.5207695070838573e-06,1.1796310501229647e-06,1.0407491423558083e-06,2.246545935887669e-06
300,9.292177639163935e-07,9.835757905180465e-07,1.5928535269162516e-06,1.3758575537703637e-05,1.4757290826279194e-06,9.92385208236237e-07,8.672952712243846e-07,2.7845890261020613e-06,1.484391344783021e-06,1.0296542900370546e-06,8.417668787010089e-07,1.8562838021571868e-05,1.5141259110258384e-06,1.174994030460594e-06,1.0416437749159794e-06,2.2802987909332504e-06
301,9.184431808165764e-07,9.70029174030425e-07,1.6421915744335155e-06,1.3612284606774904e-05,1.4713827239094837e-06,9.857470705303377e-07,8.826949833040765e-07,2.7093837648791853e-06,1.4932548307000367e-06,1.0394174155515429e-06,8.314991223718633e-07,1.798119167615446e-05,1.5048982091332679e-06,1.1689354351145113e-06,1.0441038401264566e-06,2.319506271056956e-06
302,9.058026059803034e-07,9.642008857316636e-07,1.6905578720523998e-06,1.3558529996482346e-05,1.4639221946307193e-06,9.800993400677163e-07,8.964282838017734e-07,2.6249202148315334e-06,1.5002730096730235e-06,1.0501900176243071e-06,8.206458875479793e-07,1.7413460336689934e-05,1.4930888057474321e-06,1.1619250711275937e-06,1.0480478847746163e-06,2.365099755521033e-06
303,8.914063591112047e-07,9.66348278508744e-07,1.7372596012256834e-06,1.358555197213705e-05,1.4536296324106317e-06,9.757267908310833e-07,9.08044422684208e-07,2.5335373846022413e-06,1.5044147522176107e-06,1.0616395603256366e-06,8.098424079122268e-07,1.6871513019282212e-05,1.4788987132257496e-06,1.1543524599885249e-06,1.053370552829816e-06,2.4180853411366733e-06
304,8.755997514760814e-07,9.766099764633315e-07,1.7817721564250126e-06,1.3680507218829723e-05,1.440940050723174e-06,9.728181303697982e-07,9.17220784655158e-07,2.437449630522108e-06,1.504386093403914e-06,1.0733677095237711e-06,7.99734866863082e-07,1.6372131389329763e-05,1.4628117557242923e-06,1.1464396821756891e-06,1.0600571211891929e-06,2.47925112112802e-06
305,8.588801521243612e-07,9.949702864602275e-07,1.823738335517713e-06,1.3831112308114711e-05,1.4263339325999122e-06,9.713872423021326e-07,9.238737303565584e-07,2.3387899694256267e-06,1.4987053562902525e-06,1.0849234398838285e-06,7.909172965459705e-07,1.593646319847563e-05,1.4455345080739237e-06,1.138299413852633e-06,1.0681878075469877e-06,2.548997810698e-06
306,8.417718460028003e-07,1.0212443294301687e-06,1.8629005418191532e-06,1.4027437852732129e-05,1.41018737234415e-06,9.712559185774875e-07,9.282467980178693e-07,2.23963823578032e-06,1.4859789641847156e-06,1.0958482080334785e-06,7.838692045095747e-07,1.558869696151087e-05,1.4278381579223686e-06,1.1300687324272246e-06,1.077831424410653e-06,2.6272734692727696e-06
307,8.247640501215101e-07,1.055060681616722e-06,1.8989439570712328e-06,1.4263377577105234e-05,1.3926670632836274e-06,9.721043390603597e-07,9.308625097758165e-07,2.141897174855781e-06,1.4653179538835523e-06,1.1057579678448353e-06,7.789293570274729e-07,1.5353921666975782e-05,1.410437379372137e-06,1.1219668035933904e-06,1.0889691873257509e-06,2.713528720430243e-06
308,8.083256111979143e-07,1.0958605314357648e-06,1.9314101485970335e-06,1.4537407871916378e-05,1.3736920441101819e-06,9.735427865701947e-07,9.323512694673411e-07,2.0471649018501065e-06,1.4366845236045096e-06,1.1144993187074226e-06,7.762900484964416e-07,1.5256048502219676e-05,1.3939613486383944e-06,1.1142254138245315e-06,1.1015190195479626e-06,2.806691217811801e-06
309,7.929056387224746e-07,1.1429333986704409e-06,1.959769930296081e-06,1.4852239722124713e-05,1.3529844244054974e-06,9.751771809331364e-07,9.332750543461633e-07,1.9567546031803335e-06,1.4009336067800781e-06,1.1223191147279208e-06,7.76004218318709e-07,1.531656237444089e-05,1.3789346473145832e-06,1.1070326094705757e-06,1.1153760944743074e-06,2.905174322829191e-06
310,7.788895502296942e-07,1.1954857317357553e-06,1.983536798083306e-06,1.5213269198241284e-05,1.3302464705460618e-06,9.76635704410184e-07,9.34050119627885e-07,1.8718309991536754e-06,1.3595149146289382e-06,1.129874240842173e-06,7.780173432613329e-07,1.55541236562117e-05,1.3657367753310592e-06,1.1006112620090252e-06,1.1304003043800589e-06,3.006994375028958e-06
311,7.665618140389358e-07,1.2527228612657158e-06,2.002325039861393e-06,1.5626342922408256e-05,1.3053896100563146e-06,9.775336783391172e-07,9.349921664575808e-07,1.7935907434507433e-06,1.3140596337770297e-06,1.1380247165262089e-06,7.822157540814062e-07,1.598461373168251e-05,1.354583591665414e-06,1.0953133458731433e-06,1.1464016088151939e-06,3.110059712430109e-06
312,7.561037014899038e-07,1.3139305916195105e-06,2.0158871909744538e-06,1.6096009232855084e-05,1.278646183520329e-06,9.774637321441488e-07,9.364204683193885e-07,1.7234250595296502e-06,1.266121440578474e-06,1.1475702422131375e-06,7.884520945689204e-07,1.6621215436169757e-05,1.3455290060406271e-06,1.0915702461881547e-06,1.163190196284975e-06,3.212459755374412e-06
313,7.476143241588926e-07,1.3785385511233858e-06,2.0241511513471933e-06,1.662531313950518e-05,1.2504820752200043e-06,9.761196084305342e-07,9.387070328836153e-07,1.66295657095459e-06,1.2171226254070995e-06,1.1591010870130063e-06,7.965179848123571e-07,1.7474294488335223e-05,1.3384549938404749e-06,1.0897633270556064e-06,1.18066543987097e-06,3.3125415073313406e-06
314,7.411477109916974e-07,1.4461411744708104e-06,2.0272158122816986e-06,1.7217010255612485e-05,1.2214156123420526e-06,9.734861799975797e-07,9.422191042204976e-07,1.613908079464326e-06,1.168364978895612e-06,1.172972464489437e-06,8.061022283541273e-07,1.855109672481852e-05,1.3330899531435728e-06,1.0901751388602843e-06,1.1988607058356371e-06,3.408826852382837e-06
315,7.367859829027647e-07,1.516468320333698e-06,2.025296334741446e-06,1.7875149544362768e-05,1.191921327529367e-06,9.699254141144023e-07,9.472296170946517e-07,1.5779257664741837e-06,1.1210495477700404e-06,1.189339397105512e-06,8.168150792372205e-07,1.985541557332667e-05,1.3291380532063842e-06,1.093041198360545e-06,1.217884450383685e-06,3.4999169945671256e-06
316,7.347330889155934e-07,1.5892994324725474e-06,2.018667132259116e-06,1.8606001448781078e-05,1.162432192733795e-06,9.660883776502458e-07,9.538743709952384e-07,1.556513852085602e-06,1.0763377114087235e-06,1.2082079043482756e-06,8.282728347839258e-07,2.1387284164082605e-05,1.326470593416275e-06,1.0985969458895559e-06,1.237781833127969e-06,3.584351591489569e-06
317,7.353438381575994e-07,1.6643303393510536e-06,2.007605403761894e-06,1.9417515321004477e-05,1.1333130573082785e-06,9.627238930548006e-07,9.621624617654198e-07,1.5510882124206487e-06,1.035390344410929e-06,1.2295150765341634e-06,8.401465610756668e-07,2.3142632334410493e-05,1.3252293205677809e-06,1.1070509587373442e-06,1.2584364775665924e-06,3.660387825472156e-06
318,7.390490023901678e-07,1.7410663430708561e-06,1.9922994833817407e-06,2.0317428197235054e-05,1.1048111138204026e-06,9.60513451637845e-07,9.72026217550369e-07,1.5630097862702836e-06,9.99321901024747e-07,1.2532994969462667e-06,8.521485134274051e-07,2.511291745204693e-05,1.3257877480196292e-06,1.118515799831992e-06,1.2796183075019306e-06,3.725966264390622e-06
319,7.462419655321067e-07,1.81882623893144e-06,1.9728178858393956e-06,2.131190899853494e-05,1.0770820846420766e-06,9.599953049556e-07,9.83362361876972e-07,1.5935074470304278e-06,9.691345255004016e-07,1.2798897127509853e-06,8.640279486935894e-07,2.7284835273367716e-05,1.3286213594569986e-06,1.1329650858916348e-06,1.3011093133068306e-06,3.7790903075054297e-06
320,7.57204991425274e-07,1.8968445995256937e-06,1.9492512768230145e-06,2.240597598271175e-05,1.0502463259761463e-06,9.615424452115195e-07,9.960136367931926e-07,1.6435656716569646e-06,9.457140720423017e-07,1.3099113229363468e-06,8.755843037629939e-07,2.9640203212173482e-05,1.3341549101249507e-06,1.1502487726198192e-06,1.3227388882505586e-06,3.818326015345028e-06
321,7.720918950892122e-07,1.974380930641459e-06,1.9218701571622375e-06,2.3604134133361095e-05,1.0243777562136813e-06,9.653692113486774e-07,1.0097376393882059e-06,1.7138616544986562e-06,9.298615882649624e-07,1.344108615818922e-06,8.866302701966775e-07,3.215602367479851e-05,1.3426475200181387e-06,1.1701241058367357e-06,1.3443342970183645e-06,3.8429913927803016e-06
322,7.909333999146241e-07,2.0507780382643358e-06,1.8910650468648738e-06,2.4909601390292157e-05,9.99474393846332e-07,9.715593342545108e-07,1.0242406418231795e-06,1.8047312705567384e-06,9.22290490912954e-07,1.383186400957893e-06,8.969361700926734e-07,3.480456486330208e-05,1.3541383891846054e-06,1.1922329277080843e-06,1.3657030082464135e-06,3.852998183762974e-06
323,8.136330818825399e-07,2.1254895189557205e-06,1.8571281560401947e-06,2.6322834231947394e-05,9.754982855947845e-07,9.80080181301823e-07,1.0392443063346063e-06,1.916152923458853e-06,9.236106317544273e-07,1.4277453286346663e-06,9.062421154579256e-07,3.7553069671539755e-05,1.3684306255413567e-06,1.2160463067251465e-06,1.38664695213605e-06,3.848520139101644e-06
324,8.399530048913376e-07,2.198116327403488e-06,1.8201345984871978e-06,2.7840961162433485e-05,9.524392984523101e-07,9.907967802214515e-07,1.0544870804216758e-06,2.047758156826947e-06,9.343442448481691e-07,1.4782357977536652e-06,9.143267215497542e-07,4.0362791902778924e-05,1.3850845120222846e-06,1.24086656580315e-06,1.4069646620536555e-06,3.829593743423689e-06
325,8.694985709244634e-07,2.2684446741654393e-06,1.7800379753325321e-06,2.9458607936674805e-05,9.303085301734821e-07,1.003521009110449e-06,1.069660409358216e-06,2.19884754669652e-06,9.549265328229106e-07,1.534938325177945e-06,9.210994086135303e-07,4.318789405478983e-05,1.4034229861249263e-06,1.2659057917538883e-06,1.4264330182647905e-06,3.7958321378257205e-06
326,9.017088974358288e-07,2.336433252300705e-06,1.7368505046396946e-06,3.11690663597207e-05,9.090642164109888e-07,1.0180403390763572e-06,1.0843952987227199e-06,2.3684448349967433e-06,9.856527657751137e-07,1.5980035492052516e-06,9.267038788271443e-07,4.597549087524672e-05,1.4225831833645615e-06,1.2903669899297923e-06,1.4448357845925746e-06,3.746506989790129e-06
327,9.358662766585948e-07,2.4021059584002854e-06,1.6907196847387788e-06,3.296442093228318e-05,8.885562813217076e-07,1.0340732343830472e-06,1.0983513718738428e-06,2.5554068470147537e-06,1.0266199663616778e-06,1.6675043084036649e-06,9.315707479292937e-07,4.8667107323958884e-05,1.4416298664358675e-06,1.3134625949025416e-06,1.4620965997408406e-06,3.6809952816586195e-06
328,9.711408377227968e-07,2.465383367322003e-06,1.6418342144097995e-06,3.4834184459447674e-05,8.685503696649213e-07,1.0512162487538304e-06,1.1113034734852646e-06,2.7584555076013036e-06,1.0777026479391847e-06,1.743462420474306e-06,9.363623268191415e-07,5.1200172711338196e-05,1.4597110242623862e-06,1.3343710251555147e-06,1.4783405598916118e-06,3.5993150830182893e-06
329,1.006679719251216e-06,2.5260207336359284e-06,1.590258089719381e-06,3.6763071515469504e-05,8.488079616449354e-07,1.0689582761193322e-06,1.1231184489571236e-06,2.9760416566155624e-06,1.1385529533227502e-06,1.8258473287410104e-06,9.418284507949972e-07,5.350932013680507e-05,1.476202663537729e-06,1.352197653091742e-06,1.4937348153119186e-06,3.502495509637963e-06
