,EMG1,EMG2,EMG3,EMG4,EMG5,EMG6,EMG7,EMG8,EMG9,EMG10,EMG11,EMG12,EMG13,EMG14,EMG15,EMG16
0,1.0253026509744152e-07,6.803506592816594e-08,3.3173575836141463e-08,4.815667865271455e-06,2.1818695416503784e-07,-6.689926077738859e-08,-6.447007963176239e-08,1.8566050455722307e-07,4.573845152430792e-07,1.7775760524369246e-07,2.8020190573828917e-07,7.183860813866894e-06,2.555920159580257e-07,1.8374547330944957e-07,1.6519334629056078e-07,1.7843119197368054e-07
1,1.700852607535201e-07,1.2851821028562473e-07,1.2244561500939594e-07,6.701021339630003e-06,2.6136433519154253e-07,1.902934280695016e-09,-2.9353720153252e-09,2.935120378592296e-07,1.7818724987852243e-06,2.9573233000416263e-07,3.8048360110017146e-07,9.635919194226939e-06,3.1250514190680037e-07,2.0804647146987747e-07,2.2526680249459013e-07,3.190383791279117e-07
2,2.3678736784361922e-07,1.8865931316556688e-07,2.085056110352062e-07,8.495986690546822e-06,3.0444527582047403e-07,6.903565592668443e-08,5.6474998450371574e-08,4.106099579328098e-07,3.067715194891297e-06,4.116757547832981e-07,4.802078653774282e-07,1.2148278585035421e-05,3.678786327050723e-07,2.338970111450465e-07,2.8373707062493025e-07,4.592971378062832e-07
3,3.020694887588465e-07,2.474113868416855e-07,2.9067071069455487e-07,1.01808398080655e-05,3.474115959762337e-07,1.336637707862888e-07,1.1301019928910219e-07,5.372913275285963e-07,4.2745795370101275e-06,5.224339710452918e-07,5.767079631710379e-07,1.4700388633829762e-05,4.2109952123104977e-07,2.6103222252060986e-07,3.399244253452102e-07,5.967590438167513e-07
4,3.6549087402583214e-07,3.0389572337356833e-07,3.683333186752514e-07,1.1737757445827837e-05,3.9026121052070053e-07,1.95318920561122e-07,1.661698517844739e-07,6.740107198319049e-07,5.373148601552467e-06,6.255956281376711e-07,6.67794026168922e-07,1.7271310873865944e-05,4.715699750508027e-07,2.892052520572405e-07,3.9326606654700726e-07,7.295727740350404e-07
5,4.267461618300515e-07,3.575386347612244e-07,4.409829998435855e-07,1.3151006149800807e-05,4.329630878716854e-07,2.538426505446556e-07,2.1568838698925927e-07,8.212461422463001e-07,6.348093138197327e-06,7.196818472501478e-07,7.51990091753983e-07,1.984169254425846e-05,5.187696428519726e-07,3.1823077075511166e-07,4.4329745881470143e-07,8.566030984073357e-07
6,4.856374512970146e-07,4.081392675459797e-07,5.081868197523475e-07,1.4406991925170383e-05,4.754421074886732e-07,3.092310471602503e-07,2.614311378490683e-07,9.794314662173418e-07,7.196165344358753e-06,8.040996327211892e-07,8.286030555988087e-07,2.2398023190034296e-05,5.623468329494788e-07,3.479947457391699e-07,4.896474840166455e-07,9.773669074221359e-07
7,5.420226486482255e-07,4.5578109008820425e-07,5.695700300020278e-07,1.5494592243298844e-05,5.175898544708051e-07,3.6153106885818625e-07,3.033178257790338e-07,1.1489754350685492e-06,7.92210822458665e-06,8.789356309770764e-07,8.975791185424545e-07,2.4936639064198885e-05,6.021574334827456e-07,3.7846503850648444e-07,5.320692713692699e-07,1.0918449654218987e-06
8,5.957542863072076e-07,5.006730765204136e-07,6.24806941474589e-07,1.6405964234665206e-05,5.59267227521508e-07,4.108491820213933e-07,3.413490951594244e-07,1.330273810313353e-06,8.53550847912776e-06,9.446929101200147e-07,9.59256837804548e-07,2.7464500686077027e-05,6.382125833835977e-07,4.097265985454608e-07,5.704559362740095e-07,1.2002109246102538e-06
9,6.4665417059967e-07,5.430522469119092e-07,6.736284592135309e-07,1.7137628568794903e-05,6.00312906087445e-07,4.574211111299083e-07,3.756870718287679e-07,1.5236341692346206e-06,9.048928166422593e-06,1.0020423727808077e-06,1.0141496354742456e-06,2.999663784187313e-05,6.706223963628349e-07,4.4197063842261726e-07,6.048521496228699e-07,1.3025785921782205e-06
10,6.945581165002557e-07,5.831615266490907e-07,7.158913711498077e-07,1.7691257241342435e-05,6.405798705291457e-07,5.01648951757742e-07,4.0668733105970174e-07,1.7291930114028292e-06,9.476262139871893e-06,1.0516451873747769e-06,1.0627815327612047e-06,3.2552052853261125e-05,6.995884451208012e-07,4.7541512598242836e-07,6.354590219472481e-07,1.39892342989435e-06
11,7.393989063990426e-07,6.21228758842118e-07,7.516887453177725e-07,1.8073402680197415e-05,6.799511972026605e-07,5.440524847791652e-07,4.3484066385202517e-07,1.9469128109081168e-06,9.831008728618934e-06,1.0940583844884132e-06,1.1055816540829715e-06,3.514955183842188e-05,7.253573363692065e-07,5.102351738759422e-07,6.625586698055593e-07,1.4891642424276466e-06
12,7.81274068796469e-07,6.574231884535131e-07,7.814158025886084e-07,1.8293679166319893e-05,7.182852075188937e-07,5.851710859764557e-07,4.6067151422834425e-07,2.1765829489218603e-06,1.0124998485136875e-05,1.1297014117084593e-06,1.1428836442205026e-06,3.780415972011562e-05,7.481185104344467e-07,5.465608416552079e-07,6.863939300809756e-07,1.573224626955678e-06
13,8.204667311991471e-07,6.918221396516671e-07,8.057241830123653e-07,1.836201996831197e-05,7.55337561940962e-07,6.254903669646249e-07,4.846625250948155e-07,2.4177423882866366e-06,1.0367876157823032e-05,1.1588670510806067e-06,1.1750181719137672e-06,4.052441211399206e-05,7.679343121282221e-07,5.845112753436275e-07,7.071127724054124e-07,1.6510591768451037e-06
14,8.573951519012781e-07,7.244076874446052e-07,8.25367346979204e-07,1.828705034117589e-05,7.907338553354214e-07,6.654175083063242e-07,5.072270161881903e-07,2.669622111153951e-06,1.0567014382139547e-05,1.1817787368028125e-06,1.202412215336215e-06,4.331088083972145e-05,7.847170708659697e-07,6.241939565492659e-07,7.248012090945936e-07,1.7227639576863098e-06
15,8.924930593796484e-07,7.550947390962281e-07,8.410392607462595e-07,1.8077002686065173e-05,8.239926216873415e-07,7.052801952582092e-07,5.287092642769311e-07,2.931197187901314e-06,1.0727594116087658e-05,1.1987077670068997e-06,1.225625560707622e-06,4.615604086210405e-05,7.982368638744844e-07,6.656592141822568e-07,7.395638481306722e-07,1.7886571174139745e-06
16,9.260865870174044e-07,7.83761378882423e-07,8.532920986064566e-07,1.7742060154296428e-05,8.545972165614939e-07,7.453284530412891e-07,5.494056869850844e-07,3.201209128562902e-06,1.0853108684476784e-05,1.21011154446125e-06,1.2452992571773036e-06,4.9044826627361674e-05,8.08187663557409e-07,7.088600187090914e-07,7.515922753967042e-07,1.849149363321488e-06
17,9.583448498320324e-07,8.102393255287904e-07,8.625138839511381e-07,1.729608913926965e-05,8.82139110125394e-07,7.85723513907417e-07,5.6960550881847e-07,3.4780074593836416e-06,1.0946442547193247e-05,1.2166694440507532e-06,1.2620364097088744e-06,5.1955227965590517e-05,8.143043652327373e-07,7.536475900214525e-07,7.61192756012679e-07,1.9045407450823712e-06
18,9.8929861295175e-07,8.342766537920422e-07,8.689397827514223e-07,1.6756909430662884e-05,9.064579738604735e-07,8.265030513239195e-07,5.896089339495219e-07,3.7593072768474695e-06,1.1010766052606086e-05,1.21915263739959e-06,1.2763188454546528e-06,5.485919816390107e-05,8.164768299894613e-07,7.997970309219935e-07,7.68807166080325e-07,1.9549659193984156e-06
19,1.018852973626279e-06,8.555176825863379e-07,8.727128655607078e-07,1.614530262334229e-05,9.276635828472221e-07,8.675448234722276e-07,6.096920557237565e-07,4.0420370436676934e-06,1.1049303858974813e-05,1.2182589788366143e-06,1.288533843888199e-06,5.772414194862196e-05,8.148216691820852e-07,8.470310372828404e-07,7.750264259415644e-07,2.0004621282244887e-06
20,1.0467547852390503e-06,8.735137038601998e-07,8.739737857750899e-07,1.548330520001937e-05,9.460520170675286e-07,9.085698300608734e-07,6.300650221826077e-07,4.322293999480822e-06,1.1064216900044876e-05,1.2145783327106536e-06,1.2990168763763537e-06,6.0514057186623753e-05,8.096684093976829e-07,8.95013947307354e-07,7.805327317993549e-07,2.041023784447363e-06
21,1.072544734091427e-06,8.877904822207037e-07,8.729061580522191e-07,1.4792353739378904e-05,9.620070479828067e-07,9.492054586023603e-07,6.508655614053906e-07,4.595318629289762e-06,1.1055730649128138e-05,1.2086581271417455e-06,1.3080200116803852e-06,6.318946932658088e-05,8.014498026743508e-07,9.433367569126703e-07,7.859852501390351e-07,2.0765891120552893e-06
22,1.095536330970671e-06,8.979973411407098e-07,8.697448480190637e-07,1.4091772381049008e-05,9.759228609351608e-07,9.89065656272603e-07,6.72159895748955e-07,4.855465476194221e-06,1.1022180790541e-05,1.2010473485201528e-06,1.3156809775490922e-06,6.570738933106228e-05,7.905956971863335e-07,9.915193809280135e-07,7.919497487150416e-07,2.1070041783309104e-06
23,1.114850401745701e-06,9.040231749874092e-07,8.648230691680754e-07,1.3397984902174903e-05,9.881351720074166e-07,1.027767069822482e-06,6.939378794729868e-07,5.096350244327173e-06,1.0960693912430409e-05,1.1923244024177207e-06,1.3220561647602009e-06,6.802349892005761e-05,7.774966361215417e-07,1.0390191268127504e-06,7.98893708107516e-07,2.1320804053182907e-06
24,1.1295298076264863e-06,9.059472320341084e-07,8.58611705836169e-07,1.2724457547341461e-05,9.988636080653454e-07,1.0648945857419853e-06,7.161196872787815e-07,5.3114425600625685e-06,1.0867809669987192e-05,1.183158725215123e-06,1.3271486415797493e-06,7.009670661313092e-05,7.624816655759178e-07,1.0852809194096488e-06,8.071820487186332e-07,2.1517907417386463e-06
25,1.1387302335868116e-06,9.039413933783204e-07,8.516562953281278e-07,1.2081907014786686e-05,1.0081893593217584e-06,1.1000249496832412e-06,7.385752761443034e-07,5.49506393362955e-06,1.0739590552116235e-05,1.1743340551442807e-06,1.330890210911689e-06,7.189353335870654e-05,7.458059485291875e-07,1.1298669624166311e-06,8.17049620376526e-07,2.1664467387875806e-06
26,1.1419283444099895e-06,8.982955075383345e-07,8.444570431207729e-07,1.1478379299319386e-05,1.0160754783788762e-06,1.1328263471624393e-06,7.611884447581516e-07,5.643323487785911e-06,1.0571380415871416e-05,1.1666485663080438e-06,1.3331348896015825e-06,7.338870150911933e-05,7.276856221097387e-07,1.1725478964978249e-06,8.285971677339227e-07,2.1766427501673643e-06
27,1.1390576249713903e-06,8.894828975839243e-07,8.373889125923361e-07,1.0919321723342776e-05,1.0223990190864292e-06,1.1631297615335194e-06,7.839916660091003e-07,5.75449670493777e-06,1.0358279832867798e-05,1.1607703226258577e-06,1.3336839946625062e-06,7.456002046557065e-05,7.083365590188779e-07,1.2132237747927878e-06,8.418533130714589e-07,2.1830233563245256e-06
28,1.130513776099994e-06,8.781126680901757e-07,8.306778740249501e-07,1.0407979310079333e-05,1.0269594906478687e-06,1.1909061713789614e-06,8.072892041655673e-07,5.8286959372567016e-06,1.009728006729572e-05,1.1571786903978663e-06,1.3323443162189207e-06,7.538101096707798e-05,6.88007864855956e-07,1.2517481875675517e-06,8.568483260361116e-07,2.1861740718406103e-06
29,1.1170384941097953e-06,8.647954251489652e-07,8.244038524487438e-07,9.946216553257666e-06,1.0294932804753426e-06,1.216183674762518e-06,8.316448519519636e-07,5.8670087210668975e-06,9.789846760948465e-06,1.1561713688150936e-06,1.3290580318260714e-06,7.581816197114561e-05,6.670211443151553e-07,1.2878211975717014e-06,8.735980848333009e-07,2.186685954122731e-06
30,1.0995317378936215e-06,8.500531239403391e-07,8.185115100852722e-07,9.535600421965325e-06,1.0297492279332914e-06,1.2389711506267873e-06,8.577255794793205e-07,5.870533864133294e-06,9.442546958863266e-06,1.1578681154825225e-06,1.3240308609175034e-06,7.583597532872492e-05,6.45749868089189e-07,1.3210033947312096e-06,8.920304327346699e-07,2.185116503731705e-06
31,1.0788623625567537e-06,8.343308057851979e-07,8.12828271336134e-07,9.178382697377016e-06,1.0275757038772523e-06,1.2592365219022002e-06,8.861251706484478e-07,5.839909125760673e-06,9.065298413041753e-06,1.1622495115824444e-06,1.3177034568845761e-06,7.540725479126445e-05,6.245645217314807e-07,1.3508140612053169e-06,9.119812241776997e-07,2.181784670187386e-06
32,1.0557443116844065e-06,8.180477950518492e-07,8.071243437155129e-07,8.87793439332908e-06,1.0229311488808394e-06,1.276946539095666e-06,9.172715300526157e-07,5.775570355307531e-06,8.668964177179988e-06,1.1692573349151738e-06,1.3105567688937742e-06,7.452242701257095e-05,6.038254530772612e-07,1.3768775620116793e-06,9.33257512249128e-07,2.1766246432061015e-06
33,1.030694766664959e-06,8.016065347937423e-07,8.012605432528207e-07,8.638387854748099e-06,1.0158547312427273e-06,1.2921100771564778e-06,9.514128200404063e-07,5.678343866954371e-06,8.263721372132871e-06,1.178864844726804e-06,1.3029115068153404e-06,7.319045754183624e-05,5.838851466989907e-07,1.399018926367279e-06,9.556510334102491e-07,2.1691845730557608e-06
34,1.0040476066234753e-06,7.853404667374963e-07,7.953771760382386e-07,8.463724862806275e-06,1.0064816564319529e-06,1.3047417980368684e-06,9.886397025624373e-07,5.549871111985043e-06,7.858333369905777e-06,1.1910260492269475e-06,1.2948707541887457e-06,7.143230844770259e-05,5.650741509894512e-07,1.41718172353467e-06,9.788710435117019e-07,2.158740711727121e-06
35,9.760141789352436e-07,7.694539335682908e-07,7.899652672069349e-07,8.35702694312722e-06,9.95096332086888e-07,1.3147499066549774e-06,1.0289067994285985e-06,5.392710400270764e-06,7.459903724113435e-06,1.205567430683121e-06,1.2864100873463254e-06,6.927878239782378e-05,5.47700589595511e-07,1.4312415986032688e-06,1.0024793442911095e-06,2.1445641038975878e-06
36,9.467858238703383e-07,7.540303656702435e-07,7.857390481260473e-07,8.320437185953365e-06,9.821570046561568e-07,1.3218552923806067e-06,1.072035992587439e-06,5.210202908566066e-06,7.073857583287195e-06,1.222164911811697e-06,1.2775167490156095e-06,6.67749160722445e-05,5.320462201711405e-07,1.440943350670179e-06,1.025894381791909e-06,2.126241219228233e-06
37,9.166116756330086e-07,7.390987240028583e-07,7.834414681630308e-07,8.355616385889693e-06,9.682388077048144e-07,1.3256107437657281e-06,1.1177147077493766e-06,5.006210521141542e-06,6.704121617788188e-06,1.2404307416001782e-06,1.2682865118156312e-06,6.39788905685421e-05,5.183508227057682e-07,1.4460210671107643e-06,1.048447592057186e-06,2.1037720988269463e-06
38,8.857834885700579e-07,7.246717453420528e-07,7.837318649668961e-07,8.464177597101795e-06,9.539119417569123e-07,1.3254900819297935e-06,1.1655122214462664e-06,4.784803576377018e-06,6.353453566223512e-06,1.2599945638124347e-06,1.2589479937338734e-06,6.095557398936999e-05,5.068035519627244e-07,1.4463430830847108e-06,1.0694245121475752e-06,2.0773590336371197e-06
39,8.545581774503231e-07,7.107510637899568e-07,7.87142873322933e-07,8.647913624805178e-06,9.396542132264391e-07,1.3210290987161522e-06,1.2149296913452371e-06,4.550034995716138e-06,6.023782205730739e-06,1.280475387410322e-06,1.2498126776923914e-06,5.777518108500078e-05,4.975397990543042e-07,1.4419540511335091e-06,1.0880748030008773e-06,2.0471524923616705e-06
40,8.231187644889306e-07,6.973653451618558e-07,7.940555465831612e-07,8.908827725549824e-06,9.258599025458014e-07,1.3120329473726272e-06,1.2654457068319276e-06,4.305919686927782e-06,5.716424101602022e-06,1.3014080421720835e-06,1.2411638773044664e-06,5.4513983870444206e-05,4.906454954805345e-07,1.433047466792735e-06,1.1036642303480977e-06,2.013257870493973e-06
41,7.916228370305918e-07,6.846088844460523e-07,8.047082722766026e-07,9.248928693858815e-06,9.128910291629209e-07,1.2987801453207564e-06,1.316487028958241e-06,4.056526635549565e-06,5.432117875300609e-06,1.322240295073924e-06,1.2331576162467137e-06,5.1249363926095677e-05,4.861683550143812e-07,1.4199465478797457e-06,1.1155597728023845e-06,1.975986554468632e-06
42,7.602746277344155e-07,6.726044698709685e-07,8.192554708621015e-07,9.669758857511433e-06,9.01090410258979e-07,1.2820668852892721e-06,1.3673323457184586e-06,3.8059391988457467e-06,5.170932763700445e-06,1.3423832775246544e-06,1.225822017927608e-06,4.805266031404611e-05,4.841189263081613e-07,1.4030992362536086e-06,1.123258452408533e-06,1.9360753409685177e-06
43,7.293348941875248e-07,6.614353555639371e-07,8.378300413634361e-07,1.0171737763031444e-05,8.9074260058203e-07,1.2630212972778083e-06,1.4170345914255565e-06,3.5579913801319852e-06,4.932177132462495e-06,1.3612693047647924e-06,1.2191714370518663e-06,4.4985566796289425e-05,4.84467538991162e-07,1.3830663722455844e-06,1.1264192862071756e-06,1.8946670959731687e-06
44,6.990658556723926e-07,6.511234060240963e-07,8.605721867087517e-07,1.0753559631333679e-05,8.820325597949395e-07,1.242815360458437e-06,1.46443275822213e-06,3.3159694911888296e-06,4.714356096898277e-06,1.3783810138385949e-06,1.2133490606304225e-06,4.2099979399529737e-05,4.871578718066756e-07,1.3604986834583485e-06,1.1249548747622498e-06,1.8530801067279877e-06
45,6.696683382262398e-07,6.416508121034635e-07,8.876762355802904e-07,1.1411934218475814e-05,8.750375549756713e-07,1.222477264649156e-06,1.508263644450558e-06,3.0824706428528852e-06,4.515116947224266e-06,1.393194861267274e-06,1.2086712433207806e-06,3.9439224811084014e-05,4.921293568936235e-07,1.3360957829864831e-06,1.1190473068411495e-06,1.8125399706146935e-06
46,6.412694893177221e-07,6.330159124419555e-07,9.194744589173716e-07,1.214172474990202e-05,8.6975388028267e-07,1.2028720240674885e-06,1.5473394578315145e-06,2.8593801973128217e-06,4.331149513980271e-06,1.4051269825996349e-06,1.2055719972107343e-06,3.7039369615991e-05,4.993282195204096e-07,1.3105434579878788e-06,1.1090251276394373e-06,1.7740139009622403e-06
47,6.139817478892426e-07,6.253048676554627e-07,9.564757217214518e-07,1.29362274244284e-05,8.661561535821064e-07,1.1847530899651731e-06,1.5807435150704074e-06,2.647885373227721e-06,4.1581239186538525e-06,1.4136388747471414e-06,1.2045403906311366e-06,3.492994951577757e-05,5.087015096509025e-07,1.284434408504925e-06,1.0952312058027493e-06,1.738155103737873e-06
48,5.879722049982261e-07,6.187107311128817e-07,9.993187583809628e-07,1.3787308482193767e-05,8.64239588615141e-07,1.1687735935243754e-06,1.6079839976958437e-06,2.448561235609644e-06,3.99083174032035e-06,1.418468365399772e-06,1.206056147824461e-06,3.313446702949547e-05,5.201724416357841e-07,1.2581966138150172e-06,1.0780022141267963e-06,1.7053118584219067e-06
49,5.634592835978979e-07,6.134906899447271e-07,1.0486763521188847e-06,1.4685197801396941e-05,8.639912996749128e-07,1.1554420555458564e-06,1.6290420748191604e-06,2.2615599155711993e-06,3.823747299918411e-06,1.4198052223694394e-06,1.2104977223557357e-06,3.167137398615229e-05,5.336028355860054e-07,1.2320805885336116e-06,1.0577563701377532e-06,1.6756318516923996e-06
50,5.406562998625375e-07,6.099319374042602e-07,1.105148981178035e-06,1.5617965012979214e-05,8.653349982113142e-07,1.1450820461515335e-06,1.644301444954638e-06,2.0868255448527945e-06,3.6520252113204826e-06,1.4182576625411397e-06,1.2180782522700806e-06,3.0555499129467786e-05,5.487679312029729e-07,1.206220342876942e-06,1.035086781188632e-06,1.6493060088495484e-06
51,5.19733403020295e-07,6.08332586623057e-07,1.169179874963449e-06,1.6571318905979292e-05,8.681285716436817e-07,1.137843033530638e-06,1.6544115674805638e-06,1.924236702055629e-06,3.4723322849547522e-06,1.4146352677376822e-06,1.2288426774271953e-06,2.9799083721277473e-05,5.65359691690711e-07,1.1806971848755546e-06,1.0107441237392296e-06,1.6268340705283757e-06
52,5.008053714713796e-07,6.089566293466937e-07,1.241009361835249e-06,1.75294489250468e-05,8.722101414100896e-07,1.1337314125623647e-06,1.6601226047540544e-06,1.7736771314455002e-06,3.2829729698886407e-06,1.4097907282958848e-06,1.242675592674924e-06,2.9411544805470984e-05,5.830005221043606e-07,1.1555647161819646e-06,9.854973578925408e-07,1.609081211259711e-06
53,4.839324208955823e-07,6.119946590429017e-07,1.3206691528882193e-06,1.847665012901429e-05,8.774175571901476e-07,1.132609104897871e-06,1.662092121380135e-06,1.6350965037844367e-06,3.083841426383182e-06,1.4046482503312805e-06,1.2593050838898599e-06,2.9398131594174406e-05,6.012567183936557e-07,1.1308943962556583e-06,9.599897126296225e-07,1.5970709766003658e-06
54,4.6913441159814267e-07,6.175809377749159e-07,1.408022488627514e-06,1.939882089162819e-05,8.835623048216284e-07,1.1341902342613124e-06,1.6607198594113734e-06,1.5085483648861273e-06,2.876527724220013e-06,1.400234299641e-06,1.2783198442152523e-06,2.975888064458815e-05,6.196829232754262e-07,1.1068308410546329e-06,9.347168419863831e-07,1.5917216298740621e-06
55,4.5639676714514985e-07,6.258379125457107e-07,1.5028404833554767e-06,2.0284303435169224e-05,8.904378415656044e-07,1.1380713566642492e-06,1.6561148148006205e-06,1.394128928506823e-06,2.6638551133964726e-06,1.3975690604580623e-06,1.2991541178677673e-06,3.048858367676224e-05,6.378922518830719e-07,1.0835624593343978e-06,9.101369818490888e-07,1.5937005852838905e-06
56,4.45664504081957e-07,6.368813335737958e-07,1.6048633696226108e-06,2.112416396965322e-05,8.979034848958435e-07,1.1437506674060928e-06,1.6481897050337375e-06,1.2918271043283243e-06,2.44890941982516e-06,1.3975351047908188e-06,1.3210427703221553e-06,3.157676400624786e-05,6.555914970749076e-07,1.0612545444225504e-06,8.867717128734887e-07,1.6033812371638043e-06
57,4.368525353776407e-07,6.507749917406078e-07,1.7137892563549352e-06,2.191230196500446e-05,9.0597178305803e-07,1.1506433133243318e-06,1.6367498831485534e-06,1.2014114037628182e-06,2.2344841697180574e-06,1.4008322190665688e-06,1.3430284394576015e-06,3.300698496932077e-05,6.725751376793387e-07,1.0400701456331432e-06,8.651616941900844e-07,1.6208556382449236e-06
58,4.298703510732181e-07,6.674822014921617e-07,1.8291802767763203e-06,2.264559840207326e-05,9.148211746554746e-07,1.1581401242731214e-06,1.6215233488996738e-06,1.1224639878397931e-06,2.0230725067299867e-06,1.4079700951099336e-06,1.3640124102388973e-06,3.4756016555187936e-05,6.887219670439699e-07,1.0202610267883207e-06,8.457396643735074e-07,1.6459716056456259e-06
59,4.2464117114463583e-07,6.868460421106586e-07,1.9503489423423754e-06,2.3323808315207333e-05,9.247263952097024e-07,1.1656745516431759e-06,1.6022172920146494e-06,1.0545317992498384e-06,1.8169657812454828e-06,1.4192548524391369e-06,1.3827994188803155e-06,3.6793190997056575e-05,7.040068934402614e-07,1.0022244517592102e-06,8.287603094454661e-07,1.6783251133808038e-06
60,4.211248987428563e-07,7.08588015986061e-07,2.0762966802051253e-06,2.394861259227976e-05,9.359549934743344e-07,1.1727805968767476e-06,1.578612176109971e-06,9.972419083356177e-07,1.6182607482100019e-06,1.4348137549397485e-06,1.3982198957206568e-06,3.907990502132606e-05,7.185089292186375e-07,9.864716314512493e-07,8.143251775750324e-07,1.7171883681177113e-06
61,4.1934350226038967e-07,7.323049261543006e-07,2.2057376178641094e-06,2.452156599844337e-05,9.486870115117494e-07,1.1791431891860456e-06,1.5506225349077167e-06,9.502796826339415e-07,1.4288003595103298e-06,1.4546618525256756e-06,1.4094208189949627e-06,4.1569416391826754e-05,7.32390956167265e-07,9.735209329630398e-07,8.025028130423489e-07,1.7614524104234446e-06
62,4.1937165519789336e-07,7.574621959572042e-07,2.337278130896857e-06,2.5041634269872094e-05,9.62975302418698e-07,1.1845703367597153e-06,1.5183543952242736e-06,9.132812483754323e-07,1.2501333337218614e-06,1.4787171067276692e-06,1.4161591804942287e-06,4.4206870300864385e-05,7.458471525871122e-07,9.637827338460977e-07,7.935265920175016e-07,1.8096565524908939e-06
63,4.212879005689239e-07,7.834003490349558e-07,2.4697395559005623e-06,2.5503924660414974e-05,9.78752423860949e-07,1.1888969501790603e-06,1.482207095002063e-06,8.857446052343634e-07,1.083552111334876e-06,1.5067544303571766e-06,1.4187963148752464e-06,4.6929091510362104e-05,7.590797216384604e-07,9.575073429163496e-07,7.879602967600695e-07,1.8601058218127474e-06
64,4.251287163959652e-07,8.093615664110914e-07,2.602344109218297e-06,2.590051490122e-05,9.958907394884263e-07,1.191947344168995e-06,1.4429463698523417e-06,8.669990185176177e-07,9.301915188481083e-07,1.538428594857502e-06,1.4179721767371259e-06,4.966383274214204e-05,7.723525747607496e-07,9.547927069149088e-07,7.867184820569011e-07,1.911041215295969e-06
65,4.308695056218036e-07,8.345314683718408e-07,2.734523731595393e-06,2.6222459004265773e-05,1.014253463076085e-06,1.1935777951236754e-06,1.401653491105235e-06,8.562135712712393e-07,7.911100810259334e-07,1.573385784746842e-06,1.414251953947157e-06,5.232868878395831e-05,7.860276831732278e-07,9.555994660826918e-07,7.909839567320472e-07,1.9608105893841355e-06
66,4.38435269443851e-07,8.581130909917829e-07,2.865538087373468e-06,2.64616715354329e-05,1.033662254057765e-06,1.1937086106160085e-06,1.3595526222882952e-06,8.524180714425229e-07,6.673065362206252e-07,1.61130870251225e-06,1.407980866077683e-06,5.483097592750598e-05,8.004973680340471e-07,9.597781718949303e-07,8.021708649190579e-07,2.007981830132568e-06
67,4.477449023238342e-07,8.794257485460229e-07,2.994324000293578e-06,2.66123694874855e-05,1.0538354396864314e-06,1.192310595358073e-06,1.3178050087731912e-06,8.545264265544851e-07,5.597038557002958e-07,1.6518526470545153e-06,1.3993693805919928e-06,5.70718036229238e-05,8.160992445264628e-07,9.67125637049534e-07,8.219986555830688e-07,2.051380811067916e-06
68,4.58766916893092e-07,8.979481072553858e-07,3.1197468386760194e-06,2.6672249582329875e-05,1.0744084897755677e-06,1.1893541276060465e-06,1.2773749336736708e-06,8.613926698180801e-07,4.691442129001144e-07,1.694592139560267e-06,1.3887051457151438e-06,5.8957445577525646e-05,8.331030843666705e-07,9.774155485790356e-07,8.525783439277685e-07,2.0900747887574416e-06
69,4.7153883809261243e-07,9.132877655309604e-07,3.241001883207784e-06,2.6643437840399613e-05,1.0950394821476511e-06,1.1847334050937234e-06,1.2390068349057676e-06,8.71906541774075e-07,3.964082189454691e-07,1.7389849995009062e-06,1.3765155958348016e-06,6.0415524413536525e-05,8.517205106111531e-07,9.903836616846845e-07,8.963653026326693e-07,2.123307960266427e-06
70,4.86127276977944e-07,9.25191901471874e-07,3.357793389872505e-06,2.6533010552875412e-05,1.1155051693636776e-06,1.1782079054542263e-06,1.2032547678665318e-06,8.850361626949357e-07,3.422622871021458e-07,1.78428338425687e-06,1.3635530102398045e-06,6.140665257852171e-05,8.720881566199805e-07,1.005721176460516e-06,9.559881063162943e-07,2.1504106999836756e-06
71,5.025602937231338e-07,9.33623839388549e-07,3.4701746810792113e-06,2.635276085034828e-05,1.135704310725414e-06,1.1693887798152864e-06,1.170503109131911e-06,8.997687242634267e-07,3.075155705250536e-07,1.8294731838198083e-06,1.350645889092526e-06,6.192290440751562e-05,8.942456437209727e-07,1.0230837180477318e-06,1.0341065047212677e-06,2.1707231517969467e-06
72,5.207791521857124e-07,9.38778549148998e-07,3.578196040990575e-06,2.6118025679644534e-05,1.1555677336667637e-06,1.1577866921749512e-06,1.1409974682440468e-06,9.150771489964984e-07,2.930451095412044e-07,1.873353468351767e-06,1.3385377252988228e-06,6.197452048917234e-05,9.181235655891137e-07,1.0420750156698485e-06,1.1333916616001971e-06,2.1835312466276548e-06
73,5.406219728106912e-07,9.410008273686952e-07,3.6815588264610015e-06,2.5845806324105653e-05,1.1749777858233433e-06,1.142950009563076e-06,1.1148844296646088e-06,9.300448960640798e-07,2.997883445178836e-07,1.9147049175289645e-06,1.3277720170490903e-06,6.157692403224526e-05,9.435702075239136e-07,1.062194660720831e-06,1.256606522480833e-06,2.1880685992647863e-06
74,5.618310102218163e-07,9.406919348978858e-07,3.7794644907650598e-06,2.5552736034488853e-05,1.1938037396333801e-06,1.124651530167925e-06,1.092208754455682e-06,9.440835510537228e-07,3.2878607802326385e-07,1.9524297056119726e-06,1.3186411640844956e-06,6.0749277132377285e-05,9.70447197065706e-07,1.0827918828796541e-06,1.406678807615071e-06,2.183679675032991e-06
75,5.840862317408916e-07,9.382393176743167e-07,3.870757827146868e-06,2.5253300613696303e-05,1.2120088313660442e-06,1.1030194499931504e-06,1.0729104745397519e-06,9.570554607072377e-07,3.813191657381094e-07,1.9856161289930933e-06,1.3112168762265663e-06,5.952331175261646e-05,9.987166410084364e-07,1.1030978079339867e-06,1.5866330742024717e-06,2.1700318216152306e-06
76,6.070688156267088e-07,9.339624477846541e-07,3.954239784034437e-06,2.4958358330006218e-05,1.2296800469004802e-06,1.0785705858563538e-06,1.0568832059934686e-06,9.69204151328782e-07,4.589984910151951e-07,2.0135471660193675e-06,1.3054242535869185e-06,5.7952246303034666e-05,1.0284133983877936e-06,1.1223452123760065e-06,1.799405925798375e-06,2.1471947794716976e-06
77,6.305102164611021e-07,9.280984877413613e-07,4.028962372425009e-06,2.467402380796463e-05,1.2469311708936177e-06,1.0521606881378141e-06,1.044014280560513e-06,9.809826488719867e-07,5.63671479858577e-07,2.0356885527426817e-06,1.3010829154962682e-06,5.611176118517194e-05,1.059527319570292e-06,1.1398772876826922e-06,2.0477248147100837e-06,2.1156326928135096e-06
78,6.54170139869163e-07,9.208139508997072e-07,4.094457361098993e-06,2.4401243579269587e-05,1.2637663861143392e-06,1.0248549902179739e-06,1.034156436770339e-06,9.92940335737826e-07,6.972482014305985e-07,2.0516749885020962e-06,1.2979248525536248e-06,5.409192608585543e-05,1.0918961115184899e-06,1.15518479165782e-06,2.3341190995394445e-06,2.0761960461419e-06
79,6.777893652390969e-07,9.1219552915147e-07,4.150905916743244e-06,2.4136136671612345e-05,1.2800003716039696e-06,9.977650118731392e-07,1.0271409952924564e-06,1.0057179413458109e-06,8.616017360425802e-07,2.0612763791952835e-06,1.2956332242286351e-06,5.198568878153073e-05,1.1251570381788553e-06,1.1679361324240464e-06,2.660952861072952e-06,2.0300833117174733e-06
80,7.010890755378551e-07,9.022538324237471e-07,4.199220580100514e-06,2.3870708980608285e-05,1.2952596644308949e-06,9.719359270263907e-07,1.0228861051916449e-06,1.020078331704785e-06,1.0585169134904697e-06,2.064312624710936e-06,1.2938677457059984e-06,4.9881366634267324e-05,1.1587507490318217e-06,1.17804647391239e-06,3.030392133007301e-06,1.9787881739459713e-06
81,7.237736971966505e-07,8.909853528769381e-07,4.241020202972566e-06,2.3593738352555816e-05,1.3090256912390475e-06,9.482906426691688e-07,1.0214732095212041e-06,1.0369026463237591e-06,1.2896418727475872e-06,2.0605978283920483e-06,1.2922588191268134e-06,4.786055053459239e-05,1.1919924569708214e-06,1.1856969173083618e-06,3.4443067500388063e-06,1.924054511606364e-06
82,7.454922279117847e-07,8.784223796477633e-07,4.278493613582421e-06,2.3292037157924063e-05,1.3206784491898758e-06,9.275943631819237e-07,1.0230817270641535e-06,1.0571422885699664e-06,1.5565696301719462e-06,2.050070549777506e-06,1.290413486091923e-06,4.599819718504732e-05,1.2242280007609964e-06,1.191214890389164e-06,3.904126651687111e-06,1.8677367682863796e-06
83,7.658313066550833e-07,8.646088590928143e-07,4.314124204803748e-06,2.2952269943333806e-05,1.329557943435638e-06,9.104378238561231e-07,1.027842228975138e-06,1.0817393702560683e-06,1.8611742634255502e-06,2.0330244510476877e-06,1.287997907956115e-06,4.43638616371022e-05,1.2549604297753267e-06,1.194912828544015e-06,4.410674168420005e-06,1.8115525434387915e-06
84,7.844171270862238e-07,8.495816147593628e-07,4.350303624796334e-06,2.2563100535708895e-05,1.3350770054916707e-06,8.972343490256467e-07,1.0357305616373064e-06,1.111538674276801e-06,2.2060129437566712e-06,2.010192380593494e-06,1.2849088911436457e-06,4.302323031249541e-05,1.2838030490776052e-06,1.1970298249684915e-06,4.9639775059118685e-06,1.7569065411496578e-06
85,8.010687764563951e-07,8.334100493656903e-07,4.38899925768474e-06,2.2116978782611685e-05,1.3368514772824507e-06,8.882203778532409e-07,1.0465468449754903e-06,1.147244879434808e-06,2.5944052261052534e-06,1.982691181182794e-06,1.281376049921125e-06,4.20375642070056e-05,1.3103619604283493e-06,1.1977450417997323e-06,5.563080266453116e-06,1.7048830525811983e-06
86,8.158666974510575e-07,8.162064224533631e-07,4.4316194844945665e-06,2.161097388604353e-05,1.3347622374001515e-06,8.834687148593833e-07,1.0599513215429565e-06,1.18944570879313e-06,3.030085857340356e-06,1.9519395505270336e-06,1.277853215560022e-06,4.146164005584147e-05,1.3342367784492433e-06,1.1971606558175874e-06,6.205890602358003e-06,1.6563137751946956e-06
87,8.290924563172933e-07,7.980791634576666e-07,4.479035220398967e-06,2.1046687813228927e-05,1.3288882305800566e-06,8.829308406144145e-07,1.0754988392986374e-06,1.238638209970022e-06,3.5167088469978605e-06,1.9194876214298725e-06,1.2747945624080058e-06,4.1342970312701543e-05,1.3550836778087874e-06,1.1952551166591336e-06,6.8891001629388846e-06,1.6117990378492346e-06
88,8.411178068951349e-07,7.791306346117763e-07,4.531619896294506e-06,2.0429488117755275e-05,1.3193403788147993e-06,8.864930194670148e-07,1.0926350537276726e-06,1.2952031946471245e-06,4.05748581038639e-06,1.8867661954080786e-06,1.2724945935790572e-06,4.1724172823185886e-05,1.3726149120922947e-06,1.1918705699730643e-06,7.608189312642193e-06,1.5716641167290328e-06
89,8.523088907290294e-07,7.595396754773148e-07,4.589201941588585e-06,1.9767072418962122e-05,1.3061450949376974e-06,8.939964112457526e-07,1.11070798826079e-06,1.3593607634120743e-06,4.654986956318962e-06,1.8549283082045987e-06,1.2710597077452508e-06,4.26485256708616e-05,1.3865616807488012e-06,1.1867501783618194e-06,8.357493952333464e-06,1.535937424905634e-06
90,8.629525106505516e-07,7.396370622933247e-07,4.650910500345171e-06,1.9067464557430656e-05,1.2893028822218237e-06,9.052137495606859e-07,1.129054065395565e-06,1.431167707923186e-06,5.310978636638867e-06,1.8248561628075764e-06,1.2704599357517997e-06,4.416457905355944e-05,1.3966636149012797e-06,1.1796270185720976e-06,9.130215718665985e-06,1.504393447730248e-06
91,8.732087967505737e-07,7.198797233511772e-07,4.71499810185243e-06,1.833699399322343e-05,1.268957200837945e-06,9.198367919353133e-07,1.1471114581647052e-06,1.510541709794998e-06,6.026293663022484e-06,1.7972281562144901e-06,1.2705920612230901e-06,4.632515993476357e-05,1.4027164010382196e-06,1.1703585508580398e-06,9.918254571246515e-06,1.4765973550100414e-06
92,8.830884991717277e-07,7.007649636161499e-07,4.778748424924364e-06,1.7579238578191107e-05,1.2455057053600267e-06,9.37497711028163e-07,1.1644869002827637e-06,1.597235371036265e-06,6.800839669632505e-06,1.7725327460369545e-06,1.2713306877124873e-06,4.91827051781285e-05,1.404671630965431e-06,1.1589895082441557e-06,1.0711896267626831e-05,1.4519599085470508e-06
93,8.924420262778229e-07,6.827941545371078e-07,4.838571428825126e-06,1.6795610348827944e-05,1.219563720208413e-06,9.577746830223489e-07,1.1809464957484906e-06,1.690762476984068e-06,7.633696971597672e-06,1.7510659467544819e-06,1.2725678784874457e-06,5.278566037504303e-05,1.402708866574962e-06,1.1456718058512029e-06,1.149948839286079e-05,1.4298790276040994e-06
94,9.009614707274638e-07,6.664946103211705e-07,4.890348634857458e-06,1.598711444500236e-05,1.1918296475978962e-06,9.801429461350724e-07,1.1963262879956883e-06,1.7903965823233355e-06,8.523099229609922e-06,1.7329667212710383e-06,1.2742371158174097e-06,5.717646008191934e-05,1.3972041015089839e-06,1.130584797914429e-06,1.2267238926466886e-05,1.4099137399625174e-06
95,9.08212989189773e-07,6.524337570330399e-07,4.929931155117291e-06,1.5156110404701986e-05,1.162971420187048e-06,1.0039107791997804e-06,1.21042470918391e-06,1.8953030369670428e-06,9.466140511583797e-06,1.718214723042999e-06,1.2763572609500793e-06,6.239095501293874e-05,1.3886022802698996e-06,1.1139693989519712e-06,1.2999495118166847e-05,1.391875052461473e-06
96,9.137470225045106e-07,6.411996609480694e-07,4.953620231758282e-06,1.4307297854609384e-05,1.133580315557568e-06,1.0282102731449376e-06,1.2229971384207846e-06,2.004698284112856e-06,1.045826474960435e-05,1.7066142024999603e-06,1.2791878941974558e-06,6.846028604846007e-05,1.3772655213547246e-06,1.096160419197942e-06,1.3679970406155533e-05,1.3757872199799431e-06
97,9.172944947483193e-07,6.333594268916824e-07,4.958562502806109e-06,1.3447876756199106e-05,1.1041449123921625e-06,1.0520833393806436e-06,1.233872153723035e-06,2.1179173634055285e-06,1.1492778544850793e-05,1.6979196434527373e-06,1.283410405750466e-06,7.541237115752851e-05,1.3633919643408656e-06,1.0775047883438556e-06,1.4293665025734261e-05,1.3617350030029522e-06
98,9.189185262771953e-07,6.294114323556346e-07,4.943067323117241e-06,1.2587208915065094e-05,1.0750307737564023e-06,1.074641839210624e-06,1.243045379856992e-06,2.2343975076521257e-06,1.2560585339990255e-05,1.6920341007107285e-06,1.2900750009965843e-06,8.326921762264113e-05,1.347026050257893e-06,1.0582674746315868e-06,1.4828447026653712e-05,1.349707585628562e-06
99,9.189754527002812e-07,6.297530040478856e-07,4.906829380143826e-06,1.1736230228501076e-05,1.046500759656625e-06,1.0952096488804776e-06,1.2506207765967876e-06,2.353639531876891e-06,1.3650138135744852e-05,1.6890225732190705e-06,1.3003343314653887e-06,9.204110055632738e-05,1.3281026524378056e-06,1.0386501886399343e-06,1.5275565331363115e-05,1.3395582213803799e-06
100,9.179246457958653e-07,6.346735391493189e-07,4.850948428183317e-06,1.090669637204638e-05,1.0187488739269664e-06,1.113373926117199e-06,1.2566676825765866e-06,2.4751748277534306e-06,1.4747417863792589e-05,1.6889165105901312e-06,1.31524684125834e-06,0.00010172148638719789,1.306563311747265e-06,1.0188696398858798e-06,1.562902392487502e-05,1.3310595686374117e-06
101,9.161772820345746e-07,6.443530198102767e-07,4.7775937890661186e-06,1.0110381891045157e-05,9.918972660442035e-07,1.1289629337146163e-06,1.2611859884472557e-06,2.5985332155093206e-06,1.5835744590296694e-05,1.6915327553697777e-06,1.3357369530109558e-06,0.00011228428883599867,1.2825817243261104e-06,9.9917258689467e-07,1.5884217663885345e-05,1.3239851367932163e-06
102,9.140915052248198e-07,6.588521570927576e-07,4.689331480566782e-06,9.358413147187044e-06,9.659771534182799e-07,1.1419759186178107e-06,1.2642332197902705e-06,2.7231854152323345e-06,1.6895627944584653e-05,1.6964551010057925e-06,1.3625936582069464e-06,0.00012368161096260602,1.2567071077626882e-06,9.797685209854132e-07,1.603739850957131e-05,1.318173600252688e-06
103,9.120376309065889e-07,6.781211500994651e-07,4.588439057313938e-06,8.6608020620176e-06,9.409260344805091e-07,1.1524624676643928e-06,1.2660537578059547e-06,2.8484487678398845e-06,1.79052774988411e-05,1.7031144212642965e-06,1.3964319542034003e-06,0.00013584079066368036,1.22975434612381e-06,9.607749817349906e-07,1.6087652616496153e-05,1.3134984242937013e-06
104,9.104125833660338e-07,7.020451851836385e-07,4.476613071031777e-06,8.026104840769908e-06,9.165995731492612e-07,1.1604080468867434e-06,1.2670708183280797e-06,2.9733979265089635e-06,1.884205773980143e-05,1.7108367010729978e-06,1.4376276225488708e-06,0.00014866149226017624,1.2025675640636041e-06,9.422467367740715e-07,1.603997102781102e-05,1.3097491482058846e-06
105,9.095791350399166e-07,7.304815465259116e-07,4.355133451583006e-06,7.461178488124594e-06,8.927909480489062e-07,1.1656982683412441e-06,1.2677917132835033e-06,3.0968358473282666e-06,1.96843667937574e-05,1.7189454766771094e-06,1.4862659677092069e-06,0.0001620134504644507,1.175864360986128e-06,9.242351431293022e-07,1.590581996762669e-05,1.3065810307140589e-06
106,9.098120186299979e-07,7.632359375404043e-07,4.22519140406366e-06,6.971144457933885e-06,8.692866168417913e-07,1.168143131271154e-06,1.2687302363922942e-06,3.2173430327282793e-06,2.0413183944654114e-05,1.7270332875174563e-06,1.5421359854949646e-06,0.0001757372536202971,1.150209494036318e-06,9.067990711670469e-07,1.5700224258645042e-05,1.3036129900107707e-06
107,9.113133928622724e-07,7.999972065275585e-07,4.088109673986821e-06,6.559595892517606e-06,8.459789437937446e-07,1.1675433662692718e-06,1.2703425455023062e-06,3.3333890019624157e-06,2.10129968869867e-05,1.7351351612830133e-06,1.6047860760695556e-06,0.00018965028371286977,1.1260521718023462e-06,8.899823760896766e-07,1.543785064324273e-05,1.300594358611549e-06
108,9.142478617332485e-07,8.402890627548344e-07,3.945352940800002e-06,6.228860249590254e-06,8.229314347225797e-07,1.1638397116176883e-06,1.2729447603498315e-06,3.4434603440599203e-06,2.1472183181329135e-05,1.743541263900598e-06,1.6736280263045162e-06,0.00020355223734409814,1.1037328556279792e-06,8.737976223265852e-07,1.5130509320426557e-05,1.2975461101278787e-06
109,9.187355588146908e-07,8.834781151425998e-07,3.7983173420644805e-06,5.980102106657511e-06,8.003132545873524e-07,1.1572954442730147e-06,1.2766566382314082e-06,3.5461250580117546e-06,2.178251135101621e-05,1.752482709298063e-06,1.7480105806927905e-06,0.00021722240222411942,1.0834460586708042e-06,8.582208149017857e-07,1.4786373476970589e-05,1.2947898764498158e-06
110,9.248058997398265e-07,9.288579703909392e-07,3.6480500560116403e-06,5.813267810432085e-06,7.783293235696839e-07,1.1485463685774625e-06,1.2814052910551308e-06,3.6399404849773053e-06,2.1937561638125005e-05,1.7620103954175143e-06,1.827181717239387e-06,0.00023041336173275413,1.0652596797377263e-06,8.432382386922026e-07,1.4410253674805677e-05,1.2928255857999285e-06
111,9.323448923496973e-07,9.757756976451158e-07,3.495195497426376e-06,5.727031776014488e-06,7.572472909533156e-07,1.1384632461043497e-06,1.2869427271307489e-06,3.723201809551657e-06,2.1932042628135342e-05,1.7720111228956772e-06,1.910178064187181e-06,0.00024285359491984176,1.0491874855114083e-06,8.289596442476535e-07,1.4004632111205755e-05,1.292183206325526e-06
112,9.410671101887538e-07,1.0236885564980895e-06,3.3402291045156007e-06,5.718862927034433e-06,7.374158191420131e-07,1.127995397261182e-06,1.2928573597818978e-06,3.7937269914001197e-06,2.1764196298918577e-05,1.7822273571331969e-06,1.995769952135989e-06,0.0002542565495758881,1.0351994139414159e-06,8.156630522566932e-07,1.357132257256248e-05,1.2933716988474779e-06
113,9.50519712921552e-07,1.0720852839660402e-06,3.1836284509597993e-06,5.7852179222692545e-06,7.192168856482536e-07,1.1181463016324182e-06,1.298636954243471e-06,3.8489166683715176e-06,2.1439427255907624e-05,1.7922994883407322e-06,2.082485090881465e-06,0.000264323113098442,1.023209516491516e-06,8.036847574132681e-07,1.3113252519528892e-05,1.2969087726779312e-06
114,9.601264028051493e-07,1.1203646563890363e-06,3.0257614047269686e-06,5.921731369566127e-06,7.030222276026284e-07,1.1099922553646082e-06,1.3037898789830711e-06,3.88611812926993e-06,2.097160507023425e-05,1.8018153476393823e-06,2.1686149387052325e-06,0.0002727479585704057,1.0131283269608447e-06,7.93284724858411e-07,1.2635645259633426e-05,1.3034150756791405e-06
115,9.692745446055978e-07,1.1678053678092385e-06,2.8668229858722517e-06,6.1232155270962934e-06,6.891636587352759e-07,1.1045991372741457e-06,1.3079318673291685e-06,3.9031625379297314e-06,2.038151232837374e-05,1.8104169242051368e-06,2.2522433754702834e-06,0.00027925557143394797,1.004893212019522e-06,7.845931976547921e-07,1.214609994467103e-05,1.31370659640559e-06
116,9.774025683572693e-07,1.2136293314459329e-06,2.7071322951529697e-06,6.38345899328855e-06,6.779006750796731e-07,1.102880350414976e-06,1.3107713914150354e-06,3.898913871957896e-06,1.9693926578187382e-05,1.8180399637341607e-06,2.331429307867942e-06,0.0002836558424845347,9.984262172625247e-07,7.775943257193532e-07,1.165356314722284e-05,1.328752810489439e-06
117,9.84050108316902e-07,1.2570449901387105e-06,2.5475139873934267e-06,6.694985800029562e-06,6.69398228740655e-07,1.1055229557694767e-06,1.31203918523074e-06,3.873654846517059e-06,1.8934408434734176e-05,1.8250428234641481e-06,2.404472617917302e-06,0.00028587448055375714,9.936419677590658e-07,7.721267821051428e-07,1.1167032086790383e-05,1.3495215806809904e-06
118,9.88879390635927e-07,1.2972231116621995e-06,2.3893727563997807e-06,7.0488756648917616e-06,6.637064138282608e-07,1.1130169502940105e-06,1.3114746077593379e-06,3.829177433944293e-06,1.8126664177412117e-05,1.8320085809996714e-06,2.470082225990153e-06,0.0002859304894980317,9.905344662414113e-07,7.679308581600831e-07,1.0695421060038715e-05,1.3768459421208408e-06
119,9.916905277915337e-07,1.333322721825426e-06,2.234471069699077e-06,7.434651083658491e-06,6.607491916666515e-07,1.1257319767550056e-06,1.3089314298375672e-06,3.768525927503022e-06,1.729129582981107e-05,1.8394706588987259e-06,2.527390807558286e-06,0.00028387882005395914,9.891893257672288e-07,7.647198430728816e-07,1.0248922474457458e-05,1.4113720983368044e-06
120,9.92443803597602e-07,1.3646456491072229e-06,2.0846424825857505e-06,7.840281374624617e-06,6.603448992482913e-07,1.1439474299304472e-06,1.3045289660266123e-06,3.6954311776128797e-06,1.6445769104387567e-05,1.8478044508774482e-06,2.575838718178435e-06,0.0002797705886277171,9.896823262954617e-07,7.622174092648239e-07,9.84037227783895e-06,1.4535814739529163e-06
121,9.912565497714564e-07,1.39077214548483e-06,1.9416141789711776e-06,8.252473766429835e-06,6.622363203962619e-07,1.167797372162428e-06,1.2986951554552923e-06,3.6136235607247836e-06,1.5604669944014874e-05,1.8571735276476318e-06,2.6149365955978803e-06,0.00027366438669121937,9.920176707986584e-07,7.601581155455279e-07,9.485161590809352e-06,1.5038399108812472e-06
122,9.883330983055334e-07,1.4115067277897577e-06,1.8069634327415072e-06,8.657474643574883e-06,6.660918235806643e-07,1.1971949452383046e-06,1.2920352462579309e-06,3.5263019626698507e-06,1.4779764621406682e-05,1.8674653262472251e-06,2.643981948122299e-06,0.0002656664348722772,9.961922800410458e-07,7.58325269671539e-07,9.199799675346615e-06,1.5623955864467692e-06
123,9.838984728297789e-07,1.4266969155958298e-06,1.6821165959927433e-06,9.042422690148939e-06,6.714860824290922e-07,1.2318043646971528e-06,1.2851334714929261e-06,3.4359097092812213e-06,1.3979987123260205e-05,1.8783439639520479e-06,2.661946045109218e-06,0.0002559594045689118,1.0022797289899478e-06,7.56648626409169e-07,9.00023820826337e-06,1.629342409995332e-06
124,9.78234843376294e-07,1.4361558934291023e-06,1.5683221973658386e-06,9.396869761778071e-06,6.778902556988268e-07,1.271085831988218e-06,1.278433120800269e-06,3.344195690085733e-06,1.3211572864695758e-05,1.8894362023609664e-06,2.6676947651346455e-06,0.00024480346358531866,1.0104037008997946e-06,7.552586303776067e-07,8.900841497413674e-06,1.7046287950004099e-06
125,9.717575257870346e-07,1.4398001993888262e-06,1.4666218893424304e-06,9.713775108272952e-06,6.846873023093694e-07,1.314410295493458e-06,1.2722051917704548e-06,3.252499998483377e-06,1.2478486506920499e-05,1.90049562119555e-06,2.660417879715941e-06,0.00023251338846793965,1.0206448952590019e-06,7.544227699021853e-07,8.914088613172362e-06,1.7880733304876709e-06
126,9.650020421803728e-07,1.4378652728570858e-06,1.3778503310473319e-06,9.98946967785748e-06,6.912419773112535e-07,1.3611643092622306e-06,1.266559757187267e-06,3.162122121989486e-06,1.1783173872151281e-05,1.911432316088438e-06,2.639992271668218e-06,0.00021942448084781642,1.0329804609614706e-06,7.544322164252942e-07,9.050585338558493e-06,1.8793066127845736e-06
127,9.585167118459358e-07,1.4310057539491914e-06,1.3026392772852154e-06,1.022263621077746e-05,6.970351214063954e-07,1.4107425934233917e-06,1.261509720247961e-06,3.0745033399100733e-06,1.1127492524635072e-05,1.922214880270283e-06,2.607125904010379e-06,0.00020586108651609287,1.0472492548390514e-06,7.555318176058264e-07,9.319034271209199e-06,1.97765670502424e-06
128,9.527510280689102e-07,1.4202093786639568e-06,1.2413973149492244e-06,1.0412741751000997e-05,7.017887681514302e-07,1.4624631132131754e-06,1.2570444608303165e-06,2.9910771831525053e-06,1.0513570779290012e-05,1.932694540647161e-06,2.563269960915889e-06,0.00019211523251730895,1.0631201485555586e-06,7.578849741429388e-07,9.726151884123003e-06,2.0820589368746408e-06
129,9.480103069008009e-07,1.4065757125081302e-06,1.1942814242639504e-06,1.0558546220888291e-05,7.054828165037368e-07,1.5155518695672257e-06,1.2531249880716443e-06,2.9129396725491484e-06,9.944343202015596e-06,1.94244392144939e-06,2.510343849017673e-06,0.00017843601096256795,1.0800656923352653e-06,7.615292015037468e-07,1.0276651240192484e-05,2.1910811964883044e-06
130,9.444810340625686e-07,1.3910882754813166e-06,1.1611891238399122e-06,1.0657489138018116e-05,7.082551450468636e-07,1.5692212234880457e-06,1.2496578677776093e-06,2.8406083713761207e-06,9.423548948014755e-06,1.9507513120055837e-06,2.4503659203911652e-06,0.00016502730347159962,1.0973559132597601e-06,7.663369535293575e-07,1.0973209154709756e-05,2.303091999947221e-06
131,9.422880174636021e-07,1.3745028147074787e-06,1.1417796589715662e-06,1.070633294756617e-05,7.103006679435383e-07,1.6226979636725195e-06,1.2465705432425278e-06,2.773998246359798e-06,8.95510599648262e-06,1.9567799007224645e-06,2.385125048235548e-06,0.0001520509187702245,1.1141320594065339e-06,7.720050821440475e-07,1.1816266114637591e-05,2.416471469496792e-06
132,9.415232242351942e-07,1.3573694626276521e-06,1.1355202071330273e-06,1.0702426292907526e-05,7.118556118056088e-07,1.675169816708e-06,1.243928755427417e-06,2.71255130534095e-06,8.542162437769172e-06,1.9596966878391738e-06,2.31601897193012e-06,0.00013963163811896986,1.1295964353967183e-06,7.780701979890068e-07,1.2803752662447617e-05,2.52970784908558e-06
133,9.42207244059945e-07,1.3400902044872404e-06,1.1417283232202575e-06,1.0644661161015869e-05,7.131973815658024e-07,1.7258029424306433e-06,1.2419323032476603e-06,2.6554039869317518e-06,8.186481386981639e-06,1.9587298801539444e-06,2.2440773976772853e-06,0.00012786096015519337,1.1432105952697829e-06,7.839750979426775e-07,1.3930937283293297e-05,2.641302661141473e-06
134,9.442335872127173e-07,1.3229179209455804e-06,1.1595930585961682e-06,1.05338155684495e-05,7.145991973924902e-07,1.7738717502411262e-06,1.2407822988435072e-06,2.6015485861773046e-06,7.888450475358585e-06,1.9533754893517543e-06,2.1700730279166593e-06,0.0001167993297860885,1.1547236448257728e-06,7.892216791095745e-07,1.5190373476944092e-05,2.7495923804524242e-06
135,9.473905040877723e-07,1.3059302284743268e-06,1.1882370167928043e-06,1.0372505029763137e-05,7.163015127037049e-07,1.818865106427667e-06,1.2405877634846668e-06,2.550001562529148e-06,7.647395751017906e-06,1.943733076386271e-06,2.0946615620268774e-06,0.0001064791077596526,1.1640223673856974e-06,7.935479959326439e-07,1.6571738117527136e-05,2.8526981640636934e-06
136,9.514587841657129e-07,1.289038334409064e-06,1.2268432851473823e-06,1.0165024752796902e-05,7.185232459351414e-07,1.8604987599208104e-06,1.2413991050633607e-06,2.4999549073413227e-06,7.461972169716815e-06,1.93065813065152e-06,2.018535226367048e-06,9.690927101777954e-05,1.1709585249355229e-06,7.969788729101487e-07,1.8061423353667757e-05,2.9486320955645323e-06
137,9.562676163574592e-07,1.2720103202964183e-06,1.2747130552086578e-06,9.917126520477866e-06,7.214580686626381e-07,1.898677470767779e-06,1.243250482384197e-06,2.4508358582431228e-06,7.330636913282792e-06,1.9156365595142935e-06,1.94249816662772e-06,8.808081314591544e-05,1.175266597044525e-06,7.997083233616407e-07,1.9642023284089262e-05,3.0353888865732155e-06
138,9.616425967790274e-07,1.254533824562245e-06,1.3311583525140907e-06,9.635559599541366e-06,7.252545769364484e-07,1.933423601934072e-06,1.2461127193035422e-06,2.4022612415049407e-06,7.2520114335025595e-06,1.900531253785523e-06,1.8673795766351088e-06,7.997182473770722e-05,1.1766254272094076e-06,8.019495949181504e-07,2.1292079129580542e-05,3.1109927491225142e-06
139,9.673454257874867e-07,1.236354348225982e-06,1.3953439160770007e-06,9.327258720771546e-06,7.300021585437962e-07,1.9647492676767472e-06,1.2498301072504595e-06,2.3539878048273077e-06,7.224828345581619e-06,1.8873065116702145e-06,1.79384404561544e-06,7.255202286160026e-05,1.174844141417897e-06,8.038792984870989e-07,2.2986098149629384e-05,3.1736356022819097e-06
140,9.731223454807953e-07,1.2173883140563802e-06,1.4662079291113496e-06,8.998380876580305e-06,7.357090030818196e-07,1.9925026908530035e-06,1.2541086041906428e-06,2.3059329335174433e-06,7.247450275391358e-06,1.877791827152618e-06,1.7222392712556145e-06,6.57867777244682e-05,1.1700153983738284e-06,8.056625594121546e-07,2.4694586220332288e-05,3.2218910503600546e-06
141,9.788261287129942e-07,1.1977364189626413e-06,1.5424386248414639e-06,8.653716808202098e-06,7.422933683032816e-07,2.0162874982091386e-06,1.2585182467271905e-06,2.2581886838565917e-06,7.3174178641697675e-06,1.8735327638917551e-06,1.6525759057128632e-06,5.964045416398858e-05,1.1624994491017235e-06,8.0748179536989e-07,2.638475938572331e-05,3.2548272797031052e-06
142,9.844970660423313e-07,1.1776590591920287e-06,1.6224760836065684e-06,8.296871620111348e-06,7.496287002335868e-07,2.0355023305623363e-06,1.262523021885663e-06,2.2109073350110367e-06,7.431552850963363e-06,1.87570899606092e-06,1.5846726763057328e-06,5.4078547579545746e-05,1.1527646730768605e-06,8.095467822219318e-07,2.8022489298497827e-05,3.272000469331599e-06
143,9.903453998568273e-07,1.1575415107450787e-06,1.7046091954113441e-06,7.931017635727388e-06,7.576148573394096e-07,2.0494021590866194e-06,1.2655741942564346e-06,2.1640908927514548e-06,7.58656707010426e-06,1.8850918492995705e-06,1.5184027175950853e-06,4.9068158291011495e-05,1.1411984293198493e-06,8.120897192917657e-07,2.9573551920030982e-05,3.2735138105995456e-06
144,9.96646176446152e-07,1.1378010196258757e-06,1.7872126314547876e-06,7.559652176932927e-06,7.662076660593469e-07,2.057100718210746e-06,1.267166533411741e-06,2.1174775591910886e-06,7.779675932218442e-06,1.9020567988689795e-06,1.4538427773632016e-06,4.457699095632391e-05,1.1279962452941742e-06,8.153298485207899e-07,3.10026153951182e-05,3.2601543317619813e-06
145,1.0036001308551476e-06,1.1187477003350934e-06,1.869022735048325e-06,7.186958562341739e-06,7.753953104940244e-07,2.057648263056108e-06,1.2667842949167377e-06,2.0706227587683435e-06,8.008863966532248e-06,1.926640227157866e-06,1.391196475155584e-06,4.057182116301926e-05,1.113177963867867e-06,8.194458170348722e-07,3.227299505144511e-05,3.233317841712144e-06
146,1.0112463740645283e-06,1.100488514118556e-06,1.9492424561332863e-06,6.817710497168308e-06,7.851635444289159e-07,2.050292880039404e-06,1.2638527468179318e-06,2.023046919316459e-06,8.272744044893888e-06,1.958568453237949e-06,1.3306179441424812e-06,3.7017559659709284e-05,1.0966784847370594e-06,8.245884610765854e-07,3.335042620111121e-05,3.1946285778263756e-06
147,1.0194945226510682e-06,1.0829279843075235e-06,2.027374650530416e-06,6.45688612020765e-06,7.954777209330181e-07,2.034749222443003e-06,1.2578210213181278e-06,1.9743092600969404e-06,8.570072387902243e-06,1.99722591061372e-06,1.2721678287536017e-06,3.3877603388608014e-05,1.0784125968927175e-06,8.308758185180719e-07,3.420853030399208e-05,3.1456010134724773e-06
148,1.0282447745010549e-06,1.0658445829024655e-06,2.1030014011467984e-06,6.109228162396016e-06,8.062828745603195e-07,2.0112844426217804e-06,1.248340258459391e-06,1.9240061127956175e-06,8.899067910883545e-06,2.0416454382330873e-06,1.2159695221777122e-06,3.111561352842018e-05,1.0583157290937342e-06,8.383488500411543e-07,3.483190583784734e-05,3.0875475834875225e-06
149,1.0374629439008286e-06,1.0490019845504696e-06,2.1757896269836147e-06,5.778925235340616e-06,8.175001446810331e-07,1.9806619239458372e-06,1.2353952419224177e-06,1.871769454225581e-06,9.256908759468475e-06,2.090599038122286e-06,1.162395479630905e-06,2.86984140531391e-05,1.0364455407439594e-06,8.469600857573911e-07,3.5215787439308204e-05,3.021556508169164e-06
150,1.0471304779452407e-06,1.0322584880840261e-06,2.2456613365417863e-06,5.469451636472989e-06,8.290047726729519e-07,1.944055251901365e-06,1.2192881052201441e-06,1.8173455255847437e-06,9.639868826707021e-06,2.1427095462706947e-06,1.112085768071742e-06,2.6599098661747186e-05,1.0130831994414605e-06,8.566110327560318e-07,3.536269342308551e-05,2.948482134813399e-06
151,1.0571457756811944e-06,1.015638444697135e-06,2.3128947015698644e-06,5.183468247178876e-06,8.406214613855965e-07,1.9029490373104756e-06,1.2004855338861995e-06,1.76076347658017e-06,1.0044031082202844e-05,2.196437721208182e-06,1.0657914599843561e-06,2.4798682018507623e-05,9.886913939666664e-07,8.671663132610953e-07,3.527803768581109e-05,2.8690550321551325e-06
152,1.0672617469262937e-06,9.99347887476609e-07,2.378077998712905e-06,4.922723102898592e-06,8.521601289024994e-07,1.8589724171270915e-06,1.1794357164695816e-06,1.702487557886335e-06,1.0465884312023336e-05,2.24997274882328e-06,1.0241853587820548e-06,2.3284689661625672e-05,9.63810694859668e-07,8.784478807787197e-07,3.496942042484363e-05,2.7840742428014373e-06
153,1.077057280527377e-06,9.837421990711254e-07,2.441968040206788e-06,4.688126497141925e-06,8.634439867963788e-07,1.8136655114113233e-06,1.1564774431594113e-06,1.643415494283164e-06,1.0902226926424209e-05,2.3012389118480476e-06,9.877675527154918e-07,2.2047610934891727e-05,9.390326480773249e-07,8.902696448317089e-07,3.4451077615870476e-05,2.694556838232148e-06
154,1.0859547109702314e-06,9.692584141839462e-07,2.5053562366012132e-06,4.4801677586409854e-06,8.742894483893923e-07,1.7682823276041653e-06,1.131845446200866e-06,1.5846913240195507e-06,1.1349457294520567e-05,2.348130442377168e-06,9.5688662376382e-07,2.107907461849852e-05,9.149710328125354e-07,9.024826969040212e-07,3.3747929656198906e-05,2.601776886842977e-06
155,1.0933109357832822e-06,9.56322067733921e-07,2.569039605483831e-06,4.299471844809042e-06,8.844838931385952e-07,1.7237048304754475e-06,1.1056628560545445e-06,1.5274428550254653e-06,1.1803010277511627e-05,2.3888193998433323e-06,9.317996681338938e-07,2.0373243710878094e-05,8.921809037491178e-07,9.149803892129784e-07,3.2894348285440995e-05,2.507197470250305e-06
156,1.098562241650302e-06,9.452613955252276e-07,2.63386860973824e-06,4.1471669462170785e-06,8.938428897509044e-07,1.6804357080351067e-06,1.0778928688423913e-06,1.4726028760389984e-06,1.2257717806426224e-05,2.4219436119584614e-06,9.126879604816357e-07,1.992805895478375e-05,8.711095728237385e-07,9.276771572783232e-07,3.192906273474201e-05,2.4123720731161276e-06
157,1.1013860998243242e-06,9.362696571451558e-07,2.700753849802126e-06,4.024987302891094e-06,9.023277082936367e-07,1.6386139911092047e-06,1.0483442387849996e-06,1.4208648704663995e-06,1.270882073240711e-05,2.446657204554359e-06,8.996303567386363e-07,1.974377786598923e-05,8.520945326748501e-07,9.404761079763859e-07,3.088995121594498e-05,2.3188962973183725e-06
158,1.1018367815295594e-06,9.2940442338304e-07,2.770583964971781e-06,3.935231753252065e-06,9.100928052877743e-07,1.5980317465803344e-06,1.0167932077532967e-06,1.3726921714846e-06,1.3152553587444335e-05,2.462540653576731e-06,8.925921910030171e-07,1.9820215868127278e-05,8.353602499924107e-07,9.532195869479593e-07,2.981060916414326e-05,2.228382958308566e-06
159,1.100384235891784e-06,9.245902807296854e-07,2.8440841792605388e-06,3.880679755667244e-06,9.17400755364645e-07,1.5581889551514745e-06,9.831803982931103e-07,1.3283330459314057e-06,1.3585695580125306e-05,2.4693436761151874e-06,8.914663951423321e-07,2.0154782582099923e-05,8.209929385217721e-07,9.65642321363683e-07,2.871861921821923e-05,2.142378961868509e-06
160,1.0978037054175562e-06,9.216310776322439e-07,2.9216433010590695e-06,3.8644504532390214e-06,9.245026361519819e-07,1.5184410072525748e-06,9.477704547898573e-07,1.2878702102764922e-06,1.4004366054380392e-05,2.466772925632057e-06,8.961443871953223e-07,2.0741763998934073e-05,8.089152194161791e-07,9.773913850322319e-07,2.763483560389107e-05,2.0622377504392076e-06
161,1.0949613135413509e-06,9.202375664987353e-07,3.0031615056334658e-06,3.889722176254974e-06,9.315952345547995e-07,1.4782017170861342e-06,9.111589562754545e-07,1.2512920193955247e-06,1.4402907042918729e-05,2.4545992333362677e-06,9.065305602805285e-07,2.1572145042790308e-05,7.989030633705379e-07,9.881526111403784e-07,2.657327779704014e-05,1.9890298871745163e-06
162,1.0926280479267427e-06,9.200550030475499e-07,3.087990720753829e-06,3.959345101872073e-06,9.388243042989775e-07,1.437105170473746e-06,8.74118667866613e-07,1.2185425772675146e-06,1.4773771492623711e-05,2.43293590460691e-06,9.224652896202667e-07,2.2633335762537892e-05,7.90653205957237e-07,9.977763593905634e-07,2.5541653675183618e-05,1.9235413871848092e-06
163,1.0914117946802507e-06,9.206815506374521e-07,3.1749641598819436e-06,4.0755882269456e-06,9.462535637664555e-07,1.395073366094951e-06,8.374209548707353e-07,1.189559377690445e-06,1.5108556480887395e-05,2.402321587360565e-06,9.436438217181379e-07,2.3909181908882188e-05,7.838508008034397e-07,1.0062718906994517e-06,2.454248346493685e-05,1.8663674091046523e-06
164,1.0917647360372803e-06,9.216962313216765e-07,3.2624602648574857e-06,4.2401590565668524e-06,9.538298448688147e-07,1.3522880580775216e-06,8.017572116764909e-07,1.1643291624339694e-06,1.5399282923447683e-05,2.3635984812037805e-06,9.696133301400335e-07,2.538101111511388e-05,7.781749061113295e-07,1.0137516441252811e-06,2.3574167116644817e-05,1.818032327137939e-06
165,1.0939739107404985e-06,9.227682427710026e-07,3.348496001598236e-06,4.454264676176356e-06,9.614037692807648e-07,1.3091020837533718e-06,7.677314520450893e-07,1.1429589588836263e-06,1.5639080963873762e-05,2.3178314953246195e-06,9.99837378479015e-07,2.7029247920238255e-05,7.732807920568668e-07,1.0204241289362618e-06,2.263170792817506e-05,1.779003706956417e-06
166,1.0981178618832675e-06,9.23826456152988e-07,3.4308814577901577e-06,4.718476312304174e-06,9.687620945029344e-07,1.2659601997737167e-06,7.358422342639773e-07,1.125713560491993e-06,1.582235041695369e-05,2.266332106352732e-06,1.0337533521424152e-06,2.8834082593061678e-05,7.688700099267219e-07,1.0265558671378344e-06,2.1708685203048634e-05,1.7495865184587028e-06
167,1.1040380080746032e-06,9.250980872902294e-07,3.507451053570503e-06,5.032506064497643e-06,9.756197577643922e-07,1.2233741518820916e-06,7.06467905227559e-07,1.1129620013966826e-06,1.5944794301987975e-05,2.21066459663632e-06,1.070761849268588e-06,3.0774377375424794e-05,7.64799435147293e-07,1.032378601935568e-06,2.0801512290574314e-05,1.729848198750647e-06
168,1.1113580705803478e-06,9.269672185413965e-07,3.5763510249475787e-06,5.395122134108829e-06,9.81614327201558e-07,1.1819008993661303e-06,6.7989708143927e-07,1.1050602898974681e-06,1.600335635779636e-05,2.1525316856849915e-06,1.110182299695242e-06,3.2825898178594927e-05,7.610619083004412e-07,1.0380490331134865e-06,1.9912903011657178e-05,1.7196805975531848e-06
169,1.1195260402153804e-06,9.298239478846971e-07,3.636297333347068e-06,5.804332434335115e-06,9.863376367023073e-07,1.1420609039285677e-06,6.56361484995393e-07,1.1022622382150352e-06,1.5995863615930435e-05,2.09355184352267e-06,1.1512603041185904e-06,3.4960986911963946e-05,7.576586409903489e-07,1.0436953428433362e-06,1.9050921984670633e-05,1.7189481495593615e-06
170,1.1278394529685798e-06,9.339799603048602e-07,3.6866826417569356e-06,6.2578579268758785e-06,9.893762478441292e-07,1.1042586452547004e-06,6.360207553858676e-07,1.1046839180795513e-06,1.5920239310000225e-05,2.0350503928598535e-06,1.1932276521832755e-06,3.7150031514436766e-05,7.545158943947929e-07,1.0494523149644555e-06,1.8225355293406867e-05,1.7275737584133687e-06
171,1.1355027624147576e-06,9.39607909692886e-07,3.7275078393774955e-06,6.753696539727214e-06,9.903709173496414e-07,1.0687816944024289e-06,6.189363553371228e-07,1.112297675804906e-06,1.577379850764319e-05,1.9779645966400315e-06,1.2353478574930504e-06,3.936267941995557e-05,7.514779523725932e-07,1.0554011765358954e-06,1.7445459619167897e-05,1.7454621642318863e-06
172,1.1417828127629145e-06,9.46701312375943e-07,3.7592507890263366e-06,7.290425798120237e-06,9.891230195034801e-07,1.0358204489149349e-06,6.050875995707795e-07,1.1249788858636784e-06,1.5554018095081074e-05,1.9228596208957122e-06,1.2769445995770926e-06,4.156722850881451e-05,7.483331995130546e-07,1.061461996445269e-06,1.67195659098882e-05,1.7723764026796392e-06
173,1.1461908578885802e-06,9.5506531246541e-07,3.782764154987615e-06,7.866990458066494e-06,9.856819933769815e-07,1.0054521658770414e-06,5.944064078615983e-07,1.1426485492577004e-06,1.5261000098508897e-05,1.870029085412743e-06,1.3173974513018038e-06,4.372894138101962e-05,7.448657254592852e-07,1.0673379281258495e-06,1.6055299046554336e-05,1.8079415800489023e-06
174,1.1485589750843582e-06,9.64341140177127e-07,3.799169479485662e-06,8.482015846438796e-06,9.803130120825363e-07,9.776430864588839e-07,5.867808294849185e-07,1.1654551186373158e-06,1.489944690984434e-05,1.8196331317545079e-06,1.3560377265942803e-06,4.5809047495193184e-05,7.40905579381622e-07,1.0725631165288907e-06,1.5460550596741537e-05,1.8517298162636235e-06
175,1.1489603898413884e-06,9.74080064865704e-07,3.8096951481904553e-06,9.133082067272488e-06,9.73353522031218e-07,9.523032372462067e-07,5.820446477044954e-07,1.193839045439055e-06,1.4478373566036436e-05,1.7717748136826174e-06,1.392028984424277e-06,4.776508291633826e-05,7.363227565790078e-07,1.0766591350032538e-06,1.4944961112370474e-05,1.9032881878861488e-06
176,1.147545217158458e-06,9.83852119587437e-07,3.8154610981361346e-06,9.816435486201517e-06,9.650708595629967e-07,9.293303587146277e-07,5.799874362426375e-07,1.2284232767313288e-06,1.4009201549465271e-05,1.7264912889115172e-06,1.4244012764100269e-06,4.955100041052273e-05,7.309890244365816e-07,1.0793130728158562e-06,1.4520261190985047e-05,1.96210836695777e-06
177,1.144440460894441e-06,9.933274766533015e-07,3.8172318132018375e-06,1.0527146409076046e-05,9.555986691745508e-07,9.085995476159987e-07,5.803618350018465e-07,1.2698440594777771e-06,1.3503681680735686e-05,1.683755767357224e-06,1.452230076727917e-06,5.111597298016013e-05,7.247953581185811e-07,1.0804207554373992e-06,1.419876644903553e-05,2.0276313600956314e-06
178,1.1397441305894488e-06,1.0022891987481661e-06,3.815222602761577e-06,1.1259411210308123e-05,9.449556936809503e-07,8.899402584805369e-07,5.82883018010306e-07,1.318636270337454e-06,1.297255785260931e-05,1.643552103882165e-06,1.4748233631026155e-06,5.240585776004294e-05,7.177309333829983e-07,1.0799671136249183e-06,1.3991684597629366e-05,2.09932292999501e-06
179,1.1335070537644306e-06,1.0105999406586495e-06,3.809099423025942e-06,1.2006829557857091e-05,9.331416804262773e-07,8.731139137087713e-07,5.872687916170475e-07,1.3751918973333802e-06,1.242541364701906e-05,1.6059714976120827e-06,1.4918399097869488e-06,5.337206691602842e-05,7.099361765503758e-07,1.0779142364155229e-06,1.3908615890936093e-05,2.1767303550034186e-06
180,1.1257171697461856e-06,1.0181605898925528e-06,3.798172060088484e-06,1.2762631302839326e-05,9.202623976906024e-07,8.577700728166697e-07,5.933064213179716e-07,1.4397725216652609e-06,1.1871170711259016e-05,1.5712439500455003e-06,1.5033144658310002e-06,5.398374081579047e-05,7.016706833135016e-07,1.07425449580482e-06,1.3957389285694717e-05,2.2594124475951227e-06
181,1.116364771530618e-06,1.024860486314717e-06,3.7816080467132993e-06,1.3519809850601289e-05,9.065756513862856e-07,8.434324161501467e-07,6.008638827804292e-07,1.5125460110739242e-06,1.1318074424468293e-05,1.5396564050535064e-06,1.5095585673901015e-06,5.423214826985811e-05,6.932344805974e-07,1.069165438368302e-06,1.414344254453007e-05,2.3468059738357103e-06
182,1.1054963991517695e-06,1.0305222424178832e-06,3.7585339338186068e-06,1.4271134773235282e-05,8.924246014210659e-07,8.295745944355509e-07,6.098479899790119e-07,1.5935881155294448e-06,1.07731851887353e-05,1.5113882024724492e-06,1.5109761801343265e-06,5.412438507446434e-05,6.849119281192514e-07,1.0630732770650729e-06,1.4469258849416687e-05,2.4382543284432353e-06
183,1.093162266173578e-06,1.0349096352512043e-06,3.728043396250363e-06,1.5009101053409443e-05,8.781333192165178e-07,8.157434653654258e-07,6.201752550430635e-07,1.6828277897457415e-06,1.0242230938900015e-05,1.4863886850565185e-06,1.5079534997905053e-06,5.3678733887154955e-05,6.769356976308983e-07,1.0565592215890453e-06,1.4934189611715853e-05,2.5332691269922843e-06
184,1.0793706909446037e-06,1.0378376036255357e-06,3.6892409459465364e-06,1.572584318183654e-05,8.63929898257655e-07,8.0164862939927e-07,6.317584947170012e-07,1.7800118633149762e-06,9.729693584242158e-06,1.4644046413968952e-06,1.5009000567648418e-06,5.29292780769278e-05,6.694574134684902e-07,1.0502093565076383e-06,1.5534441117293325e-05,2.6317504037534952e-06
185,1.0641712212452665e-06,1.039288547856631e-06,3.6414333235906173e-06,1.6412866303967535e-05,8.499147027481037e-07,7.87180759889791e-07,6.445048529281242e-07,1.884749256199413e-06,9.238548808039353e-06,1.4451002078320154e-06,1.4902846539563231e-06,5.19285567943633e-05,6.625764242058435e-07,1.0445116982380794e-06,1.6263057092355393e-05,2.733881429283928e-06
186,1.0477758126105651e-06,1.0394079560204277e-06,3.5844070116729622e-06,1.7060395476004805e-05,8.360648845037415e-07,7.723603618986036e-07,6.583348318147716e-07,1.996606945747845e-06,8.769823537484579e-06,1.4281209260852173e-06,1.47657701953985e-06,5.073975109989525e-05,6.564219344323586e-07,1.0398208136351008e-06,1.7109831328674965e-05,2.839818710919682e-06
187,1.030565467812971e-06,1.0383848082027912e-06,3.5185855161294453e-06,1.7656691449644623e-05,8.222532011677237e-07,7.572819857456499e-07,6.731874786850285e-07,2.1152067801262246e-06,8.322471419317177e-06,1.4130745674088376e-06,1.4602660350372304e-06,4.94256795025149e-05,6.511922909217677e-07,1.0363483820073477e-06,1.806111777397089e-05,2.949511991371722e-06
188,1.012981711125413e-06,1.03636470704886e-06,3.4449431923722166e-06,1.8188507724063428e-05,8.082920321559946e-07,7.421345722050278e-07,6.889883661868849e-07,2.2402605153291832e-06,7.893852923838833e-06,1.3995437714741665e-06,1.4420023195782187e-06,4.804259333141422e-05,6.4712302869611e-07,1.0341665784119226e-06,1.9099610527207282e-05,3.0626868685530597e-06
189,9.954274673768727e-07,1.0334763417249575e-06,3.364749715846778e-06,1.8643352255976928e-05,7.940030230676252e-07,7.272423351449525e-07,7.056066180372302e-07,2.371506201986864e-06,7.4808180172057604e-06,1.3871880956246588e-06,1.4226351385524028e-06,4.663853016382487e-05,6.44445489102837e-07,1.0332789289037532e-06,2.02041187957501e-05,3.1788385392064347e-06
190,9.782653337917288e-07,1.0298652803835292e-06,3.2793036519576443e-06,1.901249264357953e-05,7.792369968704837e-07,7.13012443386132e-07,7.228525913219335e-07,2.508621353753716e-06,7.080988380730744e-06,1.375843098268761e-06,1.4030480277879513e-06,4.525291978591401e-05,6.433771968273893e-07,1.0337399811168107e-06,2.134939704857633e-05,3.2973422810691214e-06
191,9.618538274369334e-07,1.025671135984866e-06,3.189761095100446e-06,1.9293037391738434e-05,7.638139982797591e-07,6.998296446821953e-07,7.405461147551276e-07,2.651225443284844e-06,6.693707851234346e-06,1.3655041726502068e-06,1.3839832240942738e-06,4.391597078017549e-05,6.441425299169859e-07,1.0356982847402462e-06,2.2506647976623612e-05,3.417667058377769e-06
192,9.46520098155741e-07,1.0210139818497604e-06,3.097088476479247e-06,1.9488226692668537e-05,7.474850610398777e-07,6.880067745768272e-07,7.585970951769151e-07,2.7989701832751376e-06,6.320376206107703e-06,1.3561991466610003e-06,1.3660001128220899e-06,4.26481220546047e-05,6.469955035296312e-07,1.039323976340478e-06,2.3645200766036782e-05,3.5393524389420806e-06
193,9.324976660943358e-07,1.0159799370133288e-06,3.002112419817428e-06,1.9605926526819446e-05,7.300119982867571e-07,6.777830920650386e-07,7.770112364886488e-07,2.9516104429909013e-06,5.964021253607022e-06,1.3478559353799394e-06,1.3494947618767722e-06,4.145982254175243e-05,6.522051127097574e-07,1.0447275821678409e-06,2.4734475816060117e-05,3.66183783579886e-06
194,9.199117048818668e-07,1.01056043304657e-06,2.90557133202236e-06,1.9655975733875435e-05,7.113267772523163e-07,6.693078414583222e-07,7.958227086446152e-07,3.1089817599744485e-06,5.628348573619489e-06,1.3402365365594048e-06,1.3346992293626084e-06,4.035162566231325e-05,6.600126076194389e-07,1.051954842781288e-06,2.574499434054149e-05,3.784444688633321e-06
195,9.087908045704611e-07,1.0046291560572706e-06,2.8080603974209437e-06,1.964739600454937e-05,6.916326798718518e-07,6.626124449009108e-07,8.150235158639864e-07,3.27090011089366e-06,5.317146815414184e-06,1.3329312512678025e-06,1.3216941543554999e-06,3.931485055249622e-05,6.706104388898176e-07,1.061009552793395e-06,2.664889572950061e-05,3.906296888906667e-06
196,8.990484736416505e-07,9.980328227814714e-07,2.709928195940468e-06,1.958635370889286e-05,6.713514981581665e-07,6.576068816887992e-07,8.345523434606909e-07,3.437016031316369e-06,5.034466070945598e-06,1.3253846129077683e-06,1.3104373340404195e-06,3.8333343748551413e-05,6.841435958340225e-07,1.0718372262189275e-06,2.7421624581157705e-05,4.0260649710405004e-06
197,8.904742077631526e-07,9.907244482821414e-07,2.6113179086339818e-06,1.947543205564015e-05,6.509811776224458e-07,6.540984268978791e-07,8.543647064948107e-07,3.6066338854112297e-06,4.784880961620812e-06,1.3169439615284763e-06,1.3007828576084656e-06,3.738693411016048e-05,7.007036114258471e-07,1.084299519901819e-06,2.8044744085305216e-05,4.1418250057213975e-06
198,8.827993643779468e-07,9.828420441642854e-07,2.5123462920610845e-06,1.931421575684442e-05,6.310015085571264e-07,6.518212868748881e-07,8.745145001455806e-07,3.778515828478087e-06,4.573262960781502e-06,1.306970181933606e-06,1.2925530906692933e-06,3.6456494706353164e-05,7.203181259402161e-07,1.0981799071378931e-06,2.850691404085373e-05,4.2512084987335985e-06
199,8.757838986591431e-07,9.74706098219953e-07,2.4131970367612957e-06,1.9100594994028043e-05,6.118562553169793e-07,6.504862984410351e-07,8.951376862577252e-07,3.950711679613498e-06,4.404261393640406e-06,1.2949780937771272e-06,1.2856861600766633e-06,3.5528825964164634e-05,7.429346170866942e-07,1.1132205937202703e-06,2.880073173797669e-05,4.351737545994557e-06
200,8.692305776114905e-07,9.667415575437541e-07,2.3140707869185506e-06,1.8832165367180417e-05,5.939480474476055e-07,6.498421096692715e-07,9.163536446564373e-07,4.120463688073935e-06,4.2818414310598194e-06,1.2806902184711595e-06,1.2803158386788955e-06,3.459844172733598e-05,7.683928316429281e-07,1.129191975817003e-06,2.891751385862773e-05,4.441025801126487e-06
201,8.629805266541071e-07,9.593691379576796e-07,2.2151537423132604e-06,1.850739033978581e-05,5.77612239478589e-07,6.497241106262704e-07,9.381877553249393e-07,4.28419320821825e-06,4.209069181789817e-06,1.264022052525698e-06,1.2766784988529746e-06,3.366511757685134e-05,7.964087087769837e-07,1.1459476305129762e-06,2.8844312960573466e-05,4.5168763860759505e-06
202,8.569806327319992e-07,9.529367265626837e-07,2.116675431300672e-06,1.8126349761755e-05,5.630907750376232e-07,6.500653857093179e-07,9.605511823842045e-07,4.437550895941778e-06,4.188238113042371e-06,1.2450995646722736e-06,1.2749881546087426e-06,3.273067310816964e-05,8.265811458091518e-07,1.1633837993708521e-06,2.8565950339471788e-05,4.5776596302229625e-06
203,8.513527867220254e-07,9.476877329840707e-07,2.0189629242009732e-06,1.7691050173783514e-05,5.505366776901949e-07,6.508586876868754e-07,9.832655180506873e-07,4.575613014194788e-06,4.22120678773233e-06,1.224273804125202e-06,1.27542137712737e-06,3.180013436723556e-05,8.584075858425581e-07,1.181317866397769e-06,2.8072311358797402e-05,4.622646883377897e-06
204,8.463697402013341e-07,9.437256189079969e-07,1.9224304457818574e-06,1.7205434648987025e-05,5.40038846426722e-07,6.521375991592799e-07,1.006108528541218e-06,4.69338529866018e-06,4.309586176174247e-06,1.2020360191460156e-06,1.2781163279926154e-06,3.088668318387992e-05,8.91296364615588e-07,1.199392316725528e-06,2.7367061380206043e-05,4.651643670914163e-06
205,8.423618084897604e-07,9.410121490762936e-07,1.8275351297351138e-06,1.6675274603567003e-05,5.316292315982721e-07,6.540113073604844e-07,1.028822550834053e-06,4.786616831300193e-06,4.454620473390766e-06,1.1788751741292536e-06,1.2831148049320708e-06,3.001428929690202e-05,9.245912242482054e-07,1.217067055772393e-06,2.6470777881639313e-05,4.664261722620512e-06
206,8.396288845399615e-07,9.394398744048998e-07,1.734723841044264e-06,1.6108018429024575e-05,5.252780733194471e-07,6.566480154922244e-07,1.0510733630236007e-06,4.8526161079681434e-06,4.657047946664943e-06,1.1552187771935079e-06,1.290314497835674e-06,2.9214746934835934e-05,9.57633862450858e-07,1.2336676083841457e-06,2.5415669762904303e-05,4.659714630077162e-06
207,8.384084467739697e-07,9.389033198865686e-07,1.644378944730653e-06,1.5512458079312207e-05,5.209252186947784e-07,6.601819670287551e-07,1.0724466950687507e-06,4.890614692315625e-06,4.917172571448496e-06,1.1314842402877433e-06,1.299442483185184e-06,2.8521670701678668e-05,9.898205389733052e-07,1.2484524757541696e-06,2.423713720381372e-05,4.637334639840692e-06
208,8.38882540626006e-07,9.392732621237102e-07,1.556810102203238e-06,1.4897919497222664e-05,5.185480552655557e-07,6.646712508241739e-07,1.092514244643365e-06,4.901436157363198e-06,5.235000421397424e-06,1.1081198895564694e-06,1.3100475206185549e-06,2.7965475363183557e-05,1.0205943806645805e-06,1.2607282511614787e-06,2.2968477103658082e-05,4.597219381972738e-06
209,8.4116731355038e-07,9.403107216042281e-07,1.4723278434862953e-06,1.4273008222270604e-05,5.182040168305364e-07,6.701512578355676e-07,1.1108635151602833e-06,4.886648695164297e-06,5.610259422551028e-06,1.0855570278519634e-06,1.3215242495436846e-06,2.7571092957907404e-05,1.0494321453557755e-06,1.2700201287730909e-06,2.16392691984e-05,4.540316338113598e-06
210,8.452807646288228e-07,9.416347712338848e-07,1.391320998402421e-06,1.3644764946297628e-05,5.200160014891847e-07,6.766939121683743e-07,1.1270513765134593e-06,4.84772664834905e-06,6.042257412009413e-06,1.064143605896099e-06,1.3331255391541634e-06,2.7357706427592935e-05,1.0758868593791303e-06,1.2761760131545597e-06,2.027505776825649e-05,4.467878768031943e-06
211,8.511297218505951e-07,9.427996604783157e-07,1.3142266242692477e-06,1.3019038136087804e-05,5.241261803791628e-07,6.843957500674292e-07,1.1406036669173901e-06,4.7857677269071325e-06,6.529578727937084e-06,1.0441474927616882e-06,1.3440042107503105e-06,2.733910021690446e-05,1.0996300361209403e-06,1.279260756512165e-06,1.889737951165446e-05,4.3809045393924265e-06
212,8.58517063450189e-07,9.434430429248005e-07,1.2414402094257606e-06,1.2401571282354834e-05,5.306504943634423e-07,6.93309716006162e-07,1.1511418634847843e-06,4.701854957255254e-06,7.069709280140733e-06,1.025786379992309e-06,1.3533852745183814e-06,2.752397328285097e-05,1.1204478366751958e-06,1.2793220659201817e-06,1.7524077155055748e-05,4.2800852286656545e-06
213,8.671496005574004e-07,9.433975466279562e-07,1.173284529043851e-06,1.1798730968293677e-05,5.396641231433303e-07,7.033886563053619e-07,1.1585390444124805e-06,4.597615319431436e-06,7.65874504623935e-06,1.0092024336186064e-06,1.3607736944943714e-06,2.79161779818615e-05,1.1382137138984934e-06,1.2762687239884617e-06,1.6169640157350778e-05,4.166137324218236e-06
214,8.766881228283767e-07,9.426694251716395e-07,1.1100095556690989e-06,1.1217583945703303e-05,5.512183648776354e-07,7.144771145129349e-07,1.1629382026237692e-06,4.475494701635843e-06,8.291307115091656e-06,9.943998639552075e-07,1.3660054287735445e-06,2.8514859779692654e-05,1.1528551303674559e-06,1.2699201209475934e-06,1.4845503264774534e-05,4.0400216861241525e-06
215,8.868627653339949e-07,9.413137508853692e-07,1.0517689287415036e-06,1.0665677347671105e-05,5.65349964918088e-07,7.263561983986634e-07,1.1646039840359272e-06,4.3386271676668684e-06,8.960714702237077e-06,9.812048938750256e-07,1.3691417102211561e-06,2.9314380312340706e-05,1.16433554967532e-06,1.2601240039141668e-06,1.3560476088760458e-05,3.902863275780826e-06
216,8.975518500670641e-07,9.393621229526007e-07,9.98629147123951e-07,1.0150810485304075e-05,5.820787555802452e-07,7.388540372490598e-07,1.163782372819981e-06,4.190487077648551e-06,9.659362066629501e-06,9.692945482870875e-07,1.370329953040335e-06,3.0303967659047378e-05,1.1726677912779957e-06,1.2469017610998245e-06,1.232132805232486e-05,3.7558537035735114e-06
217,9.087323039735396e-07,9.368847573885892e-07,9.506168720777223e-07,9.68074721509302e-06,6.014037895561518e-07,7.519659323268521e-07,1.16071381201076e-06,4.034573784487899e-06,1.0379221529445589e-05,9.583301838915347e-07,1.3696724090716858e-06,3.146713990271474e-05,1.1779076993443435e-06,1.2305671639995193e-06,1.1133350402992144e-05,3.600400099156225e-06
218,9.203810321624008e-07,9.34068841934083e-07,9.077236413135504e-07,9.262680413435747e-06,6.232748874498162e-07,7.658642286705043e-07,1.155721224038435e-06,3.874219520459299e-06,1.1112473539949155e-05,9.481071528997025e-07,1.3671271387794884e-06,3.2781004447890654e-05,1.1800996877355428e-06,1.2117161000046364e-06,1.0000793961553741e-05,3.4383936994459947e-06
219,9.324436394829575e-07,9.311901695025492e-07,8.698800763785033e-07,8.90256568177277e-06,6.475541851579019e-07,7.808018411876321e-07,1.1492416620658533e-06,3.712467898640363e-06,1.1852260451513453e-05,9.385624245554648e-07,1.3625264453804118e-06,3.4215551053771485e-05,1.1792658534493757e-06,1.191092275789494e-06,8.92721634869444e-06,3.272335130789085e-06
220,9.448356396028009e-07,9.285106314416272e-07,8.369754772635836e-07,8.604664476211939e-06,6.740116644469972e-07,7.970289548304074e-07,1.1417959381660078e-06,3.5519827649577196e-06,1.2593401603692536e-05,9.296916081884105e-07,1.3556947453028506e-06,3.5733096385791314e-05,1.1754828983735498e-06,1.1694430857487844e-06,7.91567863498785e-06,3.105234996784821e-06
221,9.573965343288394e-07,9.26192819902475e-07,8.089051327708365e-07,8.371343437819e-06,7.02359253357219e-07,8.147699736042753e-07,1.133936165802059e-06,3.3949907421846356e-06,1.333267599147914e-05,9.215148587340311e-07,1.346507044909402e-06,3.728833322093637e-05,1.168948785530554e-06,1.1474394372313425e-06,6.968689228938667e-06,2.940316741903727e-06
222,9.698233960763138e-07,9.242679170754815e-07,7.855766438889274e-07,8.202977006175578e-06,7.323293269282425e-07,8.34236883026856e-07,1.1261727135948659e-06,3.2432557078091162e-06,1.4068166831811615e-05,9.140640583996284e-07,1.334850267915907e-06,3.8829576365448245e-05,1.1599578062969953e-06,1.1256362151495973e-06,6.0880124237801e-06,2.7806177314291007e-06
223,9.816606861818135e-07,9.22639130647341e-07,7.668654191494011e-07,8.097948340163213e-06,7.637758053942622e-07,8.556416850651866e-07,1.1188924862472142e-06,3.098081607141986e-06,1.4797759910485887e-05,9.073781422379403e-07,1.320642366277107e-06,4.0300737404544806e-05,1.1487883509893485e-06,1.1044616214426967e-06,5.274581758769142e-06,2.628691627631026e-06
224,9.924005981217814e-07,9.211229231286726e-07,7.525693068214484e-07,8.052753247744826e-06,7.966912982381855e-07,8.791598944956497e-07,1.112331227864325e-06,2.9603333588785777e-06,1.551813152675822e-05,9.015322647353897e-07,1.3039753289417115e-06,4.164225270552259e-05,1.1355944985170729e-06,1.0842651432656755e-06,4.528581721194106e-06,2.4865146577888693e-06
225,1.0016822180296614e-06,9.195348481371032e-07,7.423949926246461e-07,8.062206964307901e-06,8.310983275738424e-07,9.048587801584835e-07,1.1066445661909276e-06,2.8304294874744176e-06,1.6225464698146416e-05,8.966288684926507e-07,1.2852548405494348e-06,4.27910454234704e-05,1.1204453836771091e-06,1.065375756866118e-06,3.8495677019537235e-06,2.3555050115957346e-06
226,1.0094676933002398e-06,9.177526630891667e-07,7.359530766765777e-07,8.119923373614793e-06,8.669218882728072e-07,9.326528071155221e-07,1.1019970581443013e-06,2.7082967146110755e-06,1.6917104010214196e-05,8.927625221624434e-07,1.2652026993928648e-06,4.3683794569860924e-05,1.103521735822965e-06,1.048080143225787e-06,3.2365129118879143e-06,2.2365776479378876e-06
227,1.0160555743124422e-06,9.156875417907198e-07,7.327647730184974e-07,8.21911383737757e-06,9.039579540625543e-07,9.623079319739072e-07,1.098549205261479e-06,2.5934074755716123e-06,1.759203171948019e-05,8.90048378397501e-07,1.2447092644628991e-06,4.426660913326266e-05,1.0852828026567058e-06,1.0325500945581355e-06,2.68780065168331e-06,2.1302239252407257e-06
228,1.0219234906690326e-06,9.131992232805501e-07,7.323236334234404e-07,8.353354703731601e-06,9.419511164474367e-07,9.93479314231271e-07,1.0964048870435742e-06,2.4849916424571224e-06,1.8249382559595524e-05,8.886659886736481e-07,1.2246456193704438e-06,4.450629635983784e-05,1.0664359630338061e-06,1.0188106655088357e-06,2.201238841973655e-06,2.0366054851479123e-06
229,1.027530494074185e-06,9.100689507117301e-07,7.342119331811889e-07,8.516892773285457e-06,9.806963424483117e-07,1.0257556180924743e-06,1.0956371552583346e-06,2.382288132623216e-06,1.8886707338792463e-05,8.888288714836163e-07,1.2057513223778326e-06,4.439343239824015e-05,1.0477451266219009e-06,1.0067607443506483e-06,1.7741278587628143e-06,1.9556854921970555e-06
230,1.0332072667485827e-06,9.060951331254005e-07,7.38232638543084e-07,8.704300686601147e-06,1.0200547279904964e-06,1.0586859913184819e-06,1.096318393911809e-06,2.2846528004156566e-06,1.9499502461011e-05,8.907121007660181e-07,1.1885903451658115e-06,4.393458514754315e-05,1.0298462956624744e-06,9.96207265201372e-07,1.4033618490296648e-06,1.887363536640628e-06
231,1.039144461933037e-06,9.012345860623667e-07,7.445097818874868e-07,8.909699826199443e-06,1.059874814312329e-06,1.0917879016906932e-06,1.0984633346824408e-06,2.191536351323387e-06,2.008109046269258e-05,8.944278240629219e-07,1.1735173983187564e-06,4.314493713545841e-05,1.0131827900126605e-06,9.868761566403323e-07,1.0855411989583627e-06,1.8314899677821548e-06
232,1.0454098832309627e-06,8.95654859311013e-07,7.535020593966302e-07,9.126325306862858e-06,1.0999337951521321e-06,1.1245574104398114e-06,1.1019579312757405e-06,2.1024738431622537e-06,2.062202985772042e-05,9.000647602660776e-07,1.1606624216314865e-06,4.2050645473643284e-05,9.980548435286157e-07,9.784058194700913e-07,8.170765473168777e-07,1.7877888982957513e-06
233,1.0519458574888274e-06,8.896537191537115e-07,7.659043957541392e-07,9.347108492776128e-06,1.1399527828634028e-06,1.15650078927314e-06,1.1065827587738203e-06,2.0171549614392373e-06,2.111020258940602e-05,9.077152542826534e-07,1.1499511403842324e-06,4.0693422834934965e-05,9.847129683220429e-07,9.703823371947914e-07,5.94257679020045e-07,1.7558582520336604e-06
234,1.0585582061170232e-06,8.835255199145181e-07,7.824825477894655e-07,9.565988374866296e-06,1.1796004792387515e-06,1.187167787142622e-06,1.112116880568231e-06,1.935515561894579e-06,2.1532653082545122e-05,9.174317368982498e-07,1.1411412054296797e-06,3.912776083164925e-05,9.734048881960168e-07,9.624229832547002e-07,4.132902423243442e-07,1.7352323878231813e-06
235,1.0649202594500054e-06,8.774762524139722e-07,8.039382876221788e-07,9.779116091384553e-06,1.2184490709743862e-06,1.2161568283520216e-06,1.1183920372406954e-06,1.8577608561885636e-06,2.1878623831737505e-05,9.291490788854214e-07,1.1338744183683477e-06,3.741318627454827e-05,9.64339238631052e-07,9.542542828515837e-07,2.7036395833933506e-07,1.7253496788124291e-06
236,1.0705918269246573e-06,8.716052047506226e-07,8.308795885340505e-07,9.98539692122492e-06,1.2559389661932893e-06,1.2431029215148903e-06,1.1252492724533412e-06,1.7842872021945804e-06,2.2142115741707785e-05,9.426469528178618e-07,1.1277481005111357e-06,3.560769838164763e-05,9.576190197749464e-07,9.45766028106642e-07,1.6177362526717647e-07,1.7254217303213241e-06
237,1.0750970427897872e-06,8.659345624313475e-07,8.638833575063647e-07,1.0186272202136416e-05,1.2913610434624222e-06,1.2676688002731275e-06,1.132476261042747e-06,1.715522888929421e-06,2.2322202156699554e-05,9.575589828354926e-07,1.12237847524488e-06,3.3764267447769935e-05,9.532218448341861e-07,9.370327499668636e-07,8.399908838332277e-08,1.7343450893445068e-06
238,1.0780974532809952e-06,8.604870258515925e-07,9.035576010240303e-07,1.0385001750609397e-05,1.3238693384022927e-06,1.2895217252574184e-06,1.13975277217389e-06,1.6517611525429571e-06,2.2420580971978095e-05,9.733781624752838e-07,1.117454904590482e-06,3.192944758305985e-05,9.51063650258217e-07,9.282624570456771e-07,3.3686338166678875e-08,1.7507488723699658e-06
239,1.0795424570295375e-06,8.553650810694424e-07,9.505126978340374e-07,1.0585839176427276e-05,1.3525740722314155e-06,1.3082654766335889e-06,1.1466202909863935e-06,1.5930795100741705e-06,2.2437889547661953e-05,9.89452581152607e-07,1.1127771178557035e-06,3.014320459691605e-05,9.51101056118328e-07,9.19680437365857e-07,7.589368971947167e-09,1.7731403734260155e-06
240,1.0796430904973066e-06,8.507466829459614e-07,1.0052607732883745e-06,1.0793326347059903e-05,1.376677680886313e-06,1.323352583862086e-06,1.1525533917279581e-06,1.539337217245293e-06,2.2371088407005833e-05,1.0050035118763914e-06,1.1082435538279857e-06,2.8439632178161345e-05,9.533832196355208e-07,9.114512808096335e-07,2.5331159441547944e-09,1.800005460731132e-06
241,1.0787078035832302e-06,8.467890547336474e-07,1.0681397435924899e-06,1.1011656540047776e-05,1.3955771518445035e-06,1.334073808180873e-06,1.1571269505124526e-06,1.4901615864151509e-06,2.2213243667187328e-05,1.0192060838179764e-06,1.1038164549287419e-06,2.6848187015163685e-05,9.580286463499058e-07,9.03694661157818e-07,1.540527551308053e-08,1.8297842610469307e-06
242,1.077009726182918e-06,8.435248217004178e-07,1.139292386020998e-06,1.1243948114992887e-05,1.4089197324834963e-06,1.3396872165166527e-06,1.160154129865683e-06,1.4449166326317554e-06,2.1955618132527435e-05,1.0313684608857815e-06,1.0994906017570756e-06,2.539492675281259e-05,9.651625394273123e-07,8.965158242708532e-07,4.3162394631767074e-08,1.8608452158362789e-06
243,1.0747387682220282e-06,8.408238773670093e-07,1.2186562273257312e-06,1.1491458891911716e-05,1.4166137426408088e-06,1.3396156975123416e-06,1.1616852092259345e-06,1.402724782841326e-06,2.1591114589551058e-05,1.0411010041171232e-06,1.0952528024120318e-06,2.4103279109700917e-05,9.748467410663856e-07,8.900185078790366e-07,8.283183957099139e-08,1.8916348739435939e-06
244,1.0719736078211778e-06,8.384453985869805e-07,1.3059443271117773e-06,1.1752990233438047e-05,1.4187816304356823e-06,1.3335823463973793e-06,1.161874456025306e-06,1.3625839520390668e-06,2.111806423820537e-05,1.0482906963692292e-06,1.0910806490464545e-06,2.2994050803871388e-05,9.870404591833697e-07,8.843631849064611e-07,1.3151298962455139e-07,1.920979997938498e-06
245,1.0686709890422557e-06,8.361836527436097e-07,1.4006284155272588e-06,1.2024645037817283e-05,1.4156526218946322e-06,1.3216254062564433e-06,1.1608454269284923e-06,1.323550209773827e-06,2.054281495084148e-05,1.0529438717375604e-06,1.087016903428859e-06,2.2084777636407298e-05,1.0015995640428243e-06,8.79826421899437e-07,1.8641170272859404e-07,1.9482938666231753e-06
246,1.0647078916203484e-06,8.340381097455048e-07,1.5019270128758506e-06,1.2299963818288111e-05,1.4074197078244888e-06,1.304040981760167e-06,1.1586906895656304e-06,1.284891745081809e-06,1.9878879173918324e-05,1.0551006472913247e-06,1.0832213435567707e-06,2.138890278341112e-05,1.0182695058304712e-06,8.767518364029916e-07,2.4493284770383145e-07,1.9734939914799104e-06
247,1.0599603760835908e-06,8.322607640076627e-07,1.6087990555821761e-06,1.257055780123014e-05,1.3941407325797454e-06,1.2813390483231364e-06,1.1555959171742958e-06,1.2461425092078493e-06,1.914304646538065e-05,1.0548212434764136e-06,1.0799054074460275e-06,2.0915246012505474e-05,1.0366829753021834e-06,8.754313988680459e-07,3.0479153575849156e-07,1.9967870425720144e-06
248,1.054385040426714e-06,8.312389133439262e-07,1.7199508136753163e-06,1.2827306793899073e-05,1.3757618400328396e-06,1.25422612143962e-06,1.151950773046217e-06,1.207078878077731e-06,1.8352329426415576e-05,1.0521892096592976e-06,1.077208749555315e-06,2.0667864902252635e-05,1.0564130271219237e-06,8.760254400553512e-07,3.640798919652378e-07,2.018621255308543e-06
249,1.04806216427642e-06,8.313516354448233e-07,1.8338507611636433e-06,1.3061793505033483e-05,1.3522472205946245e-06,1.2235406055420977e-06,1.1483307337497185e-06,1.1676824492306833e-06,1.752334723991042e-05,1.0474076379916875e-06,1.0751453859579253e-06,2.0646080391872357e-05,1.0770245034035907e-06,8.78535492338815e-07,4.2128740544180343e-07,2.0397496848367635e-06
250,1.0411533467037046e-06,8.329180291117727e-07,1.9487537887249924e-06,1.3267382307298398e-05,1.3237387446449835e-06,1.1901212876956564e-06,1.1453531287831708e-06,1.12811165985012e-06,1.6671827451510434e-05,1.04096560591287e-06,1.0736567144947283e-06,2.084452799059881e-05,1.0980337864429763e-06,8.828139326672793e-07,4.7526809114606575e-07,2.0611149195442022e-06
251,1.0337969882955273e-06,8.362020549430174e-07,2.0627962074902198e-06,1.3439569769677637e-05,1.2906506327743159e-06,1.1547363252636745e-06,1.1435242651318845e-06,1.0886804718977046e-06,1.581120464005478e-05,1.033680986581561e-06,1.0727010614234536e-06,2.125363140830873e-05,1.1188578413959359e-06,8.886170917855755e-07,5.251317263511908e-07,2.0835857752526454e-06
252,1.026059167355608e-06,8.414021681818992e-07,2.174210669985902e-06,1.3575724770196266e-05,1.2536102259650107e-06,1.1181571804896656e-06,1.1431703997271583e-06,1.0498421642556989e-06,1.4951661796717306e-05,1.0265484540155933e-06,1.0722872768678637e-06,2.1861058950907164e-05,1.1388829503616263e-06,8.956658564173251e-07,5.701781154397519e-07,2.1078171398806025e-06
253,1.0179938414216045e-06,8.486361639558019e-07,2.281548256838485e-06,1.3674650150635217e-05,1.2132746790138298e-06,1.0812402631540903e-06,1.1444451506938063e-06,1.0121410009922613e-06,1.41002880349058e-05,1.020567399459213e-06,1.0724386548482376e-06,2.265399735349685e-05,1.1575708347218826e-06,9.036795591703528e-07,6.099935492078327e-07,2.134293396314253e-06
254,1.0096966408482155e-06,8.579480212290695e-07,2.3837034050140634e-06,1.3736323758297077e-05,1.170187651937478e-06,1.044871421312028e-06,1.1473946458485192e-06,9.761077990040097e-07,1.3261930206142269e-05,1.016690117243862e-06,1.0731730730217065e-06,2.3621121522552864e-05,1.1745027202714409e-06,9.124183962536262e-07,6.44560827382557e-07,2.163397578290894e-06
255,1.0012546941824888e-06,8.693010837227729e-07,2.4797905182021364e-06,1.3761896337424841e-05,1.124796514145866e-06,1.009844946040666e-06,1.152042394273478e-06,9.421597910456339e-07,1.2440069669533242e-05,1.0158132609894483e-06,1.0745450832268655e-06,2.4752771170465782e-05,1.189456742301892e-06,9.217269104460683e-07,6.741843669240809e-07,2.1953853792978687e-06
256,9.926739542627318e-07,8.825510627006692e-07,2.5692116743195543e-06,1.3753816933845953e-05,1.077576107562623e-06,9.767990373747686e-07,1.1584070338579044e-06,9.105567269999318e-07,1.1637214273588577e-05,1.018736587676356e-06,1.0766832329609925e-06,2.603937419505375e-05,1.2025246920358061e-06,9.315216928355006e-07,6.992877406857832e-07,2.2303046330808995e-06
257,9.838761419465483e-07,8.97466823856327e-07,2.651976872779741e-06,1.3715871100486782e-05,1.029108768134444e-06,9.462067931261817e-07,1.1664415934853604e-06,8.814077060219664e-07,1.0855129276433624e-05,1.0261254659769563e-06,1.0797486536164945e-06,2.747081217220668e-05,1.2141135484105913e-06,9.417431254261077e-07,7.202586165506383e-07,2.2679637602908914e-06
258,9.747219156261445e-07,9.138052125676005e-07,2.728888681436559e-06,1.3652886324677435e-05,9.800484235534974e-07,9.183790751098551e-07,1.1759982191554888e-06,8.547396314649584e-07,1.0095667988294336e-05,1.0384894688525192e-06,1.0838232073226773e-06,2.90380952742507e-05,1.224798167658481e-06,9.523076350178395e-07,7.374073097841274e-07,2.3079598488320792e-06
259,9.649972322748118e-07,9.31344840718819e-07,2.8013642122650745e-06,1.3569958103353279e-05,9.310326879671665e-07,8.934578887721422e-07,1.1868695314455634e-06,8.305935701285534e-07,9.361656856012142e-06,1.0561752162843877e-06,1.0888195440990938e-06,3.07344078352399e-05,1.2351355181645223e-06,9.630697015365054e-07,7.510206026281872e-07,2.3497420454316697e-06
260,9.54375300544821e-07,9.498410219164486e-07,2.8710703746838887e-06,1.3471323198598933e-05,8.826212453504571e-07,8.714091816096239e-07,1.198815394067099e-06,8.090449927383382e-07,8.656621120949414e-06,1.0793978403795082e-06,1.0945210145769172e-06,3.2553204288359326e-05,1.2455450995735216e-06,9.738322591470755e-07,7.614769852281572e-07,2.3927059000133808e-06
261,9.424245470077848e-07,9.689957419652017e-07,2.939576115687096e-06,1.3359269300347444e-05,8.352695320045705e-07,8.520699576083063e-07,1.2115066050466316e-06,7.901373750335113e-07,7.983963144168127e-06,1.1082942782385004e-06,1.100764889663486e-06,3.448539400488058e-05,1.256282187410278e-06,9.844167447276735e-07,7.693351885495564e-07,2.4362310929095145e-06
262,9.28730257445784e-07,9.885018570557534e-07,3.0080906629341616e-06,1.3233553857224349e-05,7.893543139517997e-07,8.352710654991016e-07,1.224463891969172e-06,7.73823517176854e-07,7.34678358162054e-06,1.1429462215507302e-06,1.1076378367188394e-06,3.6518467260634636e-05,1.2674662296791302e-06,9.947133431825458e-07,7.753058652697946e-07,2.479582474288221e-06
263,9.130853582729741e-07,1.0080724353408918e-06,3.0773153894029437e-06,1.3091650408506518e-05,7.452534512284471e-07,8.209527647581378e-07,1.2370820280216298e-06,7.599739045021651e-07,6.747884989326404e-06,1.1833389150076265e-06,1.1155067839906812e-06,3.863741252370954e-05,1.2791172449113766e-06,1.0046365685936549e-06,7.801516187831951e-07,2.5218202895702293e-06
264,8.955987533850322e-07,1.0273873234603764e-06,3.1474110926139152e-06,1.2929751491679121e-05,7.033853287939156e-07,8.091719313882287e-07,1.248729721638235e-06,7.484328121440866e-07,6.189430605814419e-06,1.2292785950598835e-06,1.1248609141987725e-06,4.082489380888657e-05,1.2911733125842355e-06,1.0140394972344892e-06,7.846051381804376e-07,2.5619376593601164e-06
265,8.766334769367254e-07,1.046051771279661e-06,3.2181299432607003e-06,1.2744106501972462e-05,6.641572993014309e-07,8.000183019287533e-07,1.2588916108716354e-06,7.390548764184091e-07,5.672682725728572e-06,1.28032891149583e-06,1.136138415080086e-06,4.305952027955762e-05,1.3035072461005228e-06,1.022702280172975e-06,7.893119179145127e-07,2.599132977216342e-06
266,8.56653994940104e-07,1.0636694756087393e-06,3.289124315506849e-06,1.2532236821064613e-05,6.279026670482939e-07,7.935586776950645e-07,1.2673079296607238e-06,7.316972533038424e-07,5.198065186521546e-06,1.3357808273906774e-06,1.1496627397991222e-06,4.531416643267198e-05,1.3159546406977667e-06,1.0304301031322601e-06,7.948045373673097e-07,2.632878419963131e-06
267,8.361232432711228e-07,1.0799739711224223e-06,3.3601452270061364e-06,1.229371630542227e-05,5.948629278955931e-07,7.89845077714925e-07,1.2740106183865494e-06,7.262228060061751e-07,4.765432418653637e-06,1.3946425299476767e-06,1.1656313177334686e-06,4.755565286315343e-05,1.3283104398614536e-06,1.03718033909298e-06,8.015144627230753e-07,2.6626858463444337e-06
268,8.154827379557031e-07,1.0949023543573604e-06,3.430896749328311e-06,1.2030360829022611e-05,5.651921849491388e-07,7.888984038314418e-07,1.2791994042530118e-06,7.225377275362111e-07,4.374287812161227e-06,1.4556670236012172e-06,1.1841065138503288e-06,4.974495828331083e-05,1.3402998536469628e-06,1.043110997847368e-06,8.097800945095214e-07,2.687860296391481e-06
269,7.951463939104553e-07,1.108577559289104e-06,3.500853204607558e-06,1.1745889054953106e-05,5.389707364185808e-07,7.906449818679388e-07,1.2830671040085975e-06,7.206028289248679e-07,4.023709669106454e-06,1.5174161296652762e-06,1.2050408825856517e-06,5.1839270828662756e-05,1.3515668912093111e-06,1.0485363390877856e-06,8.198486836206234e-07,2.7075220136364856e-06
270,7.754883989879021e-07,1.1212342109329767e-06,3.5693647374882696e-06,1.1445352435262035e-05,5.162327559002723e-07,7.94896559038618e-07,1.2857354881249376e-06,7.203817981382862e-07,3.712113187478513e-06,1.578333045159087e-06,1.2283577822543213e-06,5.3798111795891855e-05,1.3616485130963575e-06,1.0538319199921007e-06,8.318950379550668e-07,2.7207757869534223e-06
271,7.568703194472537e-07,1.1331451644466089e-06,3.635838645023592e-06,1.1134662641773701e-05,4.969830485072138e-07,8.014120645057659e-07,1.2872999372454494e-06,7.218037218905333e-07,3.4371331734532304e-06,1.636830993454249e-06,1.2540259743851706e-06,5.559130427395576e-05,1.3699158849611336e-06,1.0593188591108744e-06,8.460440911048381e-07,2.7267669465802964e-06
272,7.396830599863823e-07,1.1445958428246287e-06,3.6996702243835093e-06,1.0820319538350954e-05,4.811868333478748e-07,8.099570424727809e-07,1.287847780501443e-06,7.248478075762963e-07,3.195681540211352e-06,1.6913798659634637e-06,1.2820260563959613e-06,5.720401047164256e-05,1.375554728016609e-06,1.065180205109849e-06,8.624012389883738e-07,2.7248236521429935e-06
273,7.24326360810398e-07,1.1558789548504544e-06,3.7599640875293412e-06,1.0509225664538773e-05,4.6875889028152825e-07,8.202874556717299e-07,1.2873842294979779e-06,7.297047697596142e-07,2.9841486174595264e-06,1.7405262658891807e-06,1.3122645742149816e-06,5.863593565413103e-05,1.3776801195743353e-06,1.0714400347249524e-06,8.810739040921841e-07,2.7148805298919613e-06
274,7.111284535938349e-07,1.1672479055103687e-06,3.81537656027436e-06,1.0208487934703344e-05,4.595611398597774e-07,8.321240532604231e-07,1.2857302520979948e-06,7.368236284693337e-07,2.7988454056077576e-06,1.7829566073738858e-06,1.3445768362152949e-06,5.989501474614304e-05,1.3756104804103408e-06,1.077977344723107e-06,9.021296517927579e-07,2.6976823561489422e-06
275,7.002787987519799e-07,1.1788622225339512e-06,3.864264017109858e-06,9.92520849018324e-06,4.5339665413881214e-07,8.452016781649042e-07,1.2824935682907917e-06,7.467736316280425e-07,2.636591367533941e-06,1.817799708470728e-06,1.378812544567446e-06,6.099107320647551e-05,1.3691410528540864e-06,1.084539170721262e-06,9.255311604790947e-07,2.6744374469059566e-06
276,6.918191983941902e-07,1.1907699345002783e-06,3.904905611914265e-06,9.666177072448244e-06,4.500251189620965e-07,8.593486266386155e-07,1.277155786287002e-06,7.600684546950362e-07,2.4950129457269848e-06,1.844968772355212e-06,1.4149356348245551e-06,6.193645398015918e-05,1.3585581081513797e-06,1.0907328106342039e-06,9.511249952655141e-07,2.646347941701373e-06
277,6.856806811353636e-07,1.2028800439384126e-06,3.935490969372971e-06,9.43735347906252e-06,4.4922628113591376e-07,8.745219859097592e-07,1.2692330308686133e-06,7.770870446697873e-07,2.372393394744267e-06,1.8651256086466488e-06,1.4530626393063778e-06,6.275209085262876e-05,1.3443680225727762e-06,1.0960412976239162e-06,9.786629827794965e-07,2.614385823618695e-06
278,6.817211878802112e-07,1.214936190464456e-06,3.953905272919902e-06,9.243427346310704e-06,4.5087176314279663e-07,8.907806274224324e-07,1.2584175715935615e-06,7.98081757566245e-07,2.2674183211923433e-06,1.8793002654674853e-06,1.4933646865610359e-06,6.34697271058022e-05,1.3270058270783455e-06,1.0999456792477233e-06,1.007832768647211e-06,2.5793102439534415e-06
279,6.797443264270716e-07,1.2265728629663757e-06,3.957716656922052e-06,9.087845586559399e-06,4.549405875906879e-07,9.081981636207704e-07,1.2446288398454526e-06,8.23204575486262e-07,2.17906760404133e-06,1.8885526054224053e-06,1.535929382608954e-06,6.412590162654813e-05,1.3067239553436704e-06,1.102115806956564e-06,1.0383280446082075e-06,2.541797889832611e-06
280,6.79532872521357e-07,1.2374296089823878e-06,3.94468564425006e-06,8.9730702570965e-06,4.614745577447712e-07,9.267536248299661e-07,1.2279664562758858e-06,8.5249867902244e-07,2.106538523358954e-06,1.8938675430055507e-06,1.5807310378788738e-06,6.475366039499481e-05,1.2836311376478509e-06,1.1025113907488818e-06,1.0699404830349138e-06,2.502461130260948e-06
281,6.808931239126232e-07,1.2472256849426751e-06,3.9135253291389445e-06,8.900528830798807e-06,4.7052150652684525e-07,9.462703575531014e-07,1.2086010430374215e-06,8.858594901745014e-07,2.049063408108156e-06,1.8961887205811422e-06,1.6276604384618548e-06,6.537815200447541e-05,1.2577804977975314e-06,1.1013247432975222e-06,1.1025966340307017e-06,2.4616747499235787e-06
282,6.836566130386665e-07,1.255776189103389e-06,3.864354991705741e-06,8.870237576229207e-06,4.820925855036279e-07,9.66442603278932e-07,1.18667837740996e-06,9.230119491026245e-07,2.0057101488667532e-06,1.8964234126694093e-06,1.676497194481396e-06,6.601458285282711e-05,1.2292384335836531e-06,1.0988425920210465e-06,1.1362982507463278e-06,2.4194217079295383e-06
283,6.876668446540544e-07,1.2630008798558647e-06,3.79861562643866e-06,8.880603396789138e-06,4.961265920726491e-07,9.869234826063365e-07,1.162338715955866e-06,9.635329801373927e-07,1.9753349016141843e-06,1.8953895248456078e-06,1.7268303845837758e-06,6.666610683177837e-05,1.1981340294958411e-06,1.095316521468673e-06,1.1710250315903199e-06,2.3753251969325836e-06
284,6.927907753304705e-07,1.2689354573123714e-06,3.7185795043936074e-06,8.928737698835315e-06,5.124635977652953e-07,1.0074048895704224e-06,1.135842109503172e-06,1.0069154693022605e-06,1.9566647929083908e-06,1.8938355666520792e-06,1.7780398737831807e-06,6.732339332526367e-05,1.164756764166587e-06,1.0908976648196755e-06,1.2067061752436023e-06,2.32884404326042e-06
285,6.989004336886247e-07,1.273686358439225e-06,3.6267128100117784e-06,9.011045020816843e-06,5.30845214253138e-07,1.0276314699025873e-06,1.1076498853345499e-06,1.0526382173006094e-06,1.9483163799815903e-06,1.8925516899856847e-06,1.8294109958330268e-06,6.796898210269252e-05,1.1296833359353293e-06,1.0856666898643292e-06,1.2432475699823914e-06,2.2795643387921937e-06
286,7.058151712755964e-07,1.2773170869018046e-06,3.5251879940816015e-06,9.123691012220679e-06,5.509441160072123e-07,1.0473476422770072e-06,1.078372830698527e-06,1.100181931565572e-06,1.9487220453512577e-06,1.89239911017309e-06,1.8802969116559374e-06,6.858678615772674e-05,1.0937725186658169e-06,1.0797144096715384e-06,1.280511998335623e-06,2.227445620012226e-06
287,7.132715708663768e-07,1.279791786071195e-06,3.4157717383596148e-06,9.262779426383175e-06,5.724040935862961e-07,1.066257713140347e-06,1.0486394233184617e-06,1.148994962769891e-06,1.956207457635805e-06,1.8941925797592713e-06,1.9301813738298283e-06,6.917069797736616e-05,1.0579826824235657e-06,1.0731825941594272e-06,1.318294431439418e-06,2.172817200946876e-06
288,7.209600885514424e-07,1.2810729704220711e-06,3.300026681975004e-06,9.424184658390214e-06,5.948704641337158e-07,1.084095467732993e-06,1.0189701636308314e-06,1.1985176486132947e-06,1.969339713643962e-06,1.8985467299980675e-06,1.9785842282880043e-06,6.9725090594851e-05,1.0231878547191418e-06,1.0662363234621477e-06,1.3563719645112892e-06,2.11611119577455e-06
289,7.286235657228225e-07,1.2812579438564252e-06,3.179515085739966e-06,9.603034861767201e-06,6.179920318150911e-07,1.100765918014637e-06,9.897201709163852e-07,1.248315480620611e-06,1.9872519749809007e-06,1.9057759869779639e-06,2.0249075475019837e-06,7.025744667072729e-05,9.901061510159634e-07,1.0590189007070939e-06,1.3945202507946644e-06,2.057572767701166e-06
290,7.361476888669123e-07,1.2805832494537642e-06,3.0557824673238644e-06,9.793045693955787e-06,6.413961525404756e-07,1.1164051673175842e-06,9.611201976920667e-07,1.2982047271028597e-06,2.0095891883561832e-06,1.9158903517543053e-06,2.0684339539043968e-06,7.076926027984358e-05,9.592821013439325e-07,1.051652743829028e-06,1.4324219484662682e-06,1.9971963372301315e-06
291,7.435577473144003e-07,1.2792896497092158e-06,2.9301811077143754e-06,9.98617755805252e-06,6.646949637093685e-07,1.1313005238828783e-06,9.333607488860013e-07,1.348245265286057e-06,2.0361394667995793e-06,1.9286722004384427e-06,2.1085628200414553e-06,7.125097611959689e-05,9.310897866064772e-07,1.0442665126030635e-06,1.4695569873046051e-06,1.934943813799549e-06
292,7.509334905052303e-07,1.2774658194457437e-06,2.8037396829583247e-06,1.0173003986173102e-05,6.875548711435293e-07,1.145790144565645e-06,9.066396711487773e-07,1.3986056009157572e-06,2.0665185723403303e-06,1.943717089860648e-06,2.14508616601575e-06,7.168228982141121e-05,9.057885729988005e-07,1.0369733617936047e-06,1.505143464641033e-06,1.8710978372491948e-06
293,7.583250483380073e-07,1.2749615890680857e-06,2.677190983425606e-06,1.0343769646442394e-05,7.097409397295226e-07,1.160259338559346e-06,8.812106570401526e-07,1.4493882100858062e-06,2.1001037289573145e-06,1.9603984377202855e-06,2.1782239164807637e-06,7.203466098956336e-05,8.83601173408466e-07,1.0298230325914558e-06,1.538141125291634e-06,1.806490935706825e-06
294,7.65719802656132e-07,1.2713692779831995e-06,2.551107859464256e-06,1.0489866412505485e-05,7.310682020406319e-07,1.1751682205541856e-06,8.574553436410356e-07,1.5004974698318373e-06,2.1361269524250667e-06,1.9778603511880904e-06,2.208369175066566e-06,7.227381196637207e-05,8.647401867704072e-07,1.022805259306994e-06,1.5672984019679734e-06,1.7424328082918459e-06
295,7.73038661422894e-07,1.2660529873661104e-06,2.4260699401833095e-06,1.0605297574749163e-05,7.513567442544868e-07,1.1909929914230013e-06,8.358655476322051e-07,1.5515842096035462e-06,2.1738207814501986e-06,1.9950737876427075e-06,2.2357819274570154e-06,7.236413278093414e-05,8.493883553368813e-07,1.0159099888828564e-06,1.5912477848972495e-06,1.6804329077577977e-06
296,7.801323383172305e-07,1.2582532064895634e-06,2.302833447372289e-06,1.0687589153039227e-05,7.704883664781933e-07,1.208140124136184e-06,8.169180474453647e-07,1.602060391797686e-06,2.212563189452043e-06,2.0109145476670592e-06,2.260448567457348e-06,7.227661574138481e-05,8.376923895010246e-07,1.0091823294911948e-06,1.6087134232051872e-06,1.6219589193945774e-06
297,7.868156302949768e-07,1.2472731940681341e-06,2.182447219808859e-06,1.0737877035639506e-05,7.884985123949204e-07,1.226928274922716e-06,8.00985196223263e-07,1.6511667965278428e-06,2.2518876872982288e-06,2.0242871845136682e-06,2.2820676844517818e-06,7.19979465763034e-05,8.297884265447955e-07,1.0027032989247654e-06,1.6187876196919916e-06,1.568308307664723e-06
298,7.929661480344621e-07,1.2326609585901428e-06,2.0662158589123755e-06,1.0760275341818895e-05,8.055921720014036e-07,1.2475795856458388e-06,7.8834613762815e-07,1.6980799354010157e-06,2.2913056999356e-06,2.034319578751817e-06,2.3000479658992316e-06,7.153688300224752e-05,8.258300640940089e-07,9.965356006812354e-07,1.6210915297114205e-06,1.5205501823223928e-06
299,7.985982095730479e-07,1.2142710227693967e-06,1.955499151169369e-06,1.0760627089718018e-05,8.220594471834699e-07,1.2701751461608054e-06,7.792190266593482e-07,1.742031855109499e-06,2.3301755379410937e-06,2.040564173591267e-06,2.3134816244803547e-06,7.092565027945745e-05,8.259682805862126e-07,9.907204903183134e-07,1.6156987216934084e-06,1.4795639479531185e-06
300,8.038235968764983e-07,1.1921762152547767e-06,1.8514846111607577e-06,1.0744863703950503e-05,8.381470201498112e-07,1.2946158411048009e-06,7.737458186303552e-07,1.782374126620512e-06,2.3678287830887508e-06,2.043071262986843e-06,2.3211122814022653e-06,7.021609704196942e-05,8.30278405405209e-07,9.852950395525103e-07,1.6028756447521867e-06,1.4461411849907227e-06
301,8.087562785917009e-07,1.1665084583687305e-06,1.7550815704170885e-06,1.071779445611147e-05,8.539640269080927e-07,1.3205992379072826e-06,7.719646218073543e-07,1.8185050893236263e-06,2.4038295025611393e-06,2.0422172251255246e-06,2.3214373787410456e-06,6.947200548878556e-05,8.387011132283727e-07,9.80262236555847e-07,1.5828181004942134e-06,1.420993059449416e-06
302,8.134582543908658e-07,1.1373477392340563e-06,1.6669414038943487e-06,1.0683002025507203e-05,8.694510891419622e-07,1.3476143447406667e-06,7.738185662731698e-07,1.8496886565994122e-06,2.4381435332809467e-06,2.0383697354064986e-06,2.313068494985984e-06,6.875968562744796e-05,8.510342456202654e-07,9.755295186797087e-07,1.5555777302225787e-06,1.404635978396051e-06
303,8.179402825504113e-07,1.1047312605923133e-06,1.5875124543668363e-06,1.0643445206387779e-05,8.843992895557398e-07,1.3749599293609656e-06,7.791745406115924e-07,1.874936190913899e-06,2.471114024583088e-06,2.0316374240660995e-06,2.2951395392673014e-06,6.813961696639372e-05,8.669540736343783e-07,9.708663347080896e-07,1.5212276457904778e-06,1.3972890324394343e-06
304,8.222168392653995e-07,1.0687452363658928e-06,1.517073020801388e-06,1.0601950052424373e-05,8.985145266164222e-07,1.40178147487497e-06,7.87817231580934e-07,1.8930871280576533e-06,2.5032442785722973e-06,2.02181535214879e-06,2.267386198159914e-06,6.7663485021271e-05,8.860583989847339e-07,9.658948092496581e-07,1.4800824749112507e-06,1.3988573312906496e-06
305,8.263958181877845e-07,1.029623273366029e-06,1.4557259933672466e-06,1.0561184385942722e-05,9.115265222638893e-07,1.427160766932814e-06,7.99442448519682e-07,1.9030510793714127e-06,2.534960245586873e-06,2.0084831138767735e-06,2.229920634401195e-06,6.737869013213553e-05,9.079319888808953e-07,9.601346171967757e-07,1.4327346519030168e-06,1.40900173881502e-06
306,8.307021314856778e-07,9.878377674027216e-07,1.4033515471197403e-06,1.0523144129028488e-05,9.233151885130494e-07,1.4502271166404583e-06,8.136731674314115e-07,1.9040846666789858e-06,2.566516795929081e-06,1.991233868581228e-06,2.1831385274001837e-06,6.733570348578016e-05,9.321951674300679e-07,9.531377529253817e-07,1.3798958502241602e-06,1.4272686854586439e-06
307,8.35388597121518e-07,9.441523759599154e-07,1.3595542064413948e-06,1.0488637165371663e-05,9.33977387106289e-07,1.4701683774235413e-06,8.300873371681947e-07,1.895993398752529e-06,2.597952186067372e-06,1.969961632360477e-06,2.1278951778208e-06,6.759165600100307e-05,9.584970942526607e-07,9.446484721734639e-07,1.3222522835797818e-06,1.4531766238243288e-06
308,8.406313466302864e-07,8.995523683996425e-07,1.3236761477347864e-06,1.0457422445884253e-05,9.437658450781329e-07,1.4861888219785895e-06,8.482548814506286e-07,1.8791891285561124e-06,2.6289916122075974e-06,1.9450477682630135e-06,2.0656144302231612e-06,6.820805155314425e-05,9.864820849828882e-07,9.34649944202135e-07,1.26046017935648e-06,1.4861939030331676e-06
309,8.464973440150199e-07,8.550736760002658e-07,1.2948974822776293e-06,1.0428967819785203e-05,9.529416607972502e-07,1.4975919850166028e-06,8.677725593088511e-07,1.854584162406021e-06,2.659006172467374e-06,1.9173505392222596e-06,1.9981566841344764e-06,6.924487603185737e-05,1.0157679516050748e-06,9.232639620344374e-07,1.1951734233685233e-06,1.5256849115659502e-06
310,8.529551217051384e-07,8.116615524473261e-07,1.2723308459301458e-06,1.0402991684056328e-05,9.616568433864335e-07,1.503953634682358e-06,8.882531519938152e-07,1.8233535929131252e-06,2.687120766168129e-06,1.8880223981346775e-06,1.9275805393338273e-06,7.075438265275056e-05,1.0459270189376417e-06,9.106220137016729e-07,1.1269947074497776e-06,1.5708699597372658e-06
311,8.598694835530424e-07,7.701192829874953e-07,1.2550444806039184e-06,1.0379161184290665e-05,9.699293222747907e-07,1.505183836356945e-06,9.092738791235417e-07,1.7866596667694549e-06,2.712421463710165e-06,1.8582756516090429e-06,1.8559129063915697e-06,7.277650951575615e-05,1.0764981584675879e-06,8.968241782346139e-07,1.0564345630751188e-06,1.6207592351913494e-06
312,8.669858009376131e-07,7.311081095211324e-07,1.242118668931648e-06,1.0356268376842104e-05,9.77676881503005e-07,1.5014021507896688e-06,9.303737113960932e-07,1.7455013500728087e-06,2.734158735499928e-06,1.8292295437845026e-06,1.7850032350688937e-06,7.53367990338724e-05,1.1070608408814119e-06,8.819776850642431e-07,9.839631935637866e-07,1.674091304454504e-06
313,8.73972010883961e-07,6.951676749613163e-07,1.2328141522847608e-06,1.0331871498915194e-05,9.847491442743377e-07,1.4927261049067938e-06,9.511510922774929e-07,1.7007728351375502e-06,2.751853459575476e-06,1.8018419914453939e-06,1.7164927525353733e-06,7.844656083863427e-05,1.13726749708394e-06,8.662592936058214e-07,9.10069201421375e-07,1.7293642087470855e-06
314,8.805527849533e-07,6.627466241832353e-07,1.2267126502449907e-06,1.0302926921297901e-05,9.90935365983287e-07,1.4791519217752356e-06,9.713911695650533e-07,1.6534008162319698e-06,2.7652225312129893e-06,1.7768515772606436e-06,1.6518108724620622e-06,8.210314594800056e-05,1.1667439420839375e-06,8.499691227423445e-07,8.352400514772056e-07,1.7849928326679502e-06
315,8.866419999159672e-07,6.342209617564283e-07,1.2236725740737745e-06,1.0266860961508775e-05,9.959665306591697e-07,1.4606408961664667e-06,9.9110922079282e-07,1.6043866981111816e-06,2.773985845390945e-06,1.7547493558645118e-06,1.5921577800286894e-06,8.628847701373706e-05,1.1949538544823428e-06,8.335285049768996e-07,7.599140556295094e-07,1.8395249687943982e-06
316,8.923424574054087e-07,6.098956997004468e-07,1.2236383844957783e-06,1.0222293757339545e-05,9.995442722258806e-07,1.4373345615157504e-06,1.0104633629496067e-06,1.5547316612145912e-06,2.7778543786605354e-06,1.7358153044960858e-06,1.5385086186312455e-06,9.096636504118247e-05,1.2211771408961006e-06,8.173976904217291e-07,6.844736203906276e-07,1.8917561548497153e-06
317,8.978310425185233e-07,5.900043205410269e-07,1.2264521388878812e-06,1.016919166229518e-05,1.0013998971847207e-06,1.409709781700942e-06,1.0295983333569056e-06,1.5053250435196216e-06,2.7768172516973294e-06,1.7201558702555832e-06,1.4916113357195646e-06,9.60801697899943e-05,1.2446420775101334e-06,8.019737043515697e-07,6.092801298707746e-07,1.9406408433738513e-06
318,9.032571079562583e-07,5.747012876996777e-07,1.231775386113519e-06,1.0108641323611029e-05,1.0013254278795542e-06,1.3785409963956835e-06,1.0485280541604398e-06,1.45686810319701e-06,2.771404594731134e-06,1.7077005187372106e-06,1.451961532529608e-06,0.00010155141353895006,1.2647265902845574e-06,7.875480641826236e-07,5.347109157252105e-07,1.9851295402836636e-06
319,9.086900281118466e-07,5.640478294888129e-07,1.2391506838148155e-06,1.0042500206398989e-05,9.9912304712133e-07,1.344705370179068e-06,1.0670999543936172e-06,1.409856502150496e-06,2.762719948937657e-06,1.6982028965422879e-06,1.419797813522566e-06,0.00010727884370236183,1.2811001861862684e-06,7.743259093286944e-07,4.6117071879229535e-07,2.024174182299269e-06
320,9.140702696643238e-07,5.580053974824422e-07,1.2481342316065136e-06,9.973065178494647e-06,9.94525262867408e-07,1.3090370310209082e-06,1.0850128477498384e-06,1.3646066027401777e-06,2.7524367491784295e-06,1.691310107666225e-06,1.39515120256937e-06,0.00011313785940353396,1.2937302235499876e-06,7.62438860196174e-07,3.891100330376477e-07,2.056940691358965e-06
321,9.191784559133155e-07,5.564412754261664e-07,1.2583475460080083e-06,9.902797339338966e-06,9.871927939249454e-07,1.2723405537147123e-06,1.1018824610009034e-06,1.3213013928257086e-06,2.7428453571780407e-06,1.6867122027076112e-06,1.377918792730492e-06,0.0001189814877534106,1.3027458651577307e-06,7.519286041627126e-07,3.190834871802558e-07,2.083026578324523e-06
322,9.236732638021011e-07,5.591527767324705e-07,1.2693761056900808e-06,9.834087584580243e-06,9.76817732314069e-07,1.235417505927626e-06,1.1173675177958543e-06,1.2800318961313828e-06,2.7367433092074408e-06,1.6842756659827321e-06,1.367873838286854e-06,0.000124642757659787,1.3082230002947355e-06,7.427463173538026e-07,2.5181528672318915e-07,2.10250136937244e-06
323,9.271977822599261e-07,5.658989474821733e-07,1.2806357802622883e-06,9.768982258281057e-06,9.632740800483698e-07,1.1989878557752793e-06,1.131278205934756e-06,1.2408059419344206e-06,2.7371170984485357e-06,1.6840169351254575e-06,1.364599708140769e-06,0.00012993642521097435,1.3100302521221868e-06,7.347893213328414e-07,1.8826940385941404e-07,2.115776035096999e-06
324,9.29506971218235e-07,5.764197727468083e-07,1.29136775983322e-06,9.70876833990142e-06,9.467378087421298e-07,1.1635813463650893e-06,1.1435699124634412e-06,1.2035126983533234e-06,2.7468445610802935e-06,1.6859055177605507e-06,1.3674319552631962e-06,0.00013466462957870454,1.3078424073938635e-06,7.279694296800429e-07,1.2972164206304588e-07,2.12345877934742e-06
325,9.305610210863915e-07,5.90469490692618e-07,1.3007794988014095e-06,9.653509934708152e-06,9.277085527348007e-07,1.1295010722095848e-06,1.1542649722614171e-06,1.1678784070432326e-06,2.768545736516189e-06,1.6896623346422124e-06,1.3754918786172308e-06,0.00013863907261755747,1.3012447626728259e-06,7.222724584648972e-07,7.776708447559895e-08,2.1263314826507237e-06
326,9.305328605767752e-07,6.078674433364214e-07,1.3082346464768265e-06,9.602045030765325e-06,9.069081751786336e-07,1.096888306047773e-06,1.163402738177335e-06,1.1334819809096368e-06,2.8045309243420213e-06,1.6947159521958655e-06,1.387855072606604e-06,0.00014171859048353188,1.2897765173676205e-06,7.177439279884231e-07,3.434675865952363e-08,2.1253639279297446e-06
327,9.297123322423152e-07,6.284976576173402e-07,1.3133813080112509e-06,9.552898703546883e-06,8.851176290743097e-07,1.0658594413910656e-06,1.1710156648232304e-06,1.099866965085738e-06,2.8567979451827147e-06,1.7003403683506688e-06,1.4037765499891263e-06,0.00014383533030161248,1.2729565173499363e-06,7.144619823257773e-07,1.9440033584072513e-09,2.1215948401075504e-06
328,9.283804541565357e-07,6.522543837326134e-07,1.3161508584316904e-06,9.505653798842403e-06,8.630700985607551e-07,1.0366399408680292e-06,1.177083204920607e-06,1.066698258528728e-06,2.927016200239162e-06,1.7058535556410583e-06,1.4227749118040438e-06,0.00014498501507476854,1.2504237778533364e-06,7.125905650607088e-07,-1.6200927660894946e-08,2.1159663370133115e-06
329,9.267503448713775e-07,6.790164141094364e-07,1.3166650679406242e-06,9.461757069741212e-06,8.41438823066515e-07,1.0095957976065185e-06,1.1815217456307361e-06,1.0338490000049071e-06,3.0164826910118193e-06,1.7106910793969803e-06,1.444483603235098e-06,0.0001451914997958057,1.222140429720706e-06,7.124249039755551e-07,-1.6105826986363332e-08,2.1093060788085803e-06
330,9.249663074919188e-07,7.08659953012011e-07,1.315161729415902e-06,9.424326812306548e-06,8.208458233056736e-07,9.8514676287445e-07,1.1842760766241028e-06,1.001345069596261e-06,3.1262031378516256e-06,1.7143301551552074e-06,1.4684234162707257e-06,0.00014448066006924218,1.1885165751355592e-06,7.143368977710914e-07,6.8108029430298955e-09,2.1023940397715276e-06
