,EMG1,EMG2,EMG3,EMG4,EMG5,EMG6,EMG7,EMG8,EMG9,EMG10,EMG11,EMG12,EMG13,EMG14,EMG15,EMG16
0,3.5489314389960044e-07,4.448246656606542e-07,1.1793472774833932e-06,3.3472224149836675e-06,8.753379806135976e-08,-6.953593749783473e-08,-6.6086262696029635e-09,1.8975921309641776e-07,1.0423479193822796e-06,3.1262343409668825e-07,6.957705058714511e-09,1.478949686435234e-05,1.7639057172555075e-07,1.9499664600601793e-07,-1.711134336497797e-07,6.963940252807728e-07
1,5.457378688301548e-07,5.782510117250926e-07,2.0487968827608407e-06,5.221726610454663e-06,1.5228762461368903e-07,1.7530259523330904e-07,6.602528680534074e-08,6.090630932877757e-07,1.4746460404779737e-06,4.184246299968066e-07,9.505042361334506e-08,1.6455591846440157e-05,2.2489824357747918e-07,2.63264554239897e-07,-2.0645157109271394e-08,7.697708200526081e-07
2,7.324875222896075e-07,7.128868376625672e-07,2.886943907797419e-06,7.058799412152761e-06,2.1651819200840796e-07,4.1315105761850207e-07,1.3642948242993347e-07,1.0148828848807e-06,1.900088951124254e-06,5.234349755906956e-07,1.8366229961274522e-07,1.83996587217967e-05,2.7456187747186784e-07,3.285445415003416e-07,1.2623085054896001e-07,8.436021521913395e-07
3,9.134264794665327e-07,8.475861578556079e-07,3.6847677467546762e-06,8.850426275426963e-06,2.796129473683564e-07,6.418283191029346e-07,2.0322324627851154e-07,1.4030417226713732e-06,2.315491210326034e-06,6.272663220033912e-07,2.724123949262824e-07,2.0638932225097448e-05,3.252461439831802e-07,3.9034415301598475e-07,2.6865151706793343e-07,9.168996055032455e-07
4,1.0867235162007033e-06,9.811288518400985e-07,4.433401453058646e-06,1.0589557154121407e-05,3.4103887296079146e-07,8.595224138556018e-07,2.654302920403713e-07,1.770028255846177e-06,2.717398175829791e-06,7.295049202348889e-07,3.6091993711206676e-07,2.318731600942146e-05,3.767885817960653e-07,4.4840732659587764e-07,4.058095889449015e-07,9.889543425141888e-07
5,1.2504879188849988e-06,1.1122581511279988e-06,5.124566910352071e-06,1.2269631014292236e-05,4.0036285939824235e-07,1.0648119575830933e-06,3.225546686857347e-07,2.112858900362133e-06,3.1021329784723724e-06,8.296787996346659e-07,4.4879879889257206e-07,2.605521266272357e-05,4.2898243082729633e-07,5.026528331036826e-07,5.369218736059417e-07,1.0592961619612142e-06
6,1.4029171573375105e-06,1.2397181932387566e-06,5.750988801676008e-06,1.3883429262226826e-05,4.5720625940629183e-07,1.256539893378994e-06,3.745081933777723e-07,2.4287517750287593e-06,3.4660811628548322e-06,9.272576291725344e-07,5.356597630141604e-07,2.924890886361902e-05,4.815715486023943e-07,5.530513712339104e-07,6.612422218796937e-07,1.127511593085209e-06
7,1.5424609260024174e-06,1.3622622597478344e-06,6.306577794514306e-06,1.542222787522827e-05,5.111907663212395e-07,1.4336249414791742e-06,4.214502700699953e-07,2.7149643270406188e-06,3.806110491227552e-06,1.0216767321919573e-06,6.211171625189422e-07,3.276929885465288e-05,5.342556721451246e-07,5.995474717066212e-07,7.781892598190127e-07,1.1930767188025827e-06
8,1.6679199588874338e-06,1.4785985665061829e-06,6.786531489182366e-06,1.6876379343643112e-05,5.619568288196737e-07,1.5949502323318513e-06,4.636410050797673e-07,2.968946050165512e-06,4.11992457287287e-06,1.1123641152399448e-06,7.047988218557405e-07,3.6610561430461105e-05,5.86707103610021e-07,6.420316872965958e-07,8.874809585607975e-07,1.2553040120316572e-06
9,1.7784663582512227e-06,1.587309336529629e-06,7.187549890072446e-06,1.823732861000328e-05,6.092395694217818e-07,1.7394275174842555e-06,5.013794782169279e-07,3.1886335172150377e-06,4.406223399156842e-06,1.198785515612721e-06,7.863436479132947e-07,4.075926561894304e-05,6.385982388706358e-07,6.803366391975012e-07,9.891433472389927e-07,1.3133761307126626e-06
10,1.8736181888259184e-06,1.68683753278018e-06,7.508083593570533e-06,1.9499717813867124e-05,6.528990081460669e-07,1.8662029275520494e-06,5.350161049698997e-07,3.3726899864485812e-06,4.664600899441834e-06,1.2805221666694156e-06,8.653964716813957e-07,4.5193715451564664e-05,6.896142492830575e-07,7.142989848949641e-07,1.0834702018451797e-06,1.3663944164128223e-06
11,1.9532086183236135e-06,1.775573657194792e-06,7.748413091698412e-06,2.066217411788304e-05,6.928632610956528e-07,1.9748441353760697e-06,5.649550810939241e-07,3.5206553988841997e-06,4.895185712812806e-06,1.3573320890920453e-06,9.416356061182839e-07,4.9883192975122464e-05,7.394434730716683e-07,7.438598604393301e-07,1.1709960759068643e-06,1.4134482536235491e-06
12,2.0173711188708727e-06,1.8520161035320967e-06,7.910557201739176e-06,2.172639617034845e-05,7.290667015297889e-07,2.0653845148383836e-06,5.916041610873315e-07,3.63306411962176e-06,5.0982794161345e-06,1.429129461072024e-06,1.0148129067176506e-06,5.478695873669986e-05,7.87756402542168e-07,7.690964330527609e-07,1.2523876021351276e-06,1.4538095499793888e-06
13,2.0665217502221005e-06,1.9149925252024915e-06,7.998128438299435e-06,2.2694932468629807e-05,7.614478427347559e-07,2.1382537199667385e-06,6.153070403871102e-07,3.7115355284127474e-06,5.274396368990471e-06,1.4958614205080853e-06,1.0847747783356258e-06,5.9852941074981155e-05,8.341676238785252e-07,7.902397105573173e-07,1.3282702132867114e-06,1.487225206793346e-06
14,2.1012972447699367e-06,1.9639198706827096e-06,8.016148636911577e-06,2.3568654330194193e-05,7.899788131856155e-07,2.194187587433623e-06,6.36299795086974e-07,3.758750059789936e-06,5.424534293567728e-06,1.5573396136388277e-06,1.1514472541006095e-06,6.501622508404484e-05,8.781839134521744e-07,8.077410179042055e-07,1.3991500823483428e-06,1.5140714155811783e-06
15,2.1224127284472057e-06,1.999006364048468e-06,7.970783048285554e-06,2.4345457614152136e-05,8.146841611347675e-07,2.2341602123969745e-06,6.547074969611529e-07,3.77825475457887e-06,5.55006575278619e-06,1.6131179335557449e-06,1.214759027437292e-06,7.019760567956075e-05,9.191832450106289e-07,8.222457841913614e-07,1.465482017492688e-06,1.5352181487694828e-06
16,2.1304604137633233e-06,2.021222486570069e-06,7.868997496378816e-06,2.5020796719748922e-05,8.356176468295034e-07,2.2593407475142835e-06,6.705943532030739e-07,3.7741406914864484e-06,5.652501942781366e-06,1.6624467216336007e-06,1.2745384028202813e-06,7.530225073426365e-05,9.564871689415007e-07,8.344407783532536e-07,1.5277531875678224e-06,1.5517068442436644e-06
17,2.125790992498812e-06,2.031980067013296e-06,7.718191987123845e-06,2.5589058948938214e-05,8.527962180565868e-07,2.2710495356157508e-06,6.840678896967044e-07,3.750652738034604e-06,5.733784311631345e-06,1.7043224230012096e-06,1.3304557851302142e-06,8.021885462252989e-05,9.895174777940906e-07,8.449338154669142e-07,1.5864423151847375e-06,1.5644729026951813e-06
18,2.1086014621040385e-06,2.0327561238741723e-06,7.525892537703073e-06,2.604488141121629e-05,8.661767116700317e-07,2.270654196317784e-06,6.953807430602189e-07,3.711782118478896e-06,5.796608787456982e-06,1.7376983903564406e-06,1.382050429906521e-06,8.482170563287492e-05,1.0179423393920267e-06,8.542387021448684e-07,1.6418848732236122e-06,1.574239101893555e-06
19,2.0791531573250287e-06,2.024924042903302e-06,7.299540742965413e-06,2.6384471110216102e-05,8.757515364501378e-07,2.2593832701294457e-06,7.04948473553541e-07,3.6609490773399232e-06,5.844028325539761e-06,1.761844942534745e-06,1.4288396359300304e-06,8.897972878876728e-05,1.0417434561571657e-06,8.628005275228052e-07,1.6941827856522475e-06,1.5815257214498379e-06
20,2.0379651047057807e-06,2.009752337122626e-06,7.046347660679235e-06,2.660692389642521e-05,8.816903352618342e-07,2.238143406201041e-06,7.132676404996019e-07,3.6009173626462084e-06,5.878835252155493e-06,1.7766725063351606e-06,1.4703995678634905e-06,9.25726878476705e-05,1.0611801495415812e-06,8.709861549661214e-07,1.7432618041944667e-06,1.5867174608361454e-06
21,1.985924695142143e-06,1.9884473530187813e-06,6.773168731167175e-06,2.6714913618900913e-05,8.843730974642497e-07,2.2074755469418795e-06,7.208072360508394e-07,3.533955161205356e-06,5.9033717745560166e-06,1.7827756374619444e-06,1.506307523653749e-06,9.550705939672702e-05,1.076644081889985e-06,8.790472274550626e-07,1.7890684672241082e-06,1.5901691828163812e-06
22,1.924327254501149e-06,1.9622361031792654e-06,6.486357122754303e-06,2.671410283760362e-05,8.84277455809461e-07,2.1677057112568078e-06,7.279604945223164e-07,3.462063093277915e-06,5.919410975204788e-06,1.7811634717955881e-06,1.5360770646333922e-06,9.772297054880002e-05,1.0884924993316052e-06,8.870958932579539e-07,1.8317318434846942e-06,1.59226198031973e-06
23,1.8548427293311237e-06,1.932426048764447e-06,6.191530488246567e-06,2.6611177612765183e-05,8.818623523121408e-07,2.119222549283751e-06,7.35057121249285e-07,3.387058139509726e-06,5.927804642118636e-06,1.7729481256164212e-06,1.5592708380442375e-06,9.91905535727955e-05,1.0969710259735287e-06,8.95101794284738e-07,1.8715341946026738e-06,1.5933478319913524e-06
24,1.7793822976516302e-06,1.9003170754637904e-06,5.893277781767126e-06,2.641119086148667e-05,8.775614248136725e-07,2.0627497834787214e-06,7.423703119297625e-07,3.3104684626201946e-06,5.9281987479355784e-06,1.759218568094328e-06,1.5757108195899961e-06,9.98984092028419e-05,1.1022218528717545e-06,9.029361288036709e-07,1.9087667219898437e-06,1.5937139215254466e-06
25,1.6998792272181692e-06,1.8670000110607848e-06,5.595016035546397e-06,2.611582389568147e-05,8.718105408255857e-07,1.999490564724816e-06,7.501157493788251e-07,3.233405920863085e-06,5.919040142021895e-06,1.7410063350994958e-06,1.5855924724534406e-06,9.983913129372572e-05,1.1043523630531366e-06,9.104473625201868e-07,1.943623155155314e-06,1.5936510977753304e-06
26,1.61808736833037e-06,1.833200320895116e-06,5.299142960999727e-06,2.5723920114801287e-05,8.650196883797199e-07,1.9310732784121936e-06,7.584782968121368e-07,3.1566000394371688e-06,5.897872304433403e-06,1.7192452252018412e-06,1.5894403024163966e-06,9.900392231288113e-05,1.1035599818524458e-06,9.174810645277201e-07,1.976151542729751e-06,1.5934858536284854e-06
27,1.535515638113122e-06,1.7992450472474142e-06,5.007346608236215e-06,2.5233755702118518e-05,8.575468841384136e-07,1.859322824463598e-06,7.676285292600647e-07,3.080502978666924e-06,5.8618368706059535e-06,1.6947661871563607e-06,1.5879524966643658e-06,9.739448519467992e-05,1.1002063569327764e-06,9.238612387996073e-07,2.0061982226622295e-06,1.5935618830552153e-06
28,1.4534920500591402e-06,1.765137555170203e-06,4.720881245996635e-06,2.4645399206318856e-05,8.497523658697911e-07,1.7860116215049081e-06,7.776912830751638e-07,3.0052595321312846e-06,5.808241220439221e-06,1.6682822094959557e-06,1.5818242193926173e-06,9.504131715146966e-05,1.0947348476975547e-06,9.294105306663685e-07,2.0333357755575242e-06,1.5942659588658368e-06
29,1.3732297608521365e-06,1.7307091281654904e-06,4.44077667970789e-06,2.3962184345226433e-05,8.420784306573392e-07,1.7127468766056507e-06,7.887050861890823e-07,2.930643685427813e-06,5.735054168811602e-06,1.6403744600500094e-06,1.571681913757738e-06,9.201194658901707e-05,1.0875249347538597e-06,9.339680157707525e-07,2.056861509796209e-06,1.5959920523059424e-06
30,1.2958199913649655e-06,1.6957907292709028e-06,4.167995279522229e-06,2.3191196765858624e-05,8.350441347935112e-07,1.6409554612217688e-06,8.006033350697802e-07,2.856162457524823e-06,5.641229833281614e-06,1.6115844443740557e-06,1.5581877288100529e-06,8.840521039937424e-05,1.0788467765730426e-06,9.373927275794633e-07,2.075905165960647e-06,1.5990073431821385e-06
31,1.2221850445481138e-06,1.6603441832760913e-06,3.903510962609699e-06,2.23429419232835e-05,8.291500969078102e-07,1.5718478724569848e-06,8.13208598551898e-07,2.7812590912550424e-06,5.526835070987462e-06,1.5825514452068309e-06,1.542131667066754e-06,8.433757553681264e-05,1.0689351828355332e-06,9.396292560013084e-07,2.0895511934339305e-06,1.6034177183018617e-06
32,1.1530408863170583e-06,1.6245528305855895e-06,3.6482840993819813e-06,2.143037969716261e-05,8.247829435206752e-07,1.5063756243763429e-06,8.262440950864726e-07,2.705521517146682e-06,5.392890686821875e-06,1.5540623964720125e-06,1.524317636346784e-06,7.992912404448607e-05,1.0580601023121733e-06,9.407748809777733e-07,2.096908230802665e-06,1.6093196140803915e-06
33,1.088904783103315e-06,1.5888847463878283e-06,3.403140465524565e-06,2.046761335882112e-05,8.221846437977471e-07,1.4452343106931257e-06,8.393643336783741e-07,2.628917448650029e-06,5.240894505728217e-06,1.5269659591687768e-06,1.5053535712807887e-06,7.52936634642307e-05,1.0464899733772162e-06,9.410199553144789e-07,2.0971855858807564e-06,1.6169660330987692e-06
34,1.0301562858704278e-06,1.5540770900993258e-06,3.1686194773772095e-06,1.946856830893178e-05,8.214816030812594e-07,1.3888919588907697e-06,8.521854191366717e-07,2.5519731326368233e-06,5.072556271218076e-06,1.5019885130891802e-06,1.485549296113925e-06,7.053303284798429e-05,1.0344413275494011e-06,9.405156909224956e-07,2.089839172300877e-06,1.6267491778442661e-06
35,9.771038652584133e-07,1.52099037190921e-06,2.944911372739583e-06,1.8445725289671885e-05,8.227163053791523e-07,1.3376112002605726e-06,8.643272293895286e-07,2.4757309885181157e-06,4.8901468552470586e-06,1.4795847587588437e-06,1.4649759415550895e-06,6.573410688633633e-05,1.0221507721269585e-06,9.39307751106216e-07,2.0747404246708915e-06,1.6390190403337055e-06
36,9.299984482324163e-07,1.4903857554108394e-06,2.7319546892779354e-06,1.740895584239578e-05,8.25837638234474e-07,1.29145385636745e-06,8.75505286483248e-07,2.4014630609994295e-06,4.6967598598319785e-06,1.4599272605335496e-06,1.4436613376067709e-06,6.0968065913554715e-05,1.009965558909017e-06,9.373774625136764e-07,2.052280620563548e-06,1.6539148343360927e-06
37,8.889874399794643e-07,1.4627516140557841e-06,2.5296277635420023e-06,1.6365147127898108e-05,8.306811120918313e-07,1.2502889722542983e-06,8.856430106488398e-07,2.3303142651164754e-06,4.495845954893922e-06,1.4429968919290196e-06,1.4217936441474281e-06,5.6291763248042046e-05,9.983027433709796e-07,9.347680784047415e-07,2.023372959684372e-06,1.6713223388144039e-06
38,8.540678173180659e-07,1.4382464002535394e-06,2.3379101245369816e-06,1.5319216599000736e-05,8.36973936738817e-07,1.2138247325332425e-06,8.94906425129832e-07,2.263075587375756e-06,4.290583707781059e-06,1.4286714969399628e-06,1.3997656454320456e-06,5.17500321814776e-05,9.875793381480917e-07,9.317162434979732e-07,1.989310513997189e-06,1.6909430676984719e-06
39,8.251142998165e-07,1.4167187605739457e-06,2.1569337224868383e-06,1.4275897317055949e-05,8.44347305496306e-07,1.181628282832451e-06,9.036092937501934e-07,2.2001481587666545e-06,4.08381721616231e-06,1.4167684116686984e-06,1.3780898537896885e-06,4.737778613346992e-05,9.782510124707237e-07,9.286617523532241e-07,1.95147228946997e-06,1.7123642712691657e-06
40,8.019853239468167e-07,1.39775922111947e-06,1.9868983595633617e-06,1.3241134449334906e-05,8.523806726464616e-07,1.1531395239686016e-06,9.120490474177098e-07,2.141648913993504e-06,3.8784237252842045e-06,1.4070515670187612e-06,1.3573020850855494e-06,4.320162486681014e-05,9.708623430986429e-07,9.261186687059796e-07,1.9110172265003708e-06,1.7350361851092823e-06
41,7.84601691680014e-07,1.3807936674614847e-06,1.8279184114115977e-06,1.222250183193299e-05,8.607132937181662e-07,1.1277508123268273e-06,9.203833869465661e-07,2.0875739530222846e-06,3.6775262087557018e-06,1.3992136225033141e-06,1.337860290784152e-06,3.924101872055491e-05,9.65979703857778e-07,9.245445274145964e-07,1.8687172045846255e-06,1.758259569590564e-06
42,7.729074689987959e-07,1.365223227736866e-06,1.67994989542431e-06,1.122872765736311e-05,8.691318000339935e-07,1.1049413926314635e-06,9.285999139102129e-07,2.0379068689038646e-06,3.484305744193093e-06,1.3928752557065438e-06,1.3200535547635747e-06,3.550914924123704e-05,9.640600056510391e-07,9.243057025632463e-07,1.8249499855140423e-06,1.7813251807526687e-06
43,7.667721390656222e-07,1.3505613157392529e-06,1.542854436834669e-06,1.0268781396648154e-05,8.775303120239812e-07,1.0843831167512205e-06,9.365631828786124e-07,1.992589396539103e-06,3.3016577904368234e-06,1.3876145033987038e-06,1.3039838188038407e-06,3.201355413599601e-05,9.65363419064729e-07,9.256906928837911e-07,1.7798033537918876e-06,1.8036883188960895e-06
44,7.659435333398127e-07,1.336482989172087e-06,1.4164835928402479e-06,9.35092886653979e-06,8.858095551598137e-07,1.0659735897803152e-06,9.441076957833785e-07,1.9513877100715922e-06,3.1320164118919026e-06,1.3829597303400202e-06,1.2896115306595846e-06,2.8756814032766637e-05,9.699343443922932e-07,9.288902512986863e-07,1.7332061998726573e-06,1.8249686931725744e-06
45,7.700594484480454e-07,1.322739813175034e-06,1.3006727180260293e-06,8.481987601188191e-06,8.938453335403693e-07,1.0497912491036e-06,9.511163840992921e-07,1.913755301210172e-06,2.9773856360148236e-06,1.3783689204633432e-06,1.276794384823132e-06,2.5737459681076123e-05,9.776293263801427e-07,9.33947963854369e-07,1.6850253963996388e-06,1.8448166733316542e-06
46,7.786654493153794e-07,1.3090232801716256e-06,1.1951824608046575e-06,7.666988520306227e-06,9.015193759938742e-07,1.0359845454062457e-06,9.575119100302418e-07,1.8787688541356381e-06,2.8394015819956614e-06,1.3733053565345976e-06,1.2653217679810431e-06,2.295105073598439e-05,9.881854360692863e-07,9.407422626715906e-07,1.6351707387570274e-06,1.862865834182412e-06
47,7.912273836238118e-07,1.294912339999946e-06,1.099665891198399e-06,6.9092448973069414e-06,9.087182966566826e-07,1.0246491912430327e-06,9.63185586191283e-07,1.8452094022995163e-06,2.719328762951472e-06,1.3673976039106522e-06,1.25501942996695e-06,2.0391227917479355e-05,1.0012872035362742e-06,9.490088686781092e-07,1.5837395402043167e-06,1.8788223561478275e-06
48,8.071830219304698e-07,1.2799173187813042e-06,1.013658990879828e-06,6.210525543974139e-06,9.153043163397977e-07,1.0157690638993355e-06,9.679752439020797e-07,1.8118272708574447e-06,2.6180352450358757e-06,1.3605239264780742e-06,1.2458696103286355e-06,1.8050574470034075e-05,1.016553933397745e-06,9.58360763715156e-07,1.5311008967968747e-06,1.8925204290259111e-06
49,8.260396642093822e-07,1.2635467202921452e-06,9.365780311368435e-07,5.571194092461145e-06,9.211189260628354e-07,1.0092177110636664e-06,9.71717481780326e-07,1.7776633647524154e-06,2.535970124947381e-06,1.3527031513401994e-06,1.2379969874470356e-06,1.5921209335184622e-05,1.033478598689824e-06,9.683043239618318e-07,1.4778197582456503e-06,1.9038687046100667e-06
50,8.474258668630791e-07,1.2453748744533177e-06,8.677410194541228e-07,4.9904475505275385e-06,9.25995860958108e-07,1.0047494099423672e-06,9.742714819734208e-07,1.742205198394454e-06,2.4731173915297354e-06,1.343894369548016e-06,1.2315395621611388e-06,1.3995102915973097e-05,1.0514446926231845e-06,9.783029594955268e-07,1.4244954195479281e-06,1.9128126117445024e-06
51,8.710320660775252e-07,1.225119054105582e-06,8.064021338376984e-07,4.466653833495202e-06,9.297704990656459e-07,1.0019800294112823e-06,9.754594218811024e-07,1.7053144036825835e-06,2.4289526116597824e-06,1.3339049327915514e-06,1.2265657403820068e-06,1.2264141022752593e-05,1.0698484759572598e-06,9.879237930535426e-07,1.3716641160487872e-06,1.919353314544631e-06
52,8.965194945470549e-07,1.2026989300668301e-06,7.517855505188579e-07,3.997655371563488e-06,9.323377756502835e-07,1.0003904732236026e-06,9.750201327355144e-07,1.6670760300089864e-06,2.402441900191633e-06,1.3224285693173877e-06,1.2230840689195853e-06,1.0719983761070175e-05,1.0882084891646355e-06,9.970010859626641e-07,1.3197785569118619e-06,1.9234980855969427e-06
53,9.235027151723735e-07,1.178247842831749e-06,7.031621024509489e-07,3.5810016217418526e-06,9.337072657733063e-07,9.993310476224794e-07,9.726837954913407e-07,1.6277379012497943e-06,2.392067863200604e-06,1.3091444907539177e-06,1.2210909432374567e-06,9.353834827796795e-06,1.1061503821113587e-06,1.005674399333622e-06,1.2692053848715932e-06,1.9251332970748866e-06
54,9.515835605860633e-07,1.1520940835319816e-06,6.599757177122246e-07,3.2141570767435207e-06,9.339447966919896e-07,9.980542458066654e-07,9.683219445276927e-07,1.587755959840332e-06,2.395912756133687e-06,1.2939058754300156e-06,1.220653418382014e-06,8.156273968033643e-06,1.1233168285329224e-06,1.0142653676082648e-06,1.2202618665990773e-06,1.9239713981783508e-06
55,9.803569066233656e-07,1.1247466700693336e-06,6.219110039089727e-07,2.8947280430180996e-06,9.330408577011314e-07,9.958293889257345e-07,9.620158002161395e-07,1.5478371850258408e-06,2.411853979309568e-06,1.2769323987207338e-06,1.221960870161894e-06,7.117200076461353e-06,1.1393412744842308e-06,1.0231106824924012e-06,1.1732882745883579e-06,1.919590889886995e-06
56,1.0093815112548123e-06,1.0968718749418418e-06,5.888171071807084e-07,2.6206839258032568e-06,9.30842256364688e-07,9.920782325915778e-07,9.539721575901128e-07,1.5088902322525045e-06,2.4378177234775125e-06,1.2587826493770855e-06,1.2252322674354096e-06,6.225815699670609e-06,1.1539045814646739e-06,1.0324547470665195e-06,1.1287019614483294e-06,1.9114454379074065e-06
57,1.038167863504553e-06,1.0692145902217973e-06,5.605702098729377e-07,2.3904580566893007e-06,9.27091403188863e-07,9.864464635394146e-07,9.444154471522643e-07,1.4718859006712526e-06,2.4720463589101094e-06,1.2401450049280252e-06,1.23056899316488e-06,5.470623948221064e-06,1.1667817977001582e-06,1.0424069968728547e-06,1.087026253017391e-06,1.8988623773126514e-06
58,1.066208001813126e-06,1.0424676512479567e-06,5.370116708317459e-07,2.2028393549157757e-06,9.215230490484426e-07,9.788213515528143e-07,9.336007506456794e-07,1.437696376947995e-06,2.5133818207235733e-06,1.2216821030522823e-06,1.2379290553106801e-06,4.839517092577309e-06,1.177814651842595e-06,1.052925182184499e-06,1.048863504018263e-06,1.8811816062434723e-06
59,1.0930019672558215e-06,1.0171629076193244e-06,5.179874776498266e-07,2.0567228592305392e-06,9.139714790636642e-07,9.693279150382964e-07,9.218938908434561e-07,1.4070079154960056e-06,2.5614148264057575e-06,1.2039647706770744e-06,1.2472069532613067e-06,4.320036895923538e-06,1.1868363766252048e-06,1.063809159124563e-06,1.0148091762760832e-06,1.8580491313089985e-06
60,1.1180162377242475e-06,9.936446906817463e-07,5.034232471157855e-07,1.9508632054093592e-06,9.044441062390731e-07,9.58291380447462e-07,9.097859326592681e-07,1.380333503522695e-06,2.6163101483391586e-06,1.1874259330792397e-06,1.2583042171927102e-06,3.899775481008942e-06,1.1936784455249395e-06,1.0747345139680784e-06,9.853819977642407e-07,1.8296928748987803e-06
61,1.1406106906088993e-06,9.721074507177265e-07,4.933578335409484e-07,1.8837066385048312e-06,8.931026653784244e-07,9.461652781776103e-07,8.978208258196161e-07,1.3580386303501845e-06,2.678380263690495e-06,1.1723733591242276e-06,1.271148837049493e-06,3.566780691307834e-06,1.1983220127968581e-06,1.085314724532629e-06,9.609813322739421e-07,1.7969631735294092e-06
62,1.1600901654589956e-06,9.526266277309711e-07,4.878992435173325e-07,1.8533163862142176e-06,8.801532405568351e-07,9.334795177448211e-07,8.865030773050769e-07,1.3403256366651925e-06,2.7476999322320647e-06,1.159077129878883e-06,1.2856614232446415e-06,3.309791218789002e-06,1.2010290554533615e-06,1.0951104328028433e-06,9.418506142505206e-07,1.761073537691285e-06
63,1.1759487185072638e-06,9.351425028006626e-07,4.871435456085257e-07,1.8573692531312187e-06,8.657391447491866e-07,9.208394008396133e-07,8.762352608224757e-07,1.3272248417786467e-06,2.8239915340695986e-06,1.1478205244685784e-06,1.3016946531422852e-06,3.118154072881802e-06,1.2022852504954063e-06,1.1035829625753149e-06,9.280658680811318e-07,1.723250480342451e-06
64,1.1881171891617205e-06,9.194521754753917e-07,4.91136364736332e-07,1.8931633206695531e-06,8.499128524468284e-07,9.089123247472011e-07,8.672790889541164e-07,1.3186211272073596e-06,2.9068113331096715e-06,1.1388437919292292e-06,1.318995219179273e-06,2.981465356757002e-06,1.202632866777788e-06,1.1101228208388332e-06,9.195675722419318e-07,1.684529282859084e-06
65,1.1969717400569491e-06,9.052747660591786e-07,4.99906533378016e-07,1.9576173558503864e-06,8.326650376667933e-07,8.983514439834111e-07,8.597268220562585e-07,1.3142868500580281e-06,2.9959321905842334e-06,1.1322615266696468e-06,1.3371989558478154e-06,2.88928974129486e-06,1.2025555398009263e-06,1.1142218389904543e-06,9.162364195697499e-07,1.6456950085838665e-06
66,1.2031211278954238e-06,8.923502470776662e-07,5.135209307318269e-07,2.0473246854324077e-06,8.139682200236387e-07,8.897326625991591e-07,8.535091439684262e-07,1.3139071099629084e-06,3.0917485624258638e-06,1.1280340906822677e-06,1.355880768263498e-06,2.8312674364996333e-06,1.2024214780335517e-06,1.1156801131588097e-06,9.179561020274854e-07,1.607279042812358e-06
67,1.207192109213537e-06,8.805009971608381e-07,5.320978522066965e-07,2.1587157306266107e-06,7.938336470024238e-07,8.835732082669382e-07,8.484665560982272e-07,1.3171060521890628e-06,3.1954981021863407e-06,1.125970649767761e-06,1.3746761679772687e-06,2.797449552105927e-06,1.20242995143397e-06,1.1147142682767e-06,9.245957160373494e-07,1.5696181553170274e-06
68,1.2097473023975648e-06,8.696535145000902e-07,5.557746447062818e-07,2.2882811244440916e-06,7.723752473691374e-07,8.803556222254263e-07,8.44435212033529e-07,1.3234657757024825e-06,3.3091685521731757e-06,1.1257450186953208e-06,1.393385017824793e-06,2.778573397508881e-06,1.202583200931242e-06,1.1119208068247333e-06,9.359602346853427e-07,1.5329761276676465e-06
69,1.2112930217029536e-06,8.598333985973833e-07,5.846778572241018e-07,2.4327509995355307e-06,7.498511197455953e-07,8.804845190841689e-07,8.412648531988349e-07,1.3325274569135164e-06,3.435112745134361e-06,1.126970839379453e-06,1.4119571665828165e-06,2.766320489087721e-06,1.2027233449292152e-06,1.108121295441893e-06,9.517807343350901e-07,1.497623340374751e-06
70,1.2122746677231973e-06,8.511113858089092e-07,6.189516674591003e-07,2.5891615519804365e-06,7.266509395634845e-07,8.842278197748409e-07,8.387967268351149e-07,1.3437869043982223e-06,3.575543386292109e-06,1.1293403495619988e-06,1.4303814412642614e-06,2.7537321036397154e-06,1.202613459135333e-06,1.104181105461639e-06,9.717117983893272e-07,1.4638418469821184e-06
71,1.2130333528297134e-06,8.435056496523111e-07,6.588256330269181e-07,2.75476501779424e-06,7.032256373002519e-07,8.91700508531796e-07,8.368673906448999e-07,1.3566739406944207e-06,3.7321769385487202e-06,1.1327303752981092e-06,1.4485764054376976e-06,2.735733236959708e-06,1.2019881713897318e-06,1.1008823829898134e-06,9.953221202663936e-07,1.4319322119732128e-06
72,1.2137981337724892e-06,8.369029980101283e-07,7.046231924292256e-07,2.926791982482906e-06,6.800231683243403e-07,9.028756970681408e-07,8.353112197126513e-07,1.3704976639967277e-06,3.906179571086402e-06,1.1372014579551508e-06,1.4663587300405477e-06,2.7094990079253606e-06,1.2005811133097345e-06,1.0988544853482349e-06,1.0221112145595796e-06,1.4021837730776215e-06
73,1.2147333352872766e-06,8.310509255808493e-07,7.566864588343411e-07,3.1022416002305796e-06,6.574747600927406e-07,9.176121846374493e-07,8.339839407463708e-07,1.384440994973068e-06,4.098270452132948e-06,1.1429158620692676e-06,1.4834841133811453e-06,2.674394129996795e-06,1.1982174111452346e-06,1.0985385016512364e-06,1.051514459996375e-06,1.3747810569448537e-06
74,1.215946890573439e-06,8.256092593738169e-07,8.153043253879455e-07,3.2779163064245817e-06,6.359782171283379e-07,9.357121226837046e-07,8.328649213630855e-07,1.3976989680404662e-06,4.308727434610816e-06,1.1500304721981445e-06,1.4996757983833789e-06,2.6313820356148905e-06,1.1949217059309128e-06,1.1001729646630439e-06,1.0828769715355178e-06,1.3498088772849092e-06
75,1.2174423196916747e-06,8.20196215776671e-07,8.806954213432511e-07,3.450687427799615e-06,6.158592233979682e-07,9.569652003018009e-07,8.321343201514628e-07,1.409672476167468e-06,4.537237565671398e-06,1.1586163584810305e-06,1.5146036700208438e-06,2.582124198764368e-06,1.19089810786165e-06,1.1037896254411416e-06,1.1154816817385845e-06,1.3274085322443614e-06
76,1.2190895964684972e-06,8.143905706465314e-07,9.530186076233126e-07,3.6178162624832914e-06,5.973566083992024e-07,9.81126078887525e-07,8.321063800230395e-07,1.4200290828213191e-06,4.782837106362946e-06,1.1686311779475838e-06,1.5279165895591344e-06,2.528276663277773e-06,1.186378644818316e-06,1.1092152829993342e-06,1.1486580763131556e-06,1.307877946844328e-06
77,1.2206398728748624e-06,8.077397191931599e-07,1.0323793782009677e-06,3.7772168965963102e-06,5.806259203859876e-07,1.007860586444684e-06,8.330810016185861e-07,1.42857740646335e-06,5.044246782293891e-06,1.179903530685437e-06,1.539382688249327e-06,2.471261991133967e-06,1.1814821270092724e-06,1.1160801222780395e-06,1.1818477521904033e-06,1.291577583845011e-06
78,1.2217817043405206e-06,7.998071728639449e-07,1.1188193648532797e-06,3.9276170463844036e-06,5.657370110876973e-07,1.036712771858199e-06,8.352359474423358e-07,1.4351175463911987e-06,5.320523115305845e-06,1.1921013941972892e-06,1.549012890605728e-06,2.4123062076355876e-06,1.176197695083799e-06,1.1238340992626946e-06,1.214538361223037e-06,1.2787527858273372e-06
79,1.2222066741616725e-06,7.902117383128046e-07,1.2122761889954844e-06,4.0686066503818785e-06,5.526780189208041e-07,1.0671190407000682e-06,8.386010676542339e-07,1.439435605718971e-06,5.611526353345363e-06,1.2047161649422361e-06,1.5570355087567595e-06,2.3525111720511614e-06,1.170456926071842e-06,1.1317948744615698e-06,1.2461635919696992e-06,1.2694223429567752e-06
80,1.2216139440734624e-06,7.786483634159414e-07,1.3125244944933478e-06,4.200605384249361e-06,5.41369941880121e-07,1.0984872722691004e-06,8.430993692105024e-07,1.4413565499518521e-06,5.917784669898377e-06,1.2170602286534274e-06,1.5637383683274295e-06,2.2929562712249438e-06,1.164172560738157e-06,1.1392444509674786e-06,1.2761126262673183e-06,1.263352572853341e-06
81,1.2196651333621642e-06,7.64937174553236e-07,1.4191708386133916e-06,4.32474657747265e-06,5.316731841918329e-07,1.130304950234195e-06,8.486142296498301e-07,1.4406990139262989e-06,6.2398472567086035e-06,1.2282612065893416e-06,1.5693435681323978e-06,2.234802027726546e-06,1.157206880910633e-06,1.1455303897408884e-06,1.3038176934962472e-06,1.2600820318659493e-06
82,1.2159724724169388e-06,7.490917159707175e-07,1.5317589720265654e-06,4.442577394204038e-06,5.233861022617893e-07,1.1622399889395879e-06,8.550139222083738e-07,1.4372234114842524e-06,6.57767572900981e-06,1.237333885213231e-06,1.5740128429560108e-06,2.179299084509775e-06,1.1493391046666504e-06,1.1501309956274328e-06,1.3287714565577283e-06,1.2590103110103704e-06
83,1.2101454411884746e-06,7.313494189494374e-07,1.6499031701456278e-06,4.555559254406256e-06,5.162707813107502e-07,1.1942276523034805e-06,8.621073377616002e-07,1.430703879794164e-06,6.930549280183778e-06,1.2434285512363223e-06,1.5778613797688846e-06,2.1276718785643787e-06,1.1402801478132914e-06,1.1527067733988855e-06,1.3504522849214473e-06,1.2595669592695624e-06
84,1.201862168168952e-06,7.121462375929668e-07,1.773295484914026e-06,4.66465105008528e-06,5.101170855102324e-07,1.2264789099498628e-06,8.6958829157812e-07,1.4210105315508653e-06,7.29740139853636e-06,1.2461695313842749e-06,1.5809161966810582e-06,2.0809412278810523e-06,1.1297276986237064e-06,1.1531490726077643e-06,1.3682638771373058e-06,1.2613916038781132e-06
85,1.1909450460595306e-06,6.920539498099584e-07,1.9015731590326155e-06,4.770270798596857e-06,5.047918926585993e-07,1.2593550230455227e-06,8.770285884553054e-07,1.4080621493742881e-06,7.677136475283187e-06,1.2458366185842268e-06,1.583099709847805e-06,2.0397863394914545e-06,1.1174439921695205e-06,1.151586320898344e-06,1.381581349945557e-06,1.264397191350833e-06
86,1.1774271042636115e-06,6.716919427155184e-07,2.0342169358202532e-06,4.872537413936616e-06,5.002319157355501e-07,1.2931808120901544e-06,8.839100322664757e-07,1.3917236058413165e-06,8.068645168206304e-06,1.2432430089939476e-06,1.584208828128015e-06,2.0045107345788604e-06,1.1033025137977555e-06,1.148300346734159e-06,1.3899226771135893e-06,1.2686670078014017e-06
87,1.1615661889161519e-06,6.516391451898943e-07,2.1705903652697013e-06,4.971471517869866e-06,4.964166992191197e-07,1.3281073393111583e-06,8.896687952154433e-07,1.3718360174882527e-06,8.470548931687218e-06,1.2394383707438849e-06,1.5838400164960656e-06,1.975120842793875e-06,1.0872389472942994e-06,1.143573563187886e-06,1.3931139647293819e-06,1.2743251840668556e-06
88,1.143781369273913e-06,6.323918744534858e-07,2.310043345726683e-06,5.066986109370907e-06,4.93365520802015e-07,1.3640536492689155e-06,8.937892712836974e-07,1.348434163273796e-06,8.880763048464705e-06,1.2354752452586506e-06,1.5813722655348715e-06,1.9514461657418405e-06,1.0691627198525129e-06,1.1376006013764658e-06,1.39125990721046e-06,1.2815258899778436e-06
89,1.1245653557290902e-06,6.143707244021418e-07,2.452015375276231e-06,5.158749803419603e-06,4.91134638153058e-07,1.4007058595614763e-06,8.959556116912565e-07,1.3219735488752285e-06,9.295980630756632e-06,1.2322995949409209e-06,1.5761193771485172e-06,1.933211696157256e-06,1.0489523797811568e-06,1.1305522542812482e-06,1.3845614610873356e-06,1.2904714006003024e-06
90,1.1044456747282502e-06,5.97930065987745e-07,2.596151811099369e-06,5.246126201658878e-06,4.897897667998439e-07,1.4375883756157107e-06,8.961535028964669e-07,1.2933659481511864e-06,9.711439680151322e-06,1.2306851576082065e-06,1.567568199538474e-06,1.920106913920962e-06,1.0265152343384346e-06,1.1226619122791196e-06,1.3732598964184936e-06,1.3013428790763343e-06
91,1.08398585210549e-06,5.83349919638554e-07,2.7423862081110313e-06,5.328280999894264e-06,4.893783087897387e-07,1.4742271979850179e-06,8.946411395987158e-07,1.2638085410752674e-06,1.0121333713381427e-05,1.231181394408717e-06,1.5555021181925512e-06,1.911903647629954e-06,1.0018370166473188e-06,1.1141781678333269e-06,1.357800801156094e-06,1.314228065277138e-06
92,1.063758047586547e-06,5.708380942005009e-07,2.89090303943828e-06,5.404375873405525e-06,4.899243472958332e-07,1.5102956482797725e-06,8.918526433731064e-07,1.2345463913958776e-06,1.051967341394303e-05,1.2340964983680752e-06,1.5399166444358337e-06,1.908547317632133e-06,9.750550090560869e-07,1.1052607890668845e-06,1.3389469292984522e-06,1.3291480536826813e-06
93,1.0442623772999211e-06,5.605533645262639e-07,3.0419777004054826e-06,5.473773456038948e-06,4.914446303081654e-07,1.5455847785970595e-06,8.883436438360945e-07,1.2067304409731942e-06,1.0901092032797008e-05,1.2395185202697205e-06,1.520807640921988e-06,1.910158715319433e-06,9.465315302660171e-07,1.0959632811340922e-06,1.3176560030608283e-06,1.346164601103607e-06
94,1.0258470118757778e-06,5.52615833228314e-07,3.1957866538385594e-06,5.536280418572396e-06,4.93961980776201e-07,1.5798406074577704e-06,8.847872504960569e-07,1.181428493007598e-06,1.126131556572449e-05,1.2473461033005658e-06,1.4979875806461895e-06,1.9169326935116733e-06,9.168165824801016e-07,1.0862655799195524e-06,1.2948659851378627e-06,1.365477647332351e-06
95,1.0086773649589421e-06,5.470852963230931e-07,3.352290040836218e-06,5.5924295838153745e-06,4.974865796785421e-07,1.6126613995265818e-06,8.819343367446698e-07,1.1596955200180684e-06,1.1597237054401063e-05,1.2573149936475572e-06,1.4710714105901033e-06,1.9289592285061128e-06,8.865100384349552e-07,1.0760812081994324e-06,1.2713453234410994e-06,1.3874049375202881e-06
96,9.927304929089363e-07,5.43942174872474e-07,3.5111673751934766e-06,5.643669779449588e-06,5.019762162699655e-07,1.643524031728178e-06,8.805028827155541e-07,1.1425717270562063e-06,1.190649849689754e-05,1.2690454467762563e-06,1.4396877404283435e-06,1.9460758746587115e-06,8.561343407257241e-07,1.0652774560403325e-06,1.2476361860414723e-06,1.4122481345735645e-06
97,9.777853830315405e-07,5.431258941042202e-07,3.6717037971066423e-06,5.692319031420157e-06,5.073217892702452e-07,1.671852990767334e-06,8.810674571465653e-07,1.1309900718522993e-06,1.2186578116553928e-05,1.282092188706341e-06,1.40380525717377e-06,1.967838526382989e-06,8.260762372784312e-07,1.0537382218308339e-06,1.2241018207359697e-06,1.4401795779794885e-06
98,9.634357577089488e-07,5.446255706562394e-07,3.8326851733302176e-06,5.741297010488904e-06,5.1337717343668e-07,1.6970708445124483e-06,8.840220308312899e-07,1.1256797645201167e-06,1.243400253482775e-05,1.2959528404325151e-06,1.3639368017837288e-06,1.9935878777236438e-06,7.965829681872072e-07,1.0414181336000097e-06,1.201053141947966e-06,1.4712228524177584e-06
99,9.491524382143276e-07,5.485343901073797e-07,3.992442746423078e-06,5.793791518405271e-06,5.199978219865771e-07,1.7186412900612386e-06,8.896180081913292e-07,1.1271288908303402e-06,1.2644659279611197e-05,1.310093052917263e-06,1.3210751131113782e-06,2.02258455007276e-06,7.677784522757815e-07,1.0283571193127404e-06,1.1788339536650001e-06,1.505288993335521e-06
100,9.343621926577804e-07,5.550322219986167e-07,4.148984339307916e-06,5.852983078675492e-06,5.270430767069414e-07,1.7361072033543134e-06,8.980378001411684e-07,1.1355956569148243e-06,1.2815260728600075e-05,1.3240171030719436e-06,1.2764474814304235e-06,2.0542287653414998e-06,7.397058073877213e-07,1.014693435390708e-06,1.1577713240705433e-06,1.5421973057649856e-06
101,9.185070414551363e-07,5.643676540804383e-07,4.3000916867870065e-06,5.921830663056085e-06,5.343433115193801e-07,1.7490928057226216e-06,9.094460829743358e-07,1.1511475629126876e-06,1.294483726470993e-05,1.3372754792788504e-06,1.2312899863146163e-06,2.0882790252416937e-06,7.124143600840565e-07,1.0006909971552678e-06,1.1380535389518412e-06,1.581630521756964e-06
102,9.011280711930275e-07,5.768583685542195e-07,4.443429417521439e-06,6.002862052314819e-06,5.416831771636406e-07,1.7572737960769435e-06,9.239676818177288e-07,1.1737304969411654e-06,1.3035200243786386e-05,1.3494337690120327e-06,1.1867494600661612e-06,2.1248714845241614e-06,6.860304569931326e-07,9.867189207194774e-07,1.1196621174972223e-06,1.6230675802420957e-06
103,8.820143349850418e-07,5.928575771712436e-07,4.576760830078298e-06,6.097934923262875e-06,5.488566206140462e-07,1.760397363159873e-06,9.416137968814914e-07,1.2032317074198212e-06,1.3090226213611689e-05,1.3601526078124406e-06,1.1438586479492332e-06,2.1642779205789395e-06,6.607441618631097e-07,9.731607101472845e-07,1.1024193030551853e-06,1.665777870262909e-06
104,8.613299906423671e-07,6.126934940997302e-07,4.698271723486888e-06,6.207974376040894e-06,5.557788774806123e-07,1.7583987272804328e-06,9.62239608196188e-07,1.239478403080592e-06,1.3114513452145223e-05,1.3693347612631043e-06,1.1035049026596607e-06,2.2065854305896726e-06,6.367422410477238e-07,9.603445073950982e-07,1.0861284911130952e-06,1.7088600375064086e-06
105,8.39598781864698e-07,6.366218272742929e-07,4.8069059540658355e-06,6.332767412315512e-06,5.625508048726415e-07,1.7515164048319296e-06,9.855637350107493e-07,1.2822140309271166e-06,1.3112064615421045e-05,1.3771701874288126e-06,1.0664091066541274e-06,2.2515052094632827e-06,6.141461893608548e-07,9.485513794030855e-07,1.0706983878026657e-06,1.7512486630296837e-06
106,8.175641130817758e-07,6.647915344152311e-07,4.90257641239611e-06,6.470979189682381e-06,5.693969896879653e-07,1.7402876881791935e-06,1.0111910567337466e-06,1.3311104795236655e-06,1.308534565466786e-05,1.3840192745769385e-06,1.033136990447904e-06,2.2983768367119677e-06,5.929925631356123e-07,9.380307592602393e-07,1.056142290602549e-06,1.7917165121631598e-06
107,7.96049405242761e-07,6.972196377523734e-07,4.986126031131433e-06,6.620454903231558e-06,5.765473427230368e-07,1.725430167129397e-06,1.03859794440781e-06,1.3857476917518987e-06,1.3034705183383649e-05,1.3902265317946146e-06,1.004119786826373e-06,2.346359726987152e-06,5.732892948973224e-07,9.289658101357345e-07,1.0424837880386724e-06,1.8289807501560047e-06
108,7.758779785202147e-07,7.337887740047464e-07,5.058954781673503e-06,6.778633844268617e-06,5.842017259359539e-07,1.7076710122267552e-06,1.0671200467631316e-06,1.445535962129981e-06,1.2957988402072782e-05,1.3959900641253687e-06,9.796749355656312e-07,2.3947542254348627e-06,5.551162671965249e-07,9.214434953760382e-07,1.029672670654888e-06,1.861883251190552e-06
109,7.578153735333663e-07,7.742608319990751e-07,5.122406892178704e-06,6.9428482382870126e-06,5.925921032697122e-07,1.6875750066590292e-06,1.0959713845582948e-06,1.5097089383304156e-06,1.2850425256980767e-05,1.4012923519529202e-06,9.600193066087288e-07,2.443360299894372e-06,5.386783605634435e-07,9.154696975928005e-07,1.0175419461069814e-06,1.8894951627720016e-06
110,7.425128470762817e-07,8.182859708650016e-07,5.17729602450477e-06,7.110430573859435e-06,6.02019215474143e-07,1.665438777634378e-06,1.1242583891590238e-06,1.577485652052441e-06,1.270517303508612e-05,1.405875285341609e-06,9.452749696748097e-07,2.4928430471654684e-06,5.24280401022401e-07,9.109888060785696e-07,1.0058377787766244e-06,1.9111436884067294e-06
111,7.3047185656294e-07,8.65439823266615e-07,5.223867031512814e-06,7.2786933001019744e-06,6.127962031555529e-07,1.6412717964841067e-06,1.1509767988785946e-06,1.6483260736691706e-06,1.2514768582012415e-05,1.4093398069711736e-06,9.3548060776598e-07,2.545114356463455e-06,5.122627685706536e-07,9.079056749782123e-07,9.94381088816944e-07,1.9264509323351197e-06
112,7.220343872891915e-07,9.153258032252489e-07,5.2620427398581925e-06,7.4448886935951576e-06,6.251648184508433e-07,1.614816289921576e-06,1.1750352115529536e-06,1.7220856458790731e-06,1.2273251208936944e-05,1.4113754274099723e-06,9.305902461069986e-07,2.6037120380470256e-06,5.029329487172056e-07,9.061160907852996e-07,9.832479063739973e-07,1.935313859510318e-06
113,7.173936910747951e-07,9.67659217546087e-07,5.291678418376246e-06,7.6062393642498775e-06,6.392534011030715e-07,1.5856117686890067e-06,1.1953349434822413e-06,1.7989584091249268e-06,1.197800515011919e-05,1.4119483289123125e-06,9.304428484269957e-07,2.6741424271871013e-06,4.96515713494513e-07,9.054962503569518e-07,9.727617666688662e-07,1.9377797779379824e-06
114,7.166316579221382e-07,1.0222311839617924e-06,5.312775712998331e-06,7.760100004855505e-06,6.550798938472371e-07,1.5531564832770169e-06,1.210894288316671e-06,1.8792725764620251e-06,1.1630053376924878e-05,1.4113130498908624e-06,9.34736449878733e-07,2.7641103314071952e-06,4.931349664748075e-07,9.058658701936879e-07,9.63321222732144e-07,1.933993308379492e-06
115,7.197648959038447e-07,1.0788179583958088e-06,5.325668200643854e-06,7.904264847041599e-06,6.725787974346163e-07,1.5171354236902568e-06,1.2209795581287545e-06,1.963255843426537e-06,1.1232998347978523e-05,1.4099109069081049e-06,9.430526769787703e-07,2.883494312467488e-06,4.928189370583923e-07,9.069830647292179e-07,9.552602982826117e-07,1.9242666122368905e-06
116,7.267576667030463e-07,1.1371576195992135e-06,5.33108932440544e-06,8.037355702189292e-06,6.916206585579775e-07,1.477606350647777e-06,1.2251997419608186e-06,2.0508640916964377e-06,1.0792616850645103e-05,1.4082826305451597e-06,9.549209734635508e-07,3.0439130448489765e-06,4.955123134417194e-07,9.085750076884985e-07,9.488215894934061e-07,1.9090694867979043e-06
117,7.375174911585583e-07,1.1969704482944141e-06,5.330036250184461e-06,8.159139481216534e-06,7.120058401595161e-07,1.4350606485556422e-06,1.2235497495445913e-06,2.1417404578792425e-06,1.0317515158355652e-05,1.4070283758302902e-06,9.698550486432406e-07,3.257995129901347e-06,5.010888315274225e-07,9.103707625070734e-07,9.441705529643986e-07,1.888876047363836e-06
118,7.519191572616773e-07,1.2579277496402722e-06,5.323460747380567e-06,8.270593821100931e-06,7.33459384972165e-07,1.3903461779099744e-06,1.2164022485620256e-06,2.235290605524946e-06,9.81875911462286e-06,1.40675968730895e-06,9.873342918458992e-07,3.5390310108701e-06,5.09359963459609e-07,9.120804763995425e-07,9.413960956680266e-07,1.8640699341407168e-06
119,7.698223414611303e-07,1.3195621060676995e-06,5.311888590062399e-06,8.37362956868762e-06,7.556532031764105e-07,1.344494957379456e-06,1.2044175210347593e-06,2.3307661275755494e-06,9.307902671501385e-06,1.4079999505676522e-06,1.006789816283708e-06,3.901540908909364e-06,5.200814550724342e-07,9.13336697509548e-07,9.405424486779777e-07,1.835022112627823e-06
120,7.910386675298545e-07,1.3811840735127744e-06,5.295088556682104e-06,8.470526658712826e-06,7.782222932054534e-07,1.2985321543363188e-06,1.1883927142830168e-06,2.4272471147341864e-06,8.795134047697926e-06,1.4110969812307122e-06,1.0276221944898425e-06,4.362158261206104e-06,5.32963475125236e-07,9.137217415310393e-07,9.417005236756229e-07,1.802182752581044e-06
121,8.153022924714979e-07,1.441841112344423e-06,5.272016211261791e-06,8.563199992275854e-06,8.007311382306028e-07,1.2533428921659531e-06,1.1691742485265669e-06,2.5235313625687908e-06,8.288587201340924e-06,1.4162197611648107e-06,1.0491821068773425e-06,4.93977102827586e-06,5.476774423726837e-07,9.129071467485056e-07,9.450607007808756e-07,1.7660968618328386e-06
122,8.422823731041809e-07,1.5003213931883095e-06,5.241221029810162e-06,8.652463657633883e-06,8.226151267631071e-07,1.20963199543444e-06,1.147650226924648e-06,2.6180907509143747e-06,7.794535418693345e-06,1.4233862558551954e-06,1.0706889334535075e-06,5.654690578656178e-06,5.63871897533361e-07,9.107634467818847e-07,9.508400599132542e-07,1.7274496891159384e-06
123,8.715827054377989e-07,1.5552243475947421e-06,5.201546111926342e-06,8.737605766853558e-06,8.431549129595368e-07,1.1679540756594198e-06,1.1247035251416946e-06,2.7092342650061926e-06,7.31793913481008e-06,1.4324519335948137e-06,1.0911745180150904e-06,6.5274296442980784e-06,5.812155537065441e-07,9.073651755501812e-07,9.591553147322625e-07,1.6870877042652376e-06
124,9.027218570366504e-07,1.6051038014714374e-06,5.1526922479309055e-06,8.81653987286055e-06,8.615243126078556e-07,1.1287504268222041e-06,1.1011185805535892e-06,2.7954233371325448e-06,6.8629306656882834e-06,1.4430670151472733e-06,1.109557961074409e-06,7.577702284756614e-06,5.994279537746562e-07,9.029623752201158e-07,9.699505579702772e-07,1.6458970139110045e-06
125,9.351465452866165e-07,1.648638270200166e-06,5.095322758249641e-06,8.886476274951536e-06,8.769430073743395e-07,1.0923422749856492e-06,1.0775112052710585e-06,2.8755846252813433e-06,6.433044953310479e-06,1.4546327753802992e-06,1.1248623249765705e-06,8.823866607684815e-06,6.18264886843126e-07,8.979533848242938e-07,9.829874582367016e-07,1.6046815559947284e-06
126,9.682547638040225e-07,1.6847767358546024e-06,5.030638566612772e-06,8.944842882446034e-06,8.889063464672336e-07,1.0589053973070318e-06,1.0542855388248967e-06,2.949268803119104e-06,6.0313643037901845e-06,1.466286609482652e-06,1.136443322321007e-06,1.0282758195028612e-05,6.375156138095115e-07,8.928122260455282e-07,9.978679693019939e-07,1.56417480999011e-06
127,1.001376267269644e-06,1.7128368926992872e-06,4.959687769761335e-06,8.99015132199717e-06,8.973651040116654e-07,1.0284923672940324e-06,1.0316345249156516e-06,3.0165259301513484e-06,5.6607600520690014e-06,1.4769693558654778e-06,1.1440968931607144e-06,1.1969827491207099e-05,6.570565597666403e-07,8.879747777495775e-07,1.014088993150595e-06,1.5250696265928506e-06
128,1.0337215194585067e-06,1.73254871085118e-06,4.882952017014142e-06,9.022462215774447e-06,9.027250901294894e-07,1.0010959411101084e-06,1.0096222401752285e-06,3.0775235262326386e-06,5.324086845209966e-06,1.4855934160360472e-06,1.148037280255508e-06,1.3899516084026788e-05,6.768899174157538e-07,8.837712038743926e-07,1.0311266164269492e-06,1.487965061274148e-06
129,1.0643461633515093e-06,1.7440250777119752e-06,4.800485588242701e-06,9.043149699025655e-06,9.056718312245094e-07,9.76672197018777e-07,9.883180385486465e-07,3.132168514656908e-06,5.0240932115018636e-06,1.4912182573448035e-06,1.148772311712824e-06,1.6085749576039164e-05,6.970908724279024e-07,8.804472729427286e-07,1.0485298079923442e-06,1.4532954944918588e-06
130,1.092200001064622e-06,1.7476226580190782e-06,4.712303404136638e-06,9.054012665886491e-06,9.069669942353699e-07,9.551007392879544e-07,9.67879681888645e-07,3.1799883705961566e-06,4.763086652279406e-06,1.4931305808777145e-06,1.1469071279872267e-06,1.8542264133718186e-05,7.177083636289552e-07,8.782035205984309e-07,1.066010583770433e-06,1.4213083861862056e-06
131,1.116289931228626e-06,1.7437254088245925e-06,4.618651549274703e-06,9.056383221864031e-06,9.073382174227952e-07,9.361579538153214e-07,9.485228753282953e-07,3.220254585264536e-06,4.5426454149016565e-06,1.490846446049623e-06,1.1429817660693267e-06,2.128244221119675e-05,7.387106506569652e-07,8.772038572900811e-07,1.0835164816530737e-06,1.3920633539849087e-06
132,1.1358610263626858e-06,1.7326425131512937e-06,4.520095996220595e-06,9.051001442937048e-06,9.0743554892883e-07,9.195367058375149e-07,9.30465448719113e-07,3.252185806552526e-06,4.363590101493185e-06,1.484120902930908e-06,1.1374120022888404e-06,2.431864909208307e-05,7.600065524526439e-07,8.775887062089747e-07,1.1012287484296622e-06,1.3654100324105408e-06
133,1.150488182472282e-06,1.7147423820383984e-06,4.417472343352466e-06,9.03852296973305e-06,9.077823670483989e-07,9.048740535517538e-07,9.139475946232255e-07,3.27516287961538e-06,4.22613280670849e-06,1.4729924500116408e-06,1.1304722384548693e-06,2.7661436365312728e-05,7.815247339595884e-07,8.794801525168762e-07,1.1194392129251958e-06,1.3409649039488753e-06
134,1.1600730736408213e-06,1.690640842539777e-06,4.311770565364954e-06,9.019781193602539e-06,9.087297141001611e-07,8.918246141869204e-07,8.992544251496047e-07,3.2889405078223263e-06,4.130010977503356e-06,1.4577936996137113e-06,1.1222641314222388e-06,3.1318925019674527e-05,8.032797243058173e-07,8.829346229684132e-07,1.1383721810087475e-06,1.3181356450720985e-06
135,1.1647536557374995e-06,1.6612244416104458e-06,4.204106711829682e-06,8.995413499710058e-06,9.104507596587258e-07,8.802117766868608e-07,8.86649702893881e-07,3.293774586832131e-06,4.074568722969148e-06,1.4390522765875395e-06,1.1126987553874337e-06,3.529634671875836e-05,8.25338126642587e-07,8.87877404981643e-07,1.1580668348636498e-06,1.2961925709010134e-06
136,1.1647532066090397e-06,1.6275163781568893e-06,4.095847680627952e-06,8.965197104964996e-06,9.129654943097608e-07,8.701139719573957e-07,8.762946120203158e-07,3.2903938723411235e-06,4.058876523084005e-06,1.4173139206752922e-06,1.1015094767483068e-06,3.95955680904724e-05,8.477258989937608e-07,8.940717175584726e-07,1.1783607701117618e-06,1.2743557971954345e-06
137,1.1603124048565951e-06,1.590502214152934e-06,3.98873011448968e-06,8.927577340507625e-06,9.161618391520031e-07,8.617640140618591e-07,8.682327908626277e-07,3.2798689529979625e-06,4.081950692324849e-06,1.3930472243217262e-06,1.0882907232463866e-06,4.421447159774532e-05,8.703812058540713e-07,9.011383960424969e-07,1.1989823539343944e-06,1.251896353784513e-06
138,1.1517918129660837e-06,1.5510090866733056e-06,3.884771390466497e-06,8.879766624507015e-06,9.197956278314206e-07,8.553670086646297e-07,8.623984162624164e-07,3.26349010312214e-06,4.14300405111766e-06,1.366751664141203e-06,1.072615806723507e-06,4.9146160346998144e-05,8.931754587100599e-07,9.086387703189172e-07,1.219714286830418e-06,1.228239500889885e-06
139,1.1398032709065892e-06,1.5096853454436992e-06,3.7859562613790336e-06,8.81844584278355e-06,9.234968449782621e-07,8.50992549940904e-07,8.5860929898839e-07,3.2426848259275987e-06,4.241535765000262e-06,1.339181091396162e-06,1.0542307435116183e-06,5.43780827989101e-05,9.160001675295292e-07,9.161963960327813e-07,1.240475190692343e-06,1.2030025539005805e-06
140,1.1251936530746941e-06,1.4670704347283325e-06,3.693878373218517e-06,8.740619591608396e-06,9.268251112853548e-07,8.485517367269536e-07,8.565781828561505e-07,3.2189159012050995e-06,4.377175099777975e-06,1.3114611633456647e-06,1.0331673296660922e-06,5.989118808383329e-05,9.388792975429042e-07,9.235745375331884e-07,1.2612595598891477e-06,1.1759596197635242e-06
141,1.1088841942508106e-06,1.4236978146015399e-06,3.609581533010257e-06,8.644223241348778e-06,9.293595653127654e-07,8.478067789826305e-07,8.559439207898905e-07,3.193512226295677e-06,4.549455036447485e-06,1.2849741303536258e-06,1.0097073750653317e-06,6.565887816927202e-05,9.619868404275602e-07,9.306477230867172e-07,1.282096525194372e-06,1.1470287926447736e-06
142,1.0917014978931154e-06,1.380144651088894e-06,3.5336722479201564e-06,8.528506206170746e-06,9.307678373770357e-07,8.484242718956099e-07,8.562794705574976e-07,3.167469853891049e-06,4.757686531956598e-06,1.2611202523298686e-06,9.843113014884052e-07,7.164509711550263e-05,9.855472404640925e-07,9.373203709775858e-07,1.303099358862777e-06,1.1162973263667268e-06
143,1.0743093201071858e-06,1.3369653937353667e-06,3.466534252244537e-06,8.394339497257026e-06,9.308160085633421e-07,8.500982243353048e-07,8.570816215338493e-07,3.1412956008227706e-06,5.0008503832424996e-06,1.2411427237770065e-06,9.57547898824141e-07,7.780133175331385e-05,1.009736289360138e-06,9.435044221748031e-07,1.324464699662255e-06,1.0840290794040708e-06
144,1.0572221290747919e-06,1.2945753279968504e-06,3.4084790367212403e-06,8.244363267425099e-06,9.293143128890361e-07,8.526730810587467e-07,8.577901598055473e-07,3.1149177463081144e-06,5.2773914718492e-06,1.2260509374148825e-06,9.299794558014422e-07,8.406348904401791e-05,1.0346339384451915e-06,9.491575510759242e-07,1.346358764127267e-06,1.050685058018418e-06
145,1.04083031800826e-06,1.2532486103640093e-06,3.3597617978867154e-06,8.082726161032402e-06,9.260572147175429e-07,8.56148079790416e-07,8.578551002146239e-07,3.0876797387112964e-06,5.585085282255483e-06,1.216605151299953e-06,9.020650855563823e-07,9.034967921133186e-05,1.060193988566308e-06,9.542909975962775e-07,1.368792260677165e-06,1.016945076422439e-06
146,1.0254415147397092e-06,1.213271539113402e-06,3.320430793072568e-06,7.91435518197533e-06,9.208355208366472e-07,8.605592291804932e-07,8.568437656707522e-07,3.0584365698223854e-06,5.92118204510911e-06,1.213364920264968e-06,8.741575826130097e-07,9.655868038809747e-05,1.0862179733590009e-06,9.589204242953231e-07,1.3915706850655955e-06,9.836260741004233e-07
147,1.0113378374754213e-06,1.1750739431055822e-06,3.2901114179498817e-06,7.744005390272168e-06,9.134802221852281e-07,8.658554252282084e-07,8.545542536655723e-07,3.025728509531078e-06,6.2826867317714855e-06,1.21675986896351e-06,8.465588202609814e-07,0.0001025690423314724,1.1123314541258544e-06,9.630175067718644e-07,1.4143263289797784e-06,9.515222787369276e-07
148,9.987762434897252e-07,1.1391755760144633e-06,3.2678968977185895e-06,7.575424194665758e-06,9.038483265588851e-07,8.718400755442081e-07,8.510493316153689e-07,2.9880374237263557e-06,6.666527609403813e-06,1.2271171693130477e-06,8.195771449470356e-07,0.0001082410340408334,1.137963337054788e-06,9.665215621200032e-07,1.436582961475481e-06,9.212900148676461e-07
149,9.879386507784653e-07,1.1060229208313084e-06,3.2523327993882526e-06,7.410869180233893e-06,8.918223332177697e-07,8.781612666748084e-07,8.465536421421729e-07,2.9441544448389248e-06,7.069475865637067e-06,1.2446585350201413e-06,7.93560608647485e-07,0.00011342476255905714,1.162350354704832e-06,9.694191674573116e-07,1.4577861050492615e-06,8.934142410058984e-07
150,9.78935839960779e-07,1.0758877679757918e-06,3.241376524364377e-06,7.251048416163281e-06,8.774376030958546e-07,8.843557478208363e-07,8.412861802780525e-07,2.893558838120691e-06,7.487821810334104e-06,1.2694845049508963e-06,7.689047035720954e-07,0.00011797566472031247,1.1846203791860103e-06,9.718415243912556e-07,1.4773047967971017e-06,8.682296369433431e-07
151,9.718904838838336e-07,1.0488743432227381e-06,3.2323961208726867e-06,7.0953709204539235e-06,8.61038781720376e-07,8.899823374435969e-07,8.353429067472672e-07,2.836613350750226e-06,7.917101612316455e-06,1.3015253960232927e-06,7.460570789353629e-07,0.00012177397969762484,1.2039796740008858e-06,9.740826849562805e-07,1.4944809932628568e-06,8.459698991634052e-07
152,9.670276829463004e-07,1.0249721206646469e-06,3.2223813502298705e-06,6.94234271252646e-06,8.432833905883167e-07,8.948037781660799e-07,8.286513949594638e-07,2.7744765885484213e-06,8.35199684795596e-06,1.340492130049267e-06,7.255127837372839e-07,0.00012474021489670032,1.219890081406823e-06,9.764868019608178e-07,1.508704592279201e-06,8.268314953819656e-07
153,9.647056917612347e-07,1.0041054333479878e-06,3.2083870953002066e-06,6.7899824639909335e-06,8.24986625135395e-07,8.988844136090465e-07,8.209638371701226e-07,2.708819359356732e-06,8.786208386994396e-06,1.385865515707907e-06,7.077709205334452e-07,0.00012683769936294384,1.2321087927368794e-06,9.792956597737975e-07,1.5193854528220742e-06,8.110277578427607e-07
154,9.653600081907839e-07,9.862066531322312e-07,3.1880556203980754e-06,6.63617834502275e-06,8.069529726631228e-07,9.025160798856529e-07,8.119024466087733e-07,2.6415384245164263e-06,9.212557292421555e-06,1.4369100900464554e-06,6.932766527010912e-07,0.00012805883410464962,1.2406517047736417e-06,9.825730937796943e-07,1.5258326101779195e-06,7.98786435286e-07
155,9.693847784574239e-07,9.71312617428928e-07,3.1599998800156297e-06,6.4789622973546324e-06,7.899034273321369e-07,9.060524448171054e-07,8.011020293056915e-07,2.574572291321427e-06,9.62371801957094e-06,1.4927395439115526e-06,6.823898434163668e-07,0.00012840466703842738,1.2458005620434893e-06,9.862040118546819e-07,1.5272524840172888e-06,7.902954707971807e-07
156,9.770261112460445e-07,9.59587057446369e-07,3.123883887736951e-06,6.3166995335832295e-06,7.744810334683824e-07,9.097977786059876e-07,7.884050680837223e-07,2.5097499725301887e-06,1.0013240205997844e-05,1.5524435418799552e-06,6.753757426459214e-07,0.00012787739013539337,1.2481221541221155e-06,9.899143823201455e-07,1.5229898625067692e-06,7.856544218891379e-07
157,9.88357693853539e-07,9.512357721328906e-07,3.0802027497499844e-06,6.1482008723297775e-06,7.612688658787151e-07,9.13977359326978e-07,7.739470373855238e-07,2.448596563661242e-06,1.0376202841875768e-05,1.6151527519968096e-06,6.724001911240069e-07,0.00012649255318388677,1.2483898503817338e-06,9.933055475060952e-07,1.5128414549116285e-06,7.848481252710453e-07
158,1.0033391909345726e-06,9.464461467194138e-07,3.029902441073928e-06,5.9727789068284035e-06,7.50786783476482e-07,9.187453537747183e-07,7.580568651733502e-07,2.3921564762631852e-06,1.0709293600004376e-05,1.6799598823228732e-06,6.735220682926535e-07,0.00012429497017643628,1.247402482041797e-06,9.959272835407342e-07,1.497168551652235e-06,7.877416018926002e-07
159,1.0218897749500983e-06,9.454461324360322e-07,2.973993138911384e-06,5.790259970941869e-06,7.434686858064611e-07,9.242338119505834e-07,7.411074334727115e-07,2.340943649005109e-06,1.1010471013485552e-05,1.7458252373157208e-06,6.786833307739694e-07,0.00012136256454976626,1.2458093246032193e-06,9.973666939208614e-07,1.4767267969751757e-06,7.941195592578954e-07
160,1.0439128832474936e-06,9.485726990011743e-07,2.913262065505197e-06,5.6009741172312996e-06,7.396412443662229e-07,9.306312662084198e-07,7.234410897261285e-07,2.29507495317807e-06,1.1278319802663382e-05,1.8116409373317567e-06,6.877100622680353e-07,0.0001177988325567773,1.244022810335463e-06,9.972978508602092e-07,1.452375517001642e-06,8.037686984215557e-07
161,1.0692813591171892e-06,9.562243200974969e-07,2.8481069048622617e-06,5.4057590379203804e-06,7.395147845396675e-07,9.382187128831611e-07,7.053629494816935e-07,2.254561122630942e-06,1.1511153966872885e-05,1.876418630969727e-06,7.003449765348207e-07,0.00011372165726745263,1.2422162995866689e-06,9.955032637185145e-07,1.4248804644909917e-06,8.1656908661393e-07
162,1.0978486456794723e-06,9.687497505961492e-07,2.7784645673344946e-06,5.205960149671881e-06,7.431888348249975e-07,9.473277947933251e-07,6.871765010123606e-07,2.219604042173119e-06,1.1706379037577756e-05,1.9393686487946065e-06,7.163171697854954e-07,0.00010925234419954639,1.2404029913044505e-06,9.919208835700526e-07,1.3948660624701144e-06,8.325448563361138e-07
163,1.1295107060019188e-06,9.8637493598442e-07,2.7039177297141977e-06,5.003363426602979e-06,7.50669652865245e-07,9.582573836194668e-07,6.692136746143713e-07,2.1907187890371753e-06,1.186100691012904e-05,1.9997554321491824e-06,7.354085454451222e-07,0.00010450539960542226,1.238556673505464e-06,9.867183408816635e-07,1.362835206349001e-06,8.518192241864345e-07
164,1.1642530043343938e-06,1.0091809934112919e-06,2.6240578060001474e-06,4.800062649881409e-06,7.618683635490073e-07,9.71198293878163e-07,6.518078977678797e-07,2.1686545138255574e-06,1.1973412654946675e-05,2.056709676747458e-06,7.574506455097091e-07,9.9582244601581e-05,1.2366549298513713e-06,9.803203211555115e-07,1.3291809790934496e-06,8.744954942246507e-07
165,1.2021033639591303e-06,1.037128848385346e-06,2.538901455091332e-06,4.598349670384923e-06,7.765740749791781e-07,9.8621729992782e-07,6.352533992877646e-07,2.154234555016432e-06,1.2045124715663382e-05,2.1091783266467135e-06,7.822523918227217e-07,9.457182279695469e-05,1.2346397584836e-06,9.73314792636387e-07,1.294158802849746e-06,9.005698261415286e-07
166,1.2430069497781915e-06,1.0701349278013568e-06,2.449048721139317e-06,4.40068463844307e-06,7.944547228814782e-07,1.0033086937037263e-06,6.198041616139527e-07,2.1482583667093577e-06,1.2081334366087203e-05,2.1559680606397402e-06,8.095519715844427e-07,8.955371642383129e-05,1.2323972055386204e-06,9.66278902972122e-07,1.2578359560350717e-06,9.299183599388938e-07
167,1.2867301719051417e-06,1.1081339719504308e-06,2.355528911986252e-06,4.20968985204816e-06,8.151013488590131e-07,1.0224257291674118e-06,6.056959153883964e-07,2.151552827563976e-06,1.2089954244911327e-05,2.1958342094856494e-06,8.390464873861902e-07,8.459775812085378e-05,1.2297662197257349e-06,9.596412705286386e-07,1.2200961876063325e-06,9.6230522036426e-07
168,1.332855159265205e-06,1.151060302163573e-06,2.2595289914320075e-06,4.028071092898366e-06,8.380582415468376e-07,1.0434246244460943e-06,5.931818696975599e-07,2.165131836969205e-06,1.2080170829608749e-05,2.2276793320928673e-06,8.704211795270849e-07,7.976051272672533e-05,1.2265863062354158e-06,9.536351982442796e-07,1.180743635258462e-06,9.973879613491495e-07
169,1.3808256667159626e-06,1.1987796652395764e-06,2.1621938318984372e-06,3.858440140241609e-06,8.628109272503663e-07,1.0659837795958595e-06,5.825683693220326e-07,2.1903285830123807e-06,1.2061544388359331e-05,2.2508658512008305e-06,9.033171870437194e-07,7.508278357861571e-05,1.2227827106737668e-06,9.483387279161989e-07,1.139653832125923e-06,1.0347282670111594e-06
170,1.4300227554684816e-06,1.2510441945272384e-06,2.0645293268799437e-06,3.7030745698535565e-06,8.887582325123588e-07,1.0895999545536173e-06,5.741969133420082e-07,2.228834235797838e-06,1.2043816223710573e-05,2.2654792321957546e-06,9.372865875677793e-07,7.059091879687589e-05,1.2183609988281003e-06,9.43770883968064e-07,1.096903217524996e-06,1.0737967329496501e-06
171,1.4799061808702234e-06,1.3074997401152413e-06,1.9673466868071647e-06,3.5636688452676093e-06,9.151798467102774e-07,1.1136759094533079e-06,5.68378891820172e-07,2.2826618852353336e-06,1.2036714770661498e-05,2.2723452741308187e-06,9.71769887333067e-07,6.630138116989529e-05,1.2132747575666268e-06,9.399486699920341e-07,1.0528369705620434e-06,1.1140043573802497e-06
172,1.5301935033967759e-06,1.3677315385971192e-06,1.8712435251468512e-06,3.4411521743790444e-06,9.412288905452579e-07,1.1376121651587864e-06,5.653457423946089e-07,2.3540100510708598e-06,1.2049215031933389e-05,2.2728208767893695e-06,1.0061079286018639e-06,6.222537840084368e-05,1.2073314523083429e-06,9.36835661095692e-07,1.0080462743719168e-06,1.1547658625851882e-06
173,1.5809386078952998e-06,1.4313017578698896e-06,1.7766847720923216e-06,3.3356225581144187e-06,9.660086951721747e-07,1.1608143012626917e-06,5.652263097369022e-07,2.445014799705906e-06,1.2088543584593669e-05,2.268575173274909e-06,1.0395923942265065e-06,5.8370222790585024e-05,1.2002702470190887e-06,9.342542833368998e-07,9.632609461652603e-07,1.1955218198475535e-06
174,1.6324039354517318e-06,1.497745701769974e-06,1.6841715343291311e-06,3.2463767160660023e-06,9.887269317669313e-07,1.1826525642221359e-06,5.680336241336139e-07,2.557537364029487e-06,1.2159564448547198e-05,2.261473568937002e-06,1.0714952302044251e-06,5.473779774173921e-05,1.1919240827584956e-06,9.31875254891592e-07,9.192200031894898e-07,1.235766400225367e-06
175,1.684800875921428e-06,1.566567672961029e-06,1.5943604815326514e-06,3.1719918867755504e-06,1.008842335414934e-06,1.202491215833099e-06,5.736658538123007e-07,2.693109702469796e-06,1.2264688451273486e-05,2.2534560407695314e-06,1.101056119403807e-06,5.13251177571692e-05,1.1822579827197795e-06,9.293000004727387e-07,8.765889976677419e-07,1.27514127041513e-06
176,1.7380878567676907e-06,1.6372966658853634e-06,1.5080217135762608e-06,3.110421652059854e-06,1.0261075694742222e-06,1.2198035622788413e-06,5.819171426131934e-07,2.8529224828798934e-06,1.2403974085409687e-05,2.2463373851475607e-06,1.1275206573613289e-06,4.812956758689576e-05,1.1712731608210724e-06,9.261543247403761e-07,8.35934777616306e-07,1.313442847582701e-06
177,1.7919417688769794e-06,1.7095741397470638e-06,1.425881811983224e-06,3.0591090643539623e-06,1.0404719543160898e-06,1.2342633844173915e-06,5.924764261969101e-07,3.0377274042482387e-06,1.2575252933382542e-05,2.241634609422741e-06,1.150295549759961e-06,4.515419605898185e-05,1.158969197702279e-06,9.221204581526984e-07,7.977372488418836e-07,1.3504583518816828e-06
178,1.845851527537109e-06,1.7831826851139445e-06,1.3484985159560904e-06,3.0151948216169298e-06,1.051944876348759e-06,1.2457195320312982e-06,6.049267300584382e-07,3.2477302515552796e-06,1.2774369556334978e-05,2.2404998285115437e-06,1.1691177599657178e-06,4.240755589531203e-05,1.1454135075811496e-06,9.169446665904886e-07,7.624124857720838e-07,1.385788319988066e-06
179,1.8991978606911546e-06,1.8579741423341236e-06,1.2762364747485e-06,2.9758665001528757e-06,1.0605746229590487e-06,1.2540659202182338e-06,6.187974491374318e-07,3.4825492827075884e-06,1.29955440366388e-05,2.243709328554166e-06,1.1840551918500956e-06,3.9899008489003715e-05,1.130794894791922e-06,9.104966990120048e-07,7.303049977512679e-07,1.4188129764948656e-06
180,1.951264651018816e-06,1.933729521259436e-06,1.209276873186866e-06,2.938733822054519e-06,1.0665424554912575e-06,1.259111833605905e-06,6.336803858134544e-07,3.7411586138139575e-06,1.3231810023126595e-05,2.2516622086710624e-06,1.195330586270986e-06,3.763613446822628e-05,1.1154063361634018e-06,9.028640415130427e-07,7.01650080112264e-07,1.4488450578334337e-06
181,2.001242569180927e-06,2.0100055083314612e-06,1.1476151845178226e-06,2.9020206608301477e-06,1.07022550405016e-06,1.2605238783649857e-06,6.493226867958171e-07,4.021767689315283e-06,1.3475579626946687e-05,2.2644397028057923e-06,1.2031822877262058e-06,3.562780853552763e-05,1.0995980314713245e-06,8.943978815545572e-07,6.765556227912345e-07,1.4754003962067616e-06
182,2.048286750830763e-06,2.0860448221525534e-06,1.091112941140827e-06,2.8644781380190696e-06,1.0721323279743836e-06,1.2578113806567189e-06,6.656059265017405e-07,4.3217086606534615e-06,1.3719351356710377e-05,2.281936143959454e-06,1.2079261592916328e-06,3.388791258975386e-05,1.0837232685971707e-06,8.856654364257489e-07,6.550256369743222e-07,1.498386526910995e-06
183,2.091611726267944e-06,2.1608355366104235e-06,1.0396444322501777e-06,2.8251354320751992e-06,1.0727459824128314e-06,1.2503730234828454e-06,6.824471167942883e-07,4.637377586672245e-06,1.3956370048224298e-05,2.3039107139216213e-06,1.2100924994110044e-06,3.2434097871315166e-05,1.0680759781022605e-06,8.773347097613251e-07,6.369998296664914e-07,1.5180525260495365e-06
184,2.1305497389279542e-06,2.2332979108095468e-06,9.932504074201553e-07,2.783097071042149e-06,1.0723851581139052e-06,1.23768109813934e-06,6.997232337625111e-07,4.964223150629854e-06,1.4180968345249428e-05,2.329881981803689e-06,1.210404157832758e-06,3.128313627336672e-05,1.0528722963701977e-06,8.700505113256471e-07,6.223661628935793e-07,1.5348294019921766e-06
185,2.1645302425642226e-06,2.3024333816549166e-06,9.521663882885758e-07,2.7375135875806406e-06,1.071173449938806e-06,1.2195480788159573e-06,7.172605563390246e-07,5.296804593783258e-06,1.4388519156047887e-05,2.3589994404174905e-06,1.2096267503997126e-06,3.0447608039028136e-05,1.0383070840643749e-06,8.643492850146893e-07,6.109488201597584e-07,1.5492615826143595e-06
186,2.1930123364950046e-06,2.367286402118908e-06,9.167177488034156e-07,2.687706945652861e-06,1.0691094161212588e-06,1.196295819666703e-06,7.348623809978894e-07,5.628910014255077e-06,1.4575175733613644e-05,2.3900297135717003e-06,1.2084745749239118e-06,2.993548613041424e-05,1.0245860926228359e-06,8.606425054135094e-07,6.025071098870562e-07,1.5619689222317033e-06
187,2.2153859419980366e-06,2.426779556590882e-06,8.872262175282855e-07,2.6333216948130224e-06,1.0661441786207405e-06,1.1687138963522036e-06,7.523210131819794e-07,5.953687371208331e-06,1.473763999450617e-05,2.42147685004012e-06,1.2075722055155927e-06,2.9750789531845103e-05,1.011857899097857e-06,8.59265282140776e-07,5.967455964444875e-07,1.5735851071740794e-06
188,2.2308387152385565e-06,2.4796520672642506e-06,8.640042428755832e-07,2.5743709820501315e-06,1.062191221030312e-06,1.1378493703856775e-06,7.693939747866381e-07,6.26386867256452e-06,1.48730786101784e-05,2.4517670195228356e-06,1.2073959375811096e-06,2.9893794504739668e-05,1.0001217756879302e-06,8.605310797929942e-07,5.93321900627902e-07,1.5847907776949219e-06
189,2.2383094643195396e-06,2.524583378668372e-06,8.473465065395016e-07,2.5111765431981777e-06,1.057113207442051e-06,1.1047792131275882e-06,7.857659136205872e-07,6.552270362763182e-06,1.4979117447373497e-05,2.4793973074531656e-06,1.2082453289384263e-06,3.0360782390913074e-05,9.89217786954401e-07,8.647399133850224e-07,5.918598940959617e-07,1.5963916131988321e-06
190,2.23665139634396e-06,2.5603362750671666e-06,8.374695576446456e-07,2.4443212466162176e-06,1.0507701012373876e-06,1.0704944843977447e-06,8.010102416129227e-07,6.812572079060945e-06,1.5053757221906314e-05,2.503007014170555e-06,1.2103166857354801e-06,3.114352663762331e-05,9.78912065508821e-07,8.721557796478026e-07,5.919893657969799e-07,1.609281711779318e-06
191,2.22490694425348e-06,2.585836997658348e-06,8.344656732984251e-07,2.3746731455552396e-06,1.0430724912148453e-06,1.035878058609699e-06,8.145783486211565e-07,7.040075567773383e-06,1.5095008052096347e-05,2.521419621121136e-06,1.213815034803009e-06,3.222860795369048e-05,9.68996311654752e-07,8.829835912044159e-07,5.933991519913227e-07,1.6243752998010297e-06
192,2.2025309987944954e-06,2.600322877525329e-06,8.382999880048031e-07,2.303384321288419e-06,1.0339440093207352e-06,1.0016777659865941e-06,8.258530386814608e-07,7.232037467177937e-06,1.5100093586246613e-05,2.5337522418270888e-06,1.2189903811477776e-06,3.359674909831392e-05,9.59335414281733e-07,8.973449207013576e-07,5.958565814037108e-07,1.6426416810540118e-06
193,2.1695226432380144e-06,2.6036281631497606e-06,8.48815723288118e-07,2.2317590150107942e-06,1.0232849382874832e-06,9.684611827084405e-07,8.342498838712466e-07,7.387318751732979e-06,1.5064726803517152e-05,2.5396257108258487e-06,1.2261249816908014e-06,3.5222292451790164e-05,9.498778809222679e-07,9.152663854786127e-07,5.992161427301174e-07,1.6651163459134707e-06
194,2.1264763274404555e-06,2.596461144737124e-06,8.657363232133317e-07,2.161040953649676e-06,1.011063164075883e-06,9.366111908412954e-07,8.393139373917328e-07,7.5054224890195e-06,1.4983522119111731e-05,2.5393523885856367e-06,1.2355273018932444e-06,3.707269757709454e-05,9.40627492505229e-07,9.367113884438538e-07,6.03460846353867e-07,1.692778903128987e-06
195,2.074551428058331e-06,2.5804699940464177e-06,8.886789146679694e-07,2.0922505681930504e-06,9.974438854553637e-07,9.063833595377884e-07,8.407790804017942e-07,7.585432686037471e-06,1.4851694700058107e-05,2.5339142620546127e-06,1.2474721674885962e-06,3.910785156675565e-05,9.315477893933918e-07,9.61618124582856e-07,6.087101088511651e-07,1.7264315453977276e-06
196,2.0153511808624483e-06,2.558036808385295e-06,9.171637661621972e-07,2.0261138981165274e-06,9.828008250622936e-07,8.77980533844884e-07,8.385908666387874e-07,7.625584862722855e-06,1.4666924098476685e-05,2.5246735426249757e-06,1.2620866880751358e-06,4.127919807416982e-05,9.224592144590482e-07,9.898796243084526e-07,6.151427706906377e-07,1.7666906602438485e-06
197,1.9506993529418087e-06,2.5318813013331187e-06,9.505955564863005e-07,1.9630336155988863e-06,9.676025397033506e-07,8.515756783368054e-07,8.329105316264207e-07,7.623793697969106e-06,1.4430513405301388e-05,2.513006755264246e-06,1.2792938120035133e-06,4.352891500778533e-05,9.130314315670246e-07,1.0212839548980028e-06,6.229076514073695e-07,1.8141063131807861e-06
198,1.882374437934752e-06,2.5046178465276984e-06,9.882394423632529e-07,1.9030753148257937e-06,9.522932580614352e-07,8.272623781926741e-07,8.241043968007916e-07,7.578745984316412e-06,1.4147890419787435e-05,2.50013296755899e-06,1.2988612806162274e-06,4.578965021587936e-05,9.028811310740996e-07,1.0554619715728995e-06,6.320792751791646e-07,1.869396421521969e-06
199,1.8119566748987675e-06,2.4784245775368914e-06,1.0292171794277345e-06,1.8459842319771836e-06,9.372632646028892e-07,8.049973068921189e-07,8.127019808348514e-07,7.490819369765534e-06,1.3828600261862479e-05,2.48714716248584e-06,1.3205009593526244e-06,4.798632900793444e-05,8.916773288131484e-07,1.0918653355744938e-06,6.426405091735086e-07,1.9336152426175366e-06
200,1.7408526833624654e-06,2.454913617455317e-06,1.072524212280492e-06,1.7912221600873033e-06,9.228797804113891e-07,7.846124470820671e-07,7.9931344154367e-07,7.362338383784134e-06,1.3485640732250545e-05,2.4750398681388463e-06,1.343926703629357e-06,5.0042277777263444e-05,8.791754947649154e-07,1.1297943071480065e-06,6.544758524203141e-07,2.0080291963745187e-06
201,1.6703771966296722e-06,2.4351863399152467e-06,1.1171155122661676e-06,1.7380292011293297e-06,9.095016789435331e-07,7.659050945174897e-07,7.845291490885674e-07,7.197236034797834e-06,1.3134089126716429e-05,2.4645967591888725e-06,1.368827401449997e-06,5.188941945636259e-05,8.65257135497554e-07,1.168477082868717e-06,6.673714016311756e-07,2.0937936369879453e-06
202,1.6017722144307292e-06,2.419994265351142e-06,1.1620917934501735e-06,1.6855799961608936e-06,8.974673343256607e-07,7.487407974878775e-07,7.688493245242098e-07,7.000484677418265e-06,1.2789324147963929e-05,2.456283172584315e-06,1.3948441459450253e-06,5.347758007260757e-05,8.500310500719737e-07,1.2071661667056927e-06,6.810093754615577e-07,2.191719995401778e-06
203,1.5361654298760638e-06,2.409874713125485e-06,1.2068629314877147e-06,1.633217961949142e-06,8.87090552867589e-07,7.330842089430898e-07,7.526619245049909e-07,6.77754474798407e-06,1.2465372284701503e-05,2.450201483437217e-06,1.4216188913490357e-06,5.477685655756574e-05,8.338543384918457e-07,1.2451967890106991e-06,6.949590319608304e-07,2.3022204155193873e-06
204,1.4745150886361672e-06,2.4051493723976244e-06,1.2511302817056594e-06,1.5806116909491748e-06,8.78676237799002e-07,7.189474126248808e-07,7.362307347004606e-07,6.533919006872097e-06,1.2173850663332948e-05,2.4460867007375385e-06,1.4488144047377587e-06,5.577127088385348e-05,8.172121210041429e-07,1.2819792581091016e-06,7.087069622436773e-07,2.4253662035776773e-06
205,1.417560537386567e-06,2.40581843476514e-06,1.2947590338912557e-06,1.527753649504887e-06,8.725200269595137e-07,7.063533232720383e-07,7.196824077240741e-07,6.274811172581674e-06,1.1923585643947236e-05,2.4433275196213948e-06,1.4760366881710018e-06,5.6448116353557864e-05,8.006013680212436e-07,1.316949579958546e-06,7.217706656043247e-07,2.5610445323292492e-06
206,1.365790412446317e-06,2.4115164306928977e-06,1.3377451271223753e-06,1.4748770188615483e-06,8.688646496549179e-07,6.953934790424979e-07,7.03047306746496e-07,6.004814711653888e-06,1.1720612905677443e-05,2.4410335921541688e-06,1.5027360644114803e-06,5.679145998961225e-05,7.844925991678748e-07,1.3495349476374768e-06,7.338470413995969e-07,2.7091877852237746e-06
207,1.3194590266123812e-06,2.42162942643961e-06,1.3802456309997808e-06,1.4223874371103972e-06,8.678489238476154e-07,6.8632217338381e-07,6.863640636936717e-07,5.727608654608999e-06,1.1568270404681326e-05,2.43813563150733e-06,1.5281913637049063e-06,5.6784793511205864e-05,7.693219714797693e-07,1.3791874260637187e-06,7.448734629538561e-07,2.87002007443269e-06
208,1.2786632345299989e-06,2.435440746664234e-06,1.4225037863416163e-06,1.3708559552567497e-06,8.694870691791318e-07,6.795634147231719e-07,6.697571962711209e-07,5.445803974554339e-06,1.1467240005201899e-05,2.4335153085019836e-06,1.5516242030417493e-06,5.641928674391103e-05,7.555087523912175e-07,1.4054880688465828e-06,7.549557284044308e-07,3.044304895894554e-06
209,1.243456848500033e-06,2.4521147266232333e-06,1.4647307817548403e-06,1.3210668053644983e-06,8.736780424616895e-07,6.756053644004231e-07,6.534231772344029e-07,5.161113937755885e-06,1.141552638866044e-05,2.4261490130105885e-06,1.5723863247626171e-06,5.57011340319331e-05,7.435008982746243e-07,1.4282360036134126e-06,7.642592430469602e-07,3.2335564351166444e-06
210,1.2139457535658413e-06,2.470577080631145e-06,1.5070661598500152e-06,1.274055406311084e-06,8.802288013178667e-07,6.748812363203942e-07,6.375773824022599e-07,4.874812697743257e-06,1.1408488567748613e-05,2.4151949781806687e-06,1.5900755211500824e-06,5.465438452930782e-05,7.337794565056014e-07,1.4474065308018171e-06,7.729583542795761e-07,3.440124987819128e-06
211,1.1902903182913947e-06,2.4895174080995904e-06,1.5495496517940165e-06,1.2310574724354313e-06,8.888638510995087e-07,6.777141739375631e-07,6.224222553855496e-07,4.588258395562148e-06,1.143903038276564e-05,2.399991306864586e-06,1.604470395170524e-06,5.331824070223546e-05,7.267878702637111e-07,1.4629936726176765e-06,7.812126170630948e-07,3.6671176191613984e-06
212,1.172631524131334e-06,2.507582429995721e-06,1.5920540260932978e-06,1.1933579388386077e-06,8.992174944356297e-07,6.84310204253282e-07,6.08124636874009e-07,4.3032677413174185e-06,1.1498019152964028e-05,2.3800467316342433e-06,1.6153723405138016e-06,5.1739743662080484e-05,7.228526642756626e-07,1.474908061747454e-06,7.89135151730056e-07,3.918182470658361e-06
213,1.1610393380462179e-06,2.5236274878230985e-06,1.6342228685810001e-06,1.162123010243798e-06,9.10817568130508e-07,6.947726680090254e-07,5.947973938728345e-07,4.0222270912782905e-06,1.1574963799205548e-05,2.355087744125996e-06,1.6225715341374061e-06,4.996512908204178e-05,7.221506799868226e-07,1.4830211232065048e-06,7.968133860077159e-07,4.197192415055239e-06
214,1.1554926416891687e-06,2.536863745241787e-06,1.6754355233808907e-06,1.1383272753844273e-06,9.230594000483407e-07,7.091243017928889e-07,5.824972750758428e-07,3.747935785226988e-06,1.1658810099063036e-05,2.325058400706619e-06,1.6259731973213612e-06,4.803458753521856e-05,7.247089972664564e-07,1.4872721929148376e-06,8.043812175794769e-07,4.5078874321612884e-06
215,1.155832449272731e-06,2.5468235325276695e-06,1.7148509019231858e-06,1.1228219314552596e-06,9.352089875834124e-07,7.273215101719994e-07,5.712247412444463e-07,3.48329602773501e-06,1.1738616754176774e-05,2.2899472187740207e-06,1.6256890243768536e-06,4.5982593290389786e-05,7.304133904292836e-07,1.4877546637704886e-06,8.120271818927161e-07,4.853565344461183e-06
216,1.1617135575993431e-06,2.553209924204431e-06,1.7515848453268733e-06,1.1164773496251672e-06,9.464900835267147e-07,7.492778091315975e-07,5.609341719642583e-07,3.2310184815260342e-06,1.1804075879808915e-05,2.2495366085279485e-06,1.6219388049798376e-06,4.38409409267801e-05,7.390203761218374e-07,1.4847342936963173e-06,8.199194415794564e-07,5.236859519514299e-06
217,1.172613704454855e-06,2.555775471796332e-06,1.7849425636530785e-06,1.1202637722787312e-06,9.562180783014916e-07,7.748939944477653e-07,5.51582897801571e-07,2.993452648259923e-06,1.1846023206187246e-05,2.203337735405231e-06,1.6148372897033457e-06,4.1640343474359693e-05,7.501835072320407e-07,1.478551859693113e-06,8.281592951783513e-07,5.659561533631579e-06
218,1.1878696557179377e-06,2.554289651606624e-06,1.8145585640235026e-06,1.1351995944307338e-06,9.63856679762256e-07,8.040525332112397e-07,5.431820137630538e-07,2.7725291855399543e-06,1.1856937833686631e-05,2.150828877892964e-06,1.6042738303076502e-06,3.940939714322273e-05,7.635119230567158e-07,1.469452960045264e-06,8.368090427735097e-07,6.122479223131738e-06
219,1.2066800054698092e-06,2.548545691164155e-06,1.8403999313959121e-06,1.1622499560817683e-06,9.689821864821863e-07,8.365870272285813e-07,5.357823783833105e-07,2.5697271443434536e-06,1.1831246875379534e-05,2.091837266651746e-06,1.589979338043256e-06,3.717330415187034e-05,7.786418809171548e-07,1.457486159217957e-06,8.459299140123258e-07,6.625385492198137e-06
220,1.228120131220442e-06,2.5383660784432423e-06,1.862714930042851e-06,1.202283971948694e-06,9.712936915175886e-07,8.722551151084851e-07,5.294347248054265e-07,2.386018746371626e-06,1.1765365362650787e-05,2.026812697368342e-06,1.5716776984937447e-06,3.4955373965996204e-05,7.952588208937473e-07,1.4425882204623932e-06,8.55570602820772e-07,7.166989010006994e-06
221,1.2512332463199003e-06,2.523625748115198e-06,1.8820138097725992e-06,1.256065642874156e-06,9.706966769296611e-07,9.107005057906521e-07,5.242052175989343e-07,2.2218361162176305e-06,1.1657577960237419e-05,1.956811027530766e-06,1.5491563300131139e-06,3.278008748082364e-05,8.130551468293904e-07,1.4248095971459966e-06,8.657226212517827e-07,7.744772032912344e-06
222,1.275124051654113e-06,2.5043194418388544e-06,1.8990738002150028e-06,1.324222707646419e-06,9.673290976073174e-07,9.514269029190892e-07,5.202101132468222e-07,2.0771256936545315e-06,1.1507656310998399e-05,1.8831948771649884e-06,1.5222531396932052e-06,3.067349764441583e-05,8.316966491172497e-07,1.404447591720236e-06,8.762966611757389e-07,8.354744293181746e-06
223,1.2989522567456613e-06,2.4806484409188092e-06,1.914886439607579e-06,1.4072411824923548e-06,9.61493982865126e-07,9.93848951768087e-07,5.17593518969338e-07,1.951493775999606e-06,1.1316108611838681e-05,1.8073286176222272e-06,1.4909513491602055e-06,2.8660429593631478e-05,8.508433034080465e-07,1.3819314807547929e-06,8.87163821357434e-07,8.99125361394382e-06
224,1.3218702014809853e-06,2.4530312093473e-06,1.930497283285491e-06,1.5055183276780688e-06,9.535815374587758e-07,1.037409728296747e-06,5.164659848883591e-07,1.84436146862472e-06,1.108399793707151e-05,1.7305178027840092e-06,1.4555940912144742e-06,2.676195468536679e-05,8.701682104366237e-07,1.3575840561460201e-06,8.982337226633222e-07,9.64685031777337e-06
225,1.34304348575638e-06,2.4219597663619624e-06,1.946810002288919e-06,1.619392682528924e-06,9.440122585384033e-07,1.0816483110240032e-06,5.168627276561981e-07,1.7550204831321022e-06,1.0814303060484557e-05,1.6541157975549167e-06,1.416956418593685e-06,2.4994801674232967e-05,8.893307752319331e-07,1.331469610577215e-06,9.094528240733838e-07,1.0312132640967144e-05
226,1.3617807943311078e-06,2.3878049507283558e-06,1.9644916880604137e-06,1.7490918140742853e-06,9.331768294037339e-07,1.126160559506053e-06,5.187450936081068e-07,1.6825750705157317e-06,1.0513581647787864e-05,1.5795850597279873e-06,1.3760997489305904e-06,2.3371448701768568e-05,9.079274412240116e-07,1.303386098004723e-06,9.207226887021585e-07,1.0975539668303392e-05
227,1.3776626278954345e-06,2.350768426152093e-06,1.984020790673961e-06,1.8946870791451633e-06,9.21383346277536e-07,1.1705406114335355e-06,5.220503623592395e-07,1.6258698028255394e-06,1.0191883760804044e-05,1.5084275310259955e-06,1.334186542031681e-06,2.1900120052275972e-05,9.254364703893225e-07,1.2729679868785649e-06,9.318944753127706e-07,1.1623186499162566e-05
228,1.3906004188112931e-06,2.310998003149816e-06,2.005811661299253e-06,2.0561836946799754e-06,9.088380286863187e-07,1.2143448394623357e-06,5.267739980241226e-07,1.5835137408703147e-06,9.860967993976759e-06,1.4420433721600017e-06,1.2923483499233788e-06,2.0585002659467915e-05,9.411989486724246e-07,1.2399020325697459e-06,9.428797561506346e-07,1.2238847117434476e-05
229,1.4008131462595953e-06,2.268731915761571e-06,2.03034996167603e-06,2.2337112099190504e-06,8.956458442063652e-07,1.2570362458664864e-06,5.330221526100519e-07,1.554019767075095e-06,9.532429326341565e-06,1.3816150414062174e-06,1.2516014799404187e-06,1.9426684546904892e-05,9.545183282205772e-07,1.204204526876101e-06,9.53731133928988e-07,1.2804211489830505e-05
230,1.4086997510178843e-06,2.224374555858827e-06,2.058308809690843e-06,2.4276372103746875e-06,8.818332111918711e-07,1.297968877821113e-06,5.409831336684489e-07,1.5359780750271175e-06,9.216723456751255e-06,1.3280458391089572e-06,1.2128187247675345e-06,1.842245940607264e-05,9.64877372292099e-07,1.1663616123809374e-06,9.645815035771246e-07,1.3300075304955012e-05
231,1.4146539639804006e-06,2.178452197196844e-06,2.090653167190701e-06,2.6385113008992052e-06,8.674363608476577e-07,1.3364929576834321e-06,5.508522311277414e-07,1.52818651556791e-06,8.922907916140236e-06,1.281940583330927e-06,1.176731384588933e-06,1.7566311258873525e-05,9.72131327838225e-07,1.1271976784152086e-06,9.75517812937058e-07,1.370902204066246e-05
232,1.418959090296711e-06,2.1314590350878987e-06,2.128749237309314e-06,2.866908926502486e-06,8.526207138005816e-07,1.372102233229931e-06,5.627951085664848e-07,1.5297252225394081e-06,8.658558896220161e-06,1.24363403267112e-06,1.1439092223344734e-06,1.684874236250066e-05,9.765176671893232e-07,1.0876077543430974e-06,9.86526200155837e-07,1.4018529008652486e-05
233,1.421835153059602e-06,2.0837031113764693e-06,2.174429535753351e-06,3.113246292307961e-06,8.377033111771437e-07,1.404496058442853e-06,5.769633531560536e-07,1.5399883441714578e-06,8.429608657528712e-06,1.2132584981313815e-06,1.1147238649947852e-06,1.6256912600131086e-05,9.784912476345333e-07,1.048375049695805e-06,9.97547082512742e-07,1.422245944949933e-05
234,1.4235256321037914e-06,2.035264667231328e-06,2.2299261208156575e-06,3.3775755913548167e-06,8.230378295261155e-07,1.4335359206087109e-06,5.934928057060935e-07,1.5586860139952324e-06,8.240155279861781e-06,1.1907983078699096e-06,1.0893410509542224e-06,1.577553656102419e-05,9.785570028822171e-07,1.010134351508745e-06,1.0085726163222676e-06,1.43200298813324e-05
235,1.4242782160022629e-06,1.9860725108096326e-06,2.297670200327789e-06,3.65943724333272e-06,8.088794108968413e-07,1.45915751226786e-06,6.124705209549011e-07,1.5858239337007768e-06,8.092363975308497e-06,1.1761004917729407e-06,1.0677711341310469e-06,1.5388422134028846e-05,9.771999385411616e-07,9.73402822708308e-07,1.0196707565586182e-06,1.431309524370703e-05
236,1.4242645466036486e-06,1.936010770377658e-06,2.3800532369083108e-06,3.957854117632136e-06,7.953523864814655e-07,1.481302625096923e-06,6.339117738969474e-07,1.6216325992770582e-06,7.98651210682593e-06,1.1688817856350319e-06,1.0499463140640577e-06,1.5079774205753806e-05,9.748489178283799e-07,9.385942017325652e-07,1.030899674120584e-06,1.4203702437566097e-05
237,1.4235808132881043e-06,1.8849833112521872e-06,2.4792219294110606e-06,4.271381614491572e-06,7.825291916152185e-07,1.4998929273526157e-06,6.577438938240394e-07,1.6664077972683249e-06,7.921235175390896e-06,1.168747979871631e-06,1.0357361886021374e-06,1.4834278002460823e-05,9.718284026570348e-07,9.06024669452047e-07,1.0421921603707458e-06,1.3993696170401208e-05
238,1.4223174742399816e-06,1.8329507823482617e-06,2.5969249750091947e-06,4.598085003325384e-06,7.70522648697568e-07,1.5148053398348125e-06,6.837961952866498e-07,1.720307109122812e-06,7.894012912904786e-06,1.175177913626667e-06,1.0248922647325975e-06,1.4635956258073976e-05,9.683298774850178e-07,8.759449886727165e-07,1.0532988227342354e-06,1.3686341572835179e-05
239,1.4205800508702097e-06,1.779978586579729e-06,2.734450668900541e-06,4.935474815080408e-06,7.594944786892488e-07,1.525834389497978e-06,7.118252369299437e-07,1.7832027933932967e-06,7.901694523477291e-06,1.18749170668426e-06,1.017010623629985e-06,1.4466933050821166e-05,9.644112157031817e-07,8.485595525001608e-07,1.0638436591795244e-06,1.3288124946771464e-05
240,1.4184601096272913e-06,1.7262773009489235e-06,2.892657341164059e-06,5.280519696219859e-06,7.496320283473571e-07,1.5327506606395924e-06,7.415536388890143e-07,1.8546117281289186e-06,7.940665602275863e-06,1.2048993090078624e-06,1.0115360512466308e-06,1.4307074143963788e-05,9.600184611427207e-07,8.240156170822561e-07,1.0734899272493722e-06,1.2809128544332848e-05
241,1.4160457579849635e-06,1.6722115239000503e-06,3.0719766026694974e-06,5.6297817200048175e-06,7.411813104092417e-07,1.5354926123518565e-06,7.726732148732931e-07,1.933656969707761e-06,8.0066456664458e-06,1.2266356572284976e-06,1.00777416929916e-06,1.4134904034771372e-05,9.550251584697098e-07,8.024029533302347e-07,1.082123970007671e-06,1.2261916497374014e-05
242,1.4134700725419401e-06,1.618285387584373e-06,3.2723133081817923e-06,5.9796116847571694e-06,7.344638872773097e-07,1.5342699952781565e-06,8.048340480051659e-07,2.0190408002338127e-06,8.094804875449937e-06,1.2520638456763406e-06,1.004960938184508e-06,1.3930430317257136e-05,9.49267664048081e-07,7.837567720748648e-07,1.0899425570530813e-06,1.1659955009829259e-05
243,1.4109026151410314e-06,1.5650748921782922e-06,3.4929611516070537e-06,6.3263282398357915e-06,7.298028778860854e-07,1.5294233053104872e-06,8.376531519535616e-07,2.109041321548022e-06,8.200670965966438e-06,1.2806642650397334e-06,1.0024407885566293e-06,1.3678992642463884e-05,9.425967779321753e-07,7.680476673094664e-07,1.097392960419996e-06,1.1016543638387371e-05
244,1.40844426840264e-06,1.5130857175612817e-06,3.732684996204053e-06,6.666373944707417e-06,7.274269207486859e-07,1.5212367093861981e-06,8.707148509438967e-07,2.2015991131999225e-06,8.321295962648451e-06,1.3119851625626574e-06,9.998451480903708e-07,1.3372882551801481e-05,9.349957635152864e-07,7.551799784417059e-07,1.1050001775884314e-06,1.034438370607002e-05
245,1.406005870845147e-06,1.4626446738866338e-06,3.989939242433605e-06,6.996493000137859e-06,7.274246621395651e-07,1.5098830786509166e-06,9.035698450651509e-07,2.294583581087742e-06,8.455887394088815e-06,1.3456511692622248e-06,9.971020314303664e-07,1.3010083652262418e-05,9.267203042064668e-07,7.449945269811946e-07,1.113199680591638e-06,9.655275188140426e-06
246,1.4032728684976223e-06,1.413930192287228e-06,4.26304765604869e-06,7.313956519494099e-06,7.297404112910807e-07,1.4954053363541523e-06,9.357482776647245e-07,2.38620106598961e-06,8.605573033612965e-06,1.3813655590514654e-06,9.942905181912804e-07,1.259329291957244e-05,9.183154614165708e-07,7.372631234987045e-07,1.1222609178900775e-06,8.959678764589072e-06
247,1.3997669112549445e-06,1.3670867598698966e-06,4.550209514187037e-06,7.616790808039616e-06,7.3418947542434e-07,1.4777194848873191e-06,9.667401186900115e-07,2.475350267356905e-06,8.772375519021611e-06,1.4188228609077292e-06,9.915258329568616e-07,1.2129774431678332e-05,9.104613445264891e-07,7.316990499945562e-07,1.1322660217315119e-06,8.266430319182226e-06
248,1.394948763092736e-06,1.3223210165011846e-06,4.849334366612962e-06,7.903905021521773e-06,7.405019283421247e-07,1.4567474679191693e-06,9.95979164013907e-07,2.5617295358621055e-06,8.95792449654765e-06,1.457611572351923e-06,9.88944366747896e-07,1.1629666295690456e-05,9.037872157547875e-07,7.280255664531202e-07,1.1431396898192492e-06,7.582819221300918e-06
249,1.3883275777279688e-06,1.2799180999172326e-06,5.157818089474944e-06,8.175035841171633e-06,7.48398921155137e-07,1.432590326963858e-06,1.0229089613397146e-06,2.6456477776826714e-06,9.16260209189746e-06,1.4972044185767769e-06,9.866991428459221e-07,1.1103080060281454e-05,8.98782620662038e-07,7.26082922630265e-07,1.1547874903788142e-06,6.914866014414562e-06
250,1.3795661931740197e-06,1.2401495996453589e-06,5.4723951192847455e-06,8.430504593105178e-06,7.576766688672417e-07,1.4055716114470098e-06,1.0470570811596633e-06,2.7276589067028565e-06,9.385265321723196e-06,1.5370188159729628e-06,9.84931233907192e-07,1.0558251662926951e-05,8.957929478292792e-07,7.258636918299785e-07,1.1672398791976066e-06,6.267638588647208e-06
251,1.368551208999369e-06,1.2031350073493378e-06,5.7891562315630284e-06,8.670793777431788e-06,7.68247748461312e-07,1.3761577353221912e-06,1.0680557921614226e-06,2.808194728543971e-06,9.623237327563808e-06,1.5765040589627308e-06,9.837254113166416e-07,1.0001224116566505e-05,8.950448318374311e-07,7.274446369208978e-07,1.180619624652424e-06,5.645498925940326e-06
252,1.3553884489082107e-06,1.168783193783456e-06,6.103774362046047e-06,8.895924772359539e-06,7.800973032092544e-07,1.344882901503707e-06,1.085710965805805e-06,2.887325197912945e-06,9.87232809368647e-06,1.615228654014649e-06,9.830546053528503e-07,9.436420631287367e-06,8.966732775839633e-07,7.309090128494001e-07,1.195008283597206e-06,5.0521662838925435e-06
253,1.340325822795529e-06,1.1368656294482204e-06,6.4119157602975084e-06,9.104805582393366e-06,7.931814385413712e-07,1.3123510872974056e-06,1.1001008024199162e-06,2.964730618245657e-06,1.012675547985777e-05,1.6529300831762138e-06,9.827806756256912e-07,8.867853238877476e-06,9.007325194298723e-07,7.362993108055421e-07,1.2104374579764728e-06,4.49063171148827e-06
254,1.3236404781098837e-06,1.1071500527576198e-06,6.709669562372777e-06,9.294961928384038e-06,8.073394543017823e-07,1.2792424986322637e-06,1.1115194544823358e-06,3.039872025175651e-06,1.0379009186229368e-05,1.689480717117309e-06,9.827271425365214e-07,8.30062929685445e-06,9.071899181000121e-07,7.435908038514379e-07,1.227009155806225e-06,3.9630462996236775e-06
255,1.305529399141302e-06,1.079490596825516e-06,6.993674912514653e-06,9.462809382766438e-06,8.222542727256586e-07,1.246226002774401e-06,1.120307628986371e-06,3.1122137667257766e-06,1.0619927738208076e-05,1.7247685218374444e-06,9.827180744261673e-07,7.741880695693643e-06,9.15924494115255e-07,7.527113900794138e-07,1.2449497934387343e-06,3.470681257350554e-06
256,1.286064992020736e-06,1.0538259863611156e-06,7.260752240682416e-06,9.604135384563477e-06,8.374634241630156e-07,1.2138272350370104e-06,1.1267777476979708e-06,3.1813596122942903e-06,1.083947872572648e-05,1.7586040665396147e-06,9.82548821563904e-07,7.200472738272976e-06,9.267226259463542e-07,7.635787724191296e-07,1.2644919113282972e-06,3.013999967531705e-06
257,1.2652628994832683e-06,1.0301027654954572e-06,7.507431107147184e-06,9.714504107969092e-06,8.524191619152008e-07,1.1823561665252777e-06,1.1312345773540069e-06,3.2470298760962627e-06,1.1028457188447245e-05,1.790761742486961e-06,9.82000373953112e-07,6.685847332064257e-06,9.392507503830789e-07,7.760795520951413e-07,1.2856920861373154e-06,2.592791694686888e-06
258,1.2431840517455962e-06,1.0081915300477709e-06,7.73010840525165e-06,9.789683683635598e-06,8.665887374077551e-07,1.151898125820549e-06,1.133979100684397e-06,3.3088721128746046e-06,1.1180312072569556e-05,1.8210654675683174e-06,9.80944384205175e-07,6.2069160007143345e-06,9.530504093220803e-07,7.900079491355055e-07,1.3083543951824552e-06,2.2063209135575907e-06
259,1.2199394270246446e-06,9.878632195762467e-07,7.925907000260045e-06,9.826310550219076e-06,8.795866597081964e-07,1.1223252081399396e-06,1.1352881093618907e-06,3.3662952009498736e-06,1.1292093673493422e-05,1.8493583981815315e-06,9.79412234661443e-07,5.7715445932476335e-06,9.67593543249524e-07,8.050532856998184e-07,1.3321152835828158e-06,1.8534914805980753e-06
260,1.1956214933403793e-06,9.688210725436397e-07,8.093491837478028e-06,9.822786216205357e-06,8.912999844873147e-07,1.0933092659390659e-06,1.135422806824667e-06,3.418579042704453e-06,1.136427591418598e-05,1.8753760190654543e-06,9.775281945925948e-07,5.386538078779853e-06,9.82334113041321e-07,8.20880369476244e-07,1.3566270569923526e-06,1.5329828353608471e-06
261,1.1703025982825223e-06,9.507573138438634e-07,8.233259818109224e-06,9.78009842465082e-06,9.019116030032927e-07,1.0643630317478346e-06,1.1346859776930923e-06,3.4651848331606333e-06,1.1399568829279776e-05,1.8986314420387603e-06,9.753755376720507e-07,5.057757532699008e-06,9.96724378309291e-07,8.372594512760438e-07,1.3817131887013107e-06,1.2433102964694181e-06
262,1.1441143490559883e-06,9.334392931717806e-07,8.346979293716885e-06,9.702142831452015e-06,9.117798057488923e-07,1.0349520576203916e-06,1.133480525699179e-06,3.5059337851893384e-06,1.1401322873109303e-05,1.918358846051424e-06,9.729150062039645e-07,4.790119949961248e-06,1.0102950116692326e-06,8.541508618901916e-07,1.407386941488441e-06,9.828409406204724e-07
263,1.1172969071338776e-06,9.167975436979686e-07,8.43724459974257e-06,9.595326359163158e-06,9.212811615719906e-07,1.0046656006114877e-06,1.1322885906230483e-06,3.5408767889965685e-06,1.1372919263243245e-05,1.9335720999025705e-06,9.700122540811002e-07,4.587524476737985e-06,1.0228146570766022e-06,8.716948100195719e-07,1.4337357329086086e-06,7.498574381966534e-07
264,1.0901878424211061e-06,9.009303325184987e-07,8.506972680147506e-06,9.46759229968597e-06,9.307394653302952e-07,9.73387044598667e-07,1.131561417761604e-06,3.5699529284961432e-06,1.1318647932376256e-05,1.943271328326352e-06,9.66538409245136e-07,4.452858431126579e-06,1.0343450999133597e-06,8.901369728213688e-07,1.4607882456968588e-06,5.427230295207409e-07
265,1.0631956296682234e-06,8.859958433045709e-07,8.558960483976641e-06,9.327217235270863e-06,9.404159117180982e-07,9.413797192816516e-07,1.1316274195944498e-06,3.5926900357251173e-06,1.1244678829242686e-05,1.946699188803213e-06,9.624301719497759e-07,4.388082189278798e-06,1.0450956055052198e-06,9.097287168874024e-07,1.4884514738619304e-06,3.6008614741680796e-07
266,1.0367557619252195e-06,8.720746203506127e-07,8.59549484030018e-06,9.181701579647234e-06,9.504827748726713e-07,9.092107179706351e-07,1.1326942718999721e-06,3.6081725854337063e-06,1.1158875820048672e-05,1.9435348492363787e-06,9.576742239714408e-07,4.394327591945296e-06,1.0552299423397496e-06,9.30626084320059e-07,1.5164784832415878e-06,2.0101983540069023e-07
267,1.0112788410719726e-06,8.590965243899658e-07,8.618090927899382e-06,9.03700172520757e-06,9.610028527804068e-07,8.775451157295802e-07,1.1348755331052311e-06,3.615271388042432e-06,1.1069727733580376e-05,1.9339990462854583e-06,9.523078938789312e-07,4.472084476821796e-06,1.0647676632754258e-06,9.528261295693136e-07,1.544426244898924e-06,6.50256881835513e-08
268,9.871558347791925e-07,8.468372792327963e-07,8.62739049767319e-06,8.897343124642998e-06,9.7196910111784e-07,8.469670031548895e-07,1.1381622283249548e-06,3.612946465083599e-06,1.0985185889349441e-05,1.918840406493051e-06,9.464355074781525e-07,4.621516481228091e-06,1.0735678250921155e-06,9.761582535578728e-07,1.5716332874120983e-06,-4.8090341414892377e-08
269,9.648149218927756e-07,8.349471168189025e-07,8.623053578438686e-06,8.76567783956676e-06,9.833815158377333e-07,8.179463383935722e-07,1.1423694553943052e-06,3.6005088682567925e-06,1.0911807357029924e-05,1.8991434034340755e-06,9.40177103995283e-07,4.842657631005048e-06,1.0813869007725644e-06,1.0002995756329373e-06,1.5972623763617212e-06,-1.3833531370462617e-07
270,9.447414005792095e-07,8.230387451378102e-07,8.603576268292596e-06,8.64445685038063e-06,9.953140654796139e-07,7.908985817213185e-07,1.1471403558793815e-06,3.5778433930650577e-06,1.0854293979517633e-05,1.8760138173371246e-06,9.33618503909167e-07,5.13524823721387e-06,1.08800273909859e-06,1.0248050868616523e-06,1.620408932343644e-06,-2.055100012551975e-07
271,9.27423100942684e-07,8.108628780702593e-07,8.566468622123701e-06,8.536192433885859e-06,1.0079719323091528e-06,7.66208730987047e-07,1.1520486718839972e-06,3.5455389058212863e-06,1.0815447772063916e-05,1.8503465497664999e-06,9.268575129352559e-07,5.498347726018514e-06,1.0932865125874434e-06,1.049160087698054e-06,1.6402016234973833e-06,-2.490977020686296e-07
272,9.132629647561112e-07,7.984727964290646e-07,8.509114819547204e-06,8.443483370447317e-06,1.0217368962590645e-06,7.442011344465842e-07,1.1567636042811031e-06,3.504806994747496e-06,1.079638876840084e-05,1.8227811456778627e-06,9.200531058458269e-07,5.930004651064759e-06,1.0971480521739207e-06,1.0728057934384228e-06,1.6558698777689884e-06,-2.681937923580585e-07
273,9.025164169883908e-07,7.862443294166042e-07,8.429774328296419e-06,8.368536962255832e-06,1.037143166010677e-06,7.251156519519863e-07,1.1611951683681631e-06,3.4571929192117688e-06,1.079662824804769e-05,1.7937716391596905e-06,9.133812614804874e-07,6.427056546034781e-06,1.0994648289822585e-06,1.0951340619767892e-06,1.666836740124041e-06,-2.615059436861192e-07
274,8.952775306447856e-07,7.747444852091518e-07,8.328018971524024e-06,8.312578701619461e-06,1.0547549144625878e-06,7.091027952760192e-07,1.1655372044523865e-06,3.404257242361932e-06,1.0813820197620923e-05,1.7637348539300539e-06,9.06985386017283e-07,6.9850223723853325e-06,1.100085326917485e-06,1.1155014170093262e-06,1.6728312262799356e-06,-2.273380166388287e-07
275,8.915171186946313e-07,7.6455819263239e-07,8.20460333102169e-06,8.275665641584674e-06,1.0750305520801653e-06,6.962207218542465e-07,1.1701645175678998e-06,3.3473762797332577e-06,1.0843628104457139e-05,1.7332458169002662e-06,9.010181016850931e-07,7.598154285912804e-06,1.0988787287002475e-06,1.1332468197398836e-06,1.6739539352931162e-06,-1.6353489200232047e-07
276,8.911678788675453e-07,7.561803887491683e-07,8.061163048230504e-06,8.256933427157076e-06,1.0982573759445184e-06,6.864330171982855e-07,1.1754385581927084e-06,3.287629298242358e-06,1.0880134670888254e-05,1.7031059711327356e-06,8.956919419746943e-07,8.259698814477362e-06,1.0958171152663606e-06,1.1477373938268681e-06,1.6706485481123376e-06,-6.745736951565706e-08
277,8.941872029528607e-07,7.500102203288463e-07,7.899975936275863e-06,8.254741760104893e-06,1.1245321432128308e-06,6.796259396749366e-07,1.1815600477884154e-06,3.225674801301868e-06,1.091643818110603e-05,1.6741901759621852e-06,8.91253507304739e-07,8.962224999837663e-06,1.0910384350815428e-06,1.158493001991325e-06,1.663553504008736e-06,6.400444689951009e-08
278,9.005204253829354e-07,7.464230671011604e-07,7.723789456773895e-06,8.266594574147641e-06,1.153764801671557e-06,6.756483508243617e-07,1.1885671197835946e-06,3.1616489404094845e-06,1.0944730814395039e-05,1.6472513745214166e-06,8.879761295588984e-07,9.697812738800072e-06,1.0848097686499951e-06,1.16530917758325e-06,1.653290582371921e-06,2.3437972151463888e-07
279,9.100185999505611e-07,7.458462350887204e-07,7.5356257630566715e-06,8.289428158521708e-06,1.1857358660831822e-06,6.74326242998883e-07,1.1964426664667574e-06,3.0952410087649124e-06,1.095589374056824e-05,1.622841838374187e-06,8.86215820518912e-07,1.0457950496684239e-05,1.0774373424596888e-06,1.1682795761414853e-06,1.6403165892733226e-06,4.4748338128675783e-07
280,9.224366007061213e-07,7.487600113059618e-07,7.338484077076511e-06,8.320451542245155e-06,1.220167735886318e-06,6.754324209458805e-07,1.205191541478093e-06,3.0259950776573007e-06,1.0939535564573092e-05,1.6012783099891545e-06,8.864090961122204e-07,1.1233160436939047e-05,1.0692004983943847e-06,1.167705247017991e-06,1.624896191117758e-06,7.072751777599258e-07
281,9.375412738731343e-07,7.55626750431736e-07,7.1349439164198324e-06,8.357861180392444e-06,1.2567196129418504e-06,6.786590643004452e-07,1.2147951184599851e-06,2.9536656526896162e-06,1.0885289235052553e-05,1.5825965253729995e-06,8.889946112690078e-07,1.2012926217930431e-05,1.0603000161211504e-06,1.1639363322142077e-06,1.6071817918624965e-06,1.0178874209547477e-06
282,9.552319203962949e-07,7.668188896912199e-07,6.92674348949505e-06,8.400791973843886e-06,1.2949328781080847e-06,6.836373019553144e-07,1.2251127141174723e-06,2.878394073797349e-06,1.0785051162670318e-05,1.566580613438095e-06,8.943490657839268e-07,1.2786741388781832e-05,1.050832348822013e-06,1.1572419116137063e-06,1.5873337256054035e-06,1.3838325020966686e-06
283,9.755560053285653e-07,7.825884202480835e-07,6.714467885084504e-06,8.448587774643376e-06,1.3342070016829196e-06,6.900092768829e-07,1.2358328868339636e-06,2.800616987563087e-06,1.0634393636713913e-05,1.5529333540344065e-06,9.02753472403906e-07,1.3546099935309982e-05,1.0408251662284557e-06,1.1477658134428053e-06,1.565545109089465e-06,1.8101547598102687e-06
284,9.986049782406756e-07,8.030637270858814e-07,6.497608678937836e-06,8.500173726335555e-06,1.3737852032907458e-06,6.975019413227658e-07,1.2464630021246253e-06,2.7208356389517594e-06,1.0431913128846677e-05,1.5415028376417037e-06,9.143759945534549e-07,1.4286084400804932e-05,1.030297263511505e-06,1.1355776080655562e-06,1.541937867267411e-06,2.302319295643378e-06
285,1.0243838317206798e-06,8.282477860554019e-07,6.275119341321098e-06,8.554191251548892e-06,1.4127382529470789e-06,7.059272757993104e-07,1.256338876783725e-06,2.6394743216038424e-06,1.0178439063089952e-05,1.5323593289464081e-06,9.292638147343885e-07,1.5005309446044658e-05,1.0192865757203251e-06,1.1208130618526102e-06,1.516466165902359e-06,2.865918581349126e-06
286,1.0527536063075167e-06,8.580123472352244e-07,6.046146145360945e-06,8.609497587570274e-06,1.4500237334837086e-06,7.151025357930392e-07,1.2647038401827026e-06,2.5569262657980515e-06,9.87792253990443e-06,1.5256885703845709e-06,9.473426891793022e-07,1.570419387520408e-05,1.0078299964170732e-06,1.1038097377491002e-06,1.4889028675108671e-06,3.5064289398459225e-06
287,1.0834483699711899e-06,8.920971104918512e-07,5.81053667746269e-06,8.665197191594217e-06,1.4846527427933766e-06,7.247581957746829e-07,1.2708643615175814e-06,2.4737019762892314e-06,9.53789150051506e-06,1.5216951987902412e-06,9.684363306874246e-07,1.638303645086116e-05,9.95948283817561e-07,1.0851273858942954e-06,1.4588859093955914e-06,4.229102872209265e-06
288,1.1160874991161346e-06,9.301059185683391e-07,5.569063985445793e-06,8.720049753388077e-06,1.5158883870154963e-06,7.344961225370402e-07,1.2743546092726157e-06,2.390556186311152e-06,9.167710503153775e-06,1.5205638270101918e-06,9.922781476298175e-07,1.7041655638260136e-05,9.837211570412645e-07,1.0654564550171864e-06,1.4260390302124116e-06,5.038884402192673e-06
289,1.1501662764470332e-06,9.714853877723206e-07,5.323458242711306e-06,8.7717212202837e-06,1.5433644592806883e-06,7.438345245179597e-07,1.2750462639550342e-06,2.308510015918647e-06,8.77643991184063e-06,1.5223878404682482e-06,1.0184913356578866e-06,1.768047596499305e-05,9.713982158915982e-07,1.0455108883522855e-06,1.390141444318204e-06,5.940200589053117e-06
290,1.1850946038720553e-06,1.0154999973411327e-06,5.076257256266098e-06,8.816513180087827e-06,1.5670548377638375e-06,7.523538071246074e-07,1.2731717085747212e-06,2.22872328903726e-06,8.372016955833498e-06,1.5271280650441721e-06,1.0465886282419638e-06,1.830116428335354e-05,9.593936519387446e-07,1.0259923421860503e-06,1.3512595694627625e-06,6.936646413251072e-06
291,1.220291408980382e-06,1.0612208795287863e-06,4.83045799192468e-06,8.849949891243121e-06,1.5871143984554544e-06,7.598729438629252e-07,1.2692456668396253e-06,2.152259452824749e-06,7.961311819401143e-06,1.5347097152682857e-06,1.076030984360076e-06,1.890559522054773e-05,9.481512429405563e-07,1.0075902962949028e-06,1.3097833335048494e-06,8.030766353319663e-06
292,1.2552367060444917e-06,1.1075318954130947e-06,4.589017415390684e-06,8.867981699064628e-06,1.6037039795404184e-06,7.665094602673656e-07,1.2639086213970993e-06,2.0798937061044036e-06,7.550237479946473e-06,1.5452119400977723e-06,1.106316427260942e-06,1.9493838463043852e-05,9.380001333488312e-07,9.9093812789393e-07,1.2663237379478319e-06,9.224046449943982e-06
293,1.2894162399127858e-06,1.1531656945287695e-06,4.354361941675027e-06,8.868213499448888e-06,1.6169202163928274e-06,7.725620502505407e-07,1.2577577377941024e-06,2.0120848807332747e-06,7.1438550265237895e-06,1.5590015805685034e-06,1.1370799665408958e-06,2.0062685294552664e-05,9.290788383812713e-07,9.765639415686952e-07,1.2215153802443993e-06,1.051694317595571e-05
294,1.322232949047886e-06,1.196761297885581e-06,4.128132373888982e-06,8.850720590940806e-06,1.6268369476181025e-06,7.783310855913166e-07,1.2512339684397574e-06,1.94906648703182e-06,6.746644132961219e-06,1.576694307525318e-06,1.168152540699639e-06,2.0605249251026357e-05,9.213161981580452e-07,9.648931076061007e-07,1.175890579994132e-06,1.1908730022712869e-05
295,1.352970732098147e-06,1.2368941429207668e-06,3.911228575589215e-06,8.818248527298914e-06,1.6335342695520095e-06,7.840198381050688e-07,1.2446053339072315e-06,1.8909321027084657e-06,6.36283199752339e-06,1.598967168264025e-06,1.1994863784430273e-06,2.1110987893623845e-05,9.144542295461097e-07,9.562543157157245e-07,1.1299079713236362e-06,1.3397190651111193e-05
296,1.380793094836822e-06,1.2720951018501168e-06,3.7039808054857338e-06,8.775754211348558e-06,1.637019960807446e-06,7.897208298722688e-07,1.2380229802127245e-06,1.8376731148846987e-06,5.996457489215523e-06,1.626391304215457e-06,1.231001692626118e-06,2.156586229937603e-05,9.08147440938769e-07,9.508500429259988e-07,1.084034622980928e-06,1.4978329528305055e-05
297,1.404829471095875e-06,1.3009849581065298e-06,3.5062973166418445e-06,8.72945510600094e-06,1.637121945244358e-06,7.954173963942409e-07,1.2315712877666924e-06,1.7892217931237264e-06,5.651073018534892e-06,1.6594317002107797e-06,1.2625019786140226e-06,2.195316932574158e-05,9.021319595713626e-07,9.487247409797756e-07,1.0387594308370707e-06,1.6646137455130756e-05
298,1.424442065656335e-06,1.3225685043901315e-06,3.3177705940845653e-06,8.685730870451905e-06,1.6334809389527408e-06,8.01002146246935e-07,1.2252628095247198e-06,1.7455325276362878e-06,5.329521336616152e-06,1.6985929565551697e-06,1.2936912250297618e-06,2.2255336032098648e-05,8.963427640936375e-07,9.497603583689641e-07,9.945515494453507e-07,1.83922163199241e-05
299,1.439528881890107e-06,1.3365301069333267e-06,3.137755612319425e-06,8.65017579255015e-06,1.6256363738430035e-06,8.063550536565274e-07,1.2189974801427107e-06,1.706649764234368e-06,5.034144290170029e-06,1.7445515104267668e-06,1.3242591573642175e-06,2.2456153369052738e-05,8.908950660013772e-07,9.536963572777725e-07,9.51862921411563e-07,2.020519081588262e-05
300,1.4506150113377752e-06,1.3433266474515576e-06,2.9654566590828426e-06,8.626961911585666e-06,1.6131339880450235e-06,8.114376304941597e-07,1.2125280102947459e-06,1.6727027654856246e-06,4.767087829460114e-06,1.7981172968847166e-06,1.3539801901545401e-06,2.254215086127089e-05,8.860063254818292e-07,9.601577670917489e-07,9.111713866565265e-07,2.207051310434958e-05
301,1.4586968530743799e-06,1.3440031203116127e-06,2.8000757884395e-06,8.61864471916246e-06,1.5956390796767095e-06,8.163058656718221e-07,1.2054543193708384e-06,1.6438388926602028e-06,4.53025231072711e-06,1.8600701798737949e-06,1.3827325450930693e-06,2.2502085836183815e-05,8.819381314588661e-07,9.686967886539513e-07,8.729628265377273e-07,2.3971350089308896e-05
302,1.464985420416137e-06,1.339868908665903e-06,2.6410169042537996e-06,8.626441091124741e-06,1.5730549771471854e-06,8.210350880088478e-07,1.1972533217896851e-06,1.6201495180332965e-06,4.324955523608492e-06,1.9311404874505e-06,1.4104158427623141e-06,2.2326134747298768e-05,8.789359693761491e-07,9.78847447956155e-07,8.376643363101937e-07,2.5890194681911167e-05
303,1.4706772519915718e-06,1.3323019375691685e-06,2.4880749990974583e-06,8.650819323871784e-06,1.5456117548713542e-06,8.256435303845565e-07,1.1873495812440874e-06,1.601631346752447e-06,4.151646748920784e-06,2.0122763941756966e-06,1.4368510660032523e-06,2.200779601272241e-05,8.771768500225732e-07,9.901353595843895e-07,8.056246901864585e-07,2.7810261211878143e-05
304,1.47680764354123e-06,1.3227391766172912e-06,2.341522971402513e-06,8.692239635629759e-06,1.5138838540727566e-06,8.300773021574565e-07,1.175215365412681e-06,1.5881913321633675e-06,4.0098702270629625e-06,2.1049526360978737e-06,1.4617268044791074e-06,2.1547671160642347e-05,8.767613375885658e-07,1.0020299901694774e-06,7.771400520727316e-07,2.9716111515528367e-05
305,1.4842220831968766e-06,1.312648847961758e-06,2.202011862392407e-06,8.751941829884247e-06,1.4787291771492156e-06,8.342482446674712e-07,1.1604532849758223e-06,1.579648486254676e-06,3.898477885618029e-06,2.211188219860491e-06,1.4845971507956557e-06,2.0954753595515986e-05,8.777215569000421e-07,1.0139271878630901e-06,7.524793718646195e-07,3.15931187642963e-05
306,1.4936481587419454e-06,1.3034110990440491e-06,2.0702914447502313e-06,8.832563493988249e-06,1.441171589274482e-06,8.380817717466833e-07,1.1428195863538247e-06,1.5756892655777838e-06,3.8159079697362145e-06,2.3332764889821106e-06,1.5049669487253899e-06,2.0243511737847002e-05,8.800426719165356e-07,1.0252284821389641e-06,7.31890219911466e-07,3.342558787494832e-05
307,1.505756892973143e-06,1.2962348119294375e-06,1.9469416382088195e-06,8.938279882163567e-06,1.4022486752019913e-06,8.415387709319897e-07,1.122187979618823e-06,1.5758548107471013e-06,3.7602462594077814e-06,2.473465446911269e-06,1.5224848256819407e-06,1.9429365088329024e-05,8.83702122587004e-07,1.035460090844805e-06,7.155739342686247e-07,3.519474924086732e-05
308,1.5211333896652824e-06,1.29216889494179e-06,1.8323085414995158e-06,9.074375487655252e-06,1.3628513792422646e-06,8.446053625838121e-07,1.0984736073898374e-06,1.5796699328606243e-06,3.7290756009984422e-06,2.6337281745471187e-06,1.5370935704076499e-06,1.8525917181875072e-05,8.886582325657081e-07,1.0443361305885925e-06,7.036707393720768e-07,3.68786865588703e-05
309,1.5401993521804676e-06,1.2921357697644027e-06,1.7265940043824226e-06,9.246491203867058e-06,1.3236232411191435e-06,8.4725815934433e-07,1.0715719331971477e-06,1.586856371383286e-06,3.719395121183907e-06,2.815617325097951e-06,1.5489771705796798e-06,1.7545228095437095e-05,8.94780800195182e-07,1.0517961441646986e-06,6.962821793515862e-07,3.8454275274361426e-05
310,1.5631532868672858e-06,1.2969021026652074e-06,1.6299181481722876e-06,9.459792744787838e-06,1.2849971212051906e-06,8.494101219795426e-07,1.0414071075522095e-06,1.5974646765450644e-06,3.727673170431773e-06,3.0201524783514527e-06,1.5583941752788995e-06,1.649987137442919e-05,9.01820142486536e-07,1.0580513373703563e-06,6.934756460170073e-07,3.9899059422717776e-05
311,1.5899278905175024e-06,1.3070101868553644e-06,1.5423181481754845e-06,9.718215210885094e-06,1.2473306226069334e-06,8.508622857739076e-07,1.0080838646996334e-06,1.6118207318547965e-06,3.7499432023088376e-06,3.2477196549568188e-06,1.5655459256479276e-06,1.5404443729504505e-05,9.094538554104381e-07,1.0635387346998993e-06,6.95250325284439e-07,4.119166442231332e-05
312,1.6201534522519708e-06,1.3227612010483019e-06,1.4637936574035992e-06,1.0024085257338e-05,1.2109778860445859e-06,8.5129639571088e-07,9.719947889188337e-07,1.6303099392213797e-06,3.7820161404215603e-06,3.498038663344713e-06,1.5704875232632288e-06,1.4275199318674306e-05,9.173384899239517e-07,1.068759505147001e-06,7.015047493720537e-07,4.231085186591469e-05
313,1.653137638273225e-06,1.3442711650125394e-06,1.3944398629429244e-06,1.0378296426101656e-05,1.1762283925586317e-06,8.503444806100988e-07,9.33787767325608e-07,1.6531519411266149e-06,3.819848697054807e-06,3.770281901162512e-06,1.5730944163343117e-06,1.3128664736806426e-05,9.25123279546821e-07,1.0741456828166811e-06,7.120224666893837e-07,4.323355786235545e-05
314,1.6878508690616955e-06,1.3715572370151601e-06,1.3345538212967281e-06,1.0780760544047531e-05,1.1432270869602051e-06,8.477584826294441e-07,8.942391253425375e-07,1.680336726901384e-06,3.859858591379064e-06,4.063352285279438e-06,1.5731006505902804e-06,1.1981166161163744e-05,9.324910394529992e-07,1.0800335638392059e-06,7.264713827420156e-07,4.3932535784636423e-05
315,1.722908707536998e-06,1.4045984908371069e-06,1.284595880950155e-06,1.1230757410836567e-05,1.1119636727911043e-06,8.435852621898803e-07,8.54115206940237e-07,1.7117637884737934e-06,3.898999314309753e-06,4.3761924416939315e-06,1.570151440108179e-06,1.0849503845323435e-05,9.392399029709303e-07,1.0866614415954583e-06,7.444104132230583e-07,4.437612108864941e-05
316,1.7565682248389668e-06,1.4433294105679102e-06,1.2450267830602823e-06,1.1727030354011008e-05,1.0822832297541573e-06,8.381747750841056e-07,8.140877380943192e-07,1.747478311728793e-06,3.934704659716299e-06,4.707933316157067e-06,1.5638599414163667e-06,9.751195176176694e-06,9.452905893505759e-07,1.0941306206600743e-06,7.653155612460838e-07,4.453327489424611e-05
317,1.7867471583063334e-06,1.4876310946113753e-06,1.21614817263888e-06,1.2267659036259462e-05,1.0538834863682196e-06,8.320103322585309e-07,7.747454498041959e-07,1.7878344307204443e-06,3.964921188146709e-06,5.05779684589186e-06,1.5539092291800089e-06,8.703622225600694e-06,9.50583592707304e-07,1.102398102269334e-06,7.886390502262365e-07,4.43826975491044e-05
318,1.8110936741208774e-06,1.5374225022124333e-06,1.1980539369898895e-06,1.2849851000747235e-05,1.0263418882520037e-06,8.255288146838481e-07,7.366737568720692e-07,1.8334805494364453e-06,3.9882027628347525e-06,5.424831354412557e-06,1.5401856588867731e-06,7.722981550212657e-06,9.550099649002913e-07,1.111360679742682e-06,8.138605139371503e-07,4.39194256584219e-05
319,1.8271799566071627e-06,1.592756922308564e-06,1.1906903100479754e-06,1.346978258752914e-05,9.99201333908206e-07,8.190395682455862e-07,7.005009151290004e-07,1.8852018488218728e-06,4.003603068644771e-06,5.807617166211745e-06,1.5228849157032735e-06,6.823862245379096e-06,9.58490073902387e-07,1.120944633019346e-06,8.405020194347798e-07,4.315320140265046e-05
320,1.8328516842910243e-06,1.6537498865747888e-06,1.1939440453214714e-06,1.4122510729646959e-05,9.720872234276135e-07,8.127093733535641e-07,6.668547922933841e-07,1.9437180895011123e-06,4.010350599030648e-06,6.204043799470189e-06,1.5025428940928507e-06,6.0194256827627575e-06,9.611235531458078e-07,1.131100933460751e-06,8.681483496518782e-07,4.210088916781077e-05
321,1.826634351326489e-06,1.7203986660591393e-06,1.207696154209171e-06,1.4801901336178314e-05,9.448081762451412e-07,8.06566301879973e-07,6.362903023447648e-07,2.0094976740912786e-06,4.007798763486116e-06,6.611195951024364e-06,1.4799808543488927e-06,5.32178108037931e-06,9.632402269625517e-07,1.1417587875447306e-06,8.964887945939782e-07,4.0781651358243426e-05
322,1.8080113773055214e-06,1.7924681672095177e-06,1.2318313372428808e-06,1.5500497003443724e-05,9.1740882757087e-07,8.005433720257329e-07,6.092517362911197e-07,2.0826211199147505e-06,3.995907031973123e-06,7.02530652123551e-06,1.4561682891811037e-06,4.7423395163965386e-06,9.652970799488018e-07,1.152797930063926e-06,9.253295775101335e-07,3.92184767203426e-05
323,1.777446658866829e-06,1.8695078338920498e-06,1.2662150822168e-06,1.620926707800596e-05,8.901678254961666e-07,7.94589302620205e-07,5.860608187603539e-07,2.1627320073733563e-06,3.975710282315483e-06,7.441671088268942e-06,1.4320207980837943e-06,4.292093011023622e-06,9.677511312509572e-07,1.1639966802739159e-06,9.545426669380988e-07,3.7440808061379434e-05
324,1.736166304559149e-06,1.9509995401547415e-06,1.3106628381161688e-06,1.691721759259769e-05,8.635457861313768e-07,7.887792761982134e-07,5.669112001006672e-07,2.2491121938433275e-06,3.949210401313225e-06,7.854452395984672e-06,1.4082229557186213e-06,3.98173908274659e-06,9.710078944846472e-07,1.1749588585741365e-06,9.839985733213557e-07,3.548440157107405e-05
325,1.685802133184484e-06,2.0365904440434085e-06,1.3649390980915831e-06,1.7610859299562294e-05,8.38086757589672e-07,7.833194926644574e-07,5.518712095232774e-07,2.3408782242447067e-06,3.918785392382674e-06,8.256522309948237e-06,1.3851864486267369e-06,3.821687197228717e-06,9.753835528026601e-07,1.185097775060121e-06,1.0135522410584093e-06,3.338981192902987e-05
326,1.6280310901021096e-06,2.1262950999793674e-06,1.4287857303114772e-06,1.8273807604327193e-05,8.142922412359077e-07,7.784557336618969e-07,5.408981241851085e-07,2.4371881203022568e-06,3.8865377071746926e-06,8.639714345837633e-06,1.3631328084737342e-06,3.822135660069058e-06,9.81057383266721e-07,1.1937301050478147e-06,1.0430518242100552e-06,3.120052784224529e-05
327,1.5643815779667534e-06,2.220506162527025e-06,1.5019098102087688e-06,1.8887245489774827e-05,7.92525640709961e-07,7.74389590234083e-07,5.338650725998733e-07,2.537275487164933e-06,3.8538668844826066e-06,8.995648687972446e-06,1.342172423870581e-06,3.993257007082253e-06,9.880884447295056e-07,1.2002718455001808e-06,1.072295750860939e-06,2.8960154607989724e-05
328,1.4963042183770603e-06,2.319762127402367e-06,1.5839011215906862e-06,1.943173028887268e-05,7.730027543808406e-07,7.712516162335262e-07,5.305963421236987e-07,2.6402532602971936e-06,3.821329141740575e-06,9.316733194092518e-06,1.3222959939256645e-06,4.345236879583462e-06,9.96507480188692e-07,1.204451684239008e-06,1.1009867580786722e-06,2.6709069459388024e-05
329,1.4254163364500768e-06,2.424531397686269e-06,1.6741775515455176e-06,1.988992731599456e-05,7.558459942305613e-07,7.691372439676691e-07,5.308943139888198e-07,2.7448489560661263e-06,3.788724343286643e-06,9.596759552604861e-06,1.3033473735618074e-06,4.887988695740636e-06,1.0063979556014193e-06,1.2064018827616578e-06,1.128778934123253e-06,2.448206401686308e-05
330,1.3537496916768573e-06,2.5352874969304602e-06,1.772048404877662e-06,2.0249434500311607e-05,7.411230567514912e-07,7.681902952689359e-07,5.345373988295917e-07,2.8492675968337423e-06,3.755315238687815e-06,9.830945801370838e-06,1.2850851476339485e-06,5.630754353103594e-06,1.0178739552677347e-06,1.2065514379528995e-06,1.1553678552401306e-06,2.2307653543976703e-05
