,EMG1,EMG2,EMG3,EMG4,EMG5,EMG6,EMG7,EMG8,EMG9,EMG10,EMG11,EMG12,EMG13,EMG14,EMG15,EMG16
0,-2.5507129466509897e-08,1.592636264462243e-07,9.880119157709921e-08,2.7688164906319873e-06,1.4617463200579213e-07,1.4580777346326945e-07,1.7596067205754787e-07,5.088083026648702e-08,-3.0569072789595055e-07,7.288675677488128e-07,7.913458166667169e-07,6.149419462272049e-07,2.5620551053064927e-08,3.2599169884233217e-07,1.8170280599340188e-07,1.470073921611096e-07
1,7.941552756741458e-08,4.090018652927725e-07,2.3774978854397215e-07,4.167729103813421e-06,1.955063487887469e-07,1.8412356265597306e-07,2.1144005456789735e-07,1.485557663749873e-07,6.3618772408277e-07,3.193407456108085e-06,1.0559919440017042e-06,1.0995413859449723e-06,2.2342442589565109e-07,3.7521512363156014e-07,2.2284081639867884e-07,2.4908926576713577e-07
2,1.8419878643203033e-07,6.529877626407776e-07,3.7422214493396486e-07,5.511880153675728e-06,2.4482255601144675e-07,2.2378331809334854e-07,2.471912658777943e-07,2.4435895605782956e-07,1.5395205750784444e-06,5.650589383201603e-06,1.315912999665101e-06,1.5658468706716002e-06,4.128042693350172e-07,4.2396283226793727e-07,2.635455828528017e-07,3.509116772381338e-07
3,2.889272290116938e-07,8.887805638666909e-07,5.064536244461189e-07,6.774716307352259e-06,2.9337726733501835e-07,2.6411953581827593e-07,2.8282779316473127e-07,3.3582361388452276e-07,2.3842382102167984e-06,8.087956443747165e-06,1.5633293388276965e-06,2.005620169513494e-06,5.918473529409083e-07,4.712843431113336e-07,3.0307679383151366e-07,4.516290867780394e-07
4,3.9408391711136346e-07,1.1140580460976543e-06,6.328232775756484e-07,7.93389212173163e-06,3.4062938935165495e-07,3.047117965941252e-07,3.1805513797655944e-07,4.208589698446337e-07,3.154845556084854e-06,1.0492453982715663e-05,1.7925209237150309e-06,2.4111836515199804e-06,7.588011613347389e-07,5.163442615964266e-07,3.409351509372613e-07,5.504782510674848e-07
5,5.004951724306727e-07,1.326761303419067e-06,7.518363668784743e-07,8.97253793328613e-06,3.862983695785511e-07,3.4531400993058454e-07,3.526508079988575e-07,4.97945314297592e-07,3.841004054427137e-06,1.2850464659356301e-05,2.0002762486043736e-06,2.775455676072669e-06,9.120524689718889e-07,5.585138481098243e-07,3.7687484310386763e-07,6.467806762391084e-07
6,6.091688970160232e-07,1.5252181093031922e-06,8.621175808537382e-07,9.879847062678299e-06,4.303195720917367e-07,3.8576376145401333e-07,3.86463025310802e-07,5.662773766449466e-07,4.437302740332339e-06,1.5148826820691384e-05,2.185385846642772e-06,3.0924097248126937e-06,1.0501860188611632e-06,5.974529867153977e-07,4.1086329810093193e-07,7.39922284671473e-07
7,7.211862134614488e-07,1.7081520987359601e-06,9.62549743694725e-07,1.0651012710115423e-05,4.727460592403015e-07,4.2596156963837317e-07,4.1939301905653833e-07,6.257999681109958e-07,4.942576051700932e-06,1.7376487359984347e-05,2.347850990739236e-06,3.3580844769074955e-06,1.1720954047433703e-06,6.33087366992785e-07,4.430144352861258e-07,8.293342201147988e-07
8,8.37750709914329e-07,1.8745705344182918e-06,1.0525103533383882e-06,1.1286682629227265e-05,5.136684323562749e-07,4.6587472872693683e-07,4.513350489574984e-07,6.771103077590934e-07,5.359019565613354e-06,1.9525926929638324e-05,2.488565515934535e-06,3.5714540125512864e-06,1.2770592509252598e-06,6.65482084179174e-07,4.7350660021518365e-07,9.145230238634871e-07
9,9.603274908760783e-07,2.0236575716462266e-06,1.1319858252057632e-06,1.1792074146823528e-05,5.531902470523594e-07,5.055072267499301e-07,4.821227170642242e-07,7.212516289005916e-07,5.691320395341827e-06,2.159370333397045e-05,2.609170170697644e-06,3.7344484297022835e-06,1.3647841168199194e-06,6.947364326490673e-07,5.025090706916865e-07,9.95171977509573e-07
10,1.0907501526134547e-06,2.1548095943423508e-06,1.2014379194939497e-06,1.2175739277294732e-05,5.914294557929722e-07,5.448408451665813e-07,5.115215513174239e-07,7.594687039505861e-07,5.9459145499374065e-06,2.3580329359202832e-05,2.7116320964412148e-06,3.851070781482176e-06,1.4354499851650287e-06,7.209579134428313e-07,5.301516129351188e-07,1.0711909600836075e-06
11,1.2312249568615876e-06,2.2677755433679727e-06,1.2615382550480199e-06,1.2447962796236659e-05,6.284814529767354e-07,5.837773764928151e-07,5.392500692423975e-07,7.93009492509283e-07,6.130332927833286e-06,2.5489956674658003e-05,2.7977969456622696e-06,3.926130034743529e-06,1.4897197435241989e-06,7.442759296452729e-07,5.565340867314944e-07,1.1426409301127288e-06
12,1.3842122278322897e-06,2.3627424408075236e-06,1.3129951970564512e-06,1.2618989024712803e-05,6.643598378161159e-07,6.22102224907801e-07,5.650135550694435e-07,8.230235545423051e-07,6.252588351346471e-06,2.7329522443291762e-05,2.8692146944251243e-06,3.9642599468344025e-06,1.5286819574283975e-06,7.648891600613024e-07,5.817458438303637e-07,1.2097104191003523e-06
13,1.5522231165389905e-06,2.4403059237777255e-06,1.3565471443086863e-06,1.2697565663094574e-05,6.989935284001095e-07,6.59472043661192e-07,5.885727784450679e-07,8.505443429123058e-07,6.320646144033238e-06,2.910685429438124e-05,2.9271573448113677e-06,3.969541416190241e-06,1.5537674228711656e-06,7.831090383380063e-07,6.058738714854151e-07,1.272842728255588e-06
14,1.737614313467867e-06,2.5013767443180154e-06,1.3929994069008202e-06,1.2690397597898617e-05,7.322887495463825e-07,6.954350711271456e-07,6.098309042165998e-07,8.76498063287722e-07,6.342017633014621e-06,3.082835016867299e-05,2.972619898024109e-06,3.945556923788241e-06,1.5666306611841849e-06,7.993092095012333e-07,6.289810921851428e-07,1.3328000826336667e-06
15,1.942446474946429e-06,2.547013918329443e-06,1.4231951222038966e-06,1.2602704969894971e-05,7.641824690771388e-07,7.295045694287739e-07,6.288625395410852e-07,9.017096573691405e-07,6.323540343555655e-06,3.249733749165027e-05,3.0062185506413444e-06,3.895580180486311e-06,1.5689821371628923e-06,8.138122670487014e-07,6.510830374404313e-07,1.3905091291798486e-06
16,2.168405729782148e-06,2.5781847009704043e-06,1.4479372895685103e-06,1.2439496879681116e-05,7.94628549186033e-07,7.612731445037814e-07,6.458539833498428e-07,9.269203775984184e-07,6.271519476676748e-06,3.411311916675964e-05,3.0280795237131312e-06,3.822755468937315e-06,1.5625077048648694e-06,8.26846297223239e-07,6.721894590792869e-07,1.446855107184835e-06
17,2.416762369687117e-06,2.595667648147514e-06,1.467902854939048e-06,1.22069770487072e-05,8.235446898237953e-07,7.905011913940039e-07,6.610234847463694e-07,9.528084439399643e-07,6.192182566076157e-06,3.567041254171202e-05,3.0378664587825736e-06,3.730216476458701e-06,1.548924849447992e-06,8.386224239570752e-07,6.923949323459209e-07,1.5025959979291812e-06
18,2.6883809220173087e-06,2.6002937038958386e-06,1.4835576396328262e-06,1.19135650889126e-05,8.507998924205995e-07,8.171087609579159e-07,6.7461415653047e-07,9.799989808064828e-07,6.091914019084423e-06,3.7160346812877594e-05,3.0349021143190657e-06,3.6211116336079593e-06,1.529983966298756e-06,8.49452908165787e-07,7.11936282075992e-07,1.5583315760064298e-06
19,2.9838158823895644e-06,2.5933377943308586e-06,1.4951197591689188e-06,1.1570162814135517e-05,8.762702042007578e-07,8.410790485371665e-07,6.869493894996216e-07,1.0090874090429759e-06,5.976873351754674e-06,3.857368455462062e-05,3.0182289348180635e-06,3.4985669249562635e-06,1.5073496477872518e-06,8.597887170676637e-07,7.311724701992086e-07,1.614460568837493e-06
20,3.3035031018044513e-06,2.576711580027356e-06,1.5026371023795734e-06,1.1189623165703709e-05,8.999238416177615e-07,8.623756954791659e-07,6.98442477211919e-07,1.0406576737476797e-06,5.852358733825779e-06,3.99041597180211e-05,2.986773567871118e-06,3.365705003492844e-06,1.4824992358323592e-06,8.701415894946514e-07,7.505039852116693e-07,1.6711695575523453e-06
21,3.647974644109292e-06,2.552822779535519e-06,1.5061596064073207e-06,1.0785716057801789e-05,9.218754566214728e-07,8.809437775729469e-07,7.095158261655424e-07,1.0752316864389677e-06,5.722491259570545e-06,4.1149725978576525e-05,2.939895209900616e-06,3.2257664748857074e-06,1.456686764048354e-06,8.809707168519567e-07,7.703124077322655e-07,1.728434228408607e-06
22,4.017905812236892e-06,2.5242092439305848e-06,1.505914281495923e-06,1.0371966794098198e-05,9.423467837585823e-07,8.96726699038195e-07,7.20504312392137e-07,1.1131763554843816e-06,5.590297677632148e-06,4.2312080207047144e-05,2.8780420776838638e-06,3.0821507588609427e-06,1.4309400558391385e-06,8.926324859280483e-07,7.909603810569151e-07,1.7859718867821164e-06
23,4.413867627660366e-06,2.4931757299041954e-06,1.5024055337234858e-06,9.960659581970768e-06,9.615488254315148e-07,9.09637721751775e-07,7.316086825423093e-07,1.1546545227500592e-06,5.4578861275393966e-06,4.339563905905286e-05,2.8028806683352917e-06,2.938229153145078e-06,1.4060791041638414e-06,9.054046424723366e-07,8.12779677838699e-07,1.8431836035245422e-06
24,4.835966882214174e-06,2.4616027069131656e-06,1.4964169877884827e-06,9.562269827988667e-06,9.796103773940496e-07,9.195771051522095e-07,7.42895502912531e-07,1.1996219359969008e-06,5.326485879357306e-06,4.440582197116117e-05,2.7167623533361235e-06,2.79714778220304e-06,1.3827464230696145e-06,9.195149694720338e-07,8.360313878325413e-07,1.8991619124848134e-06
25,5.283681852014904e-06,2.430914449576815e-06,1.488914395971838e-06,9.185451546296716e-06,9.966258797038423e-07,9.265587500995519e-07,7.543296204422486e-07,1.2478245678609662e-06,5.196535634675463e-06,4.534599750608957e-05,2.6221206128549553e-06,2.661806410196976e-06,1.3614509874648415e-06,9.351333265766618e-07,8.609018080345211e-07,1.952786849413575e-06
26,5.755929797620975e-06,2.4021349917563e-06,1.4808757219694116e-06,8.837350693185122e-06,1.0127417829373042e-06,9.308115419672187e-07,7.658141528853063e-07,1.298802697445016e-06,5.068081278512369e-06,4.621379671663163e-05,2.521306838264104e-06,2.534811800918065e-06,1.3425945341920733e-06,9.523468515898055e-07,8.875139763478233e-07,2.002888173370722e-06
27,6.2511250955889634e-06,2.3760346936235778e-06,1.473164005405049e-06,8.523878232830114e-06,1.02818204126051e-06,9.327181242503268e-07,7.772142786746063e-07,1.3519354437961562e-06,4.941255329052206e-06,4.699887855273297e-05,2.4166797796643526e-06,2.4183197462715957e-06,1.326428067551441e-06,9.711371522213176e-07,9.159061809792685e-07,2.0484188082649843e-06
28,6.76704669430191e-06,2.353346712033187e-06,1.4665428759735158e-06,8.24981857941927e-06,1.043218555778454e-06,9.326694148100188e-07,7.884144717756956e-07,1.4065466556173296e-06,4.8164608593353005e-06,4.7683655424153675e-05,2.310579677062213e-06,2.3139729338031166e-06,1.3129812500800594e-06,9.913651811746677e-07,9.460073765311371e-07,2.0886104859667357e-06
29,7.300685702119521e-06,2.334927288805486e-06,1.4617425987492888e-06,8.018868321345506e-06,1.0581290777358785e-06,9.309896957760864e-07,7.994209337113343e-07,1.4620658217617286e-06,4.694267365720415e-06,4.824647886087279e-05,2.205149843841404e-06,2.2229679165690077e-06,1.302057910028982e-06,1.012756536771042e-06,9.77640723333018e-07,2.123102890911262e-06
30,7.848357961303094e-06,2.321727031631834e-06,1.459432229159209e-06,7.833701640831166e-06,1.0731425207423327e-06,9.279455288419762e-07,8.103933190575232e-07,1.5181613115426735e-06,4.57527838632059e-06,4.866578310051249e-05,2.102158475169211e-06,2.146087063758602e-06,1.2933320028902833e-06,1.0349007214524458e-06,1.0105362345154408e-06,2.1519731399504904e-06
31,8.405889866206582e-06,2.3146016575686926e-06,1.4601322638693656e-06,7.69607529678544e-06,1.0883818015564039e-06,9.237610650282328e-07,8.215838451064878e-07,1.5747169487988732e-06,4.460119366860118e-06,4.8924179701646455e-05,2.002923188021969e-06,2.0836595149132607e-06,1.286498012182956e-06,1.0573324259608661e-06,1.0443589236139054e-06,2.175612017553831e-06
32,8.968460102981237e-06,2.3142009983166525e-06,1.4641671539842595e-06,7.606926627792612e-06,1.10386649846738e-06,9.186135102211276e-07,8.33295787797366e-07,1.6316481362608382e-06,4.349410325717233e-06,4.901192510548042e-05,1.9083400944357163e-06,2.0355453751759607e-06,1.281359670074964e-06,1.0796646065848135e-06,1.0787604559148921e-06,2.19452610796657e-06
33,9.530331475680582e-06,2.3210761202616733e-06,1.4716533352594376e-06,7.566407798333226e-06,1.1195866799021525e-06,9.126305785584458e-07,8.458675522854651e-07,1.6887375668863447e-06,4.2435556235393296e-06,4.8929023001528964e-05,1.8189896229312373e-06,2.0011890756517744e-06,1.27778149088841e-06,1.1016080702092983e-06,1.113393547999168e-06,2.20919609570861e-06
34,1.0085176795998537e-05,2.3357963137037643e-06,1.4824891127050835e-06,7.573843663030222e-06,1.1355422072145935e-06,9.05887710434497e-07,8.596183085304379e-07,1.7456149423058306e-06,4.142533847701241e-06,4.8685178451967815e-05,1.7352701178669959e-06,1.9797171709972404e-06,1.2755849458231441e-06,1.1228443725504495e-06,1.147877801184698e-06,2.2200339186036164e-06
35,1.0627183608886758e-05,2.3588619978986677e-06,1.4963453456522283e-06,7.62762821534328e-06,1.1516810016004377e-06,8.983863543691215e-07,8.747805529614391e-07,1.8017843426444125e-06,4.04597111776679e-06,4.8297349467783564e-05,1.6574582868668447e-06,1.9700056232580773e-06,1.2745615999782468e-06,1.1429058194074437e-06,1.1817806588508615e-06,2.227367235070276e-06
36,1.1152476397624673e-05,2.39050713298998e-06,1.5126844312914313e-06,7.725062013257559e-06,1.1678113206216536e-06,8.900307893237361e-07,8.914724157585752e-07,1.8565986330681914e-06,3.95339076240728e-06,4.778527470130901e-05,1.5856436911244108e-06,1.970654528787287e-06,1.2746097748953976e-06,1.1611904150265137e-06,1.2145953274061913e-06,2.2313854559237447e-06
37,1.1660333410555515e-05,2.4305694641175557e-06,1.5308283689572633e-06,7.862267439774386e-06,1.183570008202229e-06,8.806384180064983e-07,9.097095556096641e-07,1.9092395173499677e-06,3.864300289562047e-06,4.716624052904265e-05,1.5196475409479539e-06,1.9799598908501086e-06,1.2757863090609662e-06,1.1771294405676734e-06,1.2456737555798046e-06,2.2320665904819223e-06
38,1.2153884808262647e-05,2.478474850808618e-06,1.5500364061057247e-06,8.034454022069015e-06,1.19847389014006e-06,8.700137401082864e-07,9.294206669763385e-07,1.9587597993774232e-06,3.7780242875909433e-06,4.6451954408734566e-05,1.4591026888919324e-06,1.9960173788678756e-06,1.2782260179444548e-06,1.1904173304070834e-06,1.2741903675514008e-06,2.2291143989219233e-06
39,1.2640118820893867e-05,2.5333168404060075e-06,1.5695704907996627e-06,8.236519004569097e-06,1.212061820325187e-06,8.580741309437738e-07,9.504408825678827e-07,2.0041492067423862e-06,3.693498336702337e-06,4.564969032938785e-05,1.4036869894650852e-06,2.016946050555519e-06,1.2820883193239518e-06,1.2011188616942574e-06,1.2992412747208223e-06,2.221943906126492e-06
40,1.3129023891964732e-05,2.5939678255791534e-06,1.5887749018807072e-06,8.463582898512859e-06,1.2240615265124965e-06,8.449278945385413e-07,9.725243660212657e-07,2.0444058625691203e-06,3.609205879441635e-06,4.4765726064239814e-05,1.3533019188585496e-06,2.041124278767468e-06,1.2875361593021584e-06,1.209544259881545e-06,1.3200382918298663e-06,2.2097950370668018e-06
41,1.3631875351797378e-05,2.6590982216149043e-06,1.6071595061187056e-06,8.71110794142651e-06,1.2344654376264328e-06,8.308315343990793e-07,9.954386680642501e-07,2.0786393755210325e-06,3.5232665842940027e-06,4.3807244581325864e-05,1.3080663900587e-06,2.067312083440064e-06,1.294666281890302e-06,1.2160237117701497e-06,1.336003009157709e-06,2.19197616768049e-06
42,1.4159410052690114e-05,2.7270955758613947e-06,1.6244482319781033e-06,8.974499978179388e-06,1.2434736522816363e-06,8.160792034883418e-07,1.0191020069917343e-06,2.1061721318738416e-06,3.433700871016297e-06,4.278160105031474e-05,1.2681768202050785e-06,2.094558402796679e-06,1.3034361148037231e-06,1.2207885099927903e-06,1.346697474877895e-06,2.1681213334506806e-06
43,1.4721073644544181e-05,2.7960841710804174e-06,1.6405744269360404e-06,9.248375352082647e-06,1.2513797754789251e-06,8.009352451800012e-07,1.043654827122889e-06,2.126551137607247e-06,3.3389853303000666e-06,4.169457689877344e-05,1.2337366050592106e-06,2.121958424043139e-06,1.313629354721602e-06,1.2239914084862588e-06,1.3518060638798845e-06,2.1383497437123836e-06
44,1.5325550551905924e-05,2.8641893035042797e-06,1.6556248094622023e-06,9.526022327460344e-06,1.2585072662392671e-06,7.856684075751475e-07,1.0694211198446337e-06,2.1394300912993294e-06,3.2387110490621106e-06,4.05493180950482e-05,1.2046325035831412e-06,2.1485342788731846e-06,1.3248259134396741e-06,1.225757152451201e-06,1.3512698475062287e-06,2.1032747221174837e-06
45,1.598155276106688e-05,2.9299166212134677e-06,1.6697390322135599e-06,9.79944492336319e-06,1.2652040357431589e-06,7.706368204875717e-07,1.0968062481984632e-06,2.144370543760609e-06,3.133717898566508e-06,3.9346516327950114e-05,1.180481120675805e-06,2.1733833399425703e-06,1.3363714319497116e-06,1.2262003746561072e-06,1.345346987348197e-06,2.063863307188521e-06
46,1.6698004403183024e-05,2.9924066126107656e-06,1.6829762565549975e-06,1.0059602117847668e-05,1.2718090916993526e-06,7.563408493926302e-07,1.126198898940725e-06,2.1406964394244334e-06,3.025510040506597e-06,3.808574708532945e-05,1.1606261852099227e-06,2.195845111293996e-06,1.3474097105939093e-06,1.2254343141273416e-06,1.3344697484037483e-06,2.0212402782690304e-06
47,1.7483550602206544e-05,3.0514263764689984e-06,1.6952018857757643e-06,1.0296364524395767e-05,1.2785645069614158e-06,7.43416986533498e-07,1.1578968328363469e-06,2.1275720256022826e-06,2.915579279022508e-06,3.676759426167356e-05,1.144193129469256e-06,2.2154433413197583e-06,1.3570232655170144e-06,1.2235835178480545e-06,1.319108564286509e-06,1.9765722768349022e-06
48,1.834560926203054e-05,3.107110762630465e-06,1.7060699624049634e-06,1.049881645990116e-05,1.2855622053758269e-06,7.325776186077218e-07,1.1920408252410886e-06,2.104340820315282e-06,2.805182191478479e-06,3.5395695542756903e-05,1.1302225476252039e-06,2.2317474126718307e-06,1.3644284329807564e-06,1.2208262595352199e-06,1.2998118755755634e-06,1.9310510378506076e-06
49,1.9289214708388887e-05,3.159582804409442e-06,1.7150896062855256e-06,1.065673897223706e-05,1.2927786114207557e-06,7.24526673866487e-07,1.228563754948198e-06,2.0709235647880954e-06,2.6954579214145705e-06,3.397774326523174e-05,1.117826866157498e-06,2.24435247174168e-06,1.3691238321347202e-06,1.2174525586321297e-06,1.2773025546848918e-06,1.8858810217303272e-06
50,2.031594161477759e-05,3.208604509473062e-06,1.7216853505678623e-06,1.076259283769878e-05,1.3001193621740286e-06,7.199030667129157e-07,1.2671784571837812e-06,2.028002204682205e-06,2.5875031777466928e-06,3.252501796679397e-05,1.1062608195415124e-06,2.252890499359524e-06,1.3709190389963304e-06,1.213824029832772e-06,1.2524946872085005e-06,1.842217713354277e-06
51,2.1423102131192163e-05,3.2533496218516744e-06,1.725225350016348e-06,1.081248654101297e-05,1.3074005033024884e-06,7.192557506468275e-07,1.307418457300716e-06,1.9768969694814315e-06,2.4822404274602687e-06,3.10503893943898e-05,1.094870727890137e-06,2.2569612161048416e-06,1.369821048259205e-06,1.2102681035267328e-06,1.2264307554758533e-06,1.8010756702580133e-06
52,2.2603202911050104e-05,3.2923192345576923e-06,1.725077988061889e-06,1.0805424054764967e-05,1.3143037080809966e-06,7.230158582800592e-07,1.3487082980147927e-06,1.919250539346982e-06,2.3802109137662385e-06,2.9565334892077898e-05,1.083011838755514e-06,2.256125613655776e-06,1.3658437191874818e-06,1.2070801226365852e-06,1.200168913748683e-06,1.763252788335527e-06
53,2.3843551753622265e-05,3.323398538171607e-06,1.7207154572518908e-06,1.0741428356820825e-05,1.3203885145179593e-06,7.314656971173383e-07,1.3903841652833888e-06,1.8567000625154974e-06,2.2815104399227377e-06,2.807796651932859e-05,1.0700748027257726e-06,2.2501014749040665e-06,1.35889343423532e-06,1.2046400700204187e-06,1.174683241007958e-06,1.72930342251762e-06
54,2.5125936105467482e-05,3.344100150462002e-06,1.7117827981568065e-06,1.0620136216842065e-05,1.32518667296557e-06,7.447240182531156e-07,1.4316409379835272e-06,1.7906937656709062e-06,2.1859462104703085e-06,2.6593698724752995e-05,1.0556503316094388e-06,2.238996136482711e-06,1.3488471481632292e-06,1.2035194835835738e-06,1.1508236785283001e-06,1.6995434358368915e-06
55,2.6426378824004362e-05,3.352022655140773e-06,1.698064314323704e-06,1.0441025077879049e-05,1.3283107133958654e-06,7.627559982421934e-07,1.4715152636651134e-06,1.722502876446651e-06,2.0932962693631953e-06,2.5117466866057228e-05,1.0396781164304895e-06,2.2233034302505866e-06,1.3357456337864576e-06,1.204508311365217e-06,1.1292849386239951e-06,1.6741063467663977e-06
56,2.7715268252946225e-05,3.345419771633374e-06,1.6793981054439786e-06,1.0204758895575297e-05,1.3294886048820958e-06,7.854062289671069e-07,1.5089984063092642e-06,1.6533121232797186e-06,2.0035019125507617e-06,2.365546380628168e-05,1.0224193225125686e-06,2.2037016719849206e-06,1.3198858640381633e-06,1.2085373263914974e-06,1.1105575346695566e-06,1.6530922364478218e-06
57,2.8958715168517546e-05,3.3237086718085716e-06,1.6556415220506711e-06,9.914416491463192e-06,1.3285206033531833e-06,8.12432490295921e-07,1.5432360018912192e-06,1.5842457621600062e-06,1.916737560590903e-06,2.2215788722939143e-05,1.0042889893859265e-06,2.18098860631508e-06,1.3017091603441577e-06,1.2165149134860098e-06,1.0949193412675485e-06,1.63670066072036e-06
58,3.0122219347429577e-05,3.287774960922469e-06,1.6267330447762824e-06,9.575986416328325e-06,1.3252275071838101e-06,8.435119611346155e-07,1.5737114305994867e-06,1.5163168383370942e-06,1.8333914860120826e-06,2.0808242614576898e-05,9.857040975616952e-07,2.156256624691536e-06,1.2815972237025045e-06,1.2291733946965714e-06,1.0825032379341835e-06,1.6251908201828461e-06
59,3.117647801804877e-05,3.2399406661450675e-06,1.5928186202182e-06,9.198177574751165e-06,1.319438232224073e-06,8.782228179685678e-07,1.6003255405144104e-06,1.4503598229380154e-06,1.7539852777882822e-06,1.944349539032401e-05,9.670007124646283e-07,2.131001439910862e-06,1.2597471460415869e-06,1.2470054275865334e-06,1.0733846093548718e-06,1.6187192223055749e-06
60,3.210255126088889e-05,3.1835337930041265e-06,1.5543505308466736e-06,8.791839746744922e-06,1.3110080751929486e-06,9.160350660729112e-07,1.6233181380254533e-06,1.3869762535345584e-06,1.6790926477190813e-06,1.813197823386195e-05,9.48392066405657e-07,2.1069533285460068e-06,1.2361942057769011e-06,1.270268177951096e-06,1.0676024621745877e-06,1.6172498963817975e-06
61,3.289222679956354e-05,3.1222268059583823e-06,1.5120533059514442e-06,8.369221461251045e-06,1.2998176225962616e-06,9.563175432003627e-07,1.6430512112509148e-06,1.3265048278406132e-06,1.6093389633050316e-06,1.6882980289583654e-05,9.299735570333373e-07,2.085794194148237e-06,1.2109178628577538e-06,1.2989917916206799e-06,1.0651187140071776e-06,1.6206128787390751e-06
62,3.354327626456598e-05,3.0595022454612066e-06,1.4667491063693158e-06,7.943121277365112e-06,1.2857326433803326e-06,9.983305743171933e-07,1.6597681695061981e-06,1.2690564106444234e-06,1.5454335911590644e-06,1.5704209014270156e-05,9.117843509906235e-07,2.0690054875904397e-06,1.183907947998735e-06,1.3329748901184948e-06,1.0657954436247737e-06,1.6285995494638445e-06
63,3.405592350635037e-05,2.998460742516764e-06,1.4191891161840245e-06,7.525990491932011e-06,1.268613874967322e-06,1.041222348102287e-06,1.673480359467612e-06,1.2146155908827337e-06,1.4881185572749762e-06,1.460159607737633e-05,8.939003565861254e-07,2.057874677151346e-06,1.1551731134458144e-06,1.371801883154183e-06,1.0694178662718053e-06,1.6409699444591472e-06
64,3.44345600984716e-05,2.941816615319486e-06,1.3700334691764098e-06,7.129208178282354e-06,1.2484209836961747e-06,1.0840787899278557e-06,1.6840521636904243e-06,1.1631085155197002e-06,1.4380744847144122e-06,1.3578993306206809e-05,8.764952407610812e-07,2.0535191356192497e-06,1.1247853185720447e-06,1.414925337115807e-06,1.075742824536786e-06,1.657383390977741e-06
65,3.468988559611032e-05,2.8918298335412677e-06,1.3199488593069645e-06,6.762737350447462e-06,1.2253043510329618e-06,1.1259910050600273e-06,1.6913782124366815e-06,1.11439268434112e-06,1.3958879326075493e-06,1.2637992354252727e-05,8.59843304730469e-07,2.056845487475746e-06,1.0929525488412763e-06,1.4617692570123907e-06,1.0845819121247766e-06,1.6773805904830895e-06
66,3.483682665158024e-05,2.850170567367201e-06,1.2696916253413059e-06,6.4350848651411894e-06,1.1996469363864782e-06,1.1660678838915998e-06,1.6954456400451967e-06,1.0682815912898623e-06,1.3620486198170074e-06,1.1778308191428862e-05,8.443258169436158e-07,2.0684804870832682e-06,1.0600173937695863e-06,1.5117356425044888e-06,1.0958974141179854e-06,1.700492182010168e-06
67,3.48900725173268e-05,2.817842031340348e-06,1.2200836375857299e-06,6.153330516371456e-06,1.1721153760748382e-06,1.2034378603927542e-06,1.6962115870917296e-06,1.0246783939564433e-06,1.3369305647906254e-06,1.0998391456872714e-05,8.304515394437749e-07,2.0887702721507197e-06,1.0263888627887154e-06,1.564165453094292e-06,1.1098100934220471e-06,1.7263431723509884e-06
68,3.486129665275767e-05,2.795180714905829e-06,1.1718984568159056e-06,5.92317011416598e-06,1.1436745164931486e-06,1.2373449272362106e-06,1.6934486724871008e-06,9.837161483048018e-07,1.3207874889696522e-06,1.0295682557187888e-05,8.188109050707975e-07,2.117955264891344e-06,9.924756615899302e-07,1.6184240735257633e-06,1.1264735071142773e-06,1.7546017455900677e-06
69,3.4759755859264214e-05,2.7818983486892175e-06,1.1257610803929932e-06,5.749072025283975e-06,1.1154756079337275e-06,1.267296370162912e-06,1.6867176874619891e-06,9.4575737242746e-07,1.3137582563438742e-06,9.666592098750192e-06,8.099616405938812e-07,2.1564557078408813e-06,9.586335506130439e-07,1.6740381567934544e-06,1.1459187450419868e-06,1.78487509456204e-06
70,3.459392219485537e-05,2.777200505223508e-06,1.0821107557697392e-06,5.634515878103687e-06,1.088658063961517e-06,1.293114834229561e-06,1.6754547065271951e-06,9.11237050664802e-07,1.3158436505490456e-06,9.106635524181175e-06,8.043439298503667e-07,2.20497774991512e-06,9.251555386482288e-07,1.73066803408462e-06,1.1679849607901402e-06,1.816715263171443e-06
71,3.4371186523633656e-05,2.7800242402560317e-06,1.0411906750348552e-06,5.5821241400445355e-06,1.0641921713453633e-06,1.3148671551873479e-06,1.659101298131747e-06,8.804885689416883e-07,1.3268556175324013e-06,8.610856725297696e-06,8.022703785080756e-07,2.264307518153773e-06,8.923132840609976e-07,1.787911255205481e-06,1.1923191631454148e-06,1.8497031112603036e-06
72,3.409668164779712e-05,2.7892961664313282e-06,1.0030404692167878e-06,5.593581501676283e-06,1.0428218315949692e-06,1.3327335256778162e-06,1.637277801159398e-06,8.536786853026011e-07,1.3463709484684554e-06,8.174326130245453e-06,8.039544294977552e-07,2.335045279983445e-06,8.603872263455469e-07,1.8451074709716208e-06,1.2183786795954645e-06,1.8835453077601659e-06
73,3.377451629655955e-05,2.8039993608798326e-06,9.674985066500977e-07,5.669431112879562e-06,1.0250638808342512e-06,1.3468623460062134e-06,1.6099822241405403e-06,8.308309245513904e-07,1.373724434218476e-06,7.792485942714117e-06,8.095376167361949e-07,2.4175155891597392e-06,8.296940115891662e-07,1.9012821964217863e-06,1.2454533141019188e-06,1.918186999974933e-06
74,3.341165621094311e-05,2.822998463524068e-06,9.342240872633422e-07,5.80890669667919e-06,1.0112156999510463e-06,1.3573069585887378e-06,1.5776869785897458e-06,8.118848432482903e-07,1.4080523148368427e-06,7.461304187226556e-06,8.19091583238031e-07,2.511764473925841e-06,8.006275262671736e-07,1.9552691740329076e-06,1.2727670403865403e-06,1.9538830176069437e-06
75,3.3021151973982885e-05,2.8448406801675656e-06,9.027274779835141e-07,6.0098814765025345e-06,1.0013675392439668e-06,1.364119218107328e-06,1.5412266148120144e-06,7.96768743591808e-07,1.44834212726468e-06,7.1772409854482045e-06,8.325849189129024e-07,2.6175050380687094e-06,7.736357111309513e-07,2.005931837089764e-06,1.2996391193735554e-06,1.9911368886466587e-06
76,3.262197500817875e-05,2.8676858712976615e-06,8.723724942600198e-07,6.268893924635333e-06,9.954216295296175e-07,1.3674993304667394e-06,1.5015737857778255e-06,7.854198212934625e-07,1.4934666232252317e-06,6.936966398244338e-06,8.498414719083466e-07,2.734059568645316e-06,7.491477493423094e-07,2.052316482858954e-06,1.3255985252716489e-06,2.030513017566502e-06
77,3.2235510399754523e-05,2.889339156716983e-06,8.423706384162448e-07,6.5811537623106565e-06,9.931026416524075e-07,1.3678577370072582e-06,1.4597085577367008e-06,7.777286548757129e-07,1.542256884805023e-06,6.736858697606037e-06,8.705375865734125e-07,2.860368300222904e-06,7.275310432963634e-07,2.093653180804453e-06,1.3503730297841983e-06,2.0724218262286206e-06
78,3.188109015902937e-05,2.907450878846979e-06,8.11869567902026e-07,6.9404961900034405e-06,9.93947246814224e-07,1.3657615079850734e-06,1.4166214820247921e-06,7.734823286931226e-07,1.5935913498862262e-06,6.572586663592964e-06,8.942550249935851e-07,2.9949915109199998e-06,7.090602016377507e-07,2.1292499546647303e-06,1.3737775258804928e-06,2.1169670234017542e-06
79,3.157338421726355e-05,2.9199615822601575e-06,7.801903631490944e-07,7.3393900836956505e-06,9.972845106135338e-07,1.3618186931612124e-06,1.3733073799499288e-06,7.723666535936341e-07,1.64641425304268e-06,6.439155475621413e-06,9.205588966836827e-07,3.1360162834971694e-06,6.938863523365212e-07,2.1583543319187063e-06,1.3955811989645065e-06,2.1638562090792006e-06
80,3.132219802113221e-05,2.9256411134288015e-06,7.470875150677518e-07,7.769202143596327e-06,1.0022339969187326e-06,1.356570549342343e-06,1.3306790496631622e-06,7.740243996900869e-07,1.6997759824626654e-06,6.331323544041129e-06,9.490558809682348e-07,3.2809458238944762e-06,6.820386783361203e-07,2.1801270799494055e-06,1.4154314031346201e-06,2.2123388140150462e-06
81,3.1133124026421886e-05,2.924437526644842e-06,7.128226683836819e-07,8.220911376320482e-06,1.0077436234587739e-06,1.350435643083353e-06,1.2894947653888606e-06,7.78108552533662e-07,1.7530326234469181e-06,6.2438681249512905e-06,9.794186118112392e-07,3.426736483505774e-06,6.734554352215459e-07,2.1938473947447523e-06,1.43289968088905e-06,2.2611908964857464e-06
82,3.10080205136527e-05,2.9174323011961715e-06,6.779999002548163e-07,8.686333794859321e-06,1.0126763313791115e-06,1.343709863125422e-06,1.2503561881810959e-06,7.842760269252761e-07,1.8060814940657799e-06,6.171490948190859e-06,1.0113950371609099e-06,3.5700773325524373e-06,6.680201309696975e-07,2.19918745757786e-06,1.4476132795973479e-06,2.308799477692824e-06
83,3.09453511354324e-05,2.9064027079945878e-06,6.433235547065347e-07,9.159596202536207e-06,1.0159420774557723e-06,1.3366007816521343e-06,1.21370495816707e-06,7.921765993793695e-07,1.8593877543209414e-06,6.108685868381798e-06,1.0447998747940545e-06,3.7078460630019315e-06,6.6557578458253e-07,2.196308176811362e-06,1.4593165802663495e-06,2.3533620267547685e-06
84,3.094039978810217e-05,2.893234877497964e-06,6.09448851392302e-07,9.638219067194703e-06,1.0166543066530766e-06,1.3292596667037179e-06,1.1797799135263092e-06,8.01518297173236e-07,1.913752432478057e-06,6.049909590069336e-06,1.079455736541297e-06,3.837433462367618e-06,6.65910592562253e-07,2.1858016060119262e-06,1.46782677509978e-06,2.393174860148013e-06
85,3.098517202982505e-05,2.8795570586140584e-06,5.769485777855229e-07,1.0123185589547116e-05,1.0142592239021906e-06,1.3217911701634275e-06,1.1486002632432404e-06,8.121662605665497e-07,1.9699816381171763e-06,5.99006107947124e-06,1.1151142302093631e-06,3.95661955249653e-06,6.68735410663552e-07,2.168615857922997e-06,1.4730340629939515e-06,2.4269346778454794e-06
86,3.106789326060557e-05,2.866691922337124e-06,5.463614898625004e-07,1.0617942402361731e-05,1.0085721399454766e-06,1.3142534605943577e-06,1.1200196700026803e-06,8.241795811979403e-07,2.0286339328248074e-06,5.925024609319346e-06,1.1514365112596811e-06,4.06314795670518e-06,6.736700713323462e-07,2.145934490733796e-06,1.4749701932409384e-06,2.4539163813743076e-06
87,3.117216305919703e-05,2.8556601023621476e-06,5.182898021436467e-07,1.1126828517096667e-05,9.996954714789454e-07,1.3066479576060414e-06,1.0937977148134311e-06,8.377600760732469e-07,2.0899323356644514e-06,5.852038806051561e-06,1.1880223971286068e-06,4.154549245033131e-06,6.802574297333514e-07,2.1189645496292146e-06,1.4737959551886743e-06,2.47394728564819e-06
88,3.127610841388637e-05,2.8471236980823867e-06,4.934542203885229e-07,1.1653574169488145e-05,9.878612994854632e-07,1.2988805139779422e-06,1.069618391030318e-06,8.531527063238421e-07,2.153835187613646e-06,5.769862706266245e-06,1.2244175214010631e-06,4.2284719925613375e-06,6.880028569726455e-07,2.0887157176798737e-06,1.4697055243206268e-06,2.4872639041063113e-06
89,3.13526214409661e-05,2.8413804666968677e-06,4.726530752660487e-07,1.22005258797325e-05,9.732960923883613e-07,1.2907132928185389e-06,1.0470909697426246e-06,8.705881593520719e-07,2.2201699585591243e-06,5.678847036836564e-06,1.2601184434918923e-06,4.2832061571769834e-06,6.964275215532294e-07,2.055866314422523e-06,1.4628972363694585e-06,2.4943842648540306e-06
90,3.13718839446973e-05,2.838359311393553e-06,4.5669804085036326e-07,1.2768974835248454e-05,9.562038551084483e-07,1.2817409843547147e-06,1.0258383593943585e-06,8.90325541100555e-07,2.2887132495085e-06,5.580858600415239e-06,1.2946316807909227e-06,4.318029419059683e-06,7.051625729423967e-07,2.0207742167663055e-06,1.4536375345104178e-06,2.496046246132662e-06
91,3.130574102124578e-05,2.8375678939271005e-06,4.463882954181169e-07,1.3360144827189325e-05,9.368545985639342e-07,1.2714176269932014e-06,1.005650775616422e-06,9.127163759362803e-07,2.359211290651047e-06,5.478857476165952e-06,1.32751222148585e-06,4.333262231395408e-06,7.140549916792458e-07,1.983620442368555e-06,1.4422827165148117e-06,2.493202620730799e-06
92,3.1131911247434725e-05,2.8381032389601657e-06,4.4252075561384807e-07,1.3975993416659468e-05,9.156563595966781e-07,1.2591961355541732e-06,9.865347660661667e-07,9.381876340365171e-07,2.4314018372071283e-06,5.3761567156418385e-06,1.3582872405752312e-06,4.330001365955935e-06,7.231766736286593e-07,1.9445328341312495e-06,1.4291792465946774e-06,2.4869720167794514e-06
93,3.083611410581375e-05,2.838760331277702e-06,4.4593261103855436e-07,1.461953075653717e-05,8.931327943064057e-07,1.2447872019668351e-06,9.68599570892247e-07,9.671585195618037e-07,2.505012013726794e-06,5.2756710007387525e-06,1.3863517214268555e-06,4.309621181890556e-06,7.327232677425602e-07,1.90358261460881e-06,1.4145644899064043e-06,2.4784311963990863e-06
94,3.0410904246864755e-05,2.83819821686706e-06,4.575407134005707e-07,1.529485435287576e-05,8.698297095888278e-07,1.2283829418974297e-06,9.519214063869516e-07,9.999517904559013e-07,2.5796823675779883e-06,5.17944539045052e-06,1.4109721023017542e-06,4.27330036119564e-06,7.429237854424929e-07,1.8607687328927426e-06,1.3986080776376174e-06,2.4683710853424995e-06
95,2.985172860490301e-05,2.8351750935301488e-06,4.783246435196904e-07,1.6007021997187103e-05,8.462140458870902e-07,1.2106735741403383e-06,9.364989207318103e-07,1.0367293245415347e-06,2.6548753791094023e-06,5.088637750236628e-06,1.4314084144984014e-06,4.22172255421646e-06,7.540196419453526e-07,1.816100688110806e-06,1.3815475593489946e-06,2.457224876717949e-06
96,2.915388128339546e-05,2.828823659105275e-06,5.092605479459288e-07,1.676177579752664e-05,8.226236430125497e-07,1.1926479703988729e-06,9.222803688160495e-07,1.0774642717711004e-06,2.7298500310269505e-06,5.003970681233565e-06,1.4470898074851678e-06,4.154958249592089e-06,7.662411942330124e-07,1.7696910515066515e-06,1.3637857636845768e-06,2.4451233788270387e-06
97,2.8313894996095205e-05,2.8188529311246136e-06,5.512561594811377e-07,1.7565170115982033e-05,7.992749536391161e-07,1.175319302465534e-06,9.092287774461269e-07,1.1219333615589043e-06,2.8036540076766146e-06,4.926394621205086e-06,1.4577527909307684e-06,4.0726577404551265e-06,7.797711063230909e-07,1.7217364301606976e-06,1.3458676429906318e-06,2.4319011021870036e-06
98,2.733392809190553e-05,2.805600567901181e-06,6.051273309324334e-07,1.842314651423403e-05,7.762801263711546e-07,1.15953508773419e-06,8.974065672061675e-07,1.1696955851462048e-06,2.8750478509122995e-06,4.857538894325685e-06,1.4634477449908547e-06,3.974642311951941e-06,7.947467300459368e-07,1.6723945795919183e-06,1.328345824450749e-06,2.417017998724018e-06
99,2.6224955358936046e-05,2.7899524287799714e-06,6.716348978286946e-07,1.9341072393558216e-05,7.53645092225829e-07,1.145925638548275e-06,8.87005917444765e-07,1.2200572977341766e-06,2.9424833427283223e-06,4.799706907142896e-06,1.4643979975263591e-06,3.861595313746828e-06,8.112611320326028e-07,1.621672349767746e-06,1.3116420605098414e-06,2.399542379395678e-06
100,2.500689199864072e-05,2.7731388440872093e-06,7.515611510984217e-07,2.032327611720337e-05,7.312855013871219e-07,1.1349330631783958e-06,8.782720728454758e-07,1.272063231313222e-06,3.0043363430646362e-06,4.755575843843982e-06,1.4608046988777004e-06,3.7353854964361747e-06,8.293184285405551e-07,1.569460304930528e-06,1.2960158237164203e-06,2.3783350817424873e-06
101,2.3706427495811347e-05,2.7564409543155372e-06,8.457648351418986e-07,2.1372585596726297e-05,7.091018557953743e-07,1.1268362216257966e-06,8.714036101367807e-07,1.324584866630677e-06,3.059315364740565e-06,4.727989637118003e-06,1.452739871410864e-06,3.59885927829372e-06,8.487880064490842e-07,1.5157462283828791e-06,1.2816494177291583e-06,2.352363376781522e-06
102,2.235390314652734e-05,2.741045796977817e-06,9.551823376058591e-07,2.248981517161255e-05,6.870672121351809e-07,1.1217465349559076e-06,8.665249149216689e-07,1.3765684152407305e-06,3.106769432236969e-06,4.72004756458215e-06,1.4402372080832136e-06,3.4553385540523022e-06,8.694152859422147e-07,1.4608780649061833e-06,1.2687547542234577e-06,2.320968031373707e-06
103,2.0980207965123294e-05,2.728229361471284e-06,1.0807982521196835e-06,2.3673173406853403e-05,6.652386195263196e-07,1.1196209181610852e-06,8.636960003933754e-07,1.4273633353262353e-06,3.1467270616456217e-06,4.735349472307073e-06,1.4235447950623073e-06,3.3081653661842677e-06,8.908916420632734e-07,1.4056830638658422e-06,1.2575993318767518e-06,2.284006032106016e-06
104,1.961427344561883e-05,2.71959588575568e-06,1.2235925586085264e-06,2.4917689140134435e-05,6.43712303675259e-07,1.1203060702006417e-06,8.629033142819337e-07,1.4768856071981284e-06,3.1796653309499373e-06,4.778142469648032e-06,1.4033215265683338e-06,3.1604469381167072e-06,9.129143903800423e-07,1.3513410097432452e-06,1.2484347742269876e-06,2.241838431307083e-06
105,1.828146689426541e-05,2.717010291206632e-06,1.38445036521573e-06,2.621474135948144e-05,6.226001010617397e-07,1.1235522474771483e-06,8.640451941871994e-07,1.5254696815164918e-06,3.206122791135647e-06,4.8532575690857675e-06,1.3805762399024766e-06,3.0149445523969776e-06,9.351701077880511e-07,1.2991048327376498e-06,1.2413919811340772e-06,2.195155416431217e-06
106,1.7003007942508315e-05,2.7222596177641767e-06,1.564072116849134e-06,2.7551560987878646e-05,6.020064286187278e-07,1.1289783755414185e-06,8.669467997090725e-07,1.5736006473702565e-06,3.2263589559698604e-06,4.9658914719030754e-06,1.356400865931805e-06,2.8739941999647385e-06,9.572662161526635e-07,1.2500783947331628e-06,1.2364322056360614e-06,2.1447678485505287e-06
107,1.5796218709158053e-05,2.7367204962926133e-06,1.762920369289963e-06,2.891090423509124e-05,5.819815901928737e-07,1.136070199763109e-06,8.714224135756809e-07,1.6217998951885688e-06,3.240192384255454e-06,5.121270793908704e-06,1.3317322003215242e-06,2.739421554109317e-06,9.786876963024967e-07,1.2051344370976476e-06,1.2333854558280727e-06,2.091499314440545e-06
108,1.4675106794624721e-05,2.761192259083719e-06,1.981165805435021e-06,3.0272107784719658e-05,5.625264566186412e-07,1.144283301761277e-06,8.77361378423839e-07,1.6706474463821521e-06,3.2469650860151515e-06,5.324252303610019e-06,1.307290469020607e-06,2.6124935170101645e-06,9.988265461904658e-07,1.1648956255618077e-06,1.2319956988608727e-06,2.0361264375554274e-06
109,1.365093027610245e-05,2.7958838716251576e-06,2.2186107064890187e-06,3.161441365147664e-05,5.436782441669574e-07,1.1532135284114505e-06,8.847706574734685e-07,1.7207945909224858e-06,3.245629290777483e-06,5.579170250315409e-06,1.2836371889377556e-06,2.4939237675141586e-06,1.0170520442157993e-06,1.1297389635584846e-06,1.2318977705560362e-06,1.979316047653016e-06
110,1.2732690043714615e-05,2.840498153185765e-06,2.47461689841138e-06,3.292134046251419e-05,5.255797473832712e-07,1.1627064631186062e-06,8.937312086219122e-07,1.7729788388288695e-06,3.2350489987504077e-06,5.890130172059397e-06,1.261218921374329e-06,2.3839071948989618e-06,1.0327336704263382e-06,1.0998350109330762e-06,1.232592404196617e-06,1.921631178742677e-06
111,1.1927511777557354e-05,2.8943463615892824e-06,2.7480537919682664e-06,3.418370437215091e-05,5.084484256509125e-07,1.1728026026657276e-06,9.043178895843906e-07,1.8281010659588657e-06,3.21443209091621e-06,6.261353475192706e-06,1.2403619763530524e-06,2.2822322461914792e-06,1.0452286030033255e-06,1.0751866295331318e-06,1.2335040326132452e-06,1.8635977079379116e-06
112,1.1240816451247024e-05,2.956403040281751e-06,3.0372701934918626e-06,3.539979494396412e-05,4.924839842710837e-07,1.1835656922484293e-06,9.165625309254098e-07,1.8873068935087983e-06,3.1836849088006757e-06,6.697085684983853e-06,1.2212673452362158e-06,2.1885237968570803e-06,1.0539366193275717e-06,1.0556343128607568e-06,1.234054376538438e-06,1.8057390052341123e-06
113,1.0676250631648708e-05,3.02526890744499e-06,3.3400822246339875e-06,3.6572790846223505e-05,4.777982017364338e-07,1.1949484709382108e-06,9.304474134144506e-07,1.9519700340153656e-06,3.1435437028001357e-06,7.201098710298942e-06,1.2040423968737813e-06,2.1024731274434288e-06,1.0583832157597635e-06,1.0408607080948353e-06,1.2336880560355163e-06,1.7485685278962995e-06
114,1.0235480359732227e-05,3.099176343524377e-06,3.653752084544157e-06,3.770651778991036e-05,4.6439709449242244e-07,1.2067690220919964e-06,9.458805262192263e-07,2.023559925791905e-06,3.095434440918521e-06,7.776181759500481e-06,1.1887555859547396e-06,2.023866389413804e-06,1.0582292161417664e-06,1.0304245023063007e-06,1.2319548373862296e-06,1.6926051049504309e-06
115,9.918078668337146e-06,3.1761834363018108e-06,3.974963618006578e-06,3.88012928272324e-05,4.5220871947108797e-07,1.2187592974303594e-06,9.626870529453997e-07,2.103478358343475e-06,3.0411712972461945e-06,8.423960933611795e-06,1.1754477684283158e-06,1.9524690066334967e-06,1.053279732286106e-06,1.0237989627465747e-06,1.2286648083238504e-06,1.638435265817809e-06
116,9.721943371282361e-06,3.2544386512349308e-06,4.299882160963381e-06,3.985235897690368e-05,4.4114746779777414e-07,1.2306497429515769e-06,9.80663941490736e-07,2.192962185519395e-06,2.982657688423162e-06,9.145038889066758e-06,1.1640800944174752e-06,1.8879227955912588e-06,1.0435581469742216e-06,1.0204363264571924e-06,1.223920358843774e-06,1.5867454235228678e-06
117,9.64451173605616e-06,3.332299668921551e-06,4.624386012326747e-06,4.085222646172361e-05,4.311715506950332e-07,1.2422556522309626e-06,9.996590446553575e-07,2.2930493619851723e-06,2.9216181499412097e-06,9.93917007626877e-06,1.1544781641778207e-06,1.8296986027573214e-06,1.0293526947733218e-06,1.0199012779549196e-06,1.2179978624736063e-06,1.5382535113328987e-06
118,9.684090600277732e-06,3.4083131995181616e-06,4.944394086974742e-06,4.179482357894095e-05,4.2227795242360036e-07,1.2534902876324267e-06,1.0196017147139942e-06,2.4045218430086352e-06,2.8593658125537937e-06,1.0805272917149858e-05,1.146316481927618e-06,1.7771854630394497e-06,1.0111712479278212e-06,1.0219784864529303e-06,1.2112875166127792e-06,1.493594820567562e-06
119,9.840106998532048e-06,3.4811910713280297e-06,5.256083161693659e-06,4.2678389500582294e-05,4.144584053109933e-07,1.2642651044495385e-06,1.040455197564302e-06,2.5278075195067434e-06,2.796686774073684e-06,1.1741278834004963e-05,1.139172983698443e-06,1.7299399966192137e-06,9.896290521220006e-07,1.0266349219495879e-06,1.2043279615422651e-06,1.4532441330581209e-06
120,1.0112258402502989e-05,3.5498003582722285e-06,5.5558569814521955e-06,4.3506293509232855e-05,4.0768342687214593e-07,1.2743547049925075e-06,1.0621216702471738e-06,2.66292844533705e-06,2.733879449900873e-06,1.274389171189881e-05,1.1326234601179065e-06,1.6878131063378601e-06,9.65353437740568e-07,1.0338895202109983e-06,1.1977991501312622e-06,1.4174707802645507e-06
121,1.0499998890309235e-05,3.6130429064298277e-06,5.840056296925458e-06,4.428617939519233e-05,4.0192517794817924e-07,1.2833582404399256e-06,1.084371655672779e-06,2.809532606074471e-06,2.6710008187126623e-06,1.3808348409884784e-05,1.1262558713571284e-06,1.650768989566676e-06,9.389719754197767e-07,1.0437053956630557e-06,1.1924721011558934e-06,1.3863081882711933e-06
122,1.1003218423209759e-05,3.6696100631376494e-06,6.104602123349403e-06,4.502737314805944e-05,3.971808782898165e-07,1.2907960892428614e-06,1.1068530144958575e-06,2.966932094985276e-06,2.60832389024956e-06,1.4928208304316228e-05,1.1196015609610832e-06,1.6186511558041354e-06,9.111243322912466e-07,1.055927133079174e-06,1.1891634597279525e-06,1.3595618523718366e-06
123,1.162333673425142e-05,3.717952135493263e-06,6.345082103179966e-06,4.573683554262536e-05,3.934637611572639e-07,1.2962357320113303e-06,1.1291679726018777e-06,3.1340866959211732e-06,2.546725940417905e-06,1.6095103658721215e-05,1.1121249389987562e-06,1.591123323808206e-06,8.824448972797206e-07,1.0702542750696701e-06,1.1886480836238245e-06,1.336880030114171e-06
124,1.2363805284299953e-05,3.756759245924236e-06,6.5575663004896755e-06,4.641540295120212e-05,3.9078354690717976e-07,1.2993077478381737e-06,1.1509597103396069e-06,3.3095647483118064e-06,2.487723842427389e-06,1.7298436489541366e-05,1.1033280591337085e-06,1.5676983868018216e-06,8.535516123703141e-07,1.0862425229743212e-06,1.1915446179244269e-06,1.3178709647400652e-06
125,1.3229721676459386e-05,3.7856597558027906e-06,6.739627319738521e-06,4.70565320194753e-05,3.891544675588799e-07,1.2996198590803914e-06,1.1719338928126585e-06,3.4915180255604127e-06,2.433203292333176e-06,1.852508236215112e-05,1.092891168610252e-06,1.5477699999863497e-06,8.250507717773647e-07,1.1033012972266917e-06,1.1982541998434854e-06,1.302191529769289e-06
126,1.4226640887017867e-05,3.8055710000799835e-06,6.89080305145512e-06,4.7647916144790516e-05,3.886060896918266e-07,1.296741615879313e-06,1.1917909899626131e-06,3.6776416286862936e-06,2.3850481161584202e-06,1.9759028501993607e-05,1.0807212134806724e-06,1.5306903071883265e-06,7.975239908390952e-07,1.120721860101347e-06,1.2089500518123465e-06,1.2895348942109896e-06
127,1.5358970185459342e-05,3.818443794123589e-06,7.0123162082152075e-06,4.817427251719804e-05,3.8916526353239065e-07,1.2903572272066863e-06,1.2101786095412802e-06,3.865083326915956e-06,2.3448450326203782e-06,2.098082233567785e-05,1.0668481422043353e-06,1.5158937097662026e-06,7.714798665295837e-07,1.137788981838563e-06,1.2235748191860174e-06,1.2795639836430677e-06
128,1.6628600702625192e-05,3.826594881772413e-06,7.106398617575858e-06,4.861967488163379e-05,3.908306257584128e-07,1.2804481209174293e-06,1.226761423239915e-06,4.050368182831885e-06,2.313749216974198e-06,2.2167185996525764e-05,1.0512942309437603e-06,1.5029676621591986e-06,7.473068034445947e-07,1.1538782346262842e-06,1.2418610985708952e-06,1.271932475286652e-06
129,1.8034207005585417e-05,3.832141940701228e-06,7.175662357743931e-06,4.8969037610622954e-05,3.935713540414013e-07,1.2673031603456692e-06,1.2413321511135208e-06,4.229488278189369e-06,2.2924585657156666e-06,2.3291811733237702e-05,1.0340753340259574e-06,1.491616189889069e-06,7.252834279875744e-07,1.1684148665991338e-06,1.2634209987983732e-06,1.2663826289209649e-06
130,1.957107879278904e-05,3.8368327927423445e-06,7.2227416350248204e-06,4.920927906105706e-05,3.973492842178158e-07,1.25133717626445e-06,1.2538634540970242e-06,4.398182126104422e-06,2.2811995953451606e-06,2.432827979875353e-05,1.015302357037284e-06,1.4816103903301424e-06,7.056362834130931e-07,1.1807905920934133e-06,1.2878685893859928e-06,1.2627489875255864e-06
131,2.12310793578597e-05,3.842020598614795e-06,7.2501413088449795e-06,4.933093972596754e-05,4.0213490806759453e-07,1.2329059473208166e-06,1.2644973274494027e-06,4.552252740870155e-06,2.2797231736774303e-06,2.525482367466131e-05,9.952562272313526e-07,1.47281533131114e-06,6.885701010070185e-07,1.1904045159354967e-06,1.3148718477435354e-06,1.2608955060112438e-06
132,2.3002544849345536e-05,3.848543262183742e-06,7.2600973320312625e-06,4.933017433032635e-05,4.079089893455459e-07,1.2122933437656321e-06,1.2734847254794392e-06,4.687862366991808e-06,2.287365533750953e-06,2.605891835158864e-05,9.743839435776289e-07,1.465227480255744e-06,6.742317573455038e-07,1.1967965237166336e-06,1.344129594803401e-06,1.2607110834026576e-06
133,2.4870148278003453e-05,3.856599891343584e-06,7.254337870409869e-06,4.9209705777952644e-05,4.14670110458046e-07,1.1898011672823437e-06,1.2810788259602286e-06,4.801898918146802e-06,2.303153699397767e-06,2.6739040483601283e-05,9.532229426154655e-07,1.4589109819053427e-06,6.626515898295962e-07,1.1997376042264936e-06,1.375342642268589e-06,1.2620866121061962e-06
134,2.6814619961916437e-05,3.865715212678684e-06,7.233749479112898e-06,4.897716094429864e-05,4.224340936245707e-07,1.1657593030089472e-06,1.287413912370749e-06,4.892395295482497e-06,2.325858173853198e-06,2.73024932455654e-05,9.322983979026201e-07,1.4538503772242296e-06,6.537207638087333e-07,1.1992115967549527e-06,1.4081753488160371e-06,1.2648597693015982e-06
135,2.8812068769980583e-05,3.874823313150116e-06,7.1980395914177775e-06,4.864059991074729e-05,4.3119897608074774e-07,1.1404909170694e-06,1.2924242318884743e-06,4.958747582466795e-06,2.3539626517059448e-06,2.776056693964432e-05,9.12097044926433e-07,1.4498823456146834e-06,6.472116818784559e-07,1.1952999048651454e-06,1.4422100749929482e-06,1.268832343105265e-06
136,3.0833011369509996e-05,3.882607858858531e-06,7.145658949034655e-06,4.820322729095467e-05,4.409085053077455e-07,1.1143598586031247e-06,1.2958215204757497e-06,5.001457504137456e-06,2.3856304652530993e-06,2.8123829289747805e-05,8.931484910227945e-07,1.4468169467801111e-06,6.428155895766429e-07,1.1880452870656348e-06,1.4769415989068355e-06,1.2738003604343412e-06
137,3.2842017078886504e-05,3.888086386552503e-06,7.074207200537488e-06,4.766075586861126e-05,4.514589061525142e-07,1.0878231709234181e-06,1.2971090339468607e-06,5.02143559513055e-06,2.4187072414591572e-06,2.8400245046301947e-05,8.760731015930512e-07,1.4446036486464242e-06,6.402042218212247e-07,1.1774043111234837e-06,1.5117836319798124e-06,1.279542266684238e-06
138,3.479888251948708e-05,3.8910583305454275e-06,6.981171413394358e-06,4.700311189830908e-05,4.627377887327876e-07,1.0613880161371531e-06,1.2956561055446412e-06,5.0193256039403025e-06,2.4507218885571587e-06,2.859642124096374e-05,8.615059075868354e-07,1.4433135177508645e-06,6.391343294064753e-07,1.1633279974735399e-06,1.546052611348918e-06,1.2858744311459499e-06
139,3.6660254365024484e-05,3.892023253181757e-06,6.864695936887932e-06,4.621859156561661e-05,4.746651871041985e-07,1.0355378938482455e-06,1.290872216903709e-06,4.995322384690456e-06,2.4789752928225944e-06,2.871968205586554e-05,8.499944545148343e-07,1.4429766488573422e-06,6.395222648817944e-07,1.1459086615343112e-06,1.5789885733914548e-06,1.2927775887909305e-06
140,3.838006356853638e-05,3.891656755856427e-06,6.724230738419766e-06,4.529802528805399e-05,4.872257072334003e-07,1.0106964124960952e-06,1.2824134078017798e-06,4.949452004584799e-06,2.5009326706296565e-06,2.87791969984579e-05,8.419790630361669e-07,1.4434913080774972e-06,6.413957898525731e-07,1.125479968767196e-06,1.6098665725594777e-06,1.3004187518647349e-06
141,3.991118293560136e-05,3.890405428161209e-06,6.560958696597012e-06,4.4238120685969755e-05,5.004719145405989e-07,9.87205749128257e-07,1.2703169699598818e-06,4.881937653346319e-06,2.5148639617053793e-06,2.8786421609246577e-05,8.378621247656007e-07,1.4446986386759605e-06,6.447803155038387e-07,1.1025659486420645e-06,1.638118806509459e-06,1.3090055191674113e-06
142,4.12115121392817e-05,3.88853259471326e-06,6.377881395588392e-06,4.3043643773248964e-05,5.144778368380461e-07,9.652908911436525e-07,1.2550443871145828e-06,4.7934291144468735e-06,2.5202784734551023e-06,2.875551381568466e-05,8.380977025230578e-07,1.4466040286379122e-06,6.496436368127138e-07,1.0777217344551154e-06,1.6633062163246941e-06,1.318616271886231e-06
143,4.225152755704903e-05,3.8862706729930156e-06,6.179493051138286e-06,4.172803708587743e-05,5.292705024994503e-07,9.450324189673564e-07,1.237432065931575e-06,4.685119018686931e-06,2.5178240469756884e-06,2.8703701438283308e-05,8.432307187171348e-07,1.4496110167751889e-06,6.559054347067496e-07,1.0514326663900368e-06,1.684932710280377e-06,1.3291206007197015e-06
144,4.301744492531491e-05,3.883697149520011e-06,5.971075639642831e-06,4.031248986645755e-05,5.447896312722183e-07,9.263926608176074e-07,1.2185303870243734e-06,4.558815856625154e-06,2.5088123432931564e-06,2.8651177101280795e-05,8.538842528532447e-07,1.4545221073702335e-06,6.6344496799057e-07,1.0241267148307525e-06,1.702310878078273e-06,1.3401669690808972e-06
145,4.3507472030093895e-05,3.880475006241725e-06,5.757811293792953e-06,3.8823998157227334e-05,5.60885032199995e-07,9.093047486974916e-07,1.1993997391825838e-06,4.416968839201254e-06,2.4946983663804663e-06,2.8619768871312536e-05,8.707141754036356e-07,1.4622976283967871e-06,6.721041052817069e-07,9.962091886157753e-07,1.7146264427882917e-06,1.3512078337378068e-06
146,4.372376529165882e-05,3.875763301635007e-06,5.544044981993412e-06,3.72931140418192e-05,5.773242158857193e-07,8.93771817071619e-07,1.180987933061348e-06,4.262586964836132e-06,2.4766794224820444e-06,2.863034861007501e-05,8.943396586954599e-07,1.47384165265251e-06,6.817058158600318e-07,9.680480142519902e-07,1.7211227410144349e-06,1.3615882935038967e-06
147,4.366746766259561e-05,3.868362264540573e-06,5.332960588496768e-06,3.575183608952625e-05,5.937920936780117e-07,8.798887009053735e-07,1.1641012477462989e-06,4.099028918274395e-06,2.4554651932894387e-06,2.8700963536265724e-05,9.252906530782145e-07,1.4899259961128044e-06,6.920648149880582e-07,9.399481693170215e-07,1.7212673439824904e-06,1.37070855876755e-06
148,4.334191402022139e-05,3.8569898003940295e-06,5.1267272257418395e-06,3.423178351157003e-05,6.098966666598875e-07,8.677612122189944e-07,1.1494051207948812e-06,3.9297092703627095e-06,2.4312021328586045e-06,2.884678833918177e-05,9.640201752654818e-07,1.5111956945240918e-06,7.03016407476246e-07,9.121826797271654e-07,1.7148674135410715e-06,1.3781814748851013e-06
149,4.2760258027672224e-05,3.840586118371939e-06,4.9269678217217005e-06,3.2762598598627415e-05,6.251896174279793e-07,8.574158212015863e-07,1.1374357734124692e-06,3.7577945329947075e-06,2.4035202823580544e-06,2.9080099679535547e-05,1.0109506394378376e-06,1.5382825830654924e-06,7.145115018066962e-07,8.850490965605353e-07,1.702156669907273e-06,1.3838503805897427e-06
150,4.1950371961576364e-05,3.818570024128215e-06,4.735220288752071e-06,3.137036387419838e-05,6.39204614681028e-07,8.487708549314033e-07,1.1286377093574741e-06,3.5859458236262277e-06,2.3717583496907942e-06,2.9409849720824803e-05,1.06645338545561e-06,1.5719894948807268e-06,7.266855525045631e-07,8.588693981045268e-07,1.6837989024768538e-06,1.3876505908711194e-06
151,4.095375457367091e-05,3.7909966953158194e-06,4.553093872999672e-06,3.007602186649304e-05,6.515413121956122e-07,8.416200834828542e-07,1.1234403463611017e-06,3.416165972341786e-06,2.335369033151306e-06,2.98426449449301e-05,1.1307600874204193e-06,1.6133456707327256e-06,7.397948893257788e-07,8.339285485573312e-07,1.6607365443565723e-06,1.3894813952791742e-06
152,3.981952691148777e-05,3.75859351899277e-06,4.3821133557841325e-06,2.889439578379785e-05,6.619698671874161e-07,8.355994474058358e-07,1.1223205965094183e-06,3.249832457766968e-06,2.294301487496921e-06,3.038483072099145e-05,1.2039261372721393e-06,1.6634456126678813e-06,7.541080743980667e-07,8.104138465358516e-07,1.6340168498784136e-06,1.3892237261627462e-06
153,3.85977678309112e-05,3.7226721970821565e-06,4.223442570234063e-06,2.783426019191972e-05,6.70450421994579e-07,8.301909058167112e-07,1.12575485800643e-06,3.0879237789913155e-06,2.249146594595957e-06,3.104355668381817e-05,1.2858674342627889e-06,1.7232280520418817e-06,7.69857207415398e-07,7.884073722821995e-07,1.604787160948738e-06,1.3868657623962457e-06
154,3.733689609984768e-05,3.6849567758565425e-06,4.077643877545541e-06,2.6898886863496787e-05,6.770512038229493e-07,8.24796384407422e-07,1.1340865558464378e-06,2.931304589525158e-06,2.2010424773075932e-06,3.182607809087982e-05,1.3763761396734575e-06,1.7933414424743501e-06,7.872055482245976e-07,7.679414580636421e-07,1.5743549112045118e-06,1.3826417074958032e-06
155,3.608507943053793e-05,3.6473776929352853e-06,3.944592003951339e-06,2.608626592964743e-05,6.818948819801559e-07,8.188695569702528e-07,1.147430732850524e-06,2.7809254998523826e-06,2.1514742887261346e-06,3.273807949662408e-05,1.4750995771751892e-06,1.8740742308652762e-06,8.062043605365158e-07,7.490604935881688e-07,1.5440938078958257e-06,1.3770980505636007e-06
156,3.48911885878242e-05,3.611828644334315e-06,3.823627784801952e-06,2.538894213190334e-05,6.851881575690849e-07,8.120746367333192e-07,1.165671454500124e-06,2.6379013215326095e-06,2.102055331052424e-06,3.37820062392004e-05,1.5815277926829845e-06,1.9653256122791005e-06,8.267715942420785e-07,7.318129484785893e-07,1.515238493316915e-06,1.3710161397598594e-06
157,3.3802822330960466e-05,3.5798911424999956e-06,3.7138600543558443e-06,2.4793933491075117e-05,6.872254544677432e-07,8.043984934559622e-07,1.188541869202944e-06,2.5034867204298857e-06,2.0543191235721157e-06,3.4956099644489324e-05,1.6949731686418527e-06,2.066670417308785e-06,8.48676335101772e-07,7.161866153279655e-07,1.4887464807119332e-06,1.3652245897995693e-06
158,3.286324975767004e-05,3.55267044045335e-06,3.6144180978234e-06,2.428335254820289e-05,6.883133385004977e-07,7.961326146765618e-07,1.2157438278485114e-06,2.3789553666416195e-06,2.009591426720941e-06,3.625448199099772e-05,1.8145373736821303e-06,2.177522563207698e-06,8.71532141544695e-07,7.020725393798032e-07,1.4652854715518175e-06,1.36042930220962e-06
159,3.21097630851246e-05,3.5309425985962406e-06,3.52457908451894e-06,2.383629219886081e-05,6.88702542252733e-07,7.877365885478474e-07,1.2470089078825762e-06,2.265409220740526e-06,1.9690029952888925e-06,3.766797625394029e-05,1.939124109975517e-06,2.2972777086672e-06,8.948770610224469e-07,6.892948168242112e-07,1.4452945198049486e-06,1.3571465248668396e-06
160,3.157361889828703e-05,3.5155899368371377e-06,3.4437924270896717e-06,2.343204588037767e-05,6.88595096300858e-07,7.796850248893275e-07,1.2820380796418785e-06,2.163618948987553e-06,1.9335656474077998e-06,3.918452072084402e-05,2.067488209670342e-06,2.4253168520191485e-06,9.183338591377368e-07,6.776555853732117e-07,1.429038434104929e-06,1.3557113228364459e-06
161,3.1280212774726256e-05,3.5080277788707315e-06,3.3716066871986054e-06,2.3053929679951144e-05,6.882029705810199e-07,7.723728833792822e-07,1.3203959333703714e-06,2.0739844869983107e-06,1.9041689583556215e-06,4.0788215656494036e-05,2.1982285707811504e-06,2.5608846613156172e-06,9.416916440469689e-07,6.669333616911872e-07,1.416607289454621e-06,1.356272690999051e-06
162,3.124880561930617e-05,3.510312294341305e-06,3.3075467392036525e-06,2.2692450904649897e-05,6.877869878607976e-07,7.660931767265398e-07,1.361456389914909e-06,1.9965709241402814e-06,1.8814839623514142e-06,4.245796950597055e-05,2.329727592400339e-06,2.7029251628150515e-06,9.648296167598554e-07,6.568445261976252e-07,1.407894219884209e-06,1.3587706622189929e-06
163,3.149207197094276e-05,3.5248446160395486e-06,3.2510621309361516e-06,2.2346709385100116e-05,6.876371070937569e-07,7.610755838901171e-07,1.4044061892550954e-06,1.931124352583113e-06,1.8658800777817386e-06,4.416802659600209e-05,2.460153757344426e-06,2.8499563074121224e-06,9.875958235617242e-07,6.470427586385411e-07,1.4026118957566615e-06,1.3630090671271094e-06
164,3.2015746423965765e-05,3.553878114769422e-06,3.20161020815357e-06,2.2023588743413473e-05,6.880420121280084e-07,7.575386558365013e-07,1.448264480291751e-06,1.877052982422132e-06,1.8574215253282643e-06,4.5890649416817586e-05,2.5875364576537047e-06,3.000051146866307e-06,1.00974427475949e-06,6.372040881467207e-07,1.4003664139784817e-06,1.368839936342081e-06
165,3.2818431279823584e-05,3.5991429509039304e-06,3.1588005785886573e-06,2.1735069273939745e-05,6.892852454294366e-07,7.556943425648519e-07,1.491877124798612e-06,1.833408538809306e-06,1.855907696033804e-06,4.759857967820666e-05,2.709768249384932e-06,3.150925656597685e-06,1.0309598946498781e-06,6.271430181356323e-07,1.4007579206722028e-06,1.3762726871542432e-06
166,3.3891455524202e-05,3.661695405790958e-06,3.1224877020634295e-06,2.1494596109747814e-05,6.916451841728319e-07,7.557007202263126e-07,1.5339401060035275e-06,1.798917220800641e-06,1.8609095387716228e-06,4.9265428662625466e-05,2.8244928689196755e-06,3.3000300639299076e-06,1.0509857204229933e-06,6.168465491427421e-07,1.4034230276428525e-06,1.3854031190061462e-06
167,3.5218674595986596e-05,3.741885110895082e-06,3.092771921590654e-06,2.1313893108995587e-05,6.953939358984603e-07,7.576113441180132e-07,1.573141332523796e-06,1.7721234917638026e-06,1.8718613572852774e-06,5.0864464810103296e-05,2.9290527665187535e-06,3.4445193539220276e-06,1.0697602742209178e-06,6.063892667009793e-07,1.4079497046331362e-06,1.3962921950159492e-06
168,3.677665490516218e-05,3.839372809670647e-06,3.0699308595500796e-06,2.1201428476409334e-05,7.007838017381255e-07,7.613591091317991e-07,1.6083415209226177e-06,1.7516433731953959e-06,1.8882643944671696e-06,5.236748263983699e-05,3.0206555637267564e-06,3.581193640629499e-06,1.0874200329679331e-06,5.958174959123241e-07,1.4137427663107303e-06,1.4088827482548816e-06
169,3.8535882129287296e-05,3.9532871501752275e-06,3.054297680025802e-06,2.1162345645641542e-05,7.080042720771218e-07,7.667750575725864e-07,1.6386591666044497e-06,1.7364250030337184e-06,1.909900748317653e-06,5.374501999165091e-05,3.096725720503212e-06,3.706719155858471e-06,1.1041805565678394e-06,5.85100882315613e-07,1.4200282783018445e-06,1.4229159332761737e-06
170,4.046278617023718e-05,4.082578023010518e-06,3.046088564941632e-06,2.1198581743284095e-05,7.171560060646294e-07,7.736184400076724e-07,1.6634835190319715e-06,1.725904582907114e-06,1.9369309791521566e-06,5.496793134652819e-05,3.1552184747289474e-06,3.818190620119225e-06,1.1202212745141068e-06,5.741889927077939e-07,1.426070290580623e-06,1.4378735204986984e-06
171,4.252159686562036e-05,4.226339892929481e-06,3.0452127335312684e-06,2.1308884481393782e-05,7.282839353282128e-07,7.815902681070766e-07,1.682516701010104e-06,1.7199990601750711e-06,1.9698174984183283e-06,5.600938762930008e-05,3.194623460129644e-06,3.913613199175022e-06,1.1356249215890096e-06,5.631449640673658e-07,1.4314184871362277e-06,1.4530267650041565e-06
172,4.467489044044052e-05,4.383764313091831e-06,3.0511494723353744e-06,2.1489839175050098e-05,7.414178240347566e-07,7.903396291819528e-07,1.6958384022399614e-06,1.7189437645498638e-06,2.0090994804209616e-06,5.6846477986067126e-05,3.2137661039222143e-06,3.991852993039851e-06,1.1503485685104325e-06,5.522300504425775e-07,1.4359449358323417e-06,1.467610531082838e-06
173,4.688204167504417e-05,4.5537160832868334e-06,3.0629876564594106e-06,2.173826838108667e-05,7.565527071355502e-07,7.995290897680013e-07,1.703866166560486e-06,1.723059268466917e-06,2.0551855367453855e-06,5.746123756166901e-05,3.2118899368375293e-06,4.0520849897339975e-06,1.1642105588516196e-06,5.418393939186269e-07,1.439718091989851e-06,1.4810327609747453e-06
174,4.909645581558585e-05,4.734298461886724e-06,3.0796862249049056e-06,2.2053602553138353e-05,7.736014011803282e-07,8.089605690072075e-07,1.7071525576931337e-06,1.7325482932653867e-06,2.1082625021120895e-06,5.7841170247618944e-05,3.1890890269895e-06,4.093207927647717e-06,1.1769299520197136e-06,5.323693586434188e-07,1.4429352835747197e-06,1.4929734604948837e-06
175,5.1264623233305e-05,4.922688577431711e-06,3.1005266494730122e-06,2.2438724231009942e-05,7.92377007951737e-07,8.1863161303241e-07,1.7061705549282416e-06,1.7473597975326132e-06,2.168232459802342e-06,5.7978890454343446e-05,3.1465869258562897e-06,4.113670639882701e-06,1.1882593947885663e-06,5.241492623358603e-07,1.445887116577109e-06,1.5033413173408727e-06
176,5.3329286123814275e-05,5.115210935517269e-06,3.125554313243586e-06,2.289915745516771e-05,8.125961524126495e-07,8.286560466172659e-07,1.7012735027203464e-06,1.7671175757951106e-06,2.2346701812082266e-06,5.7869807688162904e-05,3.0865031183049176e-06,4.111829438412257e-06,1.1981367135586137e-06,5.17442035490988e-07,1.4488104442414762e-06,1.51221600387699e-06
177,5.523574131277335e-05,5.3075554892456925e-06,3.1556694089062373e-06,2.3441323926682686e-05,8.338971469979851e-07,8.391379447915179e-07,1.692804354209954e-06,1.7911071016983909e-06,2.306904628797045e-06,5.750766863150051e-05,3.0112731669879836e-06,4.086683542379173e-06,1.2067129817812126e-06,5.124443852686403e-07,1.4517107507577127e-06,1.5198763401293008e-06
178,5.693847479356556e-05,5.495142214917483e-06,3.1922440757858048e-06,2.4070459958555325e-05,8.558816949261509e-07,8.500821750738357e-07,1.6811921365927434e-06,1.8182959049199424e-06,2.3841764091296992e-06,5.688123722894381e-05,2.923209644406028e-06,4.03860460258065e-06,1.2142316487157295e-06,5.092759878377468e-07,1.4543018598503322e-06,1.5268383431313918e-06
179,5.840456373702816e-05,5.673622134066758e-06,3.236612635280123e-06,2.4788871269497145e-05,8.781553113063996e-07,8.613578102723148e-07,1.666943053005366e-06,1.847380165691917e-06,2.4656761565882003e-06,5.597651669874916e-05,2.824478072977969e-06,3.969581790527137e-06,1.2209060569586945e-06,5.079848887776239e-07,1.4560728532594072e-06,1.5337641192868456e-06
180,5.9610609386388146e-05,5.839419398956275e-06,3.289806314253661e-06,2.559557956133986e-05,9.00332287048151e-07,8.727109773215252e-07,1.6505370367456969e-06,1.876881529147294e-06,2.5504275082095725e-06,5.478419649511928e-05,2.717273045053453e-06,3.882791318870914e-06,1.2269243516861301e-06,5.085596665952612e-07,1.4564227653275741e-06,1.5412723793409401e-06
181,6.0535443616026165e-05,5.990157428652835e-06,3.352455764544684e-06,2.6487482338323046e-05,9.22005161665376e-07,8.838126169617108e-07,1.6322860729621065e-06,1.9052804603207068e-06,2.63723010024544e-06,5.330769049137296e-05,2.6038713654885033e-06,3.781779584828522e-06,1.2325143655325433e-06,5.109367027808107e-07,1.4547878586448238e-06,1.549815846759593e-06
182,6.115699315945062e-05,6.124817414367314e-06,3.4246867838064707e-06,2.746041359095065e-05,9.427578791352978e-07,8.943281742299845e-07,1.6122287198134374e-06,1.9311401410516257e-06,2.724785751003206e-06,5.156788266633138e-05,2.4864825665647583e-06,3.6697919644105307e-06,1.237946978501191e-06,5.15020422208359e-07,1.4507069495680563e-06,1.5596620352344838e-06
183,6.145733386614438e-05,6.243573319805762e-06,3.5060882313101847e-06,2.85085469990949e-05,9.62275011915482e-07,9.03989175223078e-07,1.5901378938390037e-06,1.9532214604696405e-06,2.811882265816666e-06,4.960322175697985e-05,2.3670523712439513e-06,3.5495380130232534e-06,1.2434711926648513e-06,5.207337077579945e-07,1.4438523854580142e-06,1.5708742080654743e-06
184,6.143016459180461e-05,6.347378798051718e-06,3.5958125139352784e-06,2.962255065278587e-05,9.80431653015452e-07,9.126251561360304e-07,1.5656730953820223e-06,1.970618510198185e-06,2.897522447930305e-06,4.746564475983961e-05,2.247232772079044e-06,3.4232474042790615e-06,1.249256226091654e-06,5.280695811894939e-07,1.4340774363282844e-06,1.5832568630147598e-06
185,6.108384411304096e-05,6.437402138082794e-06,3.6926754917093934e-06,3.0788022130049445e-05,9.972381693202477e-07,9.201269458132789e-07,1.53860612956163e-06,1.982883073147048e-06,2.9809343288975273e-06,4.5213991059129107e-05,2.1285247217024053e-06,3.292788234895762e-06,1.2554036497447936e-06,5.370862862344457e-07,1.421458312575379e-06,1.5963372361882061e-06
186,6.043840555495691e-05,6.514405400516884e-06,3.7951436058119653e-06,3.198486385290839e-05,1.0126861205944207e-06,9.263652526639729e-07,1.5089825591560265e-06,1.9900386704611123e-06,3.0613910114280914e-06,4.290697342234488e-05,2.0123739146464175e-06,3.1597924550643568e-06,1.2619798438264924e-06,5.478677236303041e-07,1.406284510680337e-06,1.6094070360146417e-06
187,5.951836794013944e-05,6.578350256909676e-06,3.901251659534186e-06,3.31879005303732e-05,1.026636458711937e-06,9.31147436062378e-07,1.4771415525678993e-06,1.992412577099781e-06,3.137993105117997e-06,4.0597747035487205e-05,1.9000948961261301e-06,3.0257584765441683e-06,1.2689815567081797e-06,5.60501132960242e-07,1.3890031340471983e-06,1.6215771211555434e-06
188,5.8345718317422584e-05,6.6285098023010846e-06,4.008542597176303e-06,3.436949335836722e-05,1.0388353903670947e-06,9.342793690305947e-07,1.4436260140829338e-06,1.9903795954408606e-06,3.2096805986494503e-06,3.8331362575181585e-05,1.7927478071434392e-06,2.892062041381619e-06,1.2762871220547082e-06,5.750442278523657e-07,1.3701302612914992e-06,1.631903233978381e-06
189,5.693849483878887e-05,6.6639323433247016e-06,4.114092505047795e-06,3.550376147946703e-05,1.0490199966706442e-06,9.356752660325986e-07,1.4090376072844128e-06,1.9842703454653486e-06,3.2754224419566886e-06,3.614460412810365e-05,1.6910945034647584e-06,2.759900001661606e-06,1.283692886982933e-06,5.914712352416267e-07,1.3501511822316573e-06,1.6396208031450018e-06
190,5.531568913932775e-05,6.683884779350981e-06,4.214714330999609e-06,3.657073371993247e-05,1.0570122263318661e-06,9.353817339542675e-07,1.373883361602787e-06,1.974536747749086e-06,3.334336417927858e-06,3.406674515182216e-05,1.5956108331385e-06,2.630305785665039e-06,1.2910053566159255e-06,6.096455513287568e-07,1.329501732237244e-06,1.6442810623313737e-06
191,5.350315587761007e-05,6.688149446631774e-06,4.3074206570419175e-06,3.755920443484475e-05,1.0627589038596962e-06,9.335023212580637e-07,1.3384966460677684e-06,1.9619332465988907e-06,3.385712636064123e-06,3.2120451901502496e-05,1.5065263878591218e-06,2.504307454633012e-06,1.2980897767220552e-06,6.293329056003524e-07,1.3086368375111636e-06,1.6456549060002563e-06
192,5.153535661134268e-05,6.677234541802395e-06,4.3900224993969e-06,3.8467722227136884e-05,1.0663474626282643e-06,9.301552556838817e-07,1.3030719015297644e-06,1.9474630939178413e-06,3.4291009700717423e-06,3.0322684560179503e-05,1.4238939285803925e-06,2.383077424766984e-06,1.3048308264312924e-06,6.502251805519822e-07,1.288024029741755e-06,1.6436106395018035e-06
193,4.945176998113131e-05,6.652477299620756e-06,4.461546173471999e-06,3.9303273155880415e-05,1.0679882360039218e-06,9.255139797797552e-07,1.2677451570148273e-06,1.9321311878019414e-06,3.4645210538965213e-06,2.868531691372341e-05,1.347660131815957e-06,2.2678666966760033e-06,1.3110465352751338e-06,6.719522599339436e-07,1.2680350789308136e-06,1.6381882377174859e-06
194,4.729084826846768e-05,6.615928022114874e-06,4.522270317217146e-06,4.0077705745396676e-05,1.0679295273790998e-06,9.198224382037857e-07,1.2326598355678348e-06,1.916751577302803e-06,3.492663126706469e-06,2.7215176456486697e-05,1.2777252422768073e-06,2.1597589744580133e-06,1.3164504187929723e-06,6.940883163792576e-07,1.2489020884116205e-06,1.6297704096940105e-06
195,4.5087004822138366e-05,6.569980415938056e-06,4.573496636274732e-06,4.08028895938881e-05,1.0663915248810206e-06,9.13320112278161e-07,1.1980153630398503e-06,1.901948402845218e-06,3.5148991954397077e-06,2.5913873092949396e-05,1.2139837820487035e-06,2.0594728775198573e-06,1.3207104753006036e-06,7.161656941015346e-07,1.2307672137413149e-06,1.6190787187942842e-06
196,4.2872778788741794e-05,6.516843356409803e-06,4.6172496639068875e-06,4.14861146320175e-05,1.0636048610296034e-06,9.061472176132595e-07,1.1640961721560308e-06,1.8882156105861996e-06,3.533034013693916e-06,2.4778474003961165e-05,1.1563219296908018e-06,1.967360980777125e-06,1.3235176196440258e-06,7.376950289296731e-07,1.2137161556072457e-06,1.6069791685887142e-06
197,4.06820422297891e-05,6.458086313212482e-06,4.65590242322372e-06,4.212682238700278e-05,1.0598464659490724e-06,8.983319992100822e-07,1.1312803189621395e-06,1.8758950141609517e-06,3.548899577000096e-06,2.380337048139195e-05,1.1046206220567718e-06,1.8835606621894854e-06,1.3245552843981912e-06,7.581815109227798e-07,1.1977673787382532e-06,1.5943073679579516e-06
198,3.8549883851937256e-05,6.394598665890505e-06,4.691669177747332e-06,4.271494457951614e-05,1.0553622810685145e-06,8.898866969078747e-07,1.1000282540177778e-06,1.8651374129450013e-06,3.564021577861293e-06,2.2982155598135174e-05,1.0588218489626375e-06,1.8081242856726464e-06,1.3234278137904449e-06,7.771405894383364e-07,1.182841686351258e-06,1.581789905073161e-06
199,3.650938414790765e-05,6.326990841193012e-06,4.7261120009745595e-06,4.32306333514738e-05,1.0502491747228867e-06,8.80924369121515e-07,1.0708324488705126e-06,1.8558994838264196e-06,3.579486706722068e-06,2.230806362936662e-05,1.018988711338819e-06,1.7410304644323056e-06,1.3196734016317993e-06,7.941488763896007e-07,1.1687416797615273e-06,1.5700552149529125e-06
200,3.458842815035262e-05,6.256012393265841e-06,4.7598522476485825e-06,4.364542609468128e-05,1.044415119430999e-06,8.7167955640254e-07,1.0441294909617713e-06,1.8479352692460483e-06,3.5959133377305085e-06,2.1772789008287976e-05,9.852729204844736e-07,1.6821358614484702e-06,1.3128588557889204e-06,8.089203229171691e-07,1.1551937491759468e-06,1.5597290455614114e-06
201,3.280871109633917e-05,6.182728172609842e-06,4.792483486772064e-06,4.392545965002703e-05,1.0376425270032505e-06,8.624478032794413e-07,1.0202208133476712e-06,1.8408167842565262e-06,3.6134467021721135e-06,2.1364947493544304e-05,9.578105039543885e-07,1.6311231265890364e-06,1.3026909931001806e-06,8.213434184584447e-07,1.1419675731271786e-06,1.5514996174125026e-06
202,3.118616788109783e-05,6.108543113248803e-06,4.822628114544379e-06,4.403697808632029e-05,1.0296951172167177e-06,8.535601720839316e-07,9.992308506784247e-07,1.8340207221370448e-06,3.631878375972852e-06,2.106961687247363e-05,9.366179265920909e-07,1.5874571161041661e-06,1.289093962640156e-06,8.314891760790262e-07,1.1290094899033061e-06,1.5460534559739675e-06
203,2.9731324004579616e-05,6.03508369137163e-06,4.848166124477346e-06,4.395307412543743e-05,1.020389788882376e-06,8.453929081002029e-07,9.81095264214044e-07,1.8270003871147502e-06,3.6508893530339545e-06,2.0869070618829384e-05,9.215477669217112e-07,1.5503868855348939e-06,1.2721959648784442e-06,8.396054221112616e-07,1.116474209335371e-06,1.5439400950715718e-06
204,2.8449406055579783e-05,5.963839955116079e-06,4.866641542462304e-06,4.365966505763249e-05,1.0096066681958563e-06,8.383184252656932e-07,9.65601289491465e-07,1.8191489196448872e-06,3.670170296227909e-06,2.0743816849053405e-05,9.123275405050573e-07,1.5190020647898225e-06,1.2522720150679944e-06,8.460686010865088e-07,1.1046115083840015e-06,1.5454781298234143e-06
205,2.7340577116967394e-05,5.8957025607512675e-06,4.875738629892926e-06,4.315860329573397e-05,9.97290376936588e-07,8.326252352594594e-07,9.525071584267913e-07,1.8096761489051797e-06,3.6892943212474637e-06,2.0673569247117183e-05,9.086511514873468e-07,1.4923272221986262e-06,1.2297493815364558e-06,8.513322290570974e-07,1.0936088900527645e-06,1.5507501584563708e-06
206,2.6400413309075923e-05,5.830738671364202e-06,4.873646821438929e-06,4.2466472433759366e-05,9.834960284719265e-07,8.284986496071536e-07,9.416674643260402e-07,1.7975591769351416e-06,3.7075543242889325e-06,2.0638452995913605e-05,9.102430734380952e-07,1.4694657180242753e-06,1.2052319024076274e-06,8.558896765781226e-07,1.0835129967255396e-06,1.5596424592961744e-06
207,2.562067987548069e-05,5.768322067075547e-06,4.859180693985081e-06,4.1609179640516656e-05,9.684329296342428e-07,8.260448785789364e-07,9.33049222949017e-07,1.7816914367462628e-06,3.7239778602323166e-06,2.062047691505066e-05,9.168405793715404e-07,1.4497777794113345e-06,1.179441729817941e-06,8.602009899906324e-07,1.0742676536958582e-06,1.5718653988031596e-06
208,2.4990391551369828e-05,5.707424967612394e-06,4.8316747092415606e-06,4.06145838445776e-05,9.524205816909197e-07,8.252948725819631e-07,9.266596234568601e-07,1.7611438984207259e-06,3.737465514348918e-06,2.0604832495203593e-05,9.281599475438026e-07,1.433015471906774e-06,1.153111988458177e-06,8.646171801328804e-07,1.0658318650909615e-06,1.5870100690452178e-06
209,2.4496717217999313e-05,5.646939968216158e-06,4.790812115687037e-06,3.950680032257582e-05,9.357868224680661e-07,8.261956060930231e-07,9.22499704412775e-07,1.7353504499076156e-06,3.746899314440854e-06,2.058066611661054e-05,9.439132283473462e-07,1.4193463398688728e-06,1.1269150759732969e-06,8.693817865145759e-07,1.0582985854288125e-06,1.6047205238228894e-06
210,2.412497221862234e-05,5.586002656229001e-06,4.736574391511296e-06,3.8304716736310396e-05,9.18807448222261e-07,8.286248484302897e-07,9.205544330431355e-07,1.7041033508320815e-06,3.7511934129226167e-06,2.0541262931960318e-05,9.6380019680828e-07,1.409272482003541e-06,1.10143127715613e-06,8.746956870934631e-07,1.0519232390064743e-06,1.6248713853171736e-06
211,2.3857893855068415e-05,5.524237941231332e-06,4.669385842426858e-06,3.702386257844819e-05,9.016922056333131e-07,8.32404613944952e-07,9.207712945719494e-07,1.6673803609699978e-06,3.7493769096200925e-06,2.0483599414885288e-05,9.874342569549365e-07,1.4034779716478703e-06,1.0771415137390455e-06,8.807698434221684e-07,1.047050443448156e-06,1.6475903132224216e-06
212,2.3675991537935077e-05,5.461881625121461e-06,4.5903448740083135e-06,3.567865920412557e-05,8.845833466664497e-07,8.372809649421162e-07,9.230405689988046e-07,1.6251957565190616e-06,3.740769518613506e-06,2.04072472560292e-05,1.0142911169158926e-06,1.402626207088427e-06,1.0544563709486883e-06,8.878229047147328e-07,1.0440405989999363e-06,1.6731203108616613e-06
213,2.3559955290304884e-05,5.399788871501632e-06,4.501340084686095e-06,3.428323426318218e-05,8.675880390659926e-07,8.429219439751433e-07,9.271973055153127e-07,1.5776757780920282e-06,3.725179638881685e-06,2.031300028802457e-05,1.0437211532514771e-06,1.40718787595176e-06,1.0337465356313359e-06,8.960423048998051e-07,1.043239497468654e-06,1.7016271143360182e-06
214,2.3493372492638453e-05,5.339316855267905e-06,4.404934630033434e-06,3.285100802080023e-05,8.508188692494614e-07,8.489907134074742e-07,9.330645051651294e-07,1.525279235851507e-06,3.702948291489704e-06,2.020189759223331e-05,1.0749682216164281e-06,1.4173865457424146e-06,1.0153283808830027e-06,9.055578478091067e-07,1.0449236790568139e-06,1.7330950357056092e-06
215,2.346362742936827e-05,5.2820523497778215e-06,4.304047340906578e-06,3.139400546485238e-05,8.343733705204734e-07,8.552592814987484e-07,9.40536630635691e-07,1.4689000377563276e-06,3.674695456271437e-06,2.0074843767245673e-05,1.1071742739462194e-06,1.4332430740789097e-06,9.994295028510062e-07,9.16433289593028e-07,1.0492178547333412e-06,1.7673783314508139e-06
216,2.3461079767161017e-05,5.2293984179860335e-06,4.201527385418993e-06,2.992262321280469e-05,8.182860626001531e-07,8.616865740161676e-07,9.496165177635582e-07,1.4097570101426517e-06,3.6408743901379433e-06,1.99320962655676e-05,1.1394265495416129e-06,1.4546755013496037e-06,9.861644987171232e-07,9.28639974864545e-07,1.0560437955195733e-06,1.8042876458068383e-06
217,2.3478154844714397e-05,5.182159771669899e-06,4.099790687782112e-06,2.844603034998144e-05,8.025378322165079e-07,8.684036947235512e-07,9.603450585655308e-07,1.3491789481611093e-06,3.6015234649034883e-06,1.9772142927541157e-05,1.1708490324363463e-06,1.4816093195941114e-06,9.755098187166708e-07,9.420393494088733e-07,1.0651227024023838e-06,1.843559198018427e-06
218,2.350946557250213e-05,5.140465832139263e-06,4.000749727985243e-06,2.697288753036175e-05,7.871015034060477e-07,8.756119832234166e-07,9.726827766360203e-07,1.2884176267771582e-06,3.556458249188238e-06,1.959122864174905e-05,1.2006778619901536e-06,1.5140301745593621e-06,9.672830018143221e-07,9.56441943496938e-07,1.076049908996858e-06,1.8847260529595613e-06
219,2.3552409961395605e-05,5.1042429798963814e-06,3.906059175315214e-06,2.5511986792886994e-05,7.719400145260689e-07,8.834934823480654e-07,9.8642730228855e-07,1.2285900308077567e-06,3.5056614569684976e-06,1.9384948889824966e-05,1.2283462740379972e-06,1.5520227619030858e-06,9.611870773589042e-07,9.7170544318748e-07,1.0884310841623736e-06,1.9270003024734838e-06
220,2.360662698507536e-05,5.073877192881982e-06,3.817371947680427e-06,2.4072674728871248e-05,7.569491167818678e-07,8.921959625983068e-07,1.001196775865747e-06,1.1707471185276468e-06,3.4494924692013828e-06,1.9151010989439868e-05,1.253582410688546e-06,1.5958439426488958e-06,9.569573869261326e-07,9.877580279890029e-07,1.1019597449582557e-06,1.9692131570658237e-06
221,2.3671765138096755e-05,5.050460853850703e-06,3.7363312647743343e-06,2.2665104765721605e-05,7.419166640461347e-07,9.018214250952044e-07,1.016476769245176e-06,1.1159195753084233e-06,3.388653111514914e-06,1.8891015183929268e-05,1.276380283144938e-06,1.6458946716012547e-06,9.545097563411145e-07,1.0045226011351308e-06,1.1163460271155357e-06,2.0098537036912745e-06
222,2.3745318065875694e-05,5.035450317392787e-06,3.6643230395363904e-06,2.1300330934126947e-05,7.265805320350477e-07,9.123709199995725e-07,1.0317190796240474e-06,1.0650459628242588e-06,3.3241267992312696e-06,1.8610200984460025e-05,1.2968222898244357e-06,1.7025382814351747e-06,9.539399864942375e-07,1.0218200090435065e-06,1.1311978192190805e-06,2.047283603804748e-06
223,2.3822255136230512e-05,5.030061054679481e-06,3.6021961510615824e-06,1.9990135288675967e-05,7.107852153671731e-07,9.237185333082502e-07,1.0464494699519389e-06,1.018870864673099e-06,3.2572546630257715e-06,1.8315664553252146e-05,1.3149420792750909e-06,1.7659521845729527e-06,9.55377368316735e-07,1.0393090562242121e-06,1.1460157893923754e-06,2.080081590225806e-06
224,2.3895646541344694e-05,5.034783365145299e-06,3.5501463076298923e-06,1.8746360949135272e-05,6.945920991011502e-07,9.35677575948837e-07,1.060302836801127e-06,9.779132595220191e-07,3.1898166633316154e-06,1.801420399755269e-05,1.330703885928996e-06,1.8360967182528762e-06,9.588280236013427e-07,1.0564801416150487e-06,1.1603430043770413e-06,2.1073083664859934e-06
225,2.3956757772197583e-05,5.04919203173534e-06,3.5078142443265982e-06,1.7579642576674635e-05,6.782287992649719e-07,9.480911031894977e-07,1.0729411239334976e-06,9.424891262997387e-07,3.12385119239542e-06,1.7710629615013058e-05,1.343976593984001e-06,1.9126850571246776e-06,9.64103245126042e-07,1.0727129419840534e-06,1.17393603882831e-06,2.12856995624271e-06
226,2.3994832529972557e-05,5.072083077448228e-06,3.4744829964789214e-06,1.6497939924955913e-05,6.619738172515091e-07,9.608424776096535e-07,1.0839239073691212e-06,9.127353318524715e-07,3.0612301733185074e-06,1.740713153503758e-05,1.3544705223866865e-06,1.9951218831231773e-06,9.708387288701222e-07,1.0873416559508163e-06,1.1867651172651406e-06,2.143961024023095e-06
227,2.3997861933261446e-05,5.101825836591815e-06,3.449234762557512e-06,1.550557544683163e-05,6.461003628254395e-07,9.738320215134046e-07,1.09265202748395e-06,8.886189359598257e-07,3.003309690644327e-06,1.7103969578566457e-05,1.3617634661830003e-06,2.082472903799044e-06,9.785623639620225e-07,1.099670267117177e-06,1.198866692022369e-06,2.1539646927733625e-06
228,2.39548936193871e-05,5.136659852878073e-06,3.431040301984716e-06,1.4603026591690827e-05,6.308765280924385e-07,9.870025245287096e-07,1.0984363377376007e-06,8.699320676921037e-07,2.950818457146041e-06,1.680061843975916e-05,1.3654476468714065e-06,2.173452358446656e-06,9.867461334531387e-07,1.1090192878463738e-06,1.210252533406337e-06,2.1592635192940582e-06
229,2.3858966388799226e-05,5.174746743006544e-06,3.418838777257889e-06,1.3787201954741732e-05,6.165775810286125e-07,1.0003328464736474e-06,1.1006585413232978e-06,8.562784874464438e-07,2.903870446489174e-06,1.6496038944921492e-05,1.3652721953412329e-06,2.266426546238463e-06,9.948358742330134e-07,1.1148631790084486e-06,1.2209113521243662e-06,2.160457645365212e-06
230,2.3709179750145906e-05,5.213999433760585e-06,3.4116635886486764e-06,1.3051860228296686e-05,6.034630116041381e-07,1.013738102572952e-06,1.0989428167572928e-06,8.470809418709655e-07,2.862039610323132e-06,1.6187849438818946e-05,1.3612071171710463e-06,2.3595468606324085e-06,1.0023173082155549e-06,1.1169414239263896e-06,1.2307797162833736e-06,2.157829547198841e-06
231,2.351121599478922e-05,5.251792330062074e-06,3.4088154334546194e-06,1.2388015287940922e-05,5.917262103869166e-07,1.0269877627452693e-06,1.0932531331354068e-06,8.416559886081412e-07,2.8245488800235887e-06,1.5871436702903753e-05,1.3534639660976589e-06,2.451057284094359e-06,1.0088039456062274e-06,1.1152362566394637e-06,1.2396865451016342e-06,2.151263934640614e-06
232,2.3276582685396307e-05,5.2847262080754806e-06,3.410007923399108e-06,1.1784576060641803e-05,5.814963722864203e-07,1.0397312109350525e-06,1.0838846960820092e-06,8.393565209498982e-07,2.7905421012916923e-06,1.5540341647911713e-05,1.342499803128077e-06,2.5396161110531817e-06,1.0140714021343472e-06,1.1098528159103127e-06,1.2473717680080538e-06,2.140310757959007e-06
233,2.3020852162773997e-05,5.308770094950018e-06,3.4154061578887397e-06,1.1229496975919465e-05,5.729103872994215e-07,1.0515810509862264e-06,1.0713776316141473e-06,8.396832956277105e-07,2.7592841437420396e-06,1.5188341796359876e-05,1.3289810810438263e-06,2.6244478326234295e-06,1.0180151821613706e-06,1.1008976077835265e-06,1.2535863695559799e-06,2.1244073152772816e-06
234,2.2761012312588728e-05,5.319996523541242e-06,3.4255749154148285e-06,1.0711123530868194e-05,5.661780790796375e-07,1.062180515056087e-06,1.0563961295876717e-06,8.422718432616419e-07,2.7301461286004794e-06,1.4812111437721763e-05,1.3136690784499457e-06,2.7052864824959057e-06,1.0205570593194365e-06,1.088458266343576e-06,1.2581861641497189e-06,2.103230989557193e-06
235,2.251302126385499e-05,5.3156620924418055e-06,3.4414037527258923e-06,1.0219248164590812e-05,5.615710967979969e-07,1.0712454701567227e-06,1.0396123435302614e-06,8.467928629069498e-07,2.7024433010440576e-06,1.4412608962450934e-05,1.297243635012319e-06,2.7821933326854874e-06,1.0215815032830183e-06,1.07271610428192e-06,1.2611337321193032e-06,2.0769592721557882e-06
236,2.229141261481208e-05,5.2950456147174655e-06,3.4640031847775812e-06,9.745779191968901e-06,5.593473646301258e-07,1.078580007493318e-06,1.0216322367592047e-06,8.528601894691797e-07,2.6754292366011575e-06,1.3994120250934243e-05,1.2801637642596913e-06,2.85538157747249e-06,1.0209834375389484e-06,1.0540611171829323e-06,1.2624520485954943e-06,2.0462472823525578e-06
237,2.2110979461718827e-05,5.25960471699803e-06,3.4944993140464195e-06,9.285124179301253e-06,5.596854155080389e-07,1.0840393377446015e-06,1.0029680060150786e-06,8.599813164909656e-07,2.6485730373015046e-06,1.3561729329032574e-05,1.2626407258427832e-06,2.925113599364067e-06,1.0187549094231172e-06,1.0330574484406438e-06,1.2622213082916112e-06,2.011998521056516e-06
238,2.198817234350171e-05,5.212484362589484e-06,3.533730194849497e-06,8.834341088836604e-06,5.626736795437121e-07,1.087487670108807e-06,9.84023182754852e-07,8.675667452061313e-07,2.621835588739181e-06,1.3119380376979413e-05,1.2446921399919525e-06,2.991585855895625e-06,1.0149822919737176e-06,1.0102805137433566e-06,1.2605562132558837e-06,1.9751538935822302e-06
239,2.1940319350572743e-05,5.157747727035712e-06,3.581998118813346e-06,8.39305236238098e-06,5.683259598685449e-07,1.0888540436110567e-06,9.650897421924534e-07,8.750134938911731e-07,2.595718759786016e-06,1.2669694244736066e-05,1.2261974808353286e-06,3.054709510842827e-06,1.0097873677286542e-06,9.861682639182692e-07,1.2575141060957746e-06,1.936638592497073e-06
240,2.1983159670438657e-05,5.099626072907854e-06,3.6390262295519635e-06,7.963125406413869e-06,5.765863821263785e-07,1.088246132942922e-06,9.463853436095501e-07,8.81820656908997e-07,2.571198908101106e-06,1.221459132700972e-05,1.206950894905358e-06,3.113865723814691e-06,1.0033252447517124e-06,9.609775002553437e-07,1.2530583944396842e-06,1.8974221296536117e-06
241,2.2128580588094188e-05,5.041906309344253e-06,3.7040820770088044e-06,7.548182779638849e-06,5.873440159174299e-07,1.085957372915521e-06,9.280896429658887e-07,8.876720973866297e-07,2.549652191399988e-06,1.1755632459975734e-05,1.186785833352065e-06,3.1677701878258884e-06,9.958153441673661e-07,9.348550368972256e-07,1.247159062241569e-06,1.858570404331304e-06
242,2.2383875215306786e-05,4.987610592716728e-06,3.776128178550152e-06,7.153039408507943e-06,6.004813768267929e-07,1.0823209448263517e-06,9.103157536905758e-07,8.924354065217436e-07,2.5327079557797507e-06,1.1294115325621124e-05,1.1657506055547206e-06,3.214484549340223e-06,9.87491836639395e-07,9.079949187015565e-07,1.239939042191822e-06,1.821245029711823e-06
243,2.275237089577926e-05,4.939043946270961e-06,3.853917212783965e-06,6.783144959699956e-06,6.159133715159064e-07,1.0775453536400293e-06,8.930463642976117e-07,8.960698021660489e-07,2.522022790025828e-06,1.0831270657615256e-05,1.144163263390426e-06,3.251615225200058e-06,9.784945226335369e-07,8.807817137241749e-07,1.2317238508215475e-06,1.786656261534478e-06
244,2.3234486145827775e-05,4.897972953574377e-06,3.936018535918727e-06,6.444068169723169e-06,6.335681757409526e-07,1.071678479861514e-06,8.761011776505788e-07,8.985566892079025e-07,2.5191076397268204e-06,1.0368617456104854e-05,1.1224715273913368e-06,3.2767313688397614e-06,9.688377869673627e-07,8.537947516987924e-07,1.222944240964569e-06,1.7559443671260816e-06
245,2.3828432002970634e-05,4.865659781073368e-06,4.020820303126688e-06,6.1410180941466146e-06,6.533437417237643e-07,1.0646848632171875e-06,8.591608035291462e-07,8.999528142150829e-07,2.5253187591489776e-06,9.908311932743933e-06,1.1010961341387644e-06,3.287826353048627e-06,9.584784915980936e-07,8.276684521287196e-07,1.2139783539387119e-06,1.7300111383499897e-06
246,2.4530274402073425e-05,4.842745769540588e-06,4.106608805968208e-06,5.8784017539406125e-06,6.750889078851649e-07,1.0565059228418369e-06,8.418700925798615e-07,9.004704200154371e-07,2.541978976945884e-06,9.45327382810332e-06,1.0803978887597109e-06,3.2835580740653947e-06,9.474014882704378e-07,8.029388446756539e-07,1.2050562006013185e-06,1.7094028707650263e-06
247,2.5333505128000818e-05,4.829131426806364e-06,4.191776986905406e-06,5.659494037607001e-06,6.985906198174232e-07,1.047093527409609e-06,8.240102465377501e-07,9.004552643458094e-07,2.5704374317859216e-06,9.007032041619741e-06,1.0606860411982128e-06,3.2632486896964414e-06,9.357178938508768e-07,7.799827224139405e-07,1.196245081377726e-06,1.694284247490891e-06
248,2.6228450603269514e-05,4.823976581770462e-06,4.275060533240627e-06,5.48631471362572e-06,7.235485639101145e-07,1.0365021422872152e-06,8.056230959195963e-07,9.002852235179239e-07,2.611917844398187e-06,8.573378873239694e-06,1.0422168680762488e-06,3.2268355409601046e-06,9.237519695024281e-07,7.590343562913207e-07,1.1874605527790614e-06,1.6844534437520445e-06
249,2.7201639555577557e-05,4.825880334695578e-06,4.355629779799747e-06,5.359688002386051e-06,7.495612544198014e-07,1.0249746779120852e-06,7.869742700940419e-07,9.002930532950112e-07,2.6672870803738456e-06,8.155855440606506e-06,1.0252053620847195e-06,3.174874394630582e-06,9.1200305625824e-07,7.402244096684187e-07,1.1784877623001846e-06,1.6793851399909607e-06
250,2.823526185544065e-05,4.833215712224271e-06,4.432929817811366e-06,5.279353847968625e-06,7.76125291115668e-07,1.0128907151680176e-06,7.684080530010367e-07,9.007628394585203e-07,2.736982902021127e-06,7.757142512488932e-06,1.0098116888302182e-06,3.108548893280541e-06,9.010101147967213e-07,7.236125758904011e-07,1.1690439133503899e-06,1.678354195438258e-06
251,2.930779941145818e-05,4.844491305494696e-06,4.506308142594997e-06,5.24402228862887e-06,8.02625443235677e-07,1.0006110967863644e-06,7.502572309162703e-07,9.019483132766569e-07,2.8211672386413947e-06,7.37874702349589e-06,9.96091577742401e-07,3.029580515240784e-06,8.912784617485825e-07,7.092107741060165e-07,1.158897410943685e-06,1.680649777146027e-06
252,3.039648624017115e-05,4.858539325892127e-06,4.574698943315682e-06,5.251391127252998e-06,8.283303993674522e-07,9.88362672089332e-07,7.32869904599034e-07,9.040543310333556e-07,2.919957895478354e-06,7.021257527383313e-06,9.83960225612288e-07,2.9399429412267666e-06,8.832849620876232e-07,6.970281753737153e-07,1.1479576485274353e-06,1.6857955798806495e-06
253,3.1479203117870506e-05,4.8743924820021395e-06,4.636657450532213e-06,5.29823620460516e-06,8.524392745585702e-07,9.762368004076648e-07,7.16652548017515e-07,9.072079931276872e-07,3.033469814005467e-06,6.684882975668864e-06,9.731931348073877e-07,2.841506229817693e-06,8.774669806341732e-07,6.871242786154866e-07,1.1362490764688215e-06,1.6936688901733936e-06
254,3.253360602437808e-05,4.8909748307392825e-06,4.690709943929312e-06,5.380520669450066e-06,8.741914820512389e-07,9.642706205704917e-07,7.020422427042663e-07,9.114514481597616e-07,3.161586955913796e-06,6.369878201334958e-06,9.634372795838346e-07,2.7358850518193363e-06,8.741811114526587e-07,6.795912409230127e-07,1.1238542636961198e-06,1.7044302716359112e-06
255,3.353646176826436e-05,4.9069509304656965e-06,4.735759514874219e-06,5.493355127502629e-06,8.930001277703151e-07,9.525444167700614e-07,6.894678129168109e-07,9.167418298366863e-07,3.303701300470541e-06,6.0767228269302025e-06,9.542439342514845e-07,2.624501602871833e-06,8.736711173820299e-07,6.744895732665861e-07,1.110888002056864e-06,1.718277431191811e-06
256,3.4466715997782275e-05,4.9209193224987315e-06,4.771344813385935e-06,5.630941969919319e-06,9.085487269875436e-07,9.412193759402013e-07,6.793645155469491e-07,9.229829346860513e-07,3.458600811999384e-06,5.8060307434194255e-06,9.451955393848878e-07,2.508664408674904e-06,8.760573827284883e-07,6.718310074953205e-07,1.097442202355755e-06,1.7352164069779117e-06
257,3.530997990329132e-05,4.931775648143046e-06,4.797675156234925e-06,5.786787462253888e-06,9.208000699382098e-07,9.304759403033959e-07,6.721850540211279e-07,9.301070943095413e-07,3.624448525162038e-06,5.558242643991777e-06,9.36096366341588e-07,2.3896014990977717e-06,8.81337741294897e-07,6.716016810414175e-07,1.0835340172899332e-06,1.7549884770282254e-06
258,3.605980920562107e-05,4.938964594503767e-06,4.815503132107414e-06,5.954169250022879e-06,9.299120911671877e-07,9.204238252844253e-07,6.683830059687478e-07,9.381145434690365e-07,3.7987506444958714e-06,5.3332579917015356e-06,9.270793718108661e-07,2.268486598927729e-06,8.893843947826188e-07,6.737885445017371e-07,1.0691118803142022e-06,1.7770730794309485e-06
259,3.671444210016968e-05,4.942530181821167e-06,4.825956199909921e-06,6.126710119019517e-06,9.361283427323933e-07,9.110935289858917e-07,6.684275163689951e-07,9.47002726289637e-07,3.978318521972902e-06,5.13016913510946e-06,9.18550589722083e-07,2.146446153931424e-06,8.999375587564335e-07,6.783953449312197e-07,1.054066865182329e-06,1.800696600816866e-06
260,3.7271765620973544e-05,4.9430556925746085e-06,4.830380085870985e-06,6.2989685023910646e-06,9.397169886453958e-07,9.025193362137553e-07,6.7284882585941e-07,9.566704088553323e-07,4.159398221186924e-06,4.947256277665177e-06,9.11044903929489e-07,2.024568245847599e-06,9.12618695296938e-07,6.854144537014034e-07,1.0382584129523094e-06,1.8248629788828799e-06
261,3.77266729054561e-05,4.941573474811596e-06,4.830178578634253e-06,6.466878521065765e-06,9.409453468821495e-07,8.948257847013265e-07,6.822823904648083e-07,9.668796334793246e-07,4.338117299180826e-06,4.782302966916808e-06,9.051457621792958e-07,1.9039898578744856e-06,9.269599861007231e-07,6.947684075175132e-07,1.021594589317341e-06,1.848435028610986e-06
262,3.807163984898039e-05,4.93939473996316e-06,4.826610251005832e-06,6.627842341792002e-06,9.400395014988459e-07,8.882288249865721e-07,6.975007894054369e-07,9.772559116823234e-07,4.511010862209855e-06,4.6329491129679905e-06,9.015236771410822e-07,1.785993011024285e-06,9.424312784387702e-07,7.062748005608959e-07,1.0040647237232421e-06,1.870330926629188e-06
263,3.829789151663267e-05,4.937766854222496e-06,4.820514385900924e-06,6.7804675242331755e-06,9.371612680800672e-07,8.829593028071519e-07,7.193943159294893e-07,9.873328857854713e-07,4.675134404916324e-06,4.496710393886492e-06,9.009797947296847e-07,1.6719466780900762e-06,9.584959077069401e-07,7.196464526395933e-07,9.856666154568649e-07,1.8897951612495734e-06
264,3.8395992123784915e-05,4.9374637924215426e-06,4.812064502900756e-06,6.924163263116934e-06,9.324533325411453e-07,8.792067637244416e-07,7.488912663549041e-07,9.96664373716519e-07,4.827719784385832e-06,4.370822976849276e-06,9.043960018869739e-07,1.5631651726833157e-06,9.746763194094063e-07,7.345269147667248e-07,9.663549474048923e-07,1.9065207973290778e-06
265,3.835717196743332e-05,4.938655200960871e-06,4.800773550840547e-06,7.058815476982132e-06,9.260821895573567e-07,8.771161179341623e-07,7.868973371365e-07,1.0049053699075164e-06,4.966075843074594e-06,4.252453327921076e-06,9.12632538966237e-07,1.4608504705529208e-06,9.90536933233486e-07,7.505422957013517e-07,9.460928040177218e-07,1.920472084015673e-06
266,3.8176043321279434e-05,4.941192485085859e-06,4.785834160623341e-06,7.184554749622919e-06,9.181973138008942e-07,8.767684993313132e-07,8.342886818077388e-07,1.0117662026828451e-06,5.0882352407081515e-06,4.139389152689444e-06,9.26448584980088e-07,1.3660723689759182e-06,1.0056254163273611e-06,7.673247751384695e-07,9.249416944635848e-07,1.9315628391500424e-06
267,3.7853389716456045e-05,4.94497219586185e-06,4.76661379151467e-06,7.301480748142266e-06,9.088836366316624e-07,8.781288054050359e-07,8.918851903288361e-07,1.016942835374403e-06,5.1938160424409566e-06,4.030727928692668e-06,9.464779931046499e-07,1.279722232586144e-06,1.0194930332111968e-06,7.84523662023904e-07,9.031161838490161e-07,1.9395119339579072e-06
268,3.739680571832517e-05,4.95002696842303e-06,4.7430650375244985e-06,7.409262984921737e-06,8.982270513907716e-07,8.810152414397014e-07,9.60383310240573e-07,1.0201586662420091e-06,5.2842817398836945e-06,3.92705189618724e-06,9.732764609918256e-07,1.2024965098797753e-06,1.0317945345348014e-06,8.018177549699499e-07,8.809795752157321e-07,1.94398573785298e-06
269,3.68179354938463e-05,4.956372381310179e-06,4.715915707644516e-06,7.506704295861616e-06,8.864563608351304e-07,8.851360719229119e-07,1.0403274888022863e-06,1.0212456390269013e-06,5.362436704419993e-06,3.82999189506032e-06,1.007409698377671e-06,1.134915955812662e-06,1.0423869613928983e-06,8.188760206098542e-07,8.589924265019176e-07,1.944798008647022e-06
270,3.612826487414383e-05,4.9638078800620846e-06,4.686623531698914e-06,7.59157005524295e-06,8.740122722347632e-07,8.902042654426152e-07,1.1321493311993431e-06,1.0201308341633834e-06,5.431551772908113e-06,3.7414934488842207e-06,1.0494820914244777e-06,1.0773229158992786e-06,1.0513395595089872e-06,8.352768449695372e-07,8.37647587775307e-07,1.9419025865667674e-06
271,3.533792618336332e-05,4.971783597239876e-06,4.6571605446494524e-06,7.661014261285461e-06,8.614700725382204e-07,8.960625877808373e-07,1.2361973465831346e-06,1.0167751534843268e-06,5.494605259610749e-06,3.663212209964679e-06,1.1000717957528839e-06,1.029854016026889e-06,1.0588596068059653e-06,8.504697877623364e-07,8.17413506907786e-07,1.9352255624854468e-06
272,3.445894445236113e-05,4.979351163609175e-06,4.629702830622644e-06,7.712460407593562e-06,8.493910758272792e-07,9.027010744473972e-07,1.3526931440224865e-06,1.0111969309344417e-06,5.5539218846498145e-06,3.5962396448060435e-06,1.1596660549525974e-06,9.924340663173514e-07,1.0652372820842744e-06,8.638152583574854e-07,7.986986041801099e-07,1.924560643333223e-06
273,3.3508977368889345e-05,4.985203892852888e-06,4.60629416973834e-06,7.744318786050069e-06,8.382243521651567e-07,9.101523605492667e-07,1.4816549245354115e-06,1.0035606576605185e-06,5.61121171048795e-06,3.54107223480159e-06,1.2286693039753977e-06,9.64805824720845e-07,1.070804740105838e-06,8.746482460969148e-07,7.818645488065288e-07,1.909564222552397e-06
274,3.251153020628838e-05,4.987824758961573e-06,4.588546659779968e-06,7.756165010437033e-06,8.282867108220028e-07,9.183944873797026e-07,1.6228549858317673e-06,9.942032157461944e-07,5.667817249514383e-06,3.49765785329793e-06,1.3074654118702573e-06,9.46589144084741e-07,1.0758469632623434e-06,8.823182074142881e-07,7.672796601132511e-07,1.889773028698687e-06
275,3.1492637838945475e-05,4.985730019705201e-06,4.577410974008164e-06,7.748630795979059e-06,8.197668678923131e-07,9.273717191297751e-07,1.7758355052817917e-06,9.835716431300434e-07,5.724959879774983e-06,3.46541452903054e-06,1.3964686163535553e-06,9.373457284539839e-07,1.0805195353072331e-06,8.863048930877808e-07,7.55336944812378e-07,1.8646735216453058e-06
276,3.0476458636663753e-05,4.977738536266982e-06,4.573046027648095e-06,7.723451215506265e-06,8.127426324595591e-07,9.370900734861073e-07,1.9399646582879764e-06,9.721271334087023e-07,5.783917163439487e-06,3.4432016593069348e-06,1.4960865471634733e-06,9.365946704445349e-07,1.0848225537853596e-06,8.864640118977332e-07,7.463931226766907e-07,1.8338497881879796e-06
277,2.948208875006403e-05,4.963192787942197e-06,4.574866615523695e-06,7.683735295125997e-06,8.072215157285015e-07,9.476655193989975e-07,2.1144483531035184e-06,9.602409213241204e-07,5.8461706545668926e-06,3.429345186373877e-06,1.6066069363029131e-06,9.437769779432057e-07,1.088607171788353e-06,8.831734575471262e-07,7.406900999443782e-07,1.7971523793236795e-06
278,2.852264446745765e-05,4.942109000793311e-06,4.5818427325781156e-06,7.634085842250485e-06,8.031658111169407e-07,9.592795047030653e-07,2.298234707968676e-06,9.481075161835132e-07,5.9134601821546724e-06,3.4218421011824083e-06,1.7281101980973768e-06,9.582520180122794e-07,1.0916177690472691e-06,8.772031089034674e-07,7.383383533953328e-07,1.7548289267861345e-06
279,2.7606275317342776e-05,4.915233734749159e-06,4.592970343817003e-06,7.580149160197839e-06,8.00487772933269e-07,9.7210389019353e-07,2.489869105900473e-06,9.357101474228969e-07,5.987551352519215e-06,3.4187444402905474e-06,1.8604247427986432e-06,9.79379074982207e-07,1.0935822770385362e-06,8.694621359705929e-07,7.393453679719826e-07,1.707538310201311e-06
280,2.6737923427402962e-05,4.883928009292891e-06,4.607655571974068e-06,7.52766305016503e-06,7.990428046941307e-07,9.86253128103718e-07,2.687418047762198e-06,9.22856976466035e-07,6.069709192509399e-06,3.4185518268702075e-06,2.0030607600861342e-06,1.0066044382165917e-06,1.094341070028014e-06,8.608249475526718e-07,7.436315950806779e-07,1.6561937906018104e-06
281,2.5920804058840413e-05,4.849822990427348e-06,4.625817490144995e-06,7.481710007197286e-06,7.986450723786931e-07,1.0017569800147645e-06,2.8885666678406028e-06,9.093040775331092e-07,6.160168534197018e-06,3.4203043379063867e-06,2.1551304545861087e-06,1.0394383349272532e-06,1.0939537199871269e-06,8.520599269348383e-07,7.510398012799759e-07,1.6017772955419693e-06
282,2.5157294895020905e-05,4.814331486963493e-06,4.64777100172923e-06,7.446721271530261e-06,7.991103162884804e-07,1.0185579499535002e-06,3.090909682657563e-06,8.949252077799288e-07,6.25783198260397e-06,3.423263248164255e-06,2.315323988948802e-06,1.077356139359051e-06,1.092670324576197e-06,8.438014931467184e-07,7.613487176593305e-07,1.5453226175593975e-06
283,2.4449298184835726e-05,4.7782522270836505e-06,4.674035388418448e-06,7.4268499680523735e-06,8.002832816285521e-07,1.0365310789959464e-06,3.292294385970177e-06,8.797921115209348e-07,6.360152959380979e-06,3.4265160942388776e-06,2.481995296300134e-06,1.1197556290469198e-06,1.0907846823850907e-06,8.365343377701388e-07,7.742632339530118e-07,1.4879872220820171e-06
284,2.3798126340998805e-05,4.741690617163857e-06,4.705065541823974e-06,7.425984484437752e-06,8.020106653302793e-07,1.0554769227531718e-06,3.490984449487313e-06,8.640924968658938e-07,6.463106297983691e-06,3.428890831056514e-06,2.6533137576704002e-06,1.1659959129296207e-06,1.0885136773681974e-06,8.305983493626352e-07,7.89401235230813e-07,1.430998641911594e-06
285,2.320393502147737e-05,4.704263238765821e-06,4.740885364381634e-06,7.447320051552053e-06,8.0408469703856e-07,1.0750871728705455e-06,3.6855134631962693e-06,8.480088300725838e-07,6.5613137246312034e-06,3.429176471641484e-06,2.8273083290205266e-06,1.215416160922754e-06,1.0859448483042334e-06,8.262360735981137e-07,8.063266436219745e-07,1.3754838842746674e-06
286,2.2664736778645284e-05,4.665337386671817e-06,4.780804077803453e-06,7.493024176464946e-06,8.062341353023245e-07,1.0949226055216042e-06,3.8743028245970765e-06,8.316774142823211e-07,6.648492351963326e-06,3.4264308966526505e-06,3.0017144408912784e-06,1.2672629552204887e-06,1.0830452787596198e-06,8.236713266520874e-07,8.246011553001037e-07,1.3223505762642329e-06
287,2.217520568755176e-05,4.624130724995283e-06,4.823376182072999e-06,7.56420770411617e-06,8.082099731191714e-07,1.1144379792939754e-06,4.055251026049439e-06,8.151879647167914e-07,6.718272869172287e-06,3.4202547692527354e-06,3.1737582514544534e-06,1.320578867695539e-06,1.0797481363259124e-06,8.231449806989364e-07,8.438228187246169e-07,1.272305353826708e-06
288,2.1725959728452698e-05,4.579681212486206e-06,4.866496627383226e-06,7.660880520330923e-06,8.098881398339218e-07,1.1330934149564838e-06,4.225482507027107e-06,7.985907572584788e-07,6.765241000610173e-06,3.4109669879720807e-06,3.340016272275451e-06,1.374158300372994e-06,1.0760239372263336e-06,8.24880174952487e-07,8.636869101932534e-07,1.2259326736871885e-06
289,2.1304053187997505e-05,4.530805126339855e-06,4.907514889539399e-06,7.781980852868406e-06,8.11273453857978e-07,1.1505056024140524e-06,4.3813452325121285e-06,7.819184980302097e-07,6.7859592617148054e-06,3.3995741372883594e-06,3.496342964166078e-06,1.4266411396164709e-06,1.07184720729903e-06,8.290446973808683e-07,8.84023232212956e-07,1.1837202974275941e-06
290,2.0894673742687597e-05,4.476176304606272e-06,4.9434206262588076e-06,7.925940786226243e-06,8.12423470112778e-07,1.1665049835437566e-06,4.51867182747337e-06,7.651994988866819e-07,6.779655578765562e-06,3.3875065753550974e-06,3.6379013458325542e-06,1.476731972955942e-06,1.0671516601083617e-06,8.357388787914304e-07,9.047202661086463e-07,1.1460378569077366e-06
291,2.0483414706271172e-05,4.4145598374093405e-06,4.971111134476709e-06,8.091700585182113e-06,8.134041456506646e-07,1.1810473135615998e-06,4.6332904909012416e-06,7.484898779525191e-07,6.748284422155506e-06,3.3762379093099113e-06,3.759512128207245e-06,1.5234415872133086e-06,1.0618700845386815e-06,8.449809673517377e-07,9.256233221276685e-07,1.1131208399016084e-06
292,2.0058312741643892e-05,4.345086737437729e-06,4.987662314000555e-06,8.279604847968907e-06,8.142914266868306e-07,1.1940966637117203e-06,4.721713508389914e-06,7.319342019094363e-07,6.695945997522025e-06,3.366928639833745e-06,3.856455121094897e-06,1.5662230315946556e-06,1.0559793399704889e-06,8.566839813720764e-07,9.465254527069887e-07,1.0850837153097944e-06
293,1.961093186331542e-05,4.267424073754132e-06,4.990591045118451e-06,8.49167185821478e-06,8.151538464772495e-07,1.2056241762003637e-06,4.781800785342847e-06,7.157596809516549e-07,6.627963439711439e-06,3.360191639800417e-06,3.925394459414167e-06,1.604911948078167e-06,1.0494747580800442e-06,8.706488543917852e-07,9.67197706595302e-07,1.061988917190839e-06
294,1.9136378103459608e-05,4.181773981595895e-06,4.978154096654717e-06,8.731004683827277e-06,8.160379000594336e-07,1.2156876536511425e-06,4.813107122686483e-06,7.001818534345465e-07,6.549924888526728e-06,3.3560867325797116e-06,3.964787547317231e-06,1.6394950694163996e-06,1.0423518424140091e-06,8.866113511119086e-07,9.87420318039026e-07,1.043917246440014e-06
295,1.8632845124527794e-05,4.088653538929957e-06,4.949652029338902e-06,9.000630960736177e-06,8.169923228704299e-07,1.2244375335002729e-06,4.8167155250928554e-06,6.853428896213274e-07,6.466878150225034e-06,3.3543984677138417e-06,3.9744645868668636e-06,1.6699040324203781e-06,1.0346426417672435e-06,9.043261898022474e-07,1.0070531620803743e-06,1.0309402187565778e-06
296,1.810128375592066e-05,3.988524485113808e-06,4.9056117452075635e-06,9.302530245358636e-06,8.180820947395988e-07,1.2320105333883233e-06,4.794584961743955e-06,6.713687540328586e-07,6.382897075597094e-06,3.355028458756951e-06,3.954810750407843e-06,1.6960089239521224e-06,1.0264239144984841e-06,9.236112102178148e-07,1.0260800199210662e-06,1.0230258691265867e-06
297,1.754513124966204e-05,3.881698419189189e-06,4.847747336722826e-06,9.637246715713004e-06,8.193776719291509e-07,1.2384180869925405e-06,4.748713616925991e-06,6.584788184805414e-07,6.301063111629692e-06,3.3582002456382853e-06,3.9063785599084575e-06,1.7177494646405519e-06,1.0177570723334916e-06,9.443197692913306e-07,1.044553624013269e-06,1.019972429132222e-06
298,1.696950678348831e-05,3.768795927236484e-06,4.778714119949061e-06,1.0003805750161465e-05,8.209564788287893e-07,1.2435235970739584e-06,4.680625315020201e-06,6.470238971813954e-07,6.223536182934538e-06,3.3643362631073712e-06,3.830234708004098e-06,1.7352563727527542e-06,1.0086261934919118e-06,9.662835726543364e-07,1.0624973919958238e-06,1.021378365003715e-06
299,1.6379625569141712e-05,3.6512809600963157e-06,4.701747850247639e-06,1.0399858995256519e-05,8.228956807739146e-07,1.2471085768727333e-06,4.591463545183768e-06,6.37461421474507e-07,6.1515686558783656e-06,3.3737458209548456e-06,3.7285592367476465e-06,1.7489053616142899e-06,9.989266762419667e-07,9.892838852629193e-07,1.0798312024628151e-06,1.0266446014562161e-06
300,1.5779331846541778e-05,3.5314466020498475e-06,4.620279051017397e-06,1.082220676552682e-05,8.252318522603567e-07,1.248979963733772e-06,4.48245477881324e-06,6.303835734065046e-07,6.085670371391132e-06,3.3864003690441497e-06,3.6049122684132217e-06,1.7592593294448772e-06,9.8849639912745e-07,1.01308421592702e-06,1.0963371038986458e-06,1.0350718200813405e-06
301,1.5170957585848114e-05,3.411890059420879e-06,4.537591204888262e-06,1.1267355954466503e-05,8.279506467061826e-07,1.2490517064648468e-06,4.355357890087113e-06,6.265926920809951e-07,6.025843641331989e-06,3.4019676350824182e-06,3.4639460310702624e-06,1.7668691863322076e-06,9.771554782505388e-07,1.0374806917826355e-06,1.1116595950085787e-06,1.04605678803059e-06
302,1.4556360933207198e-05,3.2950193649586377e-06,4.456583860902406e-06,1.1731704155517974e-05,8.310501224889755e-07,1.2473333272652388e-06,4.2127013643920625e-06,6.271103337371859e-07,5.97154894916971e-06,3.4200591407585126e-06,3.3107217640390292e-06,1.7720547702315572e-06,9.647323977258354e-07,1.0623054234394996e-06,1.125329235416482e-06,1.0592383186865012e-06
303,1.393798444006457e-05,3.1829670787553586e-06,4.379673281974767e-06,1.2211399868979498e-05,8.345989394929479e-07,1.2438665060348576e-06,4.0577220795084115e-06,6.331133674865293e-07,5.9214597691922325e-06,3.440508683212644e-06,3.150038008007468e-06,1.7748359214675155e-06,9.51101095215378e-07,1.0874565230053722e-06,1.1368352904935203e-06,1.074466443437584e-06
304,1.3319327200716581e-05,3.0777764546140785e-06,4.308789177455822e-06,1.2702100150785495e-05,8.387105415399687e-07,1.2387364472911994e-06,3.894051060946824e-06,6.45875088646314e-07,5.873360163907978e-06,3.4635033331195753e-06,2.9860645497922804e-06,1.7749810539438462e-06,9.362383750789075e-07,1.1130048620813467e-06,1.1457627964169395e-06,1.0916711799613638e-06
305,1.270499586579043e-05,2.981549903253715e-06,4.2453433981690245e-06,1.319877050049671e-05,8.434894763727923e-07,1.232142475294605e-06,3.725367167283701e-06,6.667165316423565e-07,5.824279692609879e-06,3.4894949821094375e-06,2.8222681885243145e-06,1.7720497712009539e-06,9.202579470341079e-07,1.1392109455803955e-06,1.1518919454057549e-06,1.1107820038500923e-06
306,1.2100553939008618e-05,2.896428198262158e-06,4.1901118706613455e-06,1.3695588100045703e-05,8.490461846199046e-07,1.2243897510816373e-06,3.5552091710744358e-06,6.969377904567542e-07,5.770775466504758e-06,3.5189237671870636e-06,2.6614871765822525e-06,1.7655019246518597e-06,9.034017083471429e-07,1.1663699721726275e-06,1.1551556889070232e-06,1.1317184488741595e-06
307,1.1512186777616532e-05,2.8244228566379064e-06,4.1432061739930765e-06,1.4185839149989325e-05,8.555452287206954e-07,1.2157949117923059e-06,3.3868981333505565e-06,7.377582315375777e-07,5.7093876005441745e-06,3.551860169682382e-06,2.506045561180909e-06,1.7549541411282585e-06,8.859870411154503e-07,1.1946496182761e-06,1.155545781327953e-06,1.1543837337388957e-06
308,1.0946236147350558e-05,2.7672197583340535e-06,4.104313063382731e-06,1.4661581027504273e-05,8.631777116104633e-07,1.206604967468937e-06,3.223409770959917e-06,7.902996379469322e-07,5.637266903979983e-06,3.587727079302943e-06,2.35783492704736e-06,1.7403540802849632e-06,8.683124413986026e-07,1.2240404095689978e-06,1.1531062271914858e-06,1.1786326360716817e-06
309,1.0408815039051551e-05,2.7260967972212757e-06,4.0730788696849815e-06,1.5113322026309277e-05,8.72059446223118e-07,1.196945600370331e-06,3.0672060447093477e-06,8.555877676458888e-07,5.55279365334808e-06,3.625174522880412e-06,2.21832824480554e-06,1.7218697489502167e-06,8.505848775136956e-07,1.2543671282113667e-06,1.1479719744948805e-06,1.2042184718799129e-06
310,9.905621421387968e-06,2.7019682938570375e-06,4.0494174046361156e-06,1.553058448719378e-05,8.821498290966341e-07,1.1867654889433344e-06,2.920172074609038e-06,9.345362023890263e-07,5.455967667871795e-06,3.6620822627057558e-06,2.0885471426297945e-06,1.6997227044605178e-06,8.329404276457795e-07,1.2852933061399892e-06,1.1403395187813406e-06,1.2307513149383066e-06
311,9.441804060018958e-06,2.6954178283674017e-06,4.03366936643935e-06,1.5903526820676466e-05,8.93234024563656e-07,1.1758159746573522e-06,2.783666387672166e-06,1.0279318232061704e-06,5.3484584504651324e-06,3.6957460790120486e-06,1.969034564016666e-06,1.6742040246764153e-06,8.155148154420482e-07,1.316307381110165e-06,1.1303599413831849e-06,1.257733279754242e-06
312,9.021679803156588e-06,2.70663666038265e-06,4.026629497022629e-06,1.622457974528289e-05,9.049413318787337e-07,1.1637227133173096e-06,2.6585759947075997e-06,1.1364658926436904e-06,5.233315613859324e-06,3.7232874585386507e-06,1.8598743176554581e-06,1.6457466315196772e-06,7.98464236974636e-07,1.3467016255078626e-06,1.1180476315238232e-06,1.2846784972432676e-06
313,8.6483235202658e-06,2.735388328041475e-06,4.029469944286462e-06,1.648924132034493e-05,9.167866379061359e-07,1.1500838545200116e-06,2.5453640191902574e-06,1.2607948602355756e-06,5.114407548411759e-06,3.742143464638488e-06,1.7607935420371577e-06,1.6149141971068186e-06,7.819532885367419e-07,1.375595359727357e-06,1.1032907004601282e-06,1.3112009263954481e-06
314,8.323293441205582e-06,2.7811188892313295e-06,4.043583585298906e-06,1.66961085112516e-05,9.282331743081737e-07,1.1345044412307858e-06,2.444124117246787e-06,1.4015854680153854e-06,4.995764800283872e-06,3.750450630286891e-06,1.6713337267716334e-06,1.582348520346658e-06,7.661649606436024e-07,1.4020431315108313e-06,1.0859445552278233e-06,1.3369647515167322e-06
315,8.046792270992056e-06,2.8430943130720617e-06,4.0703695347834824e-06,1.6846496674967807e-05,9.387409005794308e-07,1.1166736649860933e-06,2.3545810255109434e-06,1.5595473990837889e-06,4.881099548294713e-06,3.7472318847277253e-06,1.5909745229922612e-06,1.5487325889833573e-06,7.512864567401892e-07,1.4251626461198752e-06,1.065939142402506e-06,1.3615826071686798e-06
316,7.818347514557973e-06,2.9203777470906345e-06,4.111000220840486e-06,1.694386256684652e-05,9.478037663389525e-07,1.0965922139461416e-06,2.2760218346549556e-06,1.735459354467457e-06,4.773627232281602e-06,3.7323827170471682e-06,1.5191443810613431e-06,1.5147761965709726e-06,7.374639806374942e-07,1.4442084612273258e-06,1.0433514052882047e-06,1.3845963518871968e-06
317,7.637760487156778e-06,3.0116634375123793e-06,4.166200708348631e-06,1.6993116260548438e-05,9.550282106944955e-07,1.0747546399387507e-06,2.2072482417758506e-06,1.9301533354278545e-06,4.676041446724805e-06,3.7065212583857878e-06,1.4552065820665234e-06,1.481178806130951e-06,7.248060957305171e-07,1.4586201103073105e-06,1.0184158597317178e-06,1.4055258284580233e-06
318,7.50587199273989e-06,3.1151332788949516e-06,4.236046741923046e-06,1.6999707307394296e-05,9.602282741656566e-07,1.0520558507141962e-06,2.1466603419533468e-06,2.1444446071054597e-06,4.590458885645843e-06,3.670743311276419e-06,1.3985034812370352e-06,1.4485408338271668e-06,7.134202195626275e-07,1.468077627457786e-06,9.914758055164487e-07,1.4239339850338595e-06
319,7.424791625963058e-06,3.2284558493309115e-06,4.319821753710869e-06,1.6968363135433728e-05,9.634515849970242e-07,1.0295029064539948e-06,2.0925000121477186e-06,2.379034656513335e-06,4.518304810109114e-06,3.6262632676030288e-06,1.3484362098120425e-06,1.417296908100441e-06,7.033922187597996e-07,1.4725156152950585e-06,9.62905755196729e-07,1.439464798282432e-06
320,7.397571296132807e-06,3.3489164744920208e-06,4.416011524111767e-06,1.6901959586564413e-05,9.649030712072286e-07,1.00797600803512e-06,2.04317005452459e-06,2.634391566548958e-06,4.4602166215304045e-06,3.5740612039984314e-06,1.3045261813489015e-06,1.3877309232236507e-06,6.947309086861393e-07,1.4720351494174532e-06,9.330668316781683e-07,1.4518086100468626e-06
321,7.427590102557443e-06,3.473517848842674e-06,4.522450685594793e-06,1.6801479247433693e-05,9.648160856500451e-07,9.88143206001675e-07,1.9975004241055854e-06,2.9105928010594145e-06,4.416130029451402e-06,3.514791481043459e-06,1.2664014668009794e-06,1.3600095465677035e-06,6.873713950210816e-07,1.4667364295593905e-06,9.023339681656678e-07,1.460706794682738e-06
322,7.517915294200105e-06,3.598905286400829e-06,4.636555693823683e-06,1.6667190091521125e-05,9.633810945292687e-07,9.704661749670943e-07,1.954856854872682e-06,3.2071551204744954e-06,4.385604050315765e-06,3.4489810574853903e-06,1.2336913320950005e-06,1.3342052614552933e-06,6.812339743361704e-07,1.4566008242801625e-06,8.711258759769156e-07,1.466086863501649e-06
323,7.670721466156519e-06,3.7212491009469975e-06,4.755628014102148e-06,1.650004516508444e-05,9.60771281411355e-07,9.552440164930083e-07,1.9150616868271842e-06,3.5229012174646876e-06,4.368115658552281e-06,3.3772725484750912e-06,1.2059445771154008e-06,1.310368779400956e-06,6.762628698857226e-07,1.4415303782407977e-06,8.398719003996448e-07,1.468138157718314e-06
324,7.886789983206064e-06,3.8363738689205206e-06,4.87726636308456e-06,1.630251966844703e-05,9.571581484163264e-07,9.426920888117335e-07,1.8782087549323767e-06,3.855885073988715e-06,4.363080440851127e-06,3.300507594213513e-06,1.182674636540914e-06,1.2886059623604403e-06,6.724147981165395e-07,1.421490112613211e-06,8.08978984283984e-07,1.4671768459178964e-06
325,8.165169240426483e-06,3.9401815316420374e-06,4.999786291250178e-06,1.6078970598789814e-05,9.526564895995862e-07,9.330149411475971e-07,1.8444937131601653e-06,4.2033579040178055e-06,4.3697540454407546e-06,3.2196435960469983e-06,1.1634444339541564e-06,1.2690566936147545e-06,6.696192101471196e-07,1.3966197056246935e-06,7.788567601894873e-07,1.4634435878956269e-06
326,8.503027574925929e-06,4.029108476711867e-06,5.122383653307576e-06,1.5835832397667443e-05,9.472749183324627e-07,9.264325142195376e-07,1.8140932901610878e-06,4.561734510001904e-06,4.3872543379694235e-06,3.135682961077793e-06,1.1478619836331765e-06,1.2518347307421152e-06,6.677448150711968e-07,1.3672620551002672e-06,7.499488511767133e-07,1.4569959359331651e-06
327,8.8956011591232e-06,4.100355787413889e-06,5.2448958241522e-06,1.5581621921539206e-05,9.409128918829908e-07,9.231775966126178e-07,1.7870493510518363e-06,4.92657854660257e-06,4.414596426724423e-06,3.0497774984300512e-06,1.1354893237766067e-06,1.2370471680494078e-06,6.666012110009722e-07,1.3339372056098623e-06,7.227344407323185e-07,1.447710874917435e-06
328,9.33615078134304e-06,4.151842478672903e-06,5.367261033176776e-06,1.5326380776182963e-05,9.333832947008405e-07,9.234811597916254e-07,1.7631606230852883e-06,5.292687098919708e-06,4.450546311854938e-06,2.96336369491659e-06,1.1257803445619978e-06,1.2248527548942902e-06,6.659924903778226e-07,1.2973015820165807e-06,6.977244876440228e-07,1.4354355543970008e-06
329,9.81603664091543e-06,4.181946109418423e-06,5.4889239344753675e-06,1.5080376002753138e-05,9.244877087555499e-07,9.275276627955379e-07,1.7419505601910987e-06,5.654210899977462e-06,4.4935265914799075e-06,2.87806716616134e-06,1.1181293000455902e-06,1.2154612884531072e-06,6.657984663067367e-07,1.2581023793839686e-06,6.754390926788085e-07,1.4202802978418082e-06
330,1.032509729659023e-05,4.189122546024564e-06,5.608507339600009e-06,1.4852784889036614e-05,9.141367333039487e-07,9.353839244818702e-07,1.722720138666089e-06,6.00461870639239e-06,4.541837043384764e-06,2.79543918443981e-06,1.1119420527366563e-06,1.2091073473815022e-06,6.660001106152077e-07,1.2171033254789658e-06,6.563543505685863e-07,1.4027978661095934e-06
