,EMG1,EMG2,EMG3,EMG4,EMG5,EMG6,EMG7,EMG8,EMG9,EMG10,EMG11,EMG12,EMG13,EMG14,EMG15,EMG16
0,-2.3816327537461514e-08,1.3859820186419092e-06,1.2408102909767863e-07,2.778933239334166e-06,2.6879871992906865e-07,1.3368969860791215e-07,5.623959509733395e-08,9.257329212886563e-08,-4.09266052856952e-08,5.330493833676595e-07,2.1057859630013303e-07,1.687189405929787e-07,1.9191894564010224e-07,2.190115531026881e-07,1.609358699442446e-08,2.0617500593596346e-07
1,8.499567091301517e-08,1.5006513414951787e-06,2.0108540857700057e-07,2.9771060387517823e-06,3.440595628810493e-07,2.001036694297616e-07,1.6073237858159464e-07,2.0876652871971163e-07,2.7573406870666803e-07,6.615724315752618e-07,2.794998513483774e-07,3.072275511294878e-07,2.9458581758507743e-07,2.9336346000745297e-07,1.0126744243897504e-07,3.535340545445562e-07
2,1.919750611416043e-07,1.6180133459302144e-06,2.783245209083505e-07,3.2007927947887213e-06,4.193309689781148e-07,2.656043213457335e-07,2.6220355343466785e-07,3.2124411889073375e-07,5.739551567437155e-07,7.915436272946146e-07,3.482602271949511e-07,4.453805782058393e-07,3.9348457621292347e-07,3.639794925923406e-07,1.8373441091855387e-07,5.009451338370284e-07
3,2.958717129840635e-07,1.736357437989358e-06,3.545739291600386e-07,3.4500769130403935e-06,4.937937717479417e-07,3.293109440725387e-07,3.5943021705679957e-07,4.2866204714096417e-07,8.516549541318865e-07,9.203585019867536e-07,4.1625943676835943e-07,5.823641923884572e-07,4.870305233392054e-07,4.30760725452337e-07,2.6286722191051775e-07,6.455215449291858e-07
4,3.9562156460968436e-07,1.8539104271428184e-06,4.2869801289614234e-07,3.7254863049021096e-06,5.666275847230947e-07,3.9073097202979823e-07,4.51253325284373e-07,5.300279788643778e-07,1.107087840866936e-06,1.045612268654063e-06,4.830679255514116e-07,7.174765056535004e-07,5.73814669098482e-07,4.935940710528471e-07,3.380205077383688e-07,7.845629404925445e-07
5,4.904354870308685e-07,1.9688586119103586e-06,4.997335425885001e-07,4.027904601748325e-06,6.370206918357153e-07,4.4967288009811907e-07,5.36647504250964e-07,6.247668779594675e-07,1.3387598747413539e-06,1.1652436956305117e-06,5.483765386489971e-07,8.500598261292928e-07,6.527268309109099e-07,5.523702854049e-07,4.0855844858528006e-07,9.157477856843087e-07
6,5.798349483010412e-07,2.0794151945145384e-06,5.669655835133136e-07,4.358276231954149e-06,7.042090160574185e-07,5.060651385890557e-07,6.14790342386658e-07,7.126339723227612e-07,1.5453917292318046e-06,1.2776976187673385e-06,6.119094752864488e-07,9.794341708353021e-07,7.230547956108245e-07,6.069756531761294e-07,4.7395140984492527e-07,1.0373511087119266e-06
7,6.636034014826149e-07,2.183928687061297e-06,6.299715837550979e-07,4.717250352727211e-06,7.675665754175278e-07,5.598297759956683e-07,6.851187503071726e-07,7.935263312088675e-07,1.725957432560995e-06,1.3820470579684394e-06,6.733451298673554e-07,1.104870976306246e-06,7.845120928230619e-07,6.57253393120689e-07,5.338950012324131e-07,1.1483811764404986e-06
8,7.416743759612126e-07,2.280973725572143e-06,6.886211838453282e-07,5.104849593904324e-06,8.266424999899251e-07,6.108737058439553e-07,7.473650850196568e-07,8.673556986300435e-07,1.8796856585308568e-06,1.4779890966180773e-06,7.322668995311953e-07,1.2255589872743704e-06,8.371855767522477e-07,7.029881770448525e-07,5.883570687044184e-07,1.2485363973903865e-06
9,8.140627607963209e-07,2.3693310505931595e-06,7.430190736143893e-07,5.520202068027291e-06,8.810732787947412e-07,6.591570588890472e-07,8.015663377773524e-07,9.340800709895404e-07,2.0061373399054314e-06,1.5656672048404565e-06,7.881710068127941e-07,1.3405796790423817e-06,8.814565616994164e-07,7.439661789724748e-07,6.375457092223989e-07,1.337972845399496e-06
10,8.80872579788836e-07,2.4478194661736635e-06,7.933919716164663e-07,5.961423421750968e-06,9.304897986961396e-07,7.047279370885752e-07,8.480191415443555e-07,9.938154304302847e-07,2.105547972939074e-06,1.6453745251729205e-06,8.405211478831123e-07,1.4489872404588095e-06,9.179307852506194e-07,7.801168773637985e-07,6.818778118198923e-07,1.4170074063977308e-06
11,9.422700176898382e-07,2.5151267021588855e-06,8.399755628636997e-07,6.425676173415747e-06,9.745638714585301e-07,7.476643983162567e-07,8.87160560684732e-07,1.0469018386220436e-06,2.1791428272583582e-06,1.7173068967691888e-06,8.887886482296731e-07,1.5500013320943215e-06,9.473474232391589e-07,8.116241244439381e-07,7.219539360747379e-07,1.485960388509408e-06
12,9.983944400254817e-07,2.5698730351229742e-06,8.829769958198857e-07,6.909224972225411e-06,1.0131658722655374e-06,7.87998942264792e-07,9.194436678745378e-07,1.093879332492624e-06,2.229014714637853e-06,1.7814802415320987e-06,9.324563145940072e-07,1.6431924418921917e-06,9.704718627443392e-07,8.388789191554445e-07,7.584757621252754e-07,1.5451978545430348e-06
13,1.0493001276530167e-06,2.6109268869006846e-06,9.226034610360009e-07,7.407284195822817e-06,1.0464844784916119e-06,8.256947677171544e-07,9.452828693252274e-07,1.135406045217051e-06,2.257695492564515e-06,1.8377358309574858e-06,9.710423942665688e-07,1.7285594309743552e-06,9.880414565206383e-07,8.623203570725347e-07,7.921212255655809e-07,1.5952246257190082e-06
14,1.0949356036501645e-06,2.6377372069184986e-06,9.590774279130486e-07,7.913684100063297e-06,1.0749960404342388e-06,8.606431610499584e-07,9.650473129873308e-07,1.1721827963716345e-06,2.2678129039528376e-06,1.8857583613865709e-06,1.0041976378063066e-06,1.8065032447501477e-06,1.0007948155557467e-06,8.823306691440981e-07,8.234658126411066e-07,1.6366824780958317e-06
15,1.1351106724216408e-06,2.6504552925522493e-06,9.926056682181758e-07,8.42056750924357e-06,1.0993082709636653e-06,8.926542682089932e-07,9.79100812414816e-07,1.204905608679771e-06,2.2619556685016542e-06,1.925158450117601e-06,1.031849416017434e-06,1.8776957521148321e-06,1.0095272179596733e-06,8.99267605960459e-07,8.530092306853386e-07,1.6702306483440723e-06
16,1.169499856687927e-06,2.649807579566641e-06,1.0233268825458847e-06,8.918351535643763e-06,1.1200142001168288e-06,9.214649526477e-07,9.878868434398798e-07,1.234213582904009e-06,2.2426326099664e-06,1.9555811895781176e-06,1.0542871871265018e-06,1.9428342403376514e-06,1.0150847466650976e-06,9.135347026210394e-07,8.812715430005141e-07,1.6963879834279044e-06
17,1.197771090512181e-06,2.6368547497986705e-06,1.0512598651137313e-06,9.396132259595036e-06,1.137636388195898e-06,9.46812938391373e-07,9.919466317969422e-07,1.2606463069015845e-06,2.212218866347036e-06,1.9767333140208527e-06,1.07209225657491e-06,2.002391856199187e-06,1.0182941600634771e-06,9.255500425410007e-07,9.088365743623058e-07,1.7155047573842194e-06
18,1.219811118209727e-06,2.612802644859852e-06,1.0762653290134143e-06,9.842594744831907e-06,1.1526086974201053e-06,9.685874529675498e-07,9.918341071852098e-07,1.2846515004315582e-06,2.1728742568799658e-06,1.988476426899873e-06,1.0859656546670253e-06,2.056511856923177e-06,1.0199156551612574e-06,9.356580642655764e-07,9.362872723223713e-07,1.7279771424342038e-06
19,1.2358862375341064e-06,2.578919643359898e-06,1.0980305633458126e-06,1.024734847429388e-05,1.1652497170046484e-06,9.869494182603027e-07,9.880465028924428e-07,1.3065996673459194e-06,2.126520286026908e-06,1.9911630421248697e-06,1.0966046176280232e-06,2.1050806512879567e-06,1.020665089459737e-06,9.44115940419989e-07,9.641114588852408e-07,1.7345528408038287e-06
20,1.246587270324141e-06,2.5365090023697773e-06,1.1160955754927192e-06,1.0602496655147738e-05,1.1757466014852675e-06,1.002294573990708e-06,9.810104869422978e-07,1.3267637465445525e-06,2.074954992571674e-06,1.985946564904074e-06,1.10465623085856e-06,2.147872853446393e-06,1.021255290069827e-06,9.511445472133633e-07,9.926526312085779e-07,1.7364313931859026e-06
21,1.2525979483421037e-06,2.486865648639338e-06,1.1299791901336083e-06,1.0903997175354146e-05,1.1841429390795906e-06,1.0150887469298407e-06,9.710565172812385e-07,1.3453185122310122e-06,2.020003861715365e-06,1.9747003936720456e-06,1.1106787713123669e-06,2.18460126716443e-06,1.0223771022425886e-06,9.569756265921692e-07,1.0221092063973475e-06,1.735101222909133e-06
22,1.2545087332988453e-06,2.4311863873378132e-06,1.1394088162923236e-06,1.1152084165772104e-05,1.1903391081827519e-06,1.0257283422976896e-06,9.584055280520925e-07,1.3624180521675003e-06,1.9635621412048637e-06,1.9596333290879376e-06,1.1150964940313505e-06,2.2149004062750487e-06,1.0246227449785937e-06,9.618860468102713e-07,1.052552684415073e-06,1.7321167636498564e-06
23,1.2528093216436586e-06,2.3704554442006657e-06,1.1445046888431288e-06,1.135035785094848e-05,1.1941552418095648e-06,1.0345132125920952e-06,9.432531876247721e-07,1.3783379591949397e-06,1.9075619242220125e-06,1.9429264344406545e-06,1.118177078077546e-06,2.238380554947787e-06,1.028433264385496e-06,9.662068301846754e-07,1.0839381911727293e-06,1.7289472665176282e-06
24,1.2479482138712844e-06,2.305337908363649e-06,1.145770673443056e-06,1.150396780442818e-05,1.1954174593987386e-06,1.0416950889558094e-06,9.259205341622922e-07,1.3936012320418194e-06,1.8539463367851029e-06,1.9265283557235636e-06,1.120036257025348e-06,2.2546875573646242e-06,1.0341031177749055e-06,9.703118449547953e-07,1.1161260852345592e-06,1.7268964514571141e-06
25,1.2403351277331033e-06,2.236108998173583e-06,1.1439166413710886e-06,1.1617753152024698e-05,1.193967501096212e-06,1.0475308222037454e-06,9.069454775845403e-07,1.4089846525826852e-06,1.8046253815792567e-06,1.912067278753984e-06,1.120656067582999e-06,2.263541239862719e-06,1.0417995773390906e-06,9.746261373734511e-07,1.1489221397215085e-06,1.7270797494467435e-06
26,1.2303332173784168e-06,2.162694900701499e-06,1.1396544430813324e-06,1.1695214790951719e-05,1.189627734727477e-06,1.05229261693872e-06,8.870335519298938e-07,1.425396652194268e-06,1.7613749753144417e-06,1.900854392673116e-06,1.119934644813755e-06,2.2648724225666047e-06,1.051560246419727e-06,9.796470901279365e-07,1.1820763924905991e-06,1.7304008216048837e-06
27,1.218284685854963e-06,2.084889759408854e-06,1.1335829255259459e-06,1.1738706147616982e-05,1.1822536008432562e-06,1.0562318675030097e-06,8.669041420217748e-07,1.4437423235268815e-06,1.7257215756919858e-06,1.8939472923722464e-06,1.1177730343561536e-06,2.2590026214503644e-06,1.0632883652412588e-06,9.859314894682605e-07,1.2152452522983742e-06,1.7374917625657202e-06
28,1.2045226885158547e-06,2.0026743128308477e-06,1.126153610785791e-06,1.1750318483727181e-05,1.1718723501124189e-06,1.0595260674453542e-06,8.47149784899742e-07,1.4648538633701508e-06,1.6988780581970878e-06,1.8921692079169062e-06,1.1141488721525569e-06,2.2466768550146024e-06,1.0768016247338412e-06,9.940301343849656e-07,1.2480012996644697e-06,1.7487068549577238e-06
29,1.189362227770632e-06,1.9164638018537403e-06,1.1176486659991323e-06,1.1732637796962771e-05,1.1587657248390389e-06,1.0622298140617221e-06,8.281786066501238e-07,1.4894567837977478e-06,1.6817707023428573e-06,1.8960406448347025e-06,1.1091349156773502e-06,2.2288897610926777e-06,1.091935634242711e-06,1.0044075328719405e-06,1.2798720403498776e-06,1.764239148693722e-06
30,1.1730982460773517e-06,1.8271579281059665e-06,1.1081811778092278e-06,1.1688960416855449e-05,1.1434249886924807e-06,1.0642601293045914e-06,8.10224567696607e-07,1.5181984709872638e-06,1.6751607524107854e-06,1.905698736160533e-06,1.1028463436617736e-06,2.2066135101630833e-06,1.1086167076782178e-06,1.017392858276997e-06,1.3103186776087313e-06,1.7842812082508997e-06
31,1.1559953072549563e-06,1.7359901925914263e-06,1.0977472892198586e-06,1.1622963329068486e-05,1.126421430803612e-06,1.0654640316820418e-06,7.934054973021101e-07,1.551802848278745e-06,1.6797796834706525e-06,1.9208808203135746e-06,1.0953444217477846e-06,2.18056942272989e-06,1.1268290140706467e-06,1.0331595537902208e-06,1.3386917709535306e-06,1.8091125408686297e-06
32,1.1382425592556914e-06,1.6442777308125504e-06,1.0862798870789586e-06,1.1538119794491267e-05,1.1082683275527837e-06,1.0657461781897661e-06,7.77810803198896e-07,1.5912255678748404e-06,1.6963519315111543e-06,1.9410015995345834e-06,1.0866069545753295e-06,2.1511382876598494e-06,1.1465031500349214e-06,1.0517180755103685e-06,1.3642722051444383e-06,1.839085812839999e-06
33,1.1199025684016313e-06,1.553202825209765e-06,1.0736651277751861e-06,1.1437258107910242e-05,1.089365590726417e-06,1.0651445700022064e-06,7.635638442783192e-07,1.6376181349284209e-06,1.7254754209403106e-06,1.9653011055035972e-06,1.0766321751158334e-06,2.1185066207864455e-06,1.1674376898023344e-06,1.0729121102220713e-06,1.3864079166068306e-06,1.8745379188866583e-06
34,1.1009263094931457e-06,1.463710840840479e-06,1.0597678167501437e-06,1.1322474021181303e-05,1.0700469543179082e-06,1.0637896121993027e-06,7.508135088565958e-07,1.6921517882909402e-06,1.767474456883898e-06,1.992973781854171e-06,1.0655644392712319e-06,2.0830362272846374e-06,1.189308776872758e-06,1.096412442674173e-06,1.4046848911336262e-06,1.9156681800920995e-06
35,1.0812542683951979e-06,1.3765027456139396e-06,1.0445062618420607e-06,1.1195298833028949e-05,1.050624773975411e-06,1.0617977832964296e-06,7.396927225518339e-07,1.7559081525992065e-06,1.8223403698650425e-06,2.023187909173745e-06,1.0536851163773053e-06,2.0455823057866103e-06,1.211691802088164e-06,1.1217472815649266e-06,1.419040588584278e-06,1.962475194360161e-06
36,1.0609239785399929e-06,1.2920677937512742e-06,1.0279266557117905e-06,1.1056849530481354e-05,1.0313845589267748e-06,1.0591891710035408e-06,7.303255401415983e-07,1.8298955207530471e-06,1.8897397271926884e-06,2.0549874779107133e-06,1.0412825209263567e-06,2.0074734920591655e-06,1.2340394820051839e-06,1.148376900817571e-06,1.4297153845319362e-06,2.0147627665113686e-06
37,1.0400954141767335e-06,1.2107756010880967e-06,1.0101996272622712e-06,1.0907783073579766e-05,1.0126049510491805e-06,1.0558890256327455e-06,7.22869516961766e-07,1.915062861838406e-06,1.969001476258585e-06,2.087181649831821e-06,1.0285609652033635e-06,1.9701978688858627e-06,1.2556604833782671e-06,1.1757183518064933e-06,1.4370636449314989e-06,2.0720924807393656e-06
38,1.018986887567604e-06,1.1330151309590726e-06,9.915627430647982e-07,1.0748078031627261e-05,9.946062534954847e-07,1.051803038004388e-06,7.174980515196252e-07,2.012209672673533e-06,2.059068501841753e-06,2.1183620273025605e-06,1.0156771441496461e-06,1.935085832044903e-06,1.2757432771204776e-06,1.2030776787105174e-06,1.4413857134531925e-06,2.1336699415911127e-06
39,9.977888643431414e-07,1.059255460694146e-06,9.723145773263038e-07,1.0576664932037726e-05,9.7773606521273e-07,1.0468960762547075e-06,7.143183868444746e-07,2.121838331301546e-06,2.158477868386406e-06,2.147067603943918e-06,1.0028262960414367e-06,1.903161373045974e-06,1.2934578490033651e-06,1.229597109906324e-06,1.4428659696601543e-06,2.198314759518938e-06
40,9.766210772076055e-07,9.89973403071716e-07,9.528665165363407e-07,1.039100360151783e-05,9.622818869149671e-07,1.0412384421093748e-06,7.1330503949859e-07,2.2440545480393355e-06,2.2653847529932254e-06,2.1719934157526524e-06,9.902554791271515e-07,1.8750922669680102e-06,1.3081233922949692e-06,1.2543054670259497e-06,1.4415809960549493e-06,2.2646247474766127e-06
41,9.555232491294135e-07,9.255714696375476e-07,9.337322853456754e-07,1.0187215685676358e-05,9.483983294268387e-07,1.0350294460280782e-06,7.142817665706658e-07,2.3785676493611666e-06,2.377595483532036e-06,2.1921343748065568e-06,9.781882311671198e-07,1.851157016894472e-06,1.319334845764979e-06,1.2762070961543072e-06,1.437582582574144e-06,2.331228646352008e-06
42,9.344546649701064e-07,8.66376109955634e-07,9.154213978208929e-07,9.96130693715324e-06,9.361025276794456e-07,1.0285720324243254e-06,7.16954789032301e-07,2.5247889303230595e-06,2.492610342018736e-06,2.2067649360105228e-06,9.667705040260843e-07,1.831244148731228e-06,1.3269954740538466e-06,1.2943489144849594e-06,1.4310338779488638e-06,2.396861579673416e-06
43,9.133097717935479e-07,8.126453179659017e-07,8.983360235276567e-07,9.710886953814707e-06,9.253062533291543e-07,1.0221771178957046e-06,7.210011090403067e-07,2.68199533620219e-06,2.6076869499397107e-06,2.215243618622333e-06,9.561070608102635e-07,1.8149061660923686e-06,1.3313032325324982e-06,1.307960447621334e-06,1.4222585798637457e-06,2.46023725236917e-06
44,8.919445529199862e-07,7.645377958004076e-07,8.827304179449828e-07,9.436234216097498e-06,9.158397436049166e-07,1.0160794844849319e-06,7.261760219469125e-07,2.8494748111964996e-06,2.7199549027021733e-06,2.2168764475886287e-06,9.46309286180337e-07,1.801494267532254e-06,1.3326998089140202e-06,1.3166912556382772e-06,1.4116502163564846e-06,2.5200070176185314e-06
45,8.702281471386879e-07,7.220879833182487e-07,8.687204411315289e-07,9.14023335732072e-06,9.074559964220458e-07,1.0104248169801784e-06,7.32389894425957e-07,3.0265486442292736e-06,2.82659933542286e-06,2.211048967334645e-06,9.374787692070286e-07,1.7903611642598832e-06,1.331757184352405e-06,1.3207225295961073e-06,1.3995723479680791e-06,2.5749446768661708e-06
46,8.48110122469198e-07,6.852076806042886e-07,8.563177935090543e-07,8.827453292847928e-06,8.99820596785107e-07,1.005263802381494e-06,7.397364321004757e-07,3.21243200376414e-06,2.9250285963615195e-06,2.1974777314279333e-06,9.296765330434174e-07,1.7809651768711256e-06,1.3290209776109222e-06,1.3205976915786536e-06,1.386381406783116e-06,2.6241906040377387e-06
47,8.256164611192673e-07,6.537059423594691e-07,8.454640962423666e-07,8.50289490456163e-06,8.925146564013571e-07,1.000548493762982e-06,7.484653644566207e-07,3.4059931029754286e-06,3.0128782394336545e-06,2.1763121132342796e-06,9.229345375407702e-07,1.7727640796272652e-06,1.3248808998619357e-06,1.316944837945155e-06,1.3725249540904272e-06,2.667357424931327e-06
48,8.027733820731295e-07,6.273121182101842e-07,8.360754305266004e-07,8.171099315589581e-06,8.850691736741085e-07,9.96191051441392e-07,7.588945609871943e-07,3.605534650479519e-06,3.087824033078214e-06,2.1479929330571884e-06,9.172926567718715e-07,1.7650846065634687e-06,1.3195477954370051e-06,1.3103428124363599e-06,1.3585431319928493e-06,2.704433074039892e-06
49,7.795893691346597e-07,6.056785588991838e-07,8.280841718555708e-07,7.836062792751068e-06,8.770166199747024e-07,9.921354344095305e-07,7.712953304797724e-07,3.8087102783440795e-06,3.1475187615333984e-06,2.112994066943775e-06,9.128406462980895e-07,1.757149206838486e-06,1.3131352535942847e-06,1.3013333807759295e-06,1.3449306081344412e-06,2.7355283057043875e-06
50,7.561473650216114e-07,5.883784541580953e-07,8.214151344664824e-07,7.501572015344094e-06,8.679878741048406e-07,9.883806849018844e-07,7.858121522310678e-07,4.012594219186162e-06,3.1899881194981796e-06,2.071677941615777e-06,9.097405633541504e-07,1.7481936168725852e-06,1.3057228539717842e-06,1.2904122966677475e-06,1.3320037637700829e-06,2.760608819076975e-06
51,7.32698370194641e-07,5.749378786957808e-07,8.159200998831257e-07,7.171302444195946e-06,8.578431118941343e-07,9.849882401387285e-07,8.024349707544303e-07,4.213810516392293e-06,3.214271637831466e-06,2.02432859960499e-06,9.082052305320029e-07,1.7376129391840888e-06,1.2973100283014514e-06,1.277953986142964e-06,1.3198983338911708e-06,2.779422835796039e-06
52,7.096550960340488e-07,5.648986714429198e-07,8.113497143198627e-07,6.848554529927424e-06,8.466912900913682e-07,9.820790797856522e-07,8.209935878602223e-07,4.408586516465602e-06,3.220803968546948e-06,1.9712623696667986e-06,9.084664972778115e-07,1.7251176950700472e-06,1.2877440549752662e-06,1.2641603647270233e-06,1.3086469342263243e-06,2.791675438241357e-06
53,6.875174202825832e-07,5.578575953681302e-07,8.073688427959301e-07,6.535855702727947e-06,8.347564031679492e-07,9.797710119668029e-07,8.411699538994081e-07,4.592687384806703e-06,3.2113016455981048e-06,1.912969367483035e-06,9.107525607695301e-07,1.7107704512177688e-06,1.2767177265056862e-06,1.2490832973178719e-06,1.2981985512138225e-06,2.7972221870211722e-06
54,6.668132242851199e-07,5.534375375230059e-07,8.035938231110762e-07,6.2346884716136915e-06,8.222562319453095e-07,9.780770884130718e-07,8.625579987824961e-07,4.761383357203468e-06,3.1882690332757323e-06,1.8502443744594562e-06,9.152415904753223e-07,1.6949078491423334e-06,1.263821103323298e-06,1.2327288747251078e-06,1.2883784782800654e-06,2.7960900817552287e-06
55,6.480791798273157e-07,5.512280587474006e-07,7.996486895437344e-07,5.945537021970893e-06,8.093929209720619e-07,9.768642486853515e-07,8.847533575138385e-07,4.909706669131591e-06,3.15444240446287e-06,1.7842081071195156e-06,9.220176911519497e-07,1.6781480889190892e-06,1.2486614527645592e-06,1.2152346041773253e-06,1.2788753167604175e-06,2.7883973867264264e-06
56,6.318492932660065e-07,5.507580662974662e-07,7.952479493264439e-07,5.66824401026525e-06,7.963907087095455e-07,9.759078993379587e-07,9.074000624838617e-07,5.033108311600771e-06,3.1124099789149926e-06,1.716197010478713e-06,9.310989487274503e-07,1.66145613743216e-06,1.231055544898272e-06,1.1970020281825202e-06,1.2692715591823697e-06,2.774368262247404e-06
57,6.186209487320427e-07,5.515112985248291e-07,7.903054715434162e-07,5.402528868135478e-06,7.835225371058481e-07,9.749571590330613e-07,9.301665788172133e-07,5.12828231756286e-06,3.0644161808086e-06,1.6475933191653958e-06,9.42500173144641e-07,1.6460485706411421e-06,1.2111641832556582e-06,1.178647405637035e-06,1.2591396168613007e-06,2.754532315097777e-06
58,6.088095014522553e-07,5.529731216120939e-07,7.850103905326448e-07,5.148547734217657e-06,7.711059900112679e-07,9.737426353017215e-07,9.527026027171381e-07,5.193662933644794e-06,3.012375617719196e-06,1.5796812544852284e-06,9.56230273156731e-07,1.6331512953144344e-06,1.1894772433402092e-06,1.1608191198371478e-06,1.2481840994493046e-06,2.7299641984242005e-06
59,6.027281432766102e-07,5.546670377843496e-07,7.797960221518423e-07,4.907385651027819e-06,7.594516082507078e-07,9.719900877797736e-07,9.746234332647937e-07,5.229237865340409e-06,2.958110444963132e-06,1.5135927739484126e-06,9.722474262829355e-07,1.6237982551453415e-06,1.1667096476420285e-06,1.1440471407177686e-06,1.2362770733214012e-06,2.70233294223543e-06
60,6.00601317060836e-07,5.561452308662049e-07,7.752239504981138e-07,4.681317258639933e-06,7.488025269583125e-07,9.694926899962368e-07,9.95521361339135e-07,5.235778052046427e-06,2.903562369622668e-06,1.4503089456805963e-06,9.904473419034036e-07,1.6187586751386474e-06,1.143670191785603e-06,1.1286763671414452e-06,1.2233395688356911e-06,2.6737257884143184e-06
61,6.02577668518879e-07,5.570148395766489e-07,7.718750643668443e-07,4.473723839477855e-06,7.39314584081605e-07,9.661725126722254e-07,1.015006513971276e-06,5.213948336811043e-06,2.8507331435385725e-06,1.3906444473671459e-06,1.0106729798247185e-06,1.6185781003796893e-06,1.1211233320609966e-06,1.1148262232767401e-06,1.2092501495173939e-06,2.6463630659255465e-06
62,6.087187594183536e-07,5.570767036725287e-07,7.702923368157512e-07,4.28873836082708e-06,7.310731540910203e-07,9.62077323081542e-07,1.0328001298705451e-06,5.163837430907562e-06,2.8014426557341898e-06,1.3352257735464264e-06,1.032715321744121e-06,1.623693716687017e-06,1.099691066316546e-06,1.1023650685810044e-06,1.1938993553140942e-06,2.6223049738884486e-06
63,6.189804028371427e-07,5.564648570627928e-07,7.709513771356712e-07,4.130807207312979e-06,7.241196622151333e-07,9.573337791290766e-07,1.048854522092194e-06,5.085160523930182e-06,2.7571728749893714e-06,1.2844896813019296e-06,1.056288880101726e-06,1.634541909609273e-06,1.0798173103998899e-06,1.0909406095975382e-06,1.1772753212283799e-06,2.603281373934632e-06
64,6.332044251237044e-07,5.556407122755774e-07,7.742266544567203e-07,4.00428863026171e-06,7.184616136474902e-07,9.520746887450884e-07,1.0633998806680983e-06,4.977878890244104e-06,2.7190643563746992e-06,1.2386893242373644e-06,1.0809840908445969e-06,1.651551276229001e-06,1.0617647800536628e-06,1.080073646724558e-06,1.1594391791428923e-06,2.590674571017316e-06
65,6.511183243525286e-07,5.55264426620138e-07,7.803525074576256e-07,3.913098634737114e-06,7.140930032018093e-07,9.463721946676224e-07,1.076857432313843e-06,4.842754910322162e-06,2.68791521298397e-06,1.1979039382647447e-06,1.10623939626521e-06,1.6750143320483297e-06,1.0456195728209548e-06,1.0692782138917507e-06,1.1404380842323305e-06,2.5854914863462322e-06
66,6.723381726175971e-07,5.560528301583398e-07,7.894008586526526e-07,3.8604258186698385e-06,7.110510921017899e-07,9.402506207510246e-07,1.0896969055938237e-06,4.681575554306231e-06,2.6641935527995273e-06,1.1620947369829733e-06,1.1313802816039932e-06,1.7049723964399923e-06,1.0312991408709297e-06,1.058178393766865e-06,1.120302850784692e-06,2.588303497695225e-06
67,6.963693436287915e-07,5.586811610230234e-07,8.012902625369664e-07,3.848580009618997e-06,7.094371398669331e-07,9.33778340552143e-07,1.1023558512284614e-06,4.497099621231757e-06,2.6481488413347116e-06,1.1312306463184762e-06,1.1557523707249802e-06,1.7412149904894018e-06,1.0185888228682282e-06,1.046589081328156e-06,1.0991297377128311e-06,2.599282315676974e-06
68,7.226165293250479e-07,5.637315231180401e-07,8.158185045838714e-07,3.878983397949153e-06,7.093622309618016e-07,9.271164963368527e-07,1.1152168914704843e-06,4.29292270729765e-06,2.6398611958967024e-06,1.1053712908775576e-06,1.1788945119862745e-06,1.7833342443638443e-06,1.007216659790778e-06,1.0344977170207522e-06,1.0770929532397946e-06,2.6182885519674087e-06
69,7.504365123128964e-07,5.716768809730342e-07,8.326964355340324e-07,3.95221678300313e-06,7.10887113089117e-07,9.204744272423472e-07,1.1285663938468486e-06,4.073330436796726e-06,2.6390950297313676e-06,1.0846028764001246e-06,1.2006040943273763e-06,1.8307431163462773e-06,9.96898365955781e-07,1.0219724664964915e-06,1.054332633320683e-06,2.6448842208750043e-06
70,7.792264838072804e-07,5.828844328175544e-07,8.515633423293811e-07,4.06803096922025e-06,7.139964884699009e-07,9.140642017811151e-07,1.1425469015785185e-06,3.843047319615867e-06,2.645124713659377e-06,1.068931643437448e-06,1.2208155387652812e-06,1.8826841343521673e-06,9.873063461747895e-07,1.0091236734152124e-06,1.0308493039140377e-06,2.6782596496879817e-06
71,8.084819143091761e-07,5.976223115534351e-07,8.719837945719948e-07,4.225348755540322e-06,7.185994446679894e-07,9.080868802186466e-07,1.1571647112443397e-06,3.606848737878956e-06,2.656765540856884e-06,1.0582612540988375e-06,1.2394028802205085e-06,1.9382631571952837e-06,9.78015867434328e-07,9.961197456918409e-07,1.006530547758698e-06,2.717174722209886e-06
72,8.377897534929591e-07,6.160702877332885e-07,8.934461349461891e-07,4.422355776384294e-06,7.245660885369837e-07,9.027015913985219e-07,1.172338683739655e-06,3.369175334301961e-06,2.6726568018715102e-06,1.052418477260674e-06,1.2560792777766058e-06,1.996423494099764e-06,9.684846180388801e-07,9.831519654637866e-07,9.812730069616375e-07,2.7600302756984533e-06
73,8.668148389273847e-07,6.383364587350009e-07,9.153978144132516e-07,4.656680755077835e-06,7.317953709921175e-07,8.980121843764615e-07,1.1879527293038382e-06,3.1338946256484288e-06,2.6916684797743826e-06,1.05117528572952e-06,1.2704256748682207e-06,2.0558611010202758e-06,9.58087352039944e-07,9.703573562672657e-07,9.550809854491995e-07,2.805037192181981e-06
74,8.953484076285922e-07,6.644580626505063e-07,9.373592397700053e-07,4.925547758173218e-06,7.402595795024248e-07,8.94130478847762e-07,1.2039064268208122e-06,2.904221348011087e-06,2.7132290252344408e-06,1.0542483743023613e-06,1.2819855391808393e-06,2.1150712441426647e-06,9.462283096573683e-07,9.577760305776676e-07,9.280934847492486e-07,2.8503177200408164e-06
75,9.233759034324144e-07,6.943791472266207e-07,9.590944241271654e-07,5.225817157436766e-06,7.499834871375788e-07,8.912614783266906e-07,1.220132057669241e-06,2.682767188283734e-06,2.7373788618411432e-06,1.061268608436974e-06,1.2904155012118732e-06,2.1725543349600177e-06,9.325108760302369e-07,9.453678869676212e-07,9.005522578221936e-07,2.8938975037502335e-06
76,9.510448907290759e-07,7.279369641656665e-07,9.806914324672262e-07,5.553954643631105e-06,7.610028305523248e-07,8.897215785869829e-07,1.2365462842936112e-06,2.4716948305821358e-06,2.7645064573524305e-06,1.0717808161279684e-06,1.295629712271081e-06,2.226937290742207e-06,9.1687349632604e-07,9.330561729167793e-07,8.727529073517083e-07,2.9337302661277947e-06
77,9.78523006427163e-07,7.648950189285254e-07,1.0024495446495068e-06,5.906029692653228e-06,7.733509682813231e-07,8.898921484550865e-07,1.2530047378589363e-06,2.2728619374980124e-06,2.7949499166237317e-06,1.0852835915202914e-06,1.2977901238456414e-06,2.2769618087938443e-06,8.995936403890156e-07,9.207450923922592e-07,8.450501993191146e-07,2.9678893006318524e-06
78,1.0058826351372873e-06,8.050183889321219e-07,1.0247008115778175e-06,6.2777858390052485e-06,7.870361469574037e-07,8.921569085863618e-07,1.2693563618971666e-06,2.0878342112226043e-06,2.8286866975811934e-06,1.1012556879829504e-06,1.297168376871418e-06,2.321548011773042e-06,8.811532498216143e-07,9.08341905739471e-07,8.178969927840376e-07,2.9948917615294633e-06
79,1.033094215490063e-06,8.481291501143255e-07,1.0477133119954124e-06,6.664668023417491e-06,8.020050249598435e-07,8.968323769197548e-07,1.2855427434773102e-06,1.9178124021923514e-06,2.8652175600159398e-06,1.1191928871593743e-06,1.2940621555180427e-06,2.3599011800354078e-06,8.62071481507229e-07,8.958407511458642e-07,7.918178611630781e-07,3.0140022409373774e-06
80,1.06005709138575e-06,8.941114144210952e-07,1.0716491695156523e-06,7.0616561952725795e-06,8.181418978769222e-07,9.04101018444474e-07,1.3015867617867285e-06,1.7636171713238093e-06,2.90366080406851e-06,1.1386818123936313e-06,1.288802897198841e-06,2.391437433490381e-06,8.42804047482529e-07,8.834172634310632e-07,7.673239989981068e-07,3.0253875274822875e-06
81,1.0865899379280605e-06,9.429103028038914e-07,1.0965266456780187e-06,7.463110297593865e-06,8.352820237905117e-07,9.139793640383314e-07,1.3174455352961991e-06,1.6257771821542159e-06,2.942947389953333e-06,1.1594751538614124e-06,1.28174684592085e-06,2.415537573803057e-06,8.237287044029307e-07,8.714546898323025e-07,7.448592902883714e-07,3.0300211274588173e-06
82,1.1123912551540235e-06,9.94538774007232e-07,1.122180416547301e-06,7.863083152036696e-06,8.531986651537066e-07,9.263215898965128e-07,1.3328611720124621e-06,1.5046281504223802e-06,2.9819213092126196e-06,1.1815180672468447e-06,1.2732415302406277e-06,2.4313162344971666e-06,8.051854468104019e-07,8.60480216174934e-07,7.248029834702151e-07,3.029331394923825e-06
83,1.1370069452050556e-06,1.0490486748164707e-06,1.1482214964247484e-06,8.256074938196272e-06,8.715802041344184e-07,9.408296074077806e-07,1.3473065072812302e-06,1.4003363909422232e-06,3.0193694432496922e-06,1.2048853877466322e-06,1.2636368705627445e-06,2.4375367392785306e-06,7.875000773966421e-07,8.510415494037124e-07,7.074968541213183e-07,3.024770349204305e-06
84,1.1598467712012525e-06,1.10648792359087e-06,1.1740236982014004e-06,8.637727906616591e-06,8.900154378235609e-07,9.570557020227629e-07,1.360004970668982e-06,1.3128898574141308e-06,3.0542675729314692e-06,1.2296904496671223e-06,1.2532911496997948e-06,2.4328032046681637e-06,7.709427811453182e-07,8.435900168962758e-07,6.932853321230454e-07,3.0174976664092526e-06
85,1.1802933877064047e-06,1.1669272591464487e-06,1.1987858322439221e-06,9.005239089229715e-06,9.079794549574812e-07,9.74419561546351e-07,1.370010938106216e-06,1.2421699699704073e-06,3.086271054965289e-06,1.256070586869286e-06,1.2425177916732387e-06,2.4160994115840387e-06,7.556691798905338e-07,8.384137969524784e-07,6.825481729874193e-07,3.008289263508499e-06
86,1.1978654635428287e-06,1.2305108955098098e-06,1.2217090263705818e-06,9.357605228551484e-06,9.248311755003798e-07,9.922631865592932e-07,1.3763901469564062e-06,1.1881081882466424e-06,3.11601834238531e-06,1.2841888773893289e-06,1.2315569039767372e-06,2.3873007229680433e-06,7.41699517653939e-07,8.35619406464465e-07,6.756753187182982e-07,2.9976321509116906e-06
87,1.212320843152266e-06,1.2974063508094529e-06,1.2422377457020577e-06,9.695653667740585e-06,9.398656959055733e-07,1.0099088730050493e-06,1.3784532476214036e-06,1.1507815501503859e-06,3.1449301211574254e-06,1.3141473197550258e-06,1.2206187532030196e-06,2.3471342751380218e-06,7.289222944687986e-07,8.351534349003134e-07,6.730008154475261e-07,2.9857677751764323e-06
88,1.2236431538937851e-06,1.3677020962094103e-06,1.2602089970074712e-06,1.0021632974520765e-05,9.524285112434293e-07,1.026664380210493e-06,1.3758947014318735e-06,1.1303482132517548e-06,3.1747038220125305e-06,1.345876796860771e-06,1.2099323892243988e-06,2.296765612209917e-06,7.171197159379296e-07,8.368499022079554e-07,6.747627011560598e-07,2.9725818953417365e-06
89,1.2319557686251017e-06,1.4413615005749598e-06,1.2758047769806387e-06,1.0338333504671345e-05,9.620393695758857e-07,1.0418184714237123e-06,1.3687603201697644e-06,1.1269102527040003e-06,3.2069096756771522e-06,1.3790933912869806e-06,1.199734196087763e-06,2.2375773318359957e-06,7.060360191231348e-07,8.404625092794581e-07,6.810908862204609e-07,2.957551967195769e-06
90,1.2374329890353769e-06,1.5181910829620013e-06,1.2893738941253637e-06,1.0648044358057206e-05,9.684748692821513e-07,1.0547413148990422e-06,1.357281807393545e-06,1.1404285980710194e-06,3.2428754703995036e-06,1.4133178792253868e-06,1.1901812058957803e-06,2.171161440053123e-06,6.9546119733101e-07,8.45673128083852e-07,6.920024827399123e-07,2.9399122818963806e-06
91,1.2402441846118466e-06,1.5977767505126035e-06,1.3012700905084877e-06,1.095173705963073e-05,9.717663699645378e-07,1.0650769268893902e-06,1.3416675909042392e-06,1.1707009414498143e-06,3.2837621001783178e-06,1.4479763564755054e-06,1.1812397786326964e-06,2.099261711734696e-06,6.852891104621608e-07,8.521434228750389e-07,7.07424648445312e-07,2.9189567300302068e-06
92,1.2405205333896496e-06,1.6794294134290447e-06,1.3117622678231404e-06,1.1248643162636201e-05,9.720893747741796e-07,1.0728597798854156e-06,1.321976234036993e-06,1.2173669881521164e-06,3.330595197853282e-06,1.4825832106646726e-06,1.172631211566515e-06,2.0236768871984305e-06,6.755398581570809e-07,8.596238605016607e-07,7.272413020449118e-07,2.894329826429606e-06
93,1.2383071367879523e-06,1.7621618746308204e-06,1.3209664389825342e-06,1.153616967146012e-05,9.696250123795856e-07,1.078438785525114e-06,1.2981448537489248e-06,1.2799065347061493e-06,3.3841230023396608e-06,1.5168659213980697e-06,1.1638804044541497e-06,1.946188702638313e-06,6.663471733193564e-07,8.679955492762943e-07,7.513157967041352e-07,2.8661838384544033e-06
94,1.2335018565168158e-06,1.8447140257209242e-06,1.328769295106271e-06,1.1810115625727324e-05,9.645222439392678e-07,1.0822683408896708e-06,1.2701235021259166e-06,1.3575968993667998e-06,3.4446511429599905e-06,1.550687185240385e-06,1.1544755699743345e-06,1.8684552867040707e-06,6.579297447803832e-07,8.771670981269123e-07,7.794785710842386e-07,2.8351236630215563e-06
95,1.2258634028564657e-06,1.925693881890811e-06,1.334780067036539e-06,1.206524067283973e-05,9.569621657563492e-07,1.084729175115659e-06,1.2380402292373098e-06,1.4494637562030868e-06,3.5119964645656426e-06,1.5838231084184732e-06,1.1440839696444171e-06,1.7918923421591915e-06,6.505603104925915e-07,8.869325491136142e-07,8.115136752758995e-07,2.8019969905441165e-06
96,1.2151513061371615e-06,2.0038411407268165e-06,1.3383626615864853e-06,1.229610735174924e-05,9.472100698584592e-07,1.086077425829922e-06,1.2023160830069687e-06,1.5542903829082075e-06,3.5854329172079355e-06,1.6157757387118644e-06,1.1327067773737684e-06,1.7176481661372063e-06,6.445099587276235e-07,8.969207124252326e-07,8.471512218182969e-07,2.7677270302032085e-06
97,1.2013219793618417e-06,2.078277153578674e-06,1.3387789234312383e-06,1.249787297756148e-05,9.355824061979664e-07,1.0864619885744159e-06,1.1636301141691812e-06,1.6706566784856884e-06,3.6635935049443554e-06,1.6457096164756072e-06,1.1206874715714873e-06,1.646651756018946e-06,6.399723378408624e-07,9.066373979951798e-07,8.860458317999357e-07,2.7333101108932803e-06
98,1.1846416003065454e-06,2.1485997652963535e-06,1.3354073387648493e-06,1.266664400021934e-05,9.223618785093693e-07,1.0859147088304023e-06,1.1227470887751874e-06,1.7969365208637072e-06,3.744548389362833e-06,1.6725286146445424e-06,1.1085887439497747e-06,1.5796446343078825e-06,6.370221004486381e-07,9.155438791301129e-07,9.277456941102963e-07,2.699853543269187e-06
99,1.1656695968007065e-06,2.2147935614848173e-06,1.327925142933941e-06,1.2799178391745272e-05,9.0775535538634e-07,1.0843503169519762e-06,1.0803664010363058e-06,1.931267118542029e-06,3.826136050391468e-06,1.6951030331505457e-06,1.097034964581881e-06,1.5171971170295569e-06,6.356486407025947e-07,9.231676999005633e-07,9.716958941440012e-07,2.6684712705934136e-06
100,1.1451700912622205e-06,2.2770080156379085e-06,1.3163701651099227e-06,1.289200295531096e-05,8.919352592007537e-07,1.0816445788306633e-06,1.037107418689893e-06,2.071525464885785e-06,3.906343522943941e-06,1.7125434738112794e-06,1.086598687603137e-06,1.4597107695172432e-06,6.358673660323533e-07,9.292448698608695e-07,1.0173028895126531e-06,2.640083606711958e-06
101,1.123999567489016e-06,2.33534996716298e-06,1.301111475339483e-06,1.2940488177989306e-05,8.750908668841006e-07,1.0777081213181341e-06,9.935737928343348e-07,2.2153164015730287e-06,3.983540578918945e-06,1.7243363535178503e-06,1.0777318830540962e-06,1.4073861566095501e-06,6.378424457002789e-07,9.337872350835487e-07,1.0639971932432956e-06,2.615281987000407e-06
102,1.1029954164755122e-06,2.3898792365787143e-06,1.2828059174023294e-06,1.2938812366845443e-05,8.574498741246179e-07,1.0724676916818498e-06,9.503734343423363e-07,2.3599949398358744e-06,4.056530125385368e-06,1.730315211311233e-06,1.0707188138482482e-06,1.3602158507969778e-06,6.419088729547945e-07,9.369821211445422e-07,1.111219316746275e-06,2.594276599923964e-06
103,1.0829360185035844e-06,2.4407856287717368e-06,1.2623447745685274e-06,1.2881094645655876e-05,8.39324921128831e-07,1.0658666586742926e-06,9.080747600221489e-07,2.502712571427036e-06,4.124448711866968e-06,1.730605239832928e-06,1.065656245480074e-06,1.3180441503678607e-06,6.484760919184273e-07,9.390396040032889e-07,1.1583743377119996e-06,2.5768695986446068e-06
104,1.0645928280258616e-06,2.488528589083456e-06,1.2407400822027386e-06,1.2762893527046582e-05,8.211526687010275e-07,1.057970071851579e-06,8.671819374748794e-07,2.640484540730874e-06,4.18657048292162e-06,1.725616659381205e-06,1.0624747029922113e-06,1.2806161375860075e-06,6.57906340314162e-07,9.401481756224292e-07,1.204818244983322e-06,2.562509281719819e-06
105,1.0487603249436033e-06,2.5338713821560562e-06,1.2189872366678734e-06,1.2582370830353733e-05,8.034363989615932e-07,1.0490187333234996e-06,8.281637514385567e-07,2.770359804081794e-06,4.242098491705563e-06,1.716063549700051e-06,1.0609842506126394e-06,1.2475782757450838e-06,6.704370823004839e-07,9.405079681179113e-07,1.2498600691542034e-06,2.5505385606069534e-06
106,1.0361895604240727e-06,2.5778979601754113e-06,1.1979930411631464e-06,1.2341033345996716e-05,7.866499836084276e-07,1.039342451647738e-06,7.914679245052002e-07,2.8897002617688917e-06,4.290017011313411e-06,1.7029619191526693e-06,1.0609307640513906e-06,1.2184853406697395e-06,6.861566059606744e-07,9.403424746983781e-07,1.2928100682516461e-06,2.5405471445507438e-06
107,1.0275004379171087e-06,2.6219966673054065e-06,1.1785448082275265e-06,1.204396938359904e-05,7.712097107978733e-07,1.0292802577883623e-06,7.574742516558779e-07,2.996442460580653e-06,4.328985452183749e-06,1.6875260526210132e-06,1.062043560441655e-06,1.1928138587649988e-06,7.050207810925439e-07,9.398731653079963e-07,1.3331332451923953e-06,2.5325293900461315e-06
108,1.0231564009863422e-06,2.6677105077913367e-06,1.1612522882780753e-06,1.1699462402107843e-05,7.574844275776155e-07,1.0191743387347448e-06,7.264378229475832e-07,3.0892719119710204e-06,4.357286110732027e-06,1.6709620167565351e-06,1.0640304144471126e-06,1.169980453054409e-06,7.268733367472917e-07,9.392693290308017e-07,1.3706496792790514e-06,2.5267469054339804e-06
109,1.0234802553617994e-06,2.716454568053596e-06,1.146495796364234e-06,1.1318119142495626e-05,7.457761970677014e-07,1.0093300922560904e-06,6.984874994868887e-07,3.1677215927176124e-06,4.372991843812678e-06,1.6543505503547905e-06,1.0665360923323534e-06,1.1494214731855767e-06,7.514361786850313e-07,9.385804252914693e-07,1.4056386432856562e-06,2.5235421556223204e-06
110,1.0286577383755606e-06,2.769235827808505e-06,1.1344350827397097e-06,1.0911850426598442e-05,7.362858293030237e-07,9.999265660765866e-07,6.736651860329951e-07,3.2321305762495646e-06,4.374365901824811e-06,1.6387502711452719e-06,1.069120971766424e-06,1.1306804244687615e-06,7.783041347346869e-07,9.37688585656561e-07,1.4387536337169943e-06,2.523304186397816e-06
111,1.0387282335091574e-06,2.82650621492317e-06,1.12504840461952e-06,1.0493024220312253e-05,7.290928831760823e-07,9.909899514668236e-07,6.519522076625515e-07,3.283353723543102e-06,4.3602467868035e-06,1.625372889751458e-06,1.0713121973262255e-06,1.113380955123407e-06,8.069933016929302e-07,9.36332934083815e-07,1.4707843478493841e-06,2.5264735632094892e-06
112,1.0535783809960261e-06,2.888167945087515e-06,1.1181583554489361e-06,1.0073887310728988e-05,7.241525203878235e-07,9.824593357720192e-07,6.332976101103211e-07,3.322279304631652e-06,4.330286485965698e-06,1.6156222011988647e-06,1.072750001413346e-06,1.0971221781393003e-06,8.369990589171048e-07,9.342211613084186e-07,1.5024008085730715e-06,2.53340977543934e-06
113,1.0729439033206653e-06,2.9536542255482193e-06,1.1134690323855553e-06,9.6661438473842e-06,7.213057994269704e-07,9.742464190268656e-07,6.176751879070951e-07,3.349414401182744e-06,4.285047941201887e-06,1.6109867944416236e-06,1.0733165592685357e-06,1.0814184074020835e-06,8.677896592415399e-07,9.311585152670061e-07,1.5339915407077257e-06,2.544173068662144e-06
114,1.0964155977437018e-06,3.021964350483937e-06,1.110611848056774e-06,9.28058959164294e-06,7.202893791957734e-07,9.66238096049444e-07,6.051052157214801e-07,3.364753633556596e-06,4.2258784126657345e-06,1.6129575040066666e-06,1.0731265347350699e-06,1.0657128210012962e-06,8.987720072360494e-07,9.270723154652907e-07,1.5656008576211614e-06,2.5584113911648956e-06
115,1.1234420033177484e-06,3.09161999299433e-06,1.1091496728398479e-06,8.926798513706604e-06,7.207453201825735e-07,9.583009922544796e-07,5.955986175316693e-07,3.36790613010229e-06,4.154540748713199e-06,1.623121980098962e-06,1.0724251969845178e-06,1.0494313274254336e-06,9.292952092154239e-07,9.219384768407984e-07,1.5969142194052535e-06,2.5754153925665857e-06
116,1.1533761305154814e-06,3.160689511649953e-06,1.1086104759353849e-06,8.612886092254194e-06,7.222474831590216e-07,9.502996013736631e-07,5.890921360491707e-07,3.358331444547755e-06,4.072799479624844e-06,1.6433836885652769e-06,1.0714897082017617e-06,1.0320119677648315e-06,9.586745713087859e-07,9.15739943230042e-07,1.6272599089092777e-06,2.594230665900285e-06
117,1.1856262462747182e-06,3.227007834490952e-06,1.1086512492737299e-06,8.345379485823025e-06,7.243258089391167e-07,9.420670745204954e-07,5.854359997418627e-07,3.3356069238004263e-06,3.982116016559317e-06,1.6760810615454673e-06,1.0705933251240065e-06,1.0128579194613318e-06,9.862495662520742e-07,9.084828442410932e-07,1.6556300319162746e-06,2.6137353755184644e-06
118,1.219861849597916e-06,3.288506208245702e-06,1.1092501133023828e-06,8.129232433092033e-06,7.26471601138599e-07,9.333572779074501e-07,5.84405891479195e-07,3.2997155981777846e-06,3.883425586709605e-06,1.7238545558104764e-06,1.0700542987263714e-06,9.91269301021637e-07,1.011508337593389e-06,9.002152074713988e-07,1.680767513540337e-06,2.6327018737698963e-06
119,1.2561308514622489e-06,3.343497052832325e-06,1.1107696719326468e-06,7.9679887631818e-06,7.281719070883253e-07,9.238768038260723e-07,5.856961536690083e-07,3.251286442350026e-06,3.777051129185355e-06,1.7893508746204536e-06,1.0702840283047242e-06,9.664532127952725e-07,1.0342047703361253e-06,8.910346773871345e-07,1.7013655190434889e-06,2.6499133874532107e-06
120,1.29477646694351e-06,3.3908538825047116e-06,1.1138911638665529e-06,7.864033176909915e-06,7.289969761797351e-07,9.133964099932069e-07,5.889142265778218e-07,3.1916470770885497e-06,3.6629084475785044e-06,1.8749720132401606e-06,1.071729903369772e-06,9.376329312625095e-07,1.0543826494279658e-06,8.810657756329138e-07,1.7163315914177034e-06,2.664412059314758e-06
121,1.336196972556781e-06,3.4300671679247927e-06,1.1194851645594725e-06,7.818814445771194e-06,7.286670258532091e-07,9.018338144083788e-07,5.93615630733973e-07,3.1226352101361402e-06,3.540943461681179e-06,1.9827681072055896e-06,1.074760297048082e-06,9.041962522448802e-07,1.0722928641477982e-06,8.704103153523624e-07,1.7249770592080384e-06,2.67584238827362e-06
122,1.3806212454932415e-06,3.4611149120127564e-06,1.1284501784677718e-06,7.832921955659895e-06,7.27033532289693e-07,8.892303645196049e-07,5.993708933816396e-07,3.0463050367905316e-06,3.4115493994731717e-06,2.1144208816436483e-06,1.0795971847024497e-06,8.657706653000563e-07,1.088244223187227e-06,8.591182985288448e-07,1.7270166906221217e-06,2.6846647967427082e-06
123,1.4280054375335385e-06,3.484138238729591e-06,1.1415676478535528e-06,7.905946949897549e-06,7.23999894604213e-07,8.756473959971272e-07,6.058352846446173e-07,2.9647095767102055e-06,3.2757628588668812e-06,2.271239372086986e-06,1.0862893977420399e-06,8.221516236434135e-07,1.1024961465763223e-06,8.472075278630722e-07,1.7224230297484155e-06,2.692015031158214e-06
124,1.4780153368638061e-06,3.499159495738584e-06,1.1594397850451327e-06,8.036186643040777e-06,7.194655077466574e-07,8.610740747186472e-07,6.128119021172166e-07,2.8797974232658045e-06,3.1351566683356406e-06,2.4541783181388296e-06,1.0946805419965918e-06,7.731972256738233e-07,1.1152727914427804e-06,8.347647784388653e-07,1.7113330003675163e-06,2.6992462027481393e-06
125,1.5300542415748153e-06,3.5061329748327835e-06,1.1825028221459505e-06,8.220424748342058e-06,7.133599576108684e-07,8.454409729580816e-07,6.2028854714781e-07,2.7933492409645273e-06,2.991497597019559e-06,2.6639129468351484e-06,1.1043865086432147e-06,7.188318004225045e-07,1.1268438480295472e-06,8.220950569799175e-07,1.6940972080265374e-06,2.7074540081994313e-06
126,1.5833426084982266e-06,3.5052232371958216e-06,1.2110428275670781e-06,8.453968905499537e-06,7.057276269750796e-07,8.287563058179636e-07,6.284082780407355e-07,2.7069112843050857e-06,2.8464419184255284e-06,2.900893462884246e-06,1.1148137285266245e-06,6.590827111297046e-07,1.1375766370051171e-06,8.097595822951097e-07,1.6713080139135442e-06,2.717242123479727e-06
127,1.6370412145677812e-06,3.4969813133696706e-06,1.2451745521891757e-06,8.730848696461539e-06,6.967583818439995e-07,8.112582295497776e-07,6.373916109836066e-07,2.6217589400484966e-06,2.701543214536976e-06,3.165277498332673e-06,1.1252290585619735e-06,5.940524769942135e-07,1.1479336575364699e-06,7.984347608715618e-07,1.6436584544804901e-06,2.728704229042843e-06
128,1.690382696936443e-06,3.4823626657821027e-06,1.2848041829117114e-06,9.044070753688897e-06,6.867346650359815e-07,7.934423191048843e-07,6.47490051465175e-07,2.538926211848519e-06,2.5584782993461924e-06,3.456808742533407e-06,1.1348449028230862e-06,5.239006145014852e-07,1.1584279978482158e-06,7.887298567228581e-07,1.6117196776472e-06,2.7414699172766308e-06
129,1.7427583247171475e-06,3.462706385593159e-06,1.3296217865055563e-06,9.386032977212423e-06,6.759666723909112e-07,7.75939283625528e-07,6.589756307174825e-07,2.4592754906458988e-06,2.4191386643536044e-06,3.7747918540290915e-06,1.142845331614316e-06,4.4888763193742907e-07,1.1695416272465185e-06,7.810945606870554e-07,1.5758217530689555e-06,2.754721066161902e-06
130,1.7937099696761853e-06,3.4396154428011144e-06,1.3791414839912724e-06,9.74910569377237e-06,6.647870587471992e-07,7.593627185129306e-07,6.721037488554289e-07,2.3835462851662503e-06,2.2854646400998678e-06,4.1181537533956864e-06,1.1483822310506783e-06,3.6942221321912834e-07,1.1816226053264886e-06,7.758088382606028e-07,1.5361281223785383e-06,2.7671742815456202e-06
131,1.842850808031507e-06,3.4146362613627364e-06,1.432732420563636e-06,1.012611711169987e-05,6.53581403859689e-07,7.442440559890251e-07,6.87057747812092e-07,2.3123539452817293e-06,2.159203254907082e-06,4.485498599665205e-06,1.1506720541705786e-06,2.860736390534628e-07,1.194804838752836e-06,7.730021315799004e-07,1.4928550119721671e-06,2.777147340784007e-06
132,1.8898198154104288e-06,3.388886979090176e-06,1.4895798996221058e-06,1.0510475350042773e-05,6.427724434824196e-07,7.310451681857604e-07,7.039227832456552e-07,2.2461482521174874e-06,2.041769377257538e-06,4.875172980711901e-06,1.1491830177337728e-06,1.9955827777289278e-07,1.2089754171419137e-06,7.726763243467564e-07,1.446499468156979e-06,2.7828173004847162e-06
133,1.934331060842397e-06,3.3628663109239867e-06,1.5486301237125203e-06,1.0895899794474735e-05,6.327443945287111e-07,7.20172828902477e-07,7.226982874891448e-07,2.1851438621531894e-06,1.9342119038515173e-06,5.2853390252958555e-06,1.1437284339991934e-06,1.1074329159226857e-07,1.2237917670464997e-06,7.747355423306653e-07,1.3979284713322066e-06,2.782589307102711e-06
134,1.9762433746463757e-06,3.3365079383384756e-06,1.6086233802936875e-06,1.127599530135517e-05,6.237749294908444e-07,7.119643111201806e-07,7.433247138172152e-07,2.129246787446141e-06,1.8371988088286234e-06,5.713898165189419e-06,1.13437458315625e-06,2.0703336361923717e-08,1.2387903296679042e-06,7.790143430846085e-07,1.3482874741335457e-06,2.7754116892093405e-06
135,2.0155146693443576e-06,3.309350928479401e-06,1.6682425668885297e-06,1.1644100657019355e-05,6.160260517948183e-07,7.06676238983069e-07,7.656838322375678e-07,2.078016380335322e-06,1.751039201385377e-06,6.158162094573554e-06,1.121312324078849e-06,-6.923584367329254e-08,1.2535803639747939e-06,7.852654866068177e-07,1.298829472078806e-06,2.760941386407668e-06
136,2.052021091463723e-06,3.2806227195893388e-06,1.7263145157466275e-06,1.1993814178176794e-05,6.095923630146452e-07,7.044928068573358e-07,7.895810358662277e-07,2.030667630736385e-06,1.6758414144619339e-06,6.614442451524114e-06,1.1048613898017133e-06,-1.5753835132688263e-07,1.267981064392288e-06,7.931110808365648e-07,1.2507645534932627e-06,2.739553168446178e-06
137,2.0853981310370044e-06,3.2493176809323018e-06,1.781947702043831e-06,1.2320174557951834e-05,6.045593938818123e-07,7.055194975027042e-07,8.14742638103498e-07,1.986118617219256e-06,1.6117535987481617e-06,7.0779137626470775e-06,1.0855402762300595e-06,-2.4251798877205617e-07,1.282009793512756e-06,8.020122533784934e-07,1.205150550087505e-06,2.7122500085035062e-06
138,2.1150215513946636e-06,3.214518820695615e-06,1.8345348959670607e-06,1.2620910857698482e-05,6.010070252926519e-07,7.097653808971085e-07,8.408073557947956e-07,1.9431389026918984e-06,1.5590747559401448e-06,7.54296819325602e-06,1.0640606148006623e-06,-3.2232937479080066e-07,1.2957973734438968e-06,8.11305549674967e-07,1.1628280351933874e-06,2.6804802711719986e-06
139,2.1400767995012515e-06,3.1758122097161395e-06,1.883702880869942e-06,1.2897022937507402e-05,5.989589502624769e-07,7.171703975064413e-07,8.672986987344585e-07,1.900576762340127e-06,1.5181627266114845e-06,8.003885659900281e-06,1.0412608065555327e-06,-3.949256393097888e-07,1.309503245395852e-06,8.203211792938063e-07,1.124410265739767e-06,2.6458093297767318e-06
140,2.1596732428106774e-06,3.133458572778192e-06,1.9293427341760504e-06,1.3152399804061386e-05,5.983483418940212e-07,7.276660605418728e-07,8.93607267276558e-07,1.8575280607383414e-06,1.4892936120403838e-06,8.455413514151236e-06,1.0180386612043331e-06,-4.5804894321688303e-07,1.3232148575660496e-06,8.285220533900344e-07,1.0903242883746018e-06,2.609557517435461e-06
141,2.173024259267927e-06,3.088320416514349e-06,1.9717148468045152e-06,1.3392754242433022e-05,5.990439357017603e-07,7.411848291551729e-07,9.190206534350111e-07,1.8133896692504238e-06,1.4726209615605825e-06,8.893071457040811e-06,9.952753547642943e-07,-5.092471126379881e-07,1.3368481879927434e-06,8.355453341203792e-07,1.0608581307217077e-06,2.572649384464749e-06
142,2.1796661843666825e-06,3.041728056474911e-06,2.011500115180163e-06,1.362426581915539e-05,6.009138580277978e-07,7.576203404428076e-07,9.428370935491516e-07,1.7678458581663991e-06,1.4682663660402308e-06,9.313263380567805e-06,9.737509420538853e-07,-5.458787229362641e-07,1.350108397154491e-06,8.411295068771972e-07,1.0361680756554992e-06,2.535729284529134e-06
143,2.1796370537100977e-06,2.9953127975261367e-06,2.0496925572346587e-06,1.3852207996552318e-05,6.038673964984897e-07,7.768024112885846e-07,9.64543277775964e-07,1.7208048305320877e-06,1.4765134533680739e-06,9.71311643981082e-06,9.540878984595808e-07,-5.650750333054406e-07,1.3625144679623367e-06,8.450896238914225e-07,1.0162816725851193e-06,2.4993491038121507e-06
144,2.173539448362047e-06,2.9507282798798154e-06,2.0873556096086617e-06,1.4080059499681944e-05,6.078384344718226e-07,7.984750471742505e-07,9.83952392326926e-07,1.672297875683451e-06,1.4979886160772626e-06,1.0089844687975677e-05,9.367548060032159e-07,-5.636595727917705e-07,1.373466571401798e-06,8.474235070250144e-07,1.0011329224591086e-06,2.464018516638933e-06
145,2.1624586136782017e-06,2.9093142752983094e-06,2.1254159132991013e-06,1.4309573007282527e-05,6.12742527331373e-07,8.222744687753643e-07,1.00118969739885e-06,1.6224178768861154e-06,1.533655511461521e-06,1.044003354332978e-05,9.221299409932839e-07,-5.380923627056572e-07,1.3823566570189495e-06,8.483677974201351e-07,9.905833895039955e-07,2.4300922554945827e-06
146,2.147770086683177e-06,2.8718761912007702e-06,2.1646302826950553e-06,1.4541357005492866e-05,6.184558833321589e-07,8.477584003116875e-07,1.0165348011238492e-06,1.5713606027008587e-06,1.5846041146687066e-06,1.0759795804087643e-05,9.10560752295323e-07,-4.844887061933603e-07,1.3886942485073408e-06,8.48292924145151e-07,9.84410387354538e-07,2.397614039065556e-06
147,2.13089262446912e-06,2.8386608437148924e-06,2.2056285178481935e-06,1.4774969880338413e-05,6.248217726076125e-07,8.744696772099733e-07,1.0302740776019565e-06,1.5195252153435929e-06,1.6518250823359309e-06,1.1046156417041295e-05,9.023451311579037e-07,-3.986476742629176e-07,1.392180896765005e-06,8.47577629442568e-07,9.823051157944457e-07,2.366219674174469e-06
148,2.113051801125066e-06,2.8095104391742574e-06,2.248895945112702e-06,1.5008483832678716e-05,6.316902502794245e-07,9.019496942368285e-07,1.0426537526946483e-06,1.4675631887140734e-06,1.7361479487786861e-06,1.1299009106193721e-05,8.976612180653602e-07,-2.760230270420747e-07,1.3927098526096723e-06,8.465612167022051e-07,9.839045835368664e-07,2.335184768979107e-06
149,2.095161564583548e-06,2.7841778892707267e-06,2.2947385753467034e-06,1.5238499824202291e-05,6.389775634483604e-07,9.296759561276496e-07,1.0538858043599123e-06,1.4163180441273435e-06,1.8383279526678791e-06,1.152266096819613e-05,8.965260688953032e-07,-1.1168941227427182e-07,1.3903462954631489e-06,8.455412288976238e-07,9.888375025806297e-07,2.3036815630205895e-06
150,2.077885430041034e-06,2.762716364211504e-06,2.3433054983342726e-06,1.5460857272489376e-05,6.466673835616206e-07,9.570101844924067e-07,1.0641708082934816e-06,1.3667089141105835e-06,1.959132358602926e-06,1.1726209706552686e-05,8.987893861425693e-07,9.961895413149846e-08,1.3853083397234826e-06,8.44784428227127e-07,9.967491089902543e-07,2.2711371479720282e-06
151,2.061777709241893e-06,2.7457368712479323e-06,2.3946250959860963e-06,1.5671084171270556e-05,6.54733756226467e-07,9.832501316467732e-07,1.07370163252879e-06,1.3196545201660702e-06,2.099329561104492e-06,1.1922522617104714e-05,9.041248267318376e-07,3.634101633765537e-07,1.3779011237835554e-06,8.445170813233807e-07,1.0073236037576632e-06,2.2374457776853364e-06
152,2.047351510966965e-06,2.734363576913353e-06,2.4485780652908246e-06,1.5863966805477612e-05,6.630659741242243e-07,1.007754407551661e-06,1.0826132574714138e-06,1.2760543348673265e-06,2.25960607165674e-06,1.21263263745761e-05,9.120321423913657e-07,6.853667328854702e-07,1.3684548845048356e-06,8.448765521436942e-07,1.0203392844597775e-06,2.202924749742093e-06
153,2.035043785724672e-06,2.7299170929028817e-06,2.5048017288389256e-06,1.6032580443007547e-05,6.714535416155555e-07,1.0300285456368174e-06,1.0909347697324178e-06,1.2367589833290174e-06,2.4404564275184894e-06,1.2352387376021635e-05,9.218874247254002e-07,1.0713464848946837e-06,1.357360854690893e-06,8.458739895889651e-07,1.0357013052679939e-06,2.1681317365735594e-06
154,2.025174096616156e-06,2.7335248373953297e-06,2.5626148680296317e-06,1.6167576391649297e-05,6.796317385046151e-07,1.0497020676921888e-06,1.098575782899511e-06,1.2025172751971738e-06,2.642079663205472e-06,1.261447116089671e-05,9.330323997001349e-07,1.5273687881839369e-06,1.345130313487344e-06,8.474138068154015e-07,1.0534023537982613e-06,2.1336729159915407e-06
155,2.017999229677117e-06,2.7458602853553325e-06,2.621094123427718e-06,1.6257692411761052e-05,6.87356411278756e-07,1.0664258380388458e-06,1.1053022914386066e-06,1.1739453437503663e-06,2.864346518297371e-06,1.2924988665200348e-05,9.448733297732579e-07,2.059558162107078e-06,1.3323669853049754e-06,8.493376307560875e-07,1.0734578335807357e-06,2.10003166445638e-06
156,2.0138596171250096e-06,2.767100860978523e-06,2.679302238018475e-06,1.6291853289948035e-05,6.94442732661896e-07,1.0798212282503086e-06,1.1107300079131889e-06,1.151511971638153e-06,3.106841350741454e-06,1.3294895554470796e-05,9.569401461056348e-07,2.6740957031550605e-06,1.3196851289846424e-06,8.514554142684268e-07,1.0958451771088321e-06,2.0674391423709337e-06
157,2.0133254724735633e-06,2.7970680352283085e-06,2.7364728153052784e-06,1.626186207549783e-05,7.007309449259481e-07,1.0895627783149404e-06,1.1144232354239283e-06,1.1355352491556066e-06,3.3689077224762806e-06,1.3733687175106332e-05,9.688315119054376e-07,3.3770877268327066e-06,1.3076419240004983e-06,8.535800238375627e-07,1.120439346066455e-06,2.035820853815092e-06
158,2.01729708506219e-06,2.8354273400716938e-06,2.792022656729717e-06,1.6164213409597092e-05,7.060528980654208e-07,1.0954911278105727e-06,1.1160729523255437e-06,1.1261980814476455e-06,3.649688217997832e-06,1.4249422041336056e-05,9.801103875725395e-07,4.174269234098261e-06,1.2966827990033881e-06,8.555700283705495e-07,1.146955553429732e-06,2.0048471122980206e-06
159,2.0270788086119553e-06,2.8818154368353547e-06,2.84550764203619e-06,1.600046095261161e-05,7.102791995517524e-07,1.0976374045556378e-06,1.1156265465388255e-06,1.1235393895381456e-06,3.9481534668315984e-06,1.4848494300333523e-05,9.903243014994858e-07,5.070671114583636e-06,1.287069916261075e-06,8.573488466589698e-07,1.1749149543278803e-06,1.974108154796742e-06
160,2.044383444408485e-06,2.9358322272353414e-06,2.896647316360971e-06,1.577644252652058e-05,7.133922821740531e-07,1.0961813798078535e-06,1.1133137046695558e-06,1.1274279508671764e-06,4.2630337655882975e-06,1.5535065812788873e-05,9.991428189197952e-07,6.070387835959262e-06,1.278816116962154e-06,8.589031924781697e-07,1.20365032669804e-06,1.9433474003648744e-06
161,2.071181024967474e-06,2.996943867001412e-06,2.9453459698082746e-06,1.5500900683907913e-05,7.154910070487703e-07,1.0914242231861418e-06,1.109607420919956e-06,1.1375893059044327e-06,4.592645382561587e-06,1.6310680346565958e-05,1.006431109623782e-06,7.176455776555613e-06,1.2716628133928934e-06,8.603041469483241e-07,1.232328954978283e-06,1.9125551822923297e-06
162,2.1094308174968907e-06,3.0643991592712617e-06,2.991575403963762e-06,1.5184091237594833e-05,7.167246049480247e-07,1.0838149526755422e-06,1.1051499036695788e-06,1.1536678673798124e-06,4.934708195390549e-06,1.7174693487050458e-05,1.0121920132028245e-06,8.39075635897885e-06,1.2651009503629858e-06,8.617264562648307e-07,1.259973617675444e-06,1.8818111191822458e-06
163,2.1608528370109914e-06,3.1372134091595277e-06,3.0351235263726292e-06,1.4836822216858183e-05,7.172315852652937e-07,1.0739870335766832e-06,1.1006507387145605e-06,1.175243329342843e-06,5.286195755405337e-06,1.8125331949444054e-05,1.0164707617178382e-06,9.71380466546224e-06,1.258465976678333e-06,8.63405611637049e-07,1.2855569020353663e-06,1.8510774099755383e-06
164,2.226833348614659e-06,3.214170130031889e-06,3.0753833056634154e-06,1.4469893160016658e-05,7.171448463030349e-07,1.0627112235177438e-06,1.0967744082489942e-06,1.2018156153185582e-06,5.643271766777191e-06,1.9160336164202665e-05,1.0192774332074529e-06,1.1144399090968327e-05,1.251119882087155e-06,8.655725534881822e-07,1.3082162559522086e-06,1.8201815492249294e-06
165,2.308425531458001e-06,3.2937642657258937e-06,3.111343041450674e-06,1.409361499888673e-05,7.166243997442166e-07,1.0507455763776874e-06,1.0940379559275938e-06,1.2328129486087347e-06,6.001367534408293e-06,2.027639523941132e-05,1.0205334919156787e-06,1.2679310255673766e-05,1.2425786793034295e-06,8.684240086730713e-07,1.3274920643832322e-06,1.78891467652498e-06
166,2.406371194229163e-06,3.374171509748684e-06,3.1417490308856743e-06,1.3717248355441558e-05,7.15852198226305e-07,1.0386831558160986e-06,1.0927471242550187e-06,1.2675928093185755e-06,6.3552659611419e-06,2.146789596998756e-05,1.0200980190469914e-06,1.4313142609530948e-05,1.2324533521919184e-06,8.721029554448766e-07,1.343432033602574e-06,1.7570946033136026e-06
167,2.5211265443565666e-06,3.4534700469414268e-06,3.1653314520399886e-06,1.334839070267238e-05,7.150271118540199e-07,1.0268865289810754e-06,1.0930039068455048e-06,1.3054432806842454e-06,6.699199700108501e-06,2.2726002517569987e-05,1.0178775459286024e-06,1.603824802904622e-05,1.220311497849568e-06,8.766803768421453e-07,1.3564947579341787e-06,1.7246054272574083e-06
168,2.6528962035502e-06,3.5301222805153385e-06,3.181040376346424e-06,1.2992436997937557e-05,7.143925935670771e-07,1.0154997025273155e-06,1.094775336196905e-06,1.3456347730055827e-06,7.027295913040226e-06,2.403835809787603e-05,1.0139075216824735e-06,1.7844529345111754e-05,1.205664632324251e-06,8.821805404860571e-07,1.367337109813049e-06,1.6914230578241498e-06
169,2.801624524500341e-06,3.603389650673544e-06,3.1882181996488512e-06,1.2652511634512585e-05,7.142180173424894e-07,1.0045005836257934e-06,1.0979463217960802e-06,1.387449736141358e-06,7.334336990288382e-06,2.5390052952571485e-05,1.0083191758267824e-06,1.9719130935972573e-05,1.1881227936549065e-06,8.886291980833048e-07,1.3766185125694635e-06,1.6575781356009366e-06
170,2.966885514691502e-06,3.673381973948648e-06,3.1865974737574268e-06,1.233026694169514e-05,7.14718529201357e-07,9.937789349220662e-07,1.1022975975867112e-06,1.4301552127051787e-06,7.616323243031277e-06,2.6766533278392535e-05,1.0012605812459836e-06,2.164607706934323e-05,1.1675964165631373e-06,8.9604079623448e-07,1.384873579185861e-06,1.6231043161081313e-06
171,3.1477146062073102e-06,3.740709330519319e-06,3.1761261193725488e-06,1.2027269600238234e-05,7.16024766743972e-07,9.832204866697019e-07,1.1074596605337995e-06,1.4730494342057164e-06,7.870612648734728e-06,2.8156739934890956e-05,9.928777409783243e-07,2.3605981136206752e-05,1.1444144755441961e-06,9.043385154412347e-07,1.3924571439701872e-06,1.5880846114459811e-06
172,3.3424852739091683e-06,3.805955146886017e-06,3.1567898690053744e-06,1.1746249355400432e-05,7.182447362349967e-07,9.727623964079135e-07,1.1129234197605197e-06,1.5156146359634136e-06,8.095823073691168e-06,2.955397027141995e-05,9.833333089736048e-07,2.5576129084319443e-05,1.119282144141044e-06,9.132925475025395e-07,1.3995671547076534e-06,1.5527723422847363e-06
173,3.548859293366998e-06,3.869380166188772e-06,3.1286039634316748e-06,1.149180136201478e-05,7.215267922682215e-07,9.624030682968217e-07,1.1181084662923671e-06,1.5575929749109177e-06,8.291586401486816e-06,3.095453827282436e-05,9.728175419750108e-07,2.7531224714730193e-05,1.0930885051749145e-06,9.225342951240945e-07,1.4062860451629555e-06,1.5176411434768649e-06
174,3.7637798213633977e-06,3.931075876467518e-06,3.09173759783116e-06,1.1270562140260556e-05,7.260459178924758e-07,9.521934358408646e-07,1.1224568535521491e-06,1.5988562915694562e-06,8.458100435840269e-06,3.235619465217006e-05,9.615577019112446e-07,2.9444599700943738e-05,1.0666925820004075e-06,9.316432133752445e-07,1.4125743123064805e-06,1.4833144143705897e-06
175,3.983518521505687e-06,3.991261786800834e-06,3.0465281785169085e-06,1.109096100193294e-05,7.31938046466274e-07,9.422189988195423e-07,1.1255350158343996e-06,1.6391842594161688e-06,8.595562081342084e-06,3.37574174261061e-05,9.498059756938977e-07,3.1289110999609574e-05,1.0408151400590762e-06,9.402807419656013e-07,1.4182716604487483e-06,1.4504817137950306e-06
176,4.203817165325605e-06,4.050289852507573e-06,2.9932796777163405e-06,1.0962553651831413e-05,7.392456142557793e-07,9.325392036445319e-07,1.1271219586317631e-06,1.6781562202788622e-06,8.703605087531724e-06,3.5156988748840744e-05,9.378270462290162e-07,3.303687718422748e-05,1.0160306719205455e-06,9.483200854117282e-07,1.4231799612240792e-06,1.4198958015421132e-06
177,4.420154871999096e-06,4.1083172569782596e-06,2.9321138954007253e-06,1.089495556196769e-05,7.479154331424193e-07,9.231093276178132e-07,1.12725952519727e-06,1.715221777487549e-06,8.780811279679368e-06,3.655297257527323e-05,9.259437353352762e-07,3.465770868331407e-05,9.928118581629226e-07,9.558841594586934e-07,1.4272134285378349e-06,1.3923848698795627e-06
178,4.62816222479503e-06,4.1649776088616765e-06,2.8630899860241833e-06,1.0896688287564642e-05,7.578611726432355e-07,9.137576511215572e-07,1.1262218140565965e-06,1.7498530131047779e-06,8.82468435236589e-06,3.794114840172986e-05,9.1457787074247e-07,3.611770667086766e-05,9.716149750272376e-07,9.63237314566798e-07,1.4305623763926396e-06,1.3687765517127743e-06
179,4.824112783815227e-06,4.219319597435501e-06,2.7864149900236115e-06,1.0974584069824108e-05,7.690528782779371e-07,9.042348741327232e-07,1.1243675028631948e-06,1.7816419013669534e-06,8.832577924617113e-06,3.931321749521715e-05,9.042097706306927e-07,3.738073712591505e-05,9.529367449345216e-07,9.70608234622272e-07,1.4337695641336318e-06,1.3497877749079193e-06
180,5.005308690821664e-06,4.269947462726147e-06,2.7025787921635094e-06,1.1134023028241315e-05,7.815684403198458e-07,8.943127271723165e-07,1.1219564615169736e-06,1.8102564916436562e-06,8.803291919969944e-06,4.0655067352184895e-05,8.953391344377947e-07,3.8413780778418115e-05,9.372721138573879e-07,9.780867022017197e-07,1.4376237911211278e-06,1.3359853447141275e-06
181,5.170203948427607e-06,4.315191693062013e-06,2.6124652502368765e-06,1.1379469036293975e-05,7.955723137171722e-07,8.838801960321786e-07,1.1190728339030517e-06,1.8352832536138913e-06,8.738306036486246e-06,4.194673053226974e-05,8.885031009081932e-07,3.91936302412872e-05,9.250299868307932e-07,9.856206762900673e-07,1.442941928172049e-06,1.327797799123883e-06
182,5.31823089847782e-06,4.353285858619267e-06,2.5174200532985868e-06,1.1714700916684238e-05,8.11236814176792e-07,8.729510906939518e-07,1.115656457738704e-06,1.856120256343977e-06,8.641848932753048e-06,4.316574403840839e-05,8.842723939509867e-07,3.971103215595112e-05,9.16488485755219e-07,9.930457612092834e-07,1.4504119262673225e-06,1.3255146962949564e-06
183,5.449419910880063e-06,4.382573227968267e-06,2.419135200063337e-06,1.2142688921152113e-05,8.286706486031695e-07,8.615638714652152e-07,1.111561752876851e-06,1.8720639024601908e-06,8.519933399342275e-06,4.4292481924424706e-05,8.832077105537861e-07,3.9969888431246204e-05,9.117985791291281e-07,1.0001233022349748e-06,1.4605460931124397e-06,1.3292502410737043e-06
184,5.564007726715859e-06,4.4016700646476875e-06,2.3193406778490587e-06,1.2665404829914711e-05,8.478924402640204e-07,8.496622741101947e-07,1.1066458382288592e-06,1.8825344922433885e-06,8.379143010712682e-06,4.531398135205462e-05,8.858195699099453e-07,3.998179271411412e-05,9.109963654974661e-07,1.006576521891203e-06,1.4736645535156506e-06,1.3388827709673406e-06
185,5.6622104181305965e-06,4.409422731422383e-06,2.219514368149385e-06,1.3283827147653821e-05,8.688139648409644e-07,8.370482721436341e-07,1.1008572286401788e-06,1.8872805115604985e-06,8.225721910587932e-06,4.622439765720882e-05,8.92524491989171e-07,3.975934501453074e-05,9.139957011064743e-07,1.0121132197318392e-06,1.4898707758563847e-06,1.3540138248889842e-06
186,5.744171323168197e-06,4.404620240533518e-06,2.1207732877230848e-06,1.3998166123088713e-05,8.912399362210564e-07,8.234458802186603e-07,1.094221596478464e-06,1.8864687104169417e-06,8.064965295548117e-06,4.7022952054474724e-05,9.036019052797914e-07,3.9313420408825057e-05,9.206053388490344e-07,1.0164828285742372e-06,1.509066947442056e-06,1.3739916076612556e-06
187,5.809968919582027e-06,4.385795483276397e-06,2.0238676577199823e-06,1.4808087925004947e-05,9.149214212042576e-07,8.08654699067244e-07,1.0867616198280521e-06,1.880657747836009e-06,7.900825044738187e-06,4.771102246810089e-05,9.191737938091657e-07,3.8655939132196734e-05,9.305747652329052e-07,1.0195791612667165e-06,1.5310059316186395e-06,1.398038038252148e-06
188,5.8595448615884655e-06,4.3514636951862624e-06,1.9291762708308578e-06,1.5712559955715413e-05,9.396037676791347e-07,7.926918343430993e-07,1.078478827185034e-06,1.870703654025007e-06,7.735836465871299e-06,4.8288748449767775e-05,9.392006182742296e-07,3.7804005119095664e-05,9.435775485578163e-07,1.0215044322397106e-06,1.5552966034783991e-06,1.4254381853086246e-06
189,5.8924631768140505e-06,4.300607941449744e-06,1.8367627382420112e-06,1.670916358019334e-05,9.650130523626197e-07,7.758219211141201e-07,1.069372340622237e-06,1.8576211452080001e-06,7.571386480792361e-06,4.8751733691790896e-05,9.63488333545703e-07,3.6781458930057326e-05,9.591312989330954e-07,1.0225556214137366e-06,1.5813594111391578e-06,1.4556263346303868e-06
190,5.907656876969257e-06,4.232994585504228e-06,1.7465782389908475e-06,1.7793587068695896e-05,9.908197068859944e-07,7.584739334935996e-07,1.05942718417841e-06,1.842391979615551e-06,7.4081414496428906e-06,4.9090486016448033e-05,9.916983089058075e-07,3.561783716840675e-05,9.76552545750335e-07,1.023187075559569e-06,1.6084086912043137e-06,1.488109422588986e-06
191,5.903502337983961e-06,4.149219148762792e-06,1.6587480375725847e-06,1.896025362838526e-05,1.0166047712910649e-06,7.411131379294218e-07,1.0486268479840847e-06,1.8257921200099935e-06,7.246472824230389e-06,4.929385256460361e-05,1.0233648248058673e-06,3.4346170690960924e-05,9.949895991176189e-07,1.0239691276868239e-06,1.6354827458915787e-06,1.5223741386017858e-06
192,5.878261780597011e-06,4.050605124353373e-06,1.5737506563084094e-06,2.020377034262073e-05,1.0418337939317697e-06,7.241462243817624e-07,1.0369920641892246e-06,1.808313271887362e-06,7.08679308730972e-06,4.935356239213031e-05,1.0579824430013131e-06,3.3000361353985995e-05,1.0135346930785181e-06,1.0255076805603789e-06,1.6615168106470843e-06,1.5578660048850472e-06
193,5.830568577033241e-06,3.939056404609238e-06,1.4923626127290351e-06,2.1519902761952942e-05,1.0658891506835031e-06,7.079066060282952e-07,1.0245652623890669e-06,1.7901356225144233e-06,6.929710810202955e-06,4.9266546757077966e-05,1.095160109459792e-06,3.161246612541302e-05,1.0313801351893187e-06,1.0283444996033343e-06,1.6854886871417073e-06,1.5939648541977717e-06
194,5.7597228059347895e-06,3.816897227967126e-06,1.4154363446912978e-06,2.2905277572776438e-05,1.088181399601327e-06,6.926983261550718e-07,1.0113975281918732e-06,1.7711496945062355e-06,6.775874199550633e-06,4.903441267070323e-05,1.1346902228158365e-06,3.0210431469839387e-05,1.0478967330884991e-06,1.032899868003956e-06,1.7066145682686928e-06,1.62991979755652e-06
195,5.665805050134082e-06,3.686678128814132e-06,1.3436814293371026e-06,2.4355850966398417e-05,1.1082341967043418e-06,6.788300011586341e-07,9.97610438156318e-07,1.75109796758715e-06,6.625567573974129e-06,4.866081693939765e-05,1.176444176323443e-06,2.8816854251842678e-05,1.0625897157392788e-06,1.039453298600304e-06,1.7244645745976755e-06,1.6648069612772615e-06
196,5.549680460881488e-06,3.5509136978839557e-06,1.2775500873929565e-06,2.586485040372453e-05,1.1256353070823353e-06,6.665953391295239e-07,9.83414796990818e-07,1.7297933471754233e-06,6.478683468794346e-06,4.814751061086047e-05,1.2202238021873316e-06,2.744872653524627e-05,1.0750810623501992e-06,1.0481160800269224e-06,1.7388897909612613e-06,1.697561166883524e-06
197,5.412931830393798e-06,3.411788794919911e-06,1.217223364985861e-06,2.742159653767494e-05,1.1399580995341043e-06,6.562188320817704e-07,9.69002162262487e-07,1.7072780973208015e-06,6.3355071158373796e-06,4.749070570632973e-05,1.265728174606382e-06,2.6117522295461804e-05,1.0851933106512488e-06,1.0588052997636677e-06,1.7498213935334668e-06,1.7271217415145047e-06
198,5.257725936079272e-06,3.270986136541661e-06,1.1626716032672212e-06,2.9012132091009882e-05,1.1508186249257503e-06,6.478167659158734e-07,9.54425587203729e-07,1.6838535560113053e-06,6.197602385949707e-06,4.668076258021203e-05,1.3126017733886027e-06,2.482913014312266e-05,1.0929719778600307e-06,1.0712804342236008e-06,1.7571162780877849e-06,1.7526658403906608e-06
199,5.08663911741547e-06,3.1297562558895005e-06,1.1137582725569698e-06,3.062086006174009e-05,1.1580077170485656e-06,6.414125667644718e-07,9.396001577929329e-07,1.6600088624675829e-06,6.0678170815520065e-06,4.570653227168871e-05,1.3604371557167984e-06,2.3583769138415285e-05,1.0985469437356529e-06,1.0852504450661913e-06,1.7605276622724328e-06,1.7737478450489673e-06
200,4.902522832325139e-06,2.9891431779374115e-06,1.0703315399345197e-06,3.223167478878986e-05,1.1615360916761677e-06,6.370139037989434e-07,9.244211341627679e-07,1.6362878395105556e-06,5.949407029233093e-06,4.45617133480903e-05,1.4087572072587328e-06,2.2376432768952738e-05,1.101983290176576e-06,1.1004567849800474e-06,1.759705904537467e-06,1.7902139792353526e-06
201,4.708465857068126e-06,2.8501882490152295e-06,1.0322730158968693e-06,3.382759786052908e-05,1.1615655497706961e-06,6.347024136478231e-07,9.08893780520162e-07,1.6131391568346241e-06,5.845048712998623e-06,4.3249575892647235e-05,1.457081455848737e-06,2.1198338926376167e-05,1.1032647813343753e-06,1.1166715325179686e-06,1.7541697494974238e-06,1.8020111814410114e-06
202,4.50779751083339e-06,2.7140173772094035e-06,9.995085763522517e-07,3.5389016014466476e-05,1.158300881663705e-06,6.346535845857734e-07,8.931652154273245e-07,1.5908785373746258e-06,5.756366321133746e-06,4.178449029122928e-05,1.505024375799441e-06,2.003950836216546e-05,1.1023675679501086e-06,1.133663985148404e-06,1.7433726175291228e-06,1.8090793202782435e-06
203,4.304009165992766e-06,2.581792471839567e-06,9.719882181804028e-07,3.689258432583829e-05,1.1518991895494155e-06,6.370751469038931e-07,8.774489516383915e-07,1.5698464798887963e-06,5.684037388786567e-06,4.019033579402574e-05,1.5522886095885e-06,1.8891968829064245e-05,1.0993355128203066e-06,1.151176780580833e-06,1.7269573529725677e-06,1.8113689333970253e-06
204,4.100541804809809e-06,2.4545806453843905e-06,9.496680052418746e-07,3.831303418915848e-05,1.1424412513603698e-06,6.421436246821777e-07,8.619438504478383e-07,1.5506117751438256e-06,5.6282284054399635e-06,3.8496509334380816e-05,1.5985293389243083e-06,1.775229570079244e-05,1.0943138200127982e-06,1.1689145472886528e-06,1.705043187769635e-06,1.808940675995054e-06
205,3.900514308404449e-06,2.3332604309073874e-06,9.325216445639118e-07,3.962712576894252e-05,1.1300194016977342e-06,6.499883293345999e-07,8.468476320319444e-07,1.533997823310264e-06,5.589105427653426e-06,3.6732862569443714e-05,1.643195213707768e-06,1.6622078474041658e-05,1.0875175801360057e-06,1.1865508018463705e-06,1.6782922419149362e-06,1.802047543188204e-06
206,3.706510211325604e-06,2.218542988225919e-06,9.205356409067185e-07,4.081728273806319e-05,1.114886471740692e-06,6.606980594859676e-07,8.324371318556189e-07,1.52093762350968e-06,5.567248016146611e-06,3.492576832430923e-05,1.6854880568921257e-06,1.5506015423402288e-05,1.0791736453098933e-06,1.2037418576877072e-06,1.647706501023907e-06,1.7910498093573569e-06
207,3.5204750362387062e-06,2.11107896410188e-06,9.136517073770056e-07,4.1873709632662e-05,1.0974878375321496e-06,6.743265517815649e-07,8.190969483742236e-07,1.5123662124266005e-06,5.563817716367853e-06,3.309753509404707e-05,1.7245028479488093e-06,1.4409042953477916e-05,1.069514862075234e-06,1.2201738493978426e-06,1.6143494233988036e-06,1.7761954715445651e-06
208,3.3436961439814642e-06,2.011552157895402e-06,9.117030425085759e-07,4.279472128110298e-05,1.0783195904841446e-06,6.908884546913688e-07,8.072519004270322e-07,1.5092420611353327e-06,5.580316446893342e-06,3.126904767583751e-05,1.7594627861812055e-06,1.3334772750870969e-05,1.0588312671843946e-06,1.235630679649966e-06,1.5791848293840206e-06,1.757490470995358e-06
209,3.1768568330518795e-06,1.920658598626955e-06,9.143817177534742e-07,4.358460618904611e-05,1.0577734228822682e-06,7.103335648649117e-07,7.972653131056592e-07,1.5126035173985977e-06,5.61799736693029e-06,2.9462922200487737e-05,1.7899188197823001e-06,1.2286253875020545e-05,1.0475277147936833e-06,1.2499694433717699e-06,1.5430719163394411e-06,1.7347743134916573e-06
210,3.0201989942373342e-06,1.838956677278055e-06,9.21228397783011e-07,4.4248931524390665e-05,1.036143031070481e-06,7.325074219455389e-07,7.893665622536871e-07,1.5236149210374043e-06,5.6773854138500725e-06,2.7704843505916622e-05,1.8158573851336416e-06,1.1267747279484398e-05,1.0361485306197232e-06,1.2630264957375534e-06,1.5068474705135745e-06,1.7079339689455598e-06
211,2.873717255745494e-06,1.7666956101176865e-06,9.316465475314162e-07,4.478983694023407e-05,1.013781686115675e-06,7.571314258375036e-07,7.83630561451714e-07,1.5436055783157472e-06,5.758283381797739e-06,2.602276354946899e-05,1.8376602758027615e-06,1.0285551774192625e-05,1.0253322823664935e-06,1.2746003406781634e-06,1.4713731473140562e-06,1.6770965228939665e-06
212,2.737237550436953e-06,1.7037326214289895e-06,9.449419310238875e-07,4.520486996194677e-05,9.912170076778245e-07,7.838251906976746e-07,7.800211157634303e-07,1.574023829806982e-06,5.860099344034021e-06,2.4444707075002496e-05,1.855905311454322e-06,9.347266995679787e-06,1.015711669236144e-06,1.284496845219772e-06,1.4374774005945747e-06,1.6426596156898576e-06
213,2.6103973913439208e-06,1.6495642620956326e-06,9.603629276921615e-07,4.548978887369119e-05,9.690836840262183e-07,8.121723581984842e-07,7.784791471042064e-07,1.6162719190290947e-06,5.982102651620122e-06,2.29962389737415e-05,1.8711806981243987e-06,8.460291845910037e-06,1.0078327525597468e-06,1.2925220628571816e-06,1.4058605391798578e-06,1.605189989760611e-06
214,2.4926419651050687e-06,1.603457752780255e-06,9.771548117385829e-07,4.564274283597938e-05,9.479784790971736e-07,8.418199886837245e-07,7.789767452719797e-07,1.6715488469128766e-06,6.123378169901457e-06,2.1698735260011686e-05,1.8840201392175007e-06,7.630643009579128e-06,1.0021222043749184e-06,1.2984155973048074e-06,1.3770407412797284e-06,1.5653321064803683e-06
215,2.383263460772142e-06,1.5646350911950638e-06,9.946567478450224e-07,4.566740023119113e-05,9.283849234916785e-07,8.725656623108671e-07,7.814851006737512e-07,1.7407982412679e-06,6.282520078487576e-06,2.0568951892592527e-05,1.8949083951932702e-06,6.862515088495795e-06,9.988855835040955e-07,1.301819765281664e-06,1.351315969719192e-06,1.5237942873236454e-06
216,2.281476076500057e-06,1.5324173023426149e-06,1.0123618833368162e-06,4.5573841307316224e-05,9.106558684045262e-07,9.043512308656871e-07,7.859201154920569e-07,1.8246865458712169e-06,6.4574105204485305e-06,1.9619390547473135e-05,1.9043735033613869e-06,6.158330095144527e-06,9.983156504072327e-07,1.3023511895888e-06,1.3287209569813174e-06,1.4813946761310854e-06
217,2.1865289624044794e-06,1.5062548031487745e-06,1.0298542766877304e-06,4.5377005153915946e-05,8.950017164173716e-07,9.371448542294463e-07,7.921573583866561e-07,1.923549496582416e-06,6.645393190580455e-06,1.8858853132137304e-05,1.913077573391305e-06,5.5189174417115135e-06,1.0004728612907088e-06,1.2997316913136873e-06,1.3090160306573389e-06,1.4390790063134428e-06
218,2.097819535951809e-06,1.4856378986474481e-06,1.0467093543503408e-06,4.509350739843022e-05,8.814713770738577e-07,9.708068356754893e-07,8.000852424278573e-07,2.0373686790637678e-06,6.843722914830478e-06,1.8292988975599873e-05,1.921713468716591e-06,4.943698861845671e-06,1.00525717958881e-06,1.2938922381672374e-06,1.2917399520612792e-06,1.3978172529599042e-06
219,2.014950858727285e-06,1.4699655688775038e-06,1.0624927119579927e-06,4.4738368805306516e-05,8.699287671179884e-07,1.0050331237022425e-06,8.095974958893363e-07,2.165830972446608e-06,7.049912128130874e-06,1.7924600599393447e-05,1.9307920453916672e-06,4.430962778591321e-06,1.0124464795162464e-06,1.2850117169176246e-06,1.276349986383323e-06,1.3584666418688811e-06
220,1.93771809026847e-06,1.4585142886910218e-06,1.076829730258779e-06,4.4323023863675415e-05,8.600508495999249e-07,1.0393850882426322e-06,8.20542295874716e-07,2.3083986580398285e-06,7.2617370315292665e-06,1.7753760264007942e-05,1.94053716698847e-06,3.978298408101896e-06,1.0217848785438541e-06,1.2735024377501085e-06,1.2624059039186681e-06,1.321733717855842e-06
221,1.8660653921760465e-06,1.450561344791414e-06,1.089432946809174e-06,4.385504586464323e-05,8.513525555729462e-07,1.0733783626630039e-06,8.32706489957975e-07,2.464294472719665e-06,7.476935161923908e-06,1.7778751021722884e-05,1.950911731134262e-06,3.5830542890983432e-06,1.0330289504819743e-06,1.259956285599705e-06,1.24964046717485e-06,1.2881764518946074e-06
222,1.80005330853909e-06,1.4455354412226444e-06,1.1000974664084475e-06,4.333900509884308e-05,8.432244104270601e-07,1.1065827472147912e-06,8.45821776811594e-07,2.632459055335221e-06,7.692809723401328e-06,1.799840741052918e-05,1.961728811304135e-06,3.2426000089229907e-06,1.045925635449454e-06,1.2450343076562663e-06,1.2378388470522937e-06,1.2581599959839913e-06
223,1.739803089549706e-06,1.4430604242816035e-06,1.1087477834262834e-06,4.277719740169681e-05,8.350190860992254e-07,1.1386572056445953e-06,8.595671749194911e-07,2.811542129607158e-06,7.906002155132108e-06,1.8414395906577484e-05,1.9728136157724038e-06,2.9543095156980586e-06,1.060170929829004e-06,1.2293203821911769e-06,1.2266893983359436e-06,1.2318066272178167e-06
224,1.6853785394163762e-06,1.4429245120912208e-06,1.1155003981333657e-06,4.216896803116615e-05,8.262222323337504e-07,1.169276628562787e-06,8.735921842147916e-07,2.999838972776122e-06,8.112541973330536e-06,1.9031534212649307e-05,1.9841029481743294e-06,2.7153637434897995e-06,1.0754050977978378e-06,1.2132460380853845e-06,1.2158142759657972e-06,1.20901593858749e-06
225,1.6366776032398883e-06,1.4450904129260074e-06,1.1206274747284748e-06,4.150910661711081e-05,8.166345114827923e-07,1.1979969073452707e-06,8.875556279376095e-07,3.195156099779526e-06,8.308046854237882e-06,1.985604770023585e-05,1.995608829052049e-06,2.522571286530622e-06,1.0912638371751588e-06,1.1971355906883397e-06,1.2049553044927334e-06,1.1895709068493552e-06
226,1.5934223974898952e-06,1.4497529619965275e-06,1.124418285107841e-06,4.078824324470547e-05,8.064242295358295e-07,1.2241646863746868e-06,9.011522874694728e-07,3.39470436676008e-06,8.48795163998975e-06,2.089314450793058e-05,2.0073516895989324e-06,2.372338863397575e-06,1.1074503919369774e-06,1.1812679975671346e-06,1.1940947595215134e-06,1.1732460399714205e-06
227,1.5551912101251894e-06,1.4573186409339939e-06,1.1270639997980945e-06,3.999681783855133e-05,7.959984460049992e-07,1.2469526042896394e-06,9.141188598717966e-07,3.5950273812891677e-06,8.647875824129028e-06,2.2145342519808352e-05,2.0194172099928642e-06,2.260721191936172e-06,1.1237600069547727e-06,1.1658587468790025e-06,1.1833782389139179e-06,1.1598234912704575e-06
228,1.5213999528140313e-06,1.468238847693426e-06,1.1286434769343902e-06,3.9129981844994763e-05,7.858042976956438e-07,1.2655290303716512e-06,9.262114573756609e-07,3.7919602927499687e-06,8.784217487173759e-06,2.3612386225077846e-05,2.0321157349655914e-06,2.1834426261318716e-06,1.1400152465273218e-06,1.151014062377168e-06,1.1729249941285483e-06,1.1490533623670318e-06
229,1.4912746066805937e-06,1.48279741759523e-06,1.129146415276865e-06,3.819016389985905e-05,7.762022860853931e-07,1.2792901563446431e-06,9.37185937030142e-07,3.98078001931593e-06,8.89467702275392e-06,2.529285193120589e-05,2.0460589328013587e-06,2.135978888270454e-06,1.1559586167696925e-06,1.1367569546788264e-06,1.1626961592085222e-06,1.140639893265423e-06
230,1.463861308919565e-06,1.500990335117664e-06,1.1284688587740803e-06,3.718680246009114e-05,7.674378910105978e-07,1.2880318851286562e-06,9.468665950472532e-07,4.156721251534192e-06,8.97824068126446e-06,2.7186301857585176e-05,2.0620413872402327e-06,2.113809962251351e-06,1.171206126561131e-06,1.1230932092759046e-06,1.1525163925264862e-06,1.1342334262751426e-06
231,1.438040239757204e-06,1.5225261036138873e-06,1.126447323634299e-06,3.613436531895377e-05,7.596761450587732e-07,1.2919917016582445e-06,9.552957934035636e-07,4.315722856713664e-06,9.034474638498838e-06,2.9293737187600042e-05,2.0807974096598373e-06,2.1126980407808346e-06,1.1853087225673772e-06,1.1099961355822268e-06,1.142185419031578e-06,1.1294239047647696e-06
232,1.4126029306688436e-06,1.5468896821561783e-06,1.1229970153850025e-06,3.504963137973216e-05,7.530592324025469e-07,1.2917847667206197e-06,9.628183323933387e-07,4.4549460580207975e-06,9.062523434688057e-06,3.161572968510638e-05,2.1027674664885525e-06,2.128809244650028e-06,1.197892928488427e-06,1.0973180982266498e-06,1.1315166399138903e-06,1.1257929751919378e-06
233,1.3864725454540054e-06,1.5734118633490517e-06,1.118259508085842e-06,3.3948863947144505e-05,7.477294889703702e-07,1.2882707275141622e-06,9.700039538832064e-07,4.572676291787083e-06,9.06065798196432e-06,3.4150990374888554e-05,2.1279657977324096e-06,2.1587908036919977e-06,1.2088190362894386e-06,1.0847508335792988e-06,1.120259617586451e-06,1.1229639645431565e-06
234,1.3589427779487583e-06,1.6012941292025847e-06,1.112605655460422e-06,3.2845574820056566e-05,7.438041950853526e-07,1.282368279032954e-06,9.774660455632241e-07,4.667670295285765e-06,9.02687421043942e-06,3.6896660366570475e-05,2.156007566817967e-06,2.1999663320930868e-06,1.2182300289174177e-06,1.0718699267368833e-06,1.108020930540473e-06,1.1205598415740933e-06
235,1.3297695658700633e-06,1.6295790707218691e-06,1.1064797751719305e-06,3.174940409459375e-05,7.413481095072647e-07,1.274870343229812e-06,9.856971750344014e-07,4.738457037544672e-06,8.959920068858866e-06,3.984797591009639e-05,2.186332652775763e-06,2.250522206905108e-06,1.2263970428109505e-06,1.058231053447263e-06,1.0942931123506376e-06,1.1181691999448537e-06
236,1.2991425227306337e-06,1.6571855900581757e-06,1.1002336205320056e-06,3.066572954089487e-05,7.403589764787581e-07,1.2663339663737855e-06,9.949910333747134e-07,4.783159862394872e-06,8.859776429492744e-06,4.299791022868039e-05,2.2185439829690545e-06,2.3094501276328904e-06,1.233488563551476e-06,1.0435072430145562e-06,1.0786174227682413e-06,1.1154597544065177e-06
237,1.2676299470604867e-06,1.6831234947787453e-06,1.094068636424955e-06,2.959516891511908e-05,7.407515695837804e-07,1.2570597612766452e-06,1.0054470442384092e-06,4.799954565913081e-06,8.727468089851539e-06,4.633937576569958e-05,2.2526033113542847e-06,2.3762166059268114e-06,1.2394808957912389e-06,1.0276107992051211e-06,1.0607754164825069e-06,1.112354108466588e-06
238,1.2360700704118433e-06,1.7067657512697206e-06,1.0880895450813703e-06,2.85332092910208e-05,7.423478399763993e-07,1.2471314336830718e-06,1.0170233924896758e-06,4.787743129227211e-06,8.564819223209499e-06,4.98676475196094e-05,2.288690174159519e-06,2.45034165272983e-06,1.2442545652165293e-06,1.0106884206726007e-06,1.0408350340297231e-06,1.109060367154447e-06
239,1.2053785723743156e-06,1.7279788765521747e-06,1.0824384856008572e-06,2.7471131072763136e-05,7.448741453729801e-07,1.2365007531132354e-06,1.0295871158602134e-06,4.746599902488619e-06,8.374639481298982e-06,5.3579341987121134e-05,2.3268695618696086e-06,2.531099096451906e-06,1.247731916705059e-06,9.929889201971756e-07,1.0190530305199882e-06,1.1059444657917707e-06
240,1.1764052807543984e-06,1.7471134403353317e-06,1.077415232403757e-06,2.6398454375343866e-05,7.479695152491587e-07,1.2250661259925284e-06,1.0429256799055804e-06,4.677898808800915e-06,8.161188426164466e-06,5.74682570766484e-05,2.366893984183026e-06,2.6174433672641705e-06,1.2499043417659002e-06,9.747678104991039e-07,9.958172266688014e-07,1.1034302633438868e-06
241,1.14994444517653e-06,1.7649627631047493e-06,1.0734630183007643e-06,2.5305892472235114e-05,7.512345290826321e-07,1.2126743339223712e-06,1.056734441914511e-06,4.584205574228692e-06,7.930369124739011e-06,6.152103002173695e-05,2.4082528875566635e-06,2.7081318770105967e-06,1.250798877677432e-06,9.563070450402248e-07,9.716691611566556e-07,1.1019924563560447e-06
242,1.1267849086934786e-06,1.7827004872161394e-06,1.071038669751705e-06,2.4187888320622462e-05,7.542986346724028e-07,1.199113827213206e-06,1.070602661080014e-06,4.468986419879601e-06,7.689311858744131e-06,6.571573074865345e-05,2.450317912750965e-06,2.801847622178254e-06,1.2504840466069295e-06,9.379335912868869e-07,9.472650061201779e-07,1.1021215554837561e-06
243,1.1076726280229906e-06,1.801742341021472e-06,1.0704913755063202e-06,2.3044300387901488e-05,7.56830164617218e-07,1.184213993207438e-06,1.0840437750074465e-06,4.336213213126401e-06,7.445469011592635e-06,7.002395223882809e-05,2.492421369053952e-06,2.8971125921534257e-06,1.2490464991897447e-06,9.199709180323819e-07,9.232577367308236e-07,1.1042245851699333e-06
244,1.0932244432707935e-06,1.8235303582725792e-06,1.0720101449413948e-06,2.1880893563374295e-05,7.584983947967791e-07,1.1679583284931696e-06,1.096609745343529e-06,4.190002859022093e-06,7.205687297199561e-06,7.441408106888728e-05,2.533812191317002e-06,2.9920763518814013e-06,1.2465447365403868e-06,9.026958924673736e-07,9.002372373232858e-07,1.108544300868423e-06
245,1.083876107767564e-06,1.8493095469152398e-06,1.0756170623049437e-06,2.070845014434916e-05,7.589985957188703e-07,1.1504609755771024e-06,1.108014987259462e-06,4.03437544407959e-06,6.9757719421239364e-06,7.885398947878375e-05,2.5735220821909545e-06,3.084426156891377e-06,1.2430236624953303e-06,8.863420215996239e-07,8.787502797027478e-07,1.1151284027453725e-06
246,1.0798772929286772e-06,1.8799849323029206e-06,1.0812129950159777e-06,1.954081746168084e-05,7.581772844212964e-07,1.1319084032174941e-06,1.1181752313688045e-06,3.873106694830544e-06,6.760590121377049e-06,8.331339148453266e-05,2.6103076733064057e-06,3.1715341748028027e-06,1.2385203724955681e-06,8.711059004470113e-07,8.592824222480101e-07,1.1238557386956604e-06
247,1.081323475661164e-06,1.9160966020785906e-06,1.0886705007253346e-06,1.8392672328444236e-05,7.56139282246421e-07,1.1126263587432105e-06,1.1271800199067221e-06,3.709593580983605e-06,6.564274726281186e-06,8.776637631660109e-05,2.6428604045106834e-06,3.2508287053050044e-06,1.233061740162421e-06,8.571374622590548e-07,8.421842387076207e-07,1.134545965990539e-06
248,1.088206293495766e-06,1.95788044499055e-06,1.0978738571371764e-06,1.7277715239391318e-05,7.53214947721791e-07,1.093155532657697e-06,1.1352538462045176e-06,3.546687936145344e-06,6.390266577674403e-06,9.219394749056374e-05,2.6702449284049823e-06,3.3202286517751354e-06,1.2267516081229048e-06,8.445308327249287e-07,8.276416031600205e-07,1.1470996677374425e-06
249,1.10044622013488e-06,2.0053656355703355e-06,1.1086746895954155e-06,1.6207449805093338e-05,7.498253138014548e-07,1.0741594979594486e-06,1.142702816531162e-06,3.3865579800338287e-06,6.241287693336478e-06,9.658587107116988e-05,2.6923059955031103e-06,3.378349963015237e-06,1.2198463042766945e-06,8.333099795741655e-07,8.157054597440004e-07,1.1615400962185182e-06
250,1.1178955382312474e-06,2.0584761848039095e-06,1.1208431610911449e-06,1.5190403533598174e-05,7.463732114734834e-07,1.0562365093564807e-06,1.1498201847180941e-06,3.2307033866945412e-06,6.11928541133613e-06,0.00010094047243304451,2.7097605499506914e-06,3.4243196303678213e-06,1.2126685789555726e-06,8.234371932915968e-07,8.063161987095443e-07,1.1779248140641037e-06
251,1.1403055934403288e-06,2.1170976754954386e-06,1.1340268954928888e-06,1.4231900555954695e-05,7.431964804126696e-07,1.0397913283373682e-06,1.1567718647436552e-06,3.0801786131390354e-06,6.025283346933452e-06,0.0001052607103461845,2.7238857454877658e-06,3.4574795979432702e-06,1.2054377415460562e-06,8.148870734503405e-07,7.99322882069825e-07,1.196248109307199e-06
252,1.1672819142130951e-06,2.1810783432687878e-06,1.147705773939581e-06,1.3334412794950192e-05,7.405374678261667e-07,1.0249953071158647e-06,1.1635192863059862e-06,2.9359251293979777e-06,5.959237343711782e-06,0.00010954609847396903,2.7360987153407068e-06,3.4774427377324695e-06,1.1982041587222701e-06,8.077270423543144e-07,7.945239031628004e-07,1.2164345648530858e-06
253,1.198302200269063e-06,2.2502006322217086e-06,1.1612056404068214e-06,1.2498001145759378e-05,7.385230121480054e-07,1.011805810876472e-06,1.1697946851794944e-06,2.7990152882487374e-06,5.920088178840789e-06,0.00011378362466152818,2.7477909752051e-06,3.4844419983931035e-06,1.1909632772391318e-06,8.021100423106998e-07,7.916861428723359e-07,1.2383862527048345e-06
254,1.2328120506358225e-06,2.324196570124754e-06,1.1738039601062006e-06,1.1720502821670446e-05,7.371767043671908e-07,1.000046628765861e-06,1.1751157264814877e-06,2.6706528588355497e-06,5.906012577110039e-06,0.00011794411132136351,2.7603512682600464e-06,3.4795529412514845e-06,1.183857017360758e-06,7.981913629317725e-07,7.90516743538178e-07,1.2619872561259274e-06
255,1.2703272809751545e-06,2.4028057762691497e-06,1.1848707287534724e-06,1.0997727006195497e-05,7.364584095958364e-07,9.895361943245595e-07,1.1788781422863905e-06,2.551947561759401e-06,5.914706568200224e-06,0.00012198741647003468,2.7751230364570014e-06,3.4646195459713087e-06,1.1772897033941297e-06,7.960558070964724e-07,7.906482145772303e-07,1.2870309893650432e-06
256,1.3104748601309696e-06,2.485806291241208e-06,1.1939692426038828e-06,1.0323996687638913e-05,7.36301271984997e-07,9.80193770431658e-07,1.1805461749055423e-06,2.4436414135309414e-06,5.943487954381657e-06,0.0001258732968364729,2.7933020463485956e-06,3.44191767561909e-06,1.1718588258560003e-06,7.956905888114539e-07,7.91691244026514e-07,1.3131454480128873e-06
257,1.3529598904155507e-06,2.573003233464903e-06,1.2008854277954768e-06,9.692996362689697e-06,7.366139137442681e-07,9.72056409302965e-07,1.1798380808385135e-06,2.3459484057487572e-06,5.98912355452086e-06,0.0001295733151923824,2.8159166460920276e-06,3.413662162127967e-06,1.1681759280814376e-06,7.969993188111544e-07,7.933254412712107e-07,1.3398177872584275e-06
258,1.3974966283759215e-06,2.664242783597202e-06,1.2055973139611349e-06,9.098638166197643e-06,7.372651398098922e-07,9.652175727909167e-07,1.1767841894770704e-06,2.25852735286199e-06,6.047725391166022e-06,0.0001330802787853436,2.843896036920697e-06,3.381595990702561e-06,1.1667253589957021e-06,7.998727348257663e-07,7.953443490063558e-07,1.3665070839514953e-06
259,1.4437457410424205e-06,2.759500110719744e-06,1.208210840075471e-06,8.535731401413513e-06,7.381060529762786e-07,9.597407527718843e-07,1.1716573402235642e-06,2.1805241294192062e-06,6.1151574402306125e-06,0.0001364109672158368,2.8780990812587647e-06,3.346853839164063e-06,1.167804768668198e-06,8.042746210649301e-07,7.976141156439862e-07,1.3927480865148425e-06
260,1.4912698853509663e-06,2.8589839979166713e-06,1.2088915337363845e-06,8.000441403931682e-06,7.390170420275669e-07,9.555765588194888e-07,1.1648704060735164e-06,2.110635689376643e-06,6.187777694016516e-06,0.00013959913883443585,2.919208447168441e-06,3.31007520319142e-06,1.1715205583241362e-06,8.102391726791179e-07,7.999918950891872e-07,1.418191526445285e-06
261,1.539495347882848e-06,2.9631281916200577e-06,1.20780855547193e-06,7.490625329908393e-06,7.39903728893506e-07,9.524999703529345e-07,1.156926256948868e-06,2.0472017629306435e-06,6.262951504538217e-06,0.00014268072197497564,2.9675317259363773e-06,3.2716016654447255e-06,1.1778268984823303e-06,8.177756815904753e-07,8.022759497579643e-07,1.442576845514208e-06
262,1.587670357695489e-06,3.0724188700743903e-06,1.205076190126675e-06,7.006056199464173e-06,7.406358712683243e-07,9.500902826329269e-07,1.1484301399774147e-06,1.988386152866796e-06,6.339069925423856e-06,0.00014567934145897154,3.0228347349888806e-06,3.2315712058138485e-06,1.186577769076218e-06,8.26803572542676e-07,8.042506595911385e-07,1.465648737681787e-06
263,1.6348474313174584e-06,3.1871727646734255e-06,1.200691077488771e-06,6.548386987925722e-06,7.410263461600155e-07,9.47784098832335e-07,1.1400933403394072e-06,1.9325048744032553e-06,6.415257017610014e-06,0.00014860200891503167,3.0842681076486357e-06,3.1898791011830748e-06,1.1975725335266764e-06,8.371900963166718e-07,8.058494653200827e-07,1.4870676431013364e-06
264,1.679953308523331e-06,3.3073928605516326e-06,1.1945185841299967e-06,6.12068545895428e-06,7.409084098842782e-07,9.450271920225704e-07,1.1326553865398102e-06,1.8784209500102456e-06,6.491085693294203e-06,0.00015144652481857883,3.1503650390692063e-06,3.146173362201815e-06,1.2106036547832181e-06,8.488074293446717e-07,8.073194598846546e-07,1.5063642761261659e-06
265,1.7219737349899232e-06,3.432685681136914e-06,1.186350300288965e-06,5.726583185906818e-06,7.402301115447631e-07,9.414448968782736e-07,1.126747708754339e-06,1.8257637658980922e-06,6.566383402659948e-06,0.0001542126849644908,3.2191574567639516e-06,3.099933846333338e-06,1.225463449947515e-06,8.615031581396443e-07,8.092098860464411e-07,1.5229337862356041e-06
266,1.7601735903878418e-06,3.562239169995889e-06,1.1759758091616264e-06,5.369364097777983e-06,7.390522570304898e-07,9.36876602876927e-07,1.1227925356697068e-06,1.7748070562435352e-06,6.6409833191717476e-06,0.00015690913132660226,3.2884805031323413e-06,3.0506008141200477e-06,1.2418843514806044e-06,8.750233829946403e-07,8.122058395643447e-07,1.5360956221794024e-06
267,1.7942234799125457e-06,3.6950099892853386e-06,1.1632384657452152e-06,5.051393980382438e-06,7.374577915336112e-07,9.31302486962168e-07,1.1209807888170132e-06,1.7261330031411206e-06,6.714342746597266e-06,0.0001595503201561343,3.356327283094445e-06,2.997907764745061e-06,1.259486940504382e-06,8.889996873370107e-07,8.169791402510434e-07,1.5452857206592268e-06
268,1.8241824292981075e-06,3.830135003691515e-06,1.1480885658850444e-06,4.7740303769063325e-06,7.354955389845213e-07,9.248326570779768e-07,1.1212849767119364e-06,1.680348480719288e-06,6.78519970378839e-06,0.00016214434115641453,3.4209812902936117e-06,2.94237448976046e-06,1.277768291115663e-06,9.030163223175848e-07,8.241098802552818e-07,1.5502937808571312e-06
269,1.850375941131441e-06,3.9672762691715745e-06,1.1306170210937507e-06,4.537817421399918e-06,7.332226773236743e-07,9.177480731944274e-07,1.1234630561038904e-06,1.6379769621835303e-06,6.851578084598037e-06,0.0001646864980431664,3.4808340886384996e-06,2.8854966204791303e-06,1.2960955166985587e-06,9.167016830222941e-07,8.340448837326353e-07,1.5513529191254203e-06
270,1.8732105719557228e-06,4.106649920613784e-06,1.1110460355409547e-06,4.342719864360796e-06,7.307530279085605e-07,9.104567141630096e-07,1.1270607772262678e-06,1.5994678844848671e-06,6.911209024792589e-06,0.0001671705796875965,3.5340802844289513e-06,2.829397573336228e-06,1.3137447300310758e-06,9.297777420333866e-07,8.470889911957688e-07,1.5490775874037046e-06
271,1.892977198185945e-06,4.248809728621219e-06,1.0896912485628086e-06,4.188305986639833e-06,7.282231614888539e-07,9.033765136193997e-07,1.1314352232698857e-06,1.5652107041892425e-06,6.9621695042267765e-06,0.0001696055208297308,3.578551397634243e-06,2.7763315696174375e-06,1.3300102686309002e-06,9.420281243261236e-07,8.63409962281381e-07,1.5443800540628812e-06
272,1.9097412152533893e-06,4.394413850612109e-06,1.0669277646091694e-06,4.073896500283477e-06,7.25739207255355e-07,8.968499404554165e-07,1.1358336593735375e-06,1.5355076416647458e-06,7.00360319702915e-06,0.0001720191174819847,3.6117636549854406e-06,2.7284308572220205e-06,1.3442987497565698e-06,9.532768849302276e-07,8.830272638992782e-07,1.5383779011835628e-06
273,1.923334607307452e-06,4.544072864028129e-06,1.0431774723982931e-06,3.998693381777791e-06,7.233934286620117e-07,8.911105912197457e-07,1.1395590923095813e-06,1.5105501025939637e-06,7.036354752123942e-06,0.0001744465460574572,3.6311222040624673e-06,2.6875991674528077e-06,1.3561721945581945e-06,9.634414720910298e-07,9.057966618242349e-07,1.5322377125245196e-06
274,1.9333499544861286e-06,4.698163761036098e-06,1.0189074362482209e-06,3.961833843922333e-06,7.213134484537773e-07,8.862735708332504e-07,1.1421572767353913e-06,1.4904244848713096e-06,7.063149654070915e-06,0.0001769125612140147,3.6344003365541262e-06,2.655460512138817e-06,1.3653752347071173e-06,9.725346586746e-07,9.314267332375244e-07,1.5269998118330535e-06
275,1.939132853406858e-06,4.856535595578399e-06,9.946177366210646e-07,3.962286351566607e-06,7.196518774807117e-07,8.823680099299314e-07,1.1434814719697542e-06,1.475097778379432e-06,7.088084732020358e-06,0.00017941918178845527,3.6206175996640646e-06,2.633486391844771e-06,1.371827589564354e-06,9.80598656888039e-07,9.595217175122432e-07,1.5234802783710122e-06
276,1.939898114121927e-06,5.018321687426405e-06,9.708133352376532e-07,3.998601973068424e-06,7.185114034447243e-07,8.794389143067827e-07,1.1435922525605213e-06,1.4643787568019902e-06,7.115618403948926e-06,0.00018194753959290997,3.590776965369277e-06,2.623201193132847e-06,1.3755648571061293e-06,9.876774601531487e-07,9.895943285889329e-07,1.5222483792053293e-06
277,1.9350016364489183e-06,5.182049970226552e-06,9.479628457721567e-07,4.068665338924587e-06,7.178898484894618e-07,8.776621347147237e-07,1.142615628885992e-06,1.4579278373587215e-06,7.149528974955289e-06,0.00018447158572694862,3.54765788142331e-06,2.6262188656541107e-06,1.376674293399061e-06,9.937843998534034e-07,1.0210291483838022e-06,1.523614357649041e-06
278,1.9242158622872974e-06,5.345877363723815e-06,9.264575405144076e-07,4.1695799987777104e-06,7.177135912874954e-07,8.773599963911583e-07,1.1406947212975914e-06,1.455321911963697e-06,7.192234560532556e-06,0.0001869739010589425,3.494807148706364e-06,2.6441140321534492e-06,1.3752416211627191e-06,9.988452491166163e-07,1.0530678556001664e-06,1.5276479744357126e-06
279,1.9078331727512033e-06,5.507721489192403e-06,9.066233836069668e-07,4.2976880322716165e-06,7.179279587806834e-07,8.788908379653053e-07,1.1380231829856585e-06,1.4561154406343383e-06,7.244579777660522e-06,0.00018945779677223226,3.4356000129748026e-06,2.6783498330415187e-06,1.371311095322418e-06,1.0027167690910494e-06,1.0848830668713688e-06,1.5342787172786313e-06
280,1.8865820476127932e-06,5.665285258189789e-06,8.887935160002455e-07,4.448666543823736e-06,7.185406563820343e-07,8.825127867037502e-07,1.1348453023668438e-06,1.45990687559059e-06,7.306028084163826e-06,0.00019195516423027164,3.3728719877470903e-06,2.730288123381274e-06,1.3649256351012585e-06,1.0052855886191959e-06,1.115671858078576e-06,1.5434010344567977e-06
281,1.8614635577764623e-06,5.815990584840495e-06,8.733521559846297e-07,4.617705907422415e-06,7.195742571523431e-07,8.883209637239908e-07,1.1313987036493688e-06,1.4664407043064871e-06,7.3751552046965455e-06,0.00019452853145688167,3.309029877560781e-06,2.801075335653692e-06,1.3562329860466387e-06,1.0065502421489793e-06,1.1446795358973103e-06,1.5548799161925066e-06
282,1.8335701368582847e-06,5.956762830337877e-06,8.607219384602226e-07,4.799771824004935e-06,7.21002548339961e-07,8.962612314604984e-07,1.1278947233585368e-06,1.4756602696522362e-06,7.450250018126614e-06,0.00019726391289210011,3.2462875426960456e-06,2.8914288121703395e-06,1.3455376183986232e-06,1.0066196178401046e-06,1.1712598658286455e-06,1.5685334803332952e-06
283,1.8038882996630458e-06,6.083777208256505e-06,8.513506194596404e-07,4.989811930548572e-06,7.227322786241056e-07,9.06174466482283e-07,1.1245498805311543e-06,1.4876169073890456e-06,7.529824370099903e-06,0.00020025352635727006,3.1867030811899408e-06,3.001540046025336e-06,1.3332760096971474e-06,1.0056486432905284e-06,1.1950515267536547e-06,1.5841945723244246e-06
284,1.7731391220749815e-06,6.192533305519755e-06,8.456863399147487e-07,5.18270918106391e-06,7.246110763531748e-07,9.178320751447221e-07,1.1215661321665965e-06,1.5023384567670052e-06,7.612893056671643e-06,0.00020357397067003233,3.1319957336625715e-06,3.1311258322613144e-06,1.3199598273928085e-06,1.0037724160638692e-06,1.2160647366814571e-06,1.601731868822683e-06
285,1.7417768128659516e-06,6.27845565678389e-06,8.441086280424122e-07,5.3731031081618605e-06,7.264588405459081e-07,9.309375660206282e-07,1.1190387316401373e-06,1.5197796524184088e-06,7.698933841637416e-06,0.00020727157667919715,3.0833900229857316e-06,3.279483862424507e-06,1.3061128706470876e-06,1.0010613957304874e-06,1.2345345276111184e-06,1.620918023254714e-06
286,1.710211264345672e-06,6.337738568749343e-06,8.468648270807382e-07,5.555579292707951e-06,7.28123041396174e-07,9.451151666670882e-07,1.1168988981225857e-06,1.5397838185311968e-06,7.787625682672946e-06,0.00021136280304692075,3.0416640772550815e-06,3.4454251882941538e-06,1.2922342693096947e-06,9.975093445086124e-07,1.2506969955569423e-06,1.6412777400188249e-06
287,1.679153988793684e-06,6.367977590813086e-06,8.540537181604163e-07,5.725419347616495e-06,7.294973418662538e-07,9.59937685298115e-07,1.1149682080903085e-06,1.562034536523708e-06,7.878596969528474e-06,0.00021584442778465902,3.007357563890024e-06,3.627159084098743e-06,1.2787678562291461e-06,9.930504572205841e-07,1.2646533894715946e-06,1.66208299348348e-06
288,1.6498610363430106e-06,6.368343324038418e-06,8.656250678372348e-07,5.879460913622101e-06,7.304759876328464e-07,9.74981617238412e-07,1.1130845953367076e-06,1.5860890298184664e-06,7.97116268504871e-06,0.0002207021180628399,2.9809584689745555e-06,3.822370298745864e-06,1.266075165988183e-06,9.875475526183944e-07,1.276367431119179e-06,1.682499906961648e-06
289,1.6240934182828197e-06,6.339294611793031e-06,8.81379752627151e-07,6.016607283056545e-06,7.309333534494233e-07,9.898537265608814e-07,1.1112151479473615e-06,1.611488660290355e-06,8.063917283568729e-06,0.00022591094166005078,2.962894029072874e-06,4.028520557858392e-06,1.2544648555407527e-06,9.807682577820564e-07,1.2857882545833205e-06,1.7018033912588652e-06
290,1.6038666034464506e-06,6.281924309093583e-06,9.009840977796597e-07,6.137917063469207e-06,7.308101402423296e-07,1.0042020035270519e-06,1.1094950263027275e-06,1.6379149852299145e-06,8.15449724191209e-06,0.00023142673219895418,2.9533821954902367e-06,4.243087023923788e-06,1.2442350148816131e-06,9.72468414729214e-07,1.2929872097932186e-06,1.719576003949639e-06
291,1.5913106023320077e-06,6.197234659314369e-06,9.239898664524483e-07,6.246360328570378e-06,7.302197687676617e-07,1.0177576693197116e-06,1.1081651885965333e-06,1.6653670760484488e-06,8.239687515913395e-06,0.00023717183758840708,2.952325550713262e-06,4.4635265949504e-06,1.2356513420116532e-06,9.625687087434623e-07,1.2981697511339733e-06,1.7357897230006203e-06
292,1.5888125005916497e-06,6.085938250284951e-06,9.498602564220742e-07,6.346314256950487e-06,7.29431602451684e-07,1.030385956853715e-06,1.1074541446399926e-06,1.6942370192278122e-06,8.315426785274136e-06,0.00024302406496197633,2.9592519890163545e-06,4.687077153611089e-06,1.228896059529742e-06,9.512282969660676e-07,1.3015614361607781e-06,1.7506935610758434e-06
293,1.5992631099651854e-06,5.949041707937181e-06,9.780041631292369e-07,6.44284817409626e-06,7.287486625738539e-07,1.0420875622343348e-06,1.1075082571466758e-06,1.725198452501173e-06,8.376808754417366e-06,0.00024881313663600624,2.973272240664216e-06,4.910604584574271e-06,1.2240633516511998e-06,9.387204087427647e-07,1.303291259768119e-06,1.7646004812903997e-06
294,1.6262166594032463e-06,5.788672409357622e-06,1.0077937432747476e-06,6.5409131473251335e-06,7.284014057197934e-07,1.0529445009599763e-06,1.1083908985733166e-06,1.7589946486771394e-06,8.418633391598173e-06,0.0002543214080744488,2.993089501956174e-06,5.1305375637508916e-06,1.221181312861252e-06,9.252517368720535e-07,1.303396607233108e-06,1.7777545597853687e-06
295,1.6739171414884744e-06,5.608483610367065e-06,1.0385635129689912e-06,6.644783195639109e-06,7.285036791249415e-07,1.0630561314563774e-06,1.1100802928798811e-06,1.7962442773841045e-06,8.43618864673848e-06,0.0002592935975032207,3.0170025452333727e-06,5.3427803919644965e-06,1.2201762056686486e-06,9.108744578789719e-07,1.3019102862922565e-06,1.7902904047266488e-06
296,1.747197318591306e-06,5.413488207398813e-06,1.0696074332749745e-06,6.758082694346234e-06,7.290455175209701e-07,1.07250747599197e-06,1.1124493925602826e-06,1.8373065997210633e-06,8.425446834537016e-06,0.0002634658105705023,3.042884128992632e-06,5.542646287445282e-06,1.2208079722929187e-06,8.954978513359883e-07,1.2988665394598864e-06,1.8022126790629837e-06
297,1.8513425453481274e-06,5.209562873819097e-06,1.1001610871434493e-06,6.884240479857609e-06,7.299114932442637e-07,1.081366611943053e-06,1.1152473923443302e-06,1.8822145639735822e-06,8.38262350416418e-06,0.00026660837576407214,3.068297920153093e-06,5.7251780065127945e-06,1.222703661371037e-06,8.789829888407832e-07,1.2942502951957655e-06,1.813411946098097e-06
298,1.992015989424278e-06,5.002898624424062e-06,1.1293882209194496e-06,7.026832530946115e-06,7.309216160096324e-07,1.0896689061831177e-06,1.1181011343549062e-06,1.9306601838687027e-06,8.304243033016335e-06,0.0002685621835238632,3.0908576232091617e-06,5.886027904854463e-06,1.2255155386815684e-06,8.612991599020338e-07,1.2880436863777007e-06,1.8236845231430004e-06
299,2.175194993332879e-06,4.799499313615516e-06,1.1564426214178869e-06,7.189426550588898e-06,7.318611065801374e-07,1.0973725552944364e-06,1.1205703250346017e-06,1.982015298753877e-06,8.188470143391225e-06,0.0002692514894052057,3.1086593627345226e-06,6.022332634919899e-06,1.229087511528851e-06,8.426293657488519e-07,1.2803244543222387e-06,1.8326945442516767e-06
300,2.4070131870011326e-06,4.604774570270606e-06,1.1806071724923006e-06,7.3750669046467445e-06,7.324937118166314e-07,1.1043327781956338e-06,1.1222301161078754e-06,2.035416144387986e-06,8.036458805992346e-06,0.0002686683870571962,3.120497853329798e-06,6.1327358656790135e-06,1.2335000429835807e-06,8.233244035715104e-07,1.271275588066359e-06,1.839970802014478e-06
301,2.693517863376556e-06,4.4233604786024825e-06,1.2014186738520198e-06,7.585933022917846e-06,7.326081159371009e-07,1.110323194278234e-06,1.122717645334478e-06,2.0899290711277175e-06,7.852298931280254e-06,0.0002668362383146553,3.1257008775347375e-06,6.216521473086355e-06,1.2389642376611396e-06,8.037730314386313e-07,1.2610909774829365e-06,1.8450216071894345e-06
302,3.0404400336494053e-06,4.259147752906761e-06,1.2186760178416776e-06,7.823361078871226e-06,7.320882374013362e-07,1.1150585507069681e-06,1.121745076599592e-06,2.144747533900794e-06,7.641960387635902e-06,0.00026377258089594203,3.1237084284319456e-06,6.272947077224955e-06,1.2456430293413508e-06,7.843305536265356e-07,1.2498455670960007e-06,1.8474696621033577e-06
303,3.45302610610395e-06,4.115304592716935e-06,1.2323245243918504e-06,8.087823612088954e-06,7.309291205200529e-07,1.1182111047785618e-06,1.119118463990886e-06,2.1993567720481025e-06,7.412276746181243e-06,0.0002594776303636401,3.113824592057933e-06,6.301568017015472e-06,1.2535271470813101e-06,7.653344433919766e-07,1.2374302723798548e-06,1.847109465522374e-06
304,3.935933252933178e-06,3.994292712541758e-06,1.2424081067241585e-06,8.378639549766988e-06,7.291779389782245e-07,1.119485257670945e-06,1.1147736840666096e-06,2.2536367580254364e-06,7.1702272004878e-06,0.00025395341573158865,3.095400779314158e-06,6.3029330584395674e-06,1.2624575544622347e-06,7.471315175638093e-07,1.2236318731853805e-06,1.8439110649828311e-06
305,4.4932254505904635e-06,3.898008800987601e-06,1.2492272901828187e-06,8.693813902560389e-06,7.26874887968619e-07,1.1187310127104277e-06,1.108815114327931e-06,2.3078700717655627e-06,6.92229963728182e-06,0.00024723101103844185,3.068198711309722e-06,6.278806652313456e-06,1.2722715349951408e-06,7.300642322696778e-07,1.2083016015922155e-06,1.8380129692633486e-06
306,5.12847144159175e-06,3.8279640544010615e-06,1.253489771200979e-06,9.030391307927814e-06,7.240781152182838e-07,1.1159987065499075e-06,1.1015348301910725e-06,2.362592557922145e-06,6.673985663748615e-06,0.00023938550147320432,3.0326120590927533e-06,6.231914695897142e-06,1.2829317175943634e-06,7.144340474703694e-07,1.191440421998921e-06,1.8297010414194462e-06
307,5.844831399415491e-06,3.785380112960394e-06,1.2562204716804393e-06,9.385086893907774e-06,7.209541366636443e-07,1.1115247499167846e-06,1.0933781158057747e-06,2.4183096389840014e-06,6.42962527760523e-06,0.00023053643657564927,2.9897010211153724e-06,6.1655064105904834e-06,1.2945080136461006e-06,7.004765286257444e-07,1.1731351476241277e-06,1.819344026238906e-06
308,6.645011873545765e-06,3.7712249929164435e-06,1.2585316314140276e-06,9.754720991800627e-06,7.178113642467946e-07,1.1057117782600042e-06,1.0848367769875002e-06,2.475277388703131e-06,6.192511433156332e-06,0.00022083904620704092,2.9410908733386687e-06,6.08281873788181e-06,1.3070750036278587e-06,6.883493315204983e-07,1.1535006547512103e-06,1.8072660302372925e-06
309,7.531057061885878e-06,3.7862228021094487e-06,1.2614708896187812e-06,1.013631488642354e-05,7.150132530993872e-07,1.0991236413834354e-06,1.076326215688883e-06,2.533504845278171e-06,5.9650055470904855e-06,0.00021047098295992017,2.888770270572165e-06,5.986525097890302e-06,1.320677961208478e-06,6.781277581321314e-07,1.132754944094967e-06,1.793606172447928e-06
310,8.504012797575976e-06,3.83087720274071e-06,1.266005133519199e-06,1.0526996413309801e-05,7.128579397265543e-07,1.0924673737296617e-06,1.068126530837378e-06,2.5928784544286056e-06,5.748605610199388e-06,0.0001996185676515352,2.8348418877788434e-06,5.8784551751273085e-06,1.3353599082292745e-06,6.698120037189974e-07,1.1112918488936673e-06,1.7783054415694945e-06
311,9.563540010243517e-06,3.9055824827129766e-06,1.2730516479997506e-06,1.092390208025877e-05,7.115154469066708e-07,1.0865458085182919e-06,1.0603794420801609e-06,2.65323514667361e-06,5.544007313344134e-06,0.0001884661272317031,2.781284696670077e-06,5.759786723528059e-06,1.351159245869466e-06,6.633371534798331e-07,1.0895984738019524e-06,1.7613061886173186e-06
312,1.0707573782316066e-05,4.0107831267247745e-06,1.2834665872087063e-06,1.132418769253963e-05,7.110184760239443e-07,1.0821929645119428e-06,1.0530913685421688e-06,2.7143396766501117e-06,5.351180906224687e-06,0.00017719010605211848,2.729755206001182e-06,5.6314886695860406e-06,1.3680663257415488e-06,6.585907706783458e-07,1.0681155220467687e-06,1.7427917574782953e-06
313,1.193212423613787e-05,4.146991812818145e-06,1.2979871823715245e-06,1.1725163742320516e-05,7.112980628322707e-07,1.0802003432272288e-06,1.046136090445161e-06,2.775823085160043e-06,5.169536502497757e-06,0.0001659560902892754,2.6814340726406333e-06,5.494643854520089e-06,1.385985395703892e-06,6.554414929668436e-07,1.0471778598217678e-06,1.7231848282035953e-06
314,1.3231298603882635e-05,4.314545135507786e-06,1.317174745451787e-06,1.2124474432059783e-05,7.122475896502405e-07,1.0812334817559667e-06,1.0392533796093402e-06,2.837162224474021e-06,4.998249481367113e-06,0.00015491583665569065,2.6369548373365722e-06,5.35052732303051e-06,1.4047656690454956e-06,6.537454748847574e-07,1.0270079479389057e-06,1.702931214237131e-06
315,1.4597559489933627e-05,4.513216954528038e-06,1.341375581038613e-06,1.2520179345131931e-05,7.137473938143148e-07,1.0857599753566994e-06,1.0320591225285884e-06,2.8977187275145904e-06,4.836722252201898e-06,0.0001442044133122249,2.5964795079197134e-06,5.200576629767172e-06,1.4242867236194135e-06,6.533354587667294e-07,1.007727964697308e-06,1.6823467509423935e-06
316,1.6022138847610455e-05,4.741917303895775e-06,1.3706925891224608e-06,1.2910653783975295e-05,7.156355604364079e-07,1.0940149572423052e-06,1.0241182588637657e-06,2.9567695598134015e-06,4.685043958976868e-06,0.0001339383188546767,2.559950562647404e-06,5.04645261073373e-06,1.4444810643168554e-06,6.540216161941089e-07,9.89393882909193e-07,1.6616342432409185e-06
317,1.7495488113560775e-05,4.998559076757605e-06,1.4049855748619764e-06,1.3294364163116888e-05,7.176848792624007e-07,1.1060089777020183e-06,1.0150685996715389e-06,3.013478355033745e-06,4.544226753826998e-06,0.00012421342803462467,2.527394007150864e-06,4.890203473524999e-06,1.4652630044721938e-06,6.555857077350886e-07,9.719921312259703e-07,1.6409529320405845e-06
318,1.9007660015982487e-05,5.280048064784914e-06,1.4439087582818492e-06,1.3669632147470926e-05,7.196348861021571e-07,1.1215732739814744e-06,1.0047066023994157e-06,3.0668524364070252e-06,4.416122834305394e-06,0.00011510454254564131,2.4990451397712045e-06,4.734340147968524e-06,1.4864512994248714e-06,6.57773725217167e-07,9.554133869823529e-07,1.620420239225698e-06
319,2.054851268057317e-05,5.58241814210044e-06,1.4869391390200426e-06,1.4034393782859305e-05,7.212879364906074e-07,1.140411091222536e-06,9.929680529587985e-07,3.1157605124017615e-06,4.303167547852857e-06,0.00010666870785741671,2.4752934986041566e-06,4.581697918194146e-06,1.5077338571705311e-06,6.603198279209953e-07,9.395247271250226e-07,1.6000536068882186e-06
320,2.2107664690085196e-05,5.901142690260182e-06,1.533364223613698e-06,1.4385775759330011e-05,7.22601581764234e-07,1.162109832203215e-06,9.798505212276044e-07,3.1590232250131316e-06,4.208072633035088e-06,9.894742626741914e-05,2.4566472412363612e-06,4.435160588026127e-06,1.5286752409242904e-06,6.630082908670958e-07,9.243266029627033e-07,1.5797327220027903e-06
321,2.3674255633750012e-05,6.2315138930437584e-06,1.582262632333827e-06,1.4719406037170955e-05,7.23673315065418e-07,1.1861335015740936e-06,9.65408438293605e-07,3.1955613479812504e-06,4.1334467923736495e-06,9.196403387598236e-05,2.4437171470041895e-06,4.297394318697486e-06,1.5487509234986003e-06,6.65778789148623e-07,9.100409181546156e-07,1.5591860189471543e-06
322,2.5236621580521297e-05,6.5689010496624075e-06,1.6324924676141592e-06,1.5029020442008075e-05,7.246217601942015e-07,1.2118691317670154e-06,9.498480485250404e-07,3.224615209111331e-06,4.081383284963683e-06,8.572036277152084e-05,2.437067526877692e-06,4.170644436372093e-06,1.5673771438641513e-06,6.688154756027466e-07,8.970550601520716e-07,1.5379661399309525e-06
323,2.678190870942136e-05,6.908744812430811e-06,1.6826765104184255e-06,1.530727451619277e-05,7.254871562099302e-07,1.2387310290524903e-06,9.335833634691137e-07,3.245967625597883e-06,4.053171945710669e-06,8.01967881553423e-05,2.436986331357939e-06,4.056552505160722e-06,1.5839414639438634e-06,6.7250503184148e-07,8.857777336234642e-07,1.5154904255774228e-06
324,2.829554286672568e-05,7.246285956729535e-06,1.7312144986373761e-06,1.5547851348162237e-05,7.262402232541434e-07,1.2662253960610157e-06,9.171480517245055e-07,3.2599396965622515e-06,4.0492599527629886e-06,7.53555103117581e-05,2.4433726043790027e-06,3.956011306114733e-06,1.597866070927099e-06,6.772813558812193e-07,8.765120365389313e-07,1.4912462476927414e-06
325,2.976039146035664e-05,7.576228824667457e-06,1.7763410717876297e-06,1.5747899498097287e-05,7.268518183972535e-07,1.2939050175035241e-06,9.010354326589858e-07,3.267056031246091e-06,4.069416527578584e-06,7.114573140631206e-05,2.4557589063348923e-06,3.869124667184033e-06,1.6087181717537798e-06,6.834952591973195e-07,8.694191179531024e-07,1.4650537591009899e-06
326,3.115556575664989e-05,7.89264411824687e-06,1.8162287622685213e-06,1.590966394881407e-05,7.27313283337781e-07,1.321285454780879e-06,8.8559762515672e-07,3.2676988794451704e-06,4.112882653276301e-06,6.75096283528446e-05,2.473338144007366e-06,3.7952599469176684e-06,1.6163293983086683e-06,6.913792527996824e-07,8.645526798190825e-07,1.4371455416271609e-06
327,3.245564016322193e-05,8.189303032872249e-06,1.8491781626141584e-06,1.6040725707365595e-05,7.275853080406472e-07,1.347866396452837e-06,8.710476349653561e-07,3.262100031424193e-06,4.1783987496475475e-06,6.438774932378778e-05,2.495041241453378e-06,3.7331954812461886e-06,1.6208030760082136e-06,7.01067109001549e-07,8.618895405046343e-07,1.408011103875448e-06
328,3.363197788069299e-05,8.460401935146846e-06,1.8739099891518255e-06,1.6152976812806352e-05,7.275719764877813e-07,1.3732607038825617e-06,8.575384497237427e-07,3.2505657258899122e-06,4.264310973464591e-06,6.172215794968335e-05,2.5197346043923105e-06,3.6814156188952276e-06,1.6223489058845906e-06,7.12604643462751e-07,8.613434133970672e-07,1.3781862763128135e-06
329,3.4656865903041545e-05,8.701444345136952e-06,1.889863674572733e-06,1.6260791744530418e-05,7.271944362151358e-07,1.3972590430138351e-06,8.452622827133188e-07,3.233662633721442e-06,4.368851782825142e-06,5.945660892027809e-05,2.5463338617854532e-06,3.6384836303902765e-06,1.6211238775612588e-06,7.259435927399712e-07,8.628154301255655e-07,1.348132006392664e-06
330,3.5508822719606545e-05,8.909938456164684e-06,1.897349596903985e-06,1.6378851769094765e-05,7.265002443836417e-07,1.4197230130269385e-06,8.344834323572976e-07,3.2122823681056323e-06,4.4902993646628565e-06,5.753528804203805e-05,2.573752749326731e-06,3.6033005054773254e-06,1.6172406024714385e-06,7.409416472184088e-07,8.662597269204837e-07,1.3181885295546636e-06
