,EMG1,EMG2,EMG3,EMG4,EMG5,EMG6,EMG7,EMG8,EMG9,EMG10,EMG11,EMG12,EMG13,EMG14,EMG15,EMG16
0,2.509437428826736e-07,1.1336922993529173e-07,3.869876028282868e-07,1.5257737764745892e-06,1.2978588037326816e-07,2.1064659800584687e-07,2.0573760520751575e-07,-7.816427984680183e-08,4.78366978909308e-07,6.301664732903668e-07,1.309720484555001e-07,4.465401420558041e-07,1.0898068454745328e-07,-7.134752518173916e-08,2.0490706497961664e-08,-2.2360481496204197e-08
1,3.694994855637855e-07,2.3167479747880358e-07,4.6529904990094237e-07,1.8833150669082366e-06,1.5951174497931319e-07,3.138268886468057e-07,2.8480070711022634e-07,1.1294700350502685e-07,9.094182928294742e-07,7.151116828130736e-07,2.1142676971735095e-07,6.588274120117294e-07,2.8070522022380114e-07,5.169559008623243e-09,9.767188358427332e-08,1.2640836852753732e-07
2,4.833256727616454e-07,3.513408994756109e-07,5.461394911836313e-07,2.242307495952295e-06,1.891896073204573e-07,4.167553843426062e-07,3.625891347962695e-07,3.0910962511319845e-07,1.3329857513701835e-06,8.010614256770786e-07,2.8904559572258043e-07,8.692425440899153e-07,4.4424816366098865e-07,8.011955091175202e-08,1.7555716899002846e-07,2.748134299344606e-07
3,5.915370053967828e-07,4.714738273904884e-07,6.289577173680113e-07,2.601521989628259e-06,2.1836283111175308e-07,5.181711699463548e-07,4.381226743901441e-07,5.106532064508732e-07,1.743258833560865e-06,8.871372155550147e-07,3.632860562426112e-07,1.0748072709362725e-06,5.987126263375637e-07,1.5256944987398263e-07,2.535622823269806e-07,4.215080190265497e-07
4,6.934276887795245e-07,5.913401593808044e-07,7.1334134638553e-07,2.960138902675829e-06,2.467234509279085e-07,6.169660446917562e-07,5.104915373520623e-07,7.178933677619213e-07,2.1356171087111123e-06,9.724679218517732e-07,4.337002406057218e-07,1.2725764776238275e-06,7.432709654868968e-07,2.2168584965542173e-07,3.312496451733746e-07,5.652469146392707e-07
5,7.884515215330295e-07,7.103823141680048e-07,7.990604568223949e-07,3.3177693521328567e-06,2.740426109246788e-07,7.122602925464856e-07,5.788707900193674e-07,9.310768049899032e-07,2.5069104457234917e-06,1.0561227149919895e-06,4.999276689806625e-07,1.4596980017918433e-06,8.772151841829401e-07,2.868218209800017e-07,4.0834420740446234e-07,7.049649856752699e-07
6,8.761164918706396e-07,8.281444089582863e-07,8.86019462635522e-07,3.6741571406492726e-06,3.0012967253295054e-07,8.034164630739608e-07,6.425672769837977e-07,1.1503275941857109e-06,2.8553321573465225e-06,1.137173006581519e-06,5.616742803768311e-07,1.633665663345489e-06,9.999173598143632e-07,3.475759266058781e-07,4.846557261222546e-07,8.39815127549625e-07
7,9.558837906105349e-07,9.441674400419836e-07,9.74168070786061e-07,4.0288500583071684e-06,3.2482300735228833e-07,8.899550111540529e-07,7.0111235928012e-07,1.3756173395538915e-06,3.1799085293746407e-06,1.2148441855806257e-06,6.186856689745115e-07,1.7928221088311896e-06,1.1107156970239195e-06,4.038002440772395e-07,5.599901621152424e-07,9.691598714447376e-07
8,1.0271697673726649e-06,1.0579287791977216e-06,1.063412414227346e-06,4.381207401294091e-06,3.479806446206902e-07,9.714299162533148e-07,7.543389706764953e-07,1.606802274132007e-06,3.479885389366593e-06,1.2885806260859108e-06,6.707407383417107e-07,1.936803036285062e-06,1.2088627783105952e-06,4.555668336301394e-07,6.341230148433013e-07,1.0926317662634977e-06
9,1.0894639393992325e-06,1.1688516068845376e-06,1.153548596443942e-06,4.730708523969451e-06,3.694589180107242e-07,1.0473736401605576e-06,8.023688887336779e-07,1.8437443438268683e-06,3.75439932648946e-06,1.3579615403907871e-06,7.176796619830513e-07,2.066510683660189e-06,1.2936450720840869e-06,5.030928117206573e-07,7.068175723630266e-07,1.2102539120172314e-06
10,1.1424800968178303e-06,1.2763343499284973e-06,1.244253735009864e-06,5.077252031416585e-06,3.8908607095703885e-07,1.1173114282494845e-06,8.455260591850876e-07,2.086457152945411e-06,4.0025636037153174e-06,1.422578836228706e-06,7.594687462589913e-07,2.183615400905548e-06,1.3646470838347252e-06,5.466683518428841e-07,7.778435457914446e-07,1.3224120137685972e-06
11,1.186231777985517e-06,1.3797222195649118e-06,1.3351221843765334e-06,5.421231277877636e-06,4.0666082409978497e-07,1.1807713409085057e-06,8.842570692302904e-07,2.3351950543762137e-06,4.223715194353534e-06,1.4819781381626285e-06,7.962490590489261e-07,2.2899476792036603e-06,1.4219913143892963e-06,5.866380044136292e-07,8.469609523059231e-07,1.4296154591039923e-06
12,1.220978392207654e-06,1.4782206563596075e-06,1.425678316442949e-06,5.7632964670121655e-06,4.219867568665032e-07,1.2373130766623563e-06,9.190798717121501e-07,2.5904282288457625e-06,4.417557169770736e-06,1.535639538192383e-06,8.283227341443299e-07,2.387081637644462e-06,1.466383523410484e-06,6.233991936396164e-07,9.138747145771374e-07,1.5322433066961964e-06
13,1.2470762011394649e-06,1.5708246415011659e-06,1.5153237401255636e-06,6.103863804324431e-06,4.3491131361279834e-07,1.2865707509334268e-06,9.50512348117451e-07,2.852677038800578e-06,4.584236266466711e-06,1.5829635632321215e-06,8.560980880010931e-07,2.4761989847704326e-06,1.498969536594252e-06,6.57374295889693e-07,9.782571966441872e-07,1.630434780703422e-06
14,1.2648549087207438e-06,1.6563290643399921e-06,1.6032521980600711e-06,6.442762957304388e-06,4.453441992047204e-07,1.3282037453914003e-06,9.789804911022237e-07,3.1222480363867376e-06,4.724441303712524e-06,1.623334015064878e-06,8.800160550399105e-07,2.5581558835353817e-06,1.5211176801465264e-06,6.889784110843569e-07,1.0398922126051575e-06,1.7241219317449424e-06
15,1.274638661140081e-06,1.7334664440814838e-06,1.688435142762842e-06,6.7793857646690615e-06,4.5329371591455596e-07,1.361806108467196e-06,1.0047717271465515e-06,3.398968562728939e-06,4.839360835462035e-06,1.6562657154766074e-06,9.005055884355076e-07,2.6335645732274387e-06,1.5342185127980155e-06,7.185966750662823e-07,1.0987760361305789e-06,1.813161934838455e-06
16,1.2768819243739753e-06,1.8011511026857205e-06,1.7697587275033484e-06,7.113188102416945e-06,4.5893682216141453e-07,1.3869112715698214e-06,1.0280684091283998e-06,3.6819910468066015e-06,4.930366349356287e-06,1.681475724819901e-06,9.179900106141732e-07,2.702764188856262e-06,1.5396125135443383e-06,7.465523161616594e-07,1.1550172403284252e-06,1.8974857573749808e-06
17,1.2722778804990395e-06,1.8586980369809173e-06,1.846259508967317e-06,7.4442529486669885e-06,4.6263554248667664e-07,1.4030550091530427e-06,1.0490383545978556e-06,3.96968384402145e-06,4.9987190415950585e-06,1.6988490610134188e-06,9.328645630196698e-07,2.7657714631811835e-06,1.5386862539855408e-06,7.730877292100264e-07,1.2086509499611347e-06,1.9771137307088697e-06
18,1.261763613626232e-06,1.9058991336262625e-06,1.9173117994478343e-06,7.773810188129362e-06,4.648704064937197e-07,1.4098453724346068e-06,1.0679246240917942e-06,4.259576118978692e-06,5.04576114904713e-06,1.7084785354121306e-06,9.454300227828011e-07,2.82237350030428e-06,1.5329786327172465e-06,7.98388813503261e-07,1.259541718072553e-06,2.051989358805357e-06
19,1.2464396856324813e-06,1.9429460878283432e-06,1.98264985644871e-06,8.104492785038226e-06,4.661842783338896e-07,1.4070983962892386e-06,1.0850507618909512e-06,4.548309542089661e-06,5.073452968858644e-06,1.7108199792323142e-06,9.558493170598927e-07,2.8722764529478986e-06,1.524128317155917e-06,8.226189657833328e-07,1.3073915275211252e-06,2.121800292248497e-06
20,1.2274314461829164e-06,1.9702326839777e-06,2.0422317883350805e-06,8.440057049939714e-06,4.6716677844279053e-07,1.3950216162400085e-06,1.1007093441506693e-06,4.831628007477345e-06,5.084604846966799e-06,1.7067927834750073e-06,9.64129540573018e-07,2.915122536412511e-06,1.513700982302864e-06,8.459226736501715e-07,1.3517830622652472e-06,2.1860201004437512e-06
21,1.2057365017515907e-06,1.9881024456949574e-06,2.096073866736989e-06,8.784671270990263e-06,4.684261236797314e-07,1.374297961716259e-06,1.115027422629087e-06,5.104516995391575e-06,5.0825716627199434e-06,1.6976794435777014e-06,9.701512189229793e-07,2.9504824006727657e-06,1.5030558770873386e-06,8.683921494582313e-07,1.3921750889326786e-06,2.244176791730188e-06
22,1.1821288744107504e-06,1.9966895462174718e-06,2.144164338681712e-06,9.142169980870347e-06,4.7055249104293713e-07,1.3459634933337618e-06,1.1279234333573471e-06,5.361606660566788e-06,5.0707406789007424e-06,1.6848430410781702e-06,9.738135669014196e-07,2.9779511470131447e-06,1.4933111135100751e-06,8.900259518341401e-07,1.4278727465809839e-06,2.2960776296739375e-06
23,1.1571391761104547e-06,1.9959535600638635e-06,2.1864361289188047e-06,9.515551408285154e-06,4.741020390379737e-07,1.3111660122267331e-06,1.139147185368689e-06,5.597885480038683e-06,5.052092815003794e-06,1.669449673924595e-06,9.752228832911717e-07,2.9972153980646553e-06,1.4853423330055632e-06,9.107401814389806e-07,1.4581067101497663e-06,2.3417830249375647e-06
24,1.1310733512644486e-06,1.985835924948637e-06,2.2227034793471416e-06,9.906745509787277e-06,4.795880754022067e-07,1.2710271765873247e-06,1.148329050109768e-06,5.809532105075945e-06,5.0288900500232455e-06,1.652391734935798e-06,9.74746373464584e-07,3.0080431049052456e-06,1.479775697811043e-06,9.304361336619994e-07,1.4822238371125202e-06,2.381415543071062e-06
25,1.1040593385548106e-06,1.9664283477583854e-06,2.2525340790466606e-06,1.031649557852519e-05,4.874684023069501e-07,1.2266801420028774e-06,1.1550340038883493e-06,5.994382514147441e-06,5.002558122290917e-06,1.6343996373498992e-06,9.729227921268607e-07,3.010312546605002e-06,1.4769785905249752e-06,9.490420503673612e-07,1.4998300371524122e-06,2.4149872776666794e-06
26,1.0761167840063727e-06,1.938096634591336e-06,2.2751732907938987e-06,1.0744126273873062e-05,4.981308086160804e-07,1.1793062200030552e-06,1.158857847514657e-06,6.1516176849089315e-06,4.973807341556844e-06,1.6161364743986675e-06,9.703812695394325e-07,3.004117283305957e-06,1.4770342159761548e-06,9.664638807092385e-07,1.5107755892675435e-06,2.442282369434689e-06
27,1.0471992223733478e-06,1.9015269006558187e-06,2.2896385835083874e-06,1.1187216033265207e-05,5.118768944265852e-07,1.1300544054407467e-06,1.1595381881254537e-06,6.2808316735418225e-06,4.942838216313841e-06,1.5981450577854455e-06,9.678109585234854e-07,2.989905195185526e-06,1.4797206274036294e-06,9.824985939247243e-07,1.5150163185260911e-06,2.4627618693405776e-06
28,1.0172168103778982e-06,1.8577367133519529e-06,2.294936841537192e-06,1.1641558168741046e-05,5.289082519724329e-07,1.0799544154261494e-06,1.157001658866886e-06,6.3812539280104845e-06,4.9095032376098095e-06,1.5807521291984728e-06,9.659118512836915e-07,2.9685687200375455e-06,1.484543046979335e-06,9.968412734953413e-07,1.5125245860976485e-06,2.4755971259291673e-06
29,9.861252309545202e-07,1.808111281675356e-06,2.2902936681992618e-06,1.2101682049294423e-05,5.493170982432416e-07,1.0299240034013515e-06,1.1513072839292664e-06,6.451718141160507e-06,4.873378712955988e-06,1.5640790363931088e-06,9.653289223084794e-07,2.9413420806163857e-06,1.4907973811070223e-06,1.0092062648392844e-06,1.5033940723251374e-06,2.479961758999281e-06
30,9.540574527312685e-07,1.7543842979992827e-06,2.275349537451634e-06,1.2561761560146348e-05,5.730842828034436e-07,9.808180372036736e-07,1.1425250192839742e-06,6.4911478261673085e-06,4.833735581806334e-06,1.5481603520087367e-06,9.666083532312469e-07,2.909480591410977e-06,1.4976321031276216e-06,1.0194390684801078e-06,1.4880185561333856e-06,2.475467931698113e-06
31,9.21360017377306e-07,1.6984556419714515e-06,2.2503016340170517e-06,1.3016570754603765e-05,6.000966794461557e-07,9.334469325385603e-07,1.1306599560886272e-06,6.4990202283634475e-06,4.789778673000225e-06,1.5330779907865154e-06,9.701624378739729e-07,2.8739742171642718e-06,1.5041606243308896e-06,1.0275462803078828e-06,1.4671481118583362e-06,2.462489161510198e-06
32,8.884872692185023e-07,1.6421374654573031e-06,2.2159375548729436e-06,1.3462213155764123e-05,6.30193696143238e-07,8.88553210974541e-07,1.1157222494002198e-06,6.475605059433908e-06,4.741393632511208e-06,1.519009635643392e-06,9.762333454305545e-07,2.8355380772342073e-06,1.509610678101759e-06,1.0336578483225653e-06,1.4418375683408626e-06,2.4422249896207223e-06
33,8.558550164705341e-07,1.5869917706510725e-06,2.1734887088388842e-06,1.3896431691237131e-05,6.632249412476423e-07,8.467632310557187e-07,1.0978893432087963e-06,6.422023188178059e-06,4.689745451981576e-06,1.50616313232273e-06,9.84874124887863e-07,2.7947973051514416e-06,1.513369259907251e-06,1.037936774592562e-06,1.4133521904826033e-06,2.4164911643832144e-06
34,8.23774464448462e-07,1.5342667228344611e-06,2.124335209108505e-06,1.4318438669319718e-05,6.99072258887118e-07,8.085456967333536e-07,1.0775734899685247e-06,6.340184648699635e-06,4.637130398063196e-06,1.4946787800255672e-06,9.959710599231094e-07,2.752440645737261e-06,1.51489899347123e-06,1.040490829376128e-06,1.3830129040610733e-06,2.387327967084994e-06
35,7.924866339298881e-07,1.4848819366275704e-06,2.0697955462889037e-06,1.4728356466212283e-05,7.376079622171892e-07,7.742030656310852e-07,1.0553096389340854e-06,6.2326477061673435e-06,4.5863982904953705e-06,1.4845862103559975e-06,1.0093118403165497e-06,2.709220866396911e-06,1.5136930970826413e-06,1.041339623192606e-06,1.3520594804926192e-06,2.3566774651844454e-06
36,7.622116281033247e-07,1.439472374451406e-06,2.011180395650755e-06,1.5126422695336527e-05,7.786241809327104e-07,7.439053248608094e-07,1.0315975071961537e-06,6.102455635455109e-06,4.540430361284702e-06,1.475831161443132e-06,1.024640097684083e-06,2.665799798528885e-06,1.5093751475040524e-06,1.0404317263836135e-06,1.3216192040946682e-06,2.326306488044226e-06
37,7.331438728051647e-07,1.3984718742288633e-06,1.949923039944136e-06,1.5512025578117986e-05,8.217962980983195e-07,7.17759327350792e-07,1.0068520004775896e-06,5.953001192678928e-06,4.501758500258764e-06,1.4683355577867235e-06,1.0416407314749252e-06,2.622585975624513e-06,1.5018590335257744e-06,1.0377166688486761e-06,1.292692512294238e-06,2.297818984558459e-06
38,7.05424605914089e-07,1.362157683772999e-06,1.8875051568891684e-06,1.5882635135826197e-05,8.66703509145705e-07,6.958616742696732e-07,9.814308733719287e-07,5.787899673869815e-06,4.472345190505913e-06,1.4620352570213597e-06,1.0598982014916543e-06,2.579776918291605e-06,1.4914250212731716e-06,1.0332169276296818e-06,1.2661037852065417e-06,2.272551440285478e-06
39,6.791332191208161e-07,1.3306152377867957e-06,1.8252537285720261e-06,1.6233013539827586e-05,9.128788839275227e-07,6.782892069849949e-07,9.556436898403155e-07,5.610800815790857e-06,4.453657491424044e-06,1.4568669766798702e-06,1.0788849511241177e-06,2.5376046385763417e-06,1.478626831644898e-06,1.0269989486083186e-06,1.2424805778505277e-06,2.251413449874941e-06
40,6.542931719315358e-07,1.3036840259923237e-06,1.7642790006137934e-06,1.6555162482659346e-05,9.598315529527704e-07,6.650693239721633e-07,9.297603356586434e-07,5.425105171205796e-06,4.446951546122688e-06,1.4527187444592722e-06,1.0979640067552243e-06,2.4965079919661957e-06,1.464053686658927e-06,1.0191104956782622e-06,1.2222548120747743e-06,2.2348283795290643e-06
41,6.308836979878033e-07,1.2809841803159165e-06,1.7055730251904324e-06,1.6838989088500377e-05,1.0070127877860654e-06,6.561713728360123e-07,9.040341950617167e-07,5.2336180344759505e-06,4.453410530039936e-06,1.449379297596741e-06,1.1163825885587554e-06,2.4570364100553067e-06,1.4480926674871347e-06,1.009604032757844e-06,1.2056508417180322e-06,2.2228160291373055e-06
42,6.08853101935871e-07,1.2620540511356875e-06,1.6500555857750464e-06,1.7073399630540164e-05,1.0537826570412982e-06,6.514855203902721e-07,8.786783541692344e-07,5.0382594477454445e-06,4.473982509663108e-06,1.4465489161553222e-06,1.1333209406771499e-06,2.4196890267123493e-06,1.4308325956778134e-06,9.986012136107621e-07,1.1926765861544431e-06,2.21516846428823e-06
43,5.881450627745115e-07,1.2465109682413547e-06,1.5984801738816181e-06,1.724769612132779e-05,1.0994164830789113e-06,6.507900844563715e-07,8.538157408072593e-07,4.840059870875533e-06,4.509184700889644e-06,1.4439619741616092e-06,1.1480819245816657e-06,2.3849410737800157e-06,1.4121407088763183e-06,9.863324376256626e-07,1.1831474809732693e-06,2.2116239877140213e-06
44,5.687265109371435e-07,1.2340899773346845e-06,1.5513325381711355e-06,1.7353199047644074e-05,1.1431188693547654e-06,6.537674039637265e-07,8.294697207626706e-07,4.639595580269046e-06,4.559194340067524e-06,1.4415425224308825e-06,1.1603330991069475e-06,2.353301285750607e-06,1.3918591629850176e-06,9.73166573610891e-07,1.1767704717319991e-06,2.211938468727679e-06
45,5.505751388025257e-07,1.2245359756553575e-06,1.508821607499744e-06,1.738474260419138e-05,1.1840799123405873e-06,6.600676371277706e-07,8.055847661766114e-07,4.437639440675565e-06,4.624225401920623e-06,1.439421302360563e-06,1.170169923354397e-06,2.325197807606635e-06,1.3699854654586096e-06,9.596148603766711e-07,1.1732348419552767e-06,2.2158161906377426e-06
46,5.336545201244612e-07,1.217484760286761e-06,1.4708993166351822e-06,1.734139417971914e-05,1.2216099328575193e-06,6.693451304192517e-07,7.820828415286686e-07,4.2355282207890635e-06,4.704918672685509e-06,1.4378080579958881e-06,1.1779323058502616e-06,2.300819555794134e-06,1.3466874387732089e-06,9.462613541042964e-07,1.1721979235019415e-06,2.2228114886194177e-06
47,5.179216922643336e-07,1.2124279562887675e-06,1.4372431278096155e-06,1.7225976028457866e-05,1.255230026969462e-06,6.812369786955982e-07,7.589720482059999e-07,4.035011124699398e-06,4.802484345282235e-06,1.436931930579732e-06,1.1839674307141716e-06,2.280075786936095e-06,1.3221782086104555e-06,9.336479359981606e-07,1.1731914536771335e-06,2.232388926765448e-06
48,5.033396591748422e-07,1.2087567931085543e-06,1.4072483038968472e-06,1.7043596356598143e-05,1.2846040438790011e-06,6.953419712241976e-07,7.364363478908168e-07,3.8378601191790534e-06,4.918535165671343e-06,1.437143535478103e-06,1.1885057488700674e-06,2.2626667912012375e-06,1.296626044144396e-06,9.222004309762356e-07,1.1755651511456485e-06,2.244100653532939e-06
49,4.898873393733979e-07,1.2058755209611854e-06,1.3801303967161262e-06,1.6799679521486324e-05,1.3093988996363543e-06,7.112371842215207e-07,7.148231519891523e-07,3.6456418465475634e-06,5.054716811949238e-06,1.4390165461053158e-06,1.1916214090684847e-06,2.248206743700228e-06,1.2701576799580434e-06,9.122424474613566e-07,1.1784848351985799e-06,2.257638483405166e-06
50,4.775763850262672e-07,1.2033129151563262e-06,1.3551608588423383e-06,1.6498143568140947e-05,1.3292429412967975e-06,7.284917290581577e-07,6.945414186201045e-07,3.4597698179940575e-06,5.212275724129959e-06,1.4433361301030843e-06,1.1932245294806194e-06,2.236351360562074e-06,1.2428772483755713e-06,9.040690026455438e-07,1.180971565373549e-06,2.272740785063924e-06
51,4.664334236764743e-07,1.2007054822940174e-06,1.331886649115713e-06,1.614071247927472e-05,1.3438174832685801e-06,7.466613122254243e-07,6.759696004978605e-07,3.2817249700962734e-06,5.391743050669693e-06,1.451046673769336e-06,1.1931165003472018e-06,2.2268717862443726e-06,1.214882666817475e-06,8.979881522950611e-07,1.1820163827698028e-06,2.289140051955761e-06
52,4.564453560941983e-07,1.1976699487037593e-06,1.3101388679982004e-06,1.5727766318565906e-05,1.3529802218220378e-06,7.653192246456556e-07,6.594342724168369e-07,3.113252658237253e-06,5.592993163094827e-06,1.4632107867760336e-06,1.1911269089179371e-06,2.219612298225382e-06,1.1863062633088351e-06,8.942671510031934e-07,1.180768583250207e-06,2.30658615243176e-06
53,4.475339935208216e-07,1.193702484232276e-06,1.2898462948449746e-06,1.525982401333665e-05,1.3568343576628315e-06,7.841418883516106e-07,6.452186645897019e-07,2.956367514272502e-06,5.815768874458386e-06,1.4809380872099554e-06,1.1872763309962917e-06,2.214357390312894e-06,1.157383036116487e-06,8.93042118407783e-07,1.1767359499514915e-06,2.324858746108429e-06
54,4.395844503721249e-07,1.1881537281161487e-06,1.2708762237093645e-06,1.4738576659437478e-05,1.35570020404047e-06,8.029743467200255e-07,6.335697723592885e-07,2.8131453134387107e-06,6.060354428395979e-06,1.5052774078681523e-06,1.181875291568745e-06,2.210756866524588e-06,1.128513361603496e-06,8.942785851122095e-07,1.1699027037814453e-06,2.3437522177951036e-06
55,4.324810727221805e-07,1.1802695516543142e-06,1.2530261734129591e-06,1.4167249440691222e-05,1.3499857824749696e-06,8.218117372228449e-07,6.247093379731668e-07,2.6854309829628737e-06,6.327912707257796e-06,1.5371244178576141e-06,1.1754918592311587e-06,2.208399357469102e-06,1.1002302750219732e-06,8.977786400208925e-07,1.1606590498363366e-06,2.36305967936273e-06
56,4.261251405233066e-07,1.1693313907542093e-06,1.2360750884322335e-06,1.3550610512122133e-05,1.340072101420048e-06,8.40717031810717e-07,6.188270091967133e-07,2.5746229324574643e-06,6.620277097418514e-06,1.577191278562021e-06,1.1687981754496872e-06,2.2069013574461743e-06,1.0730658175497114e-06,9.032010271965217e-07,1.1495513515344176e-06,2.382559232696838e-06
57,4.204496811823891e-07,1.1548780396146173e-06,1.2198027752529939e-06,1.2894924542145611e-05,1.326346558142401e-06,8.597265085241364e-07,6.160546587493528e-07,2.4815942440676563e-06,6.93935720340555e-06,1.6260330550871397e-06,1.162396136075755e-06,2.2058305144030742e-06,1.0474425699381572e-06,9.101148896467909e-07,1.1370453520150393e-06,2.4019827869488354e-06
58,4.1542757682315424e-07,1.1368818688469842e-06,1.2039929627770607e-06,1.2207918966143384e-05,1.3093282587376822e-06,8.787822851230654e-07,6.164568581017455e-07,2.406694719904644e-06,7.286457659382385e-06,1.6840614568333327e-06,1.1567212596651157e-06,2.2045228861056013e-06,1.0236516787573466e-06,9.18097888921588e-07,1.1234672030402009e-06,2.4209315456582873e-06
59,4.110738747628243e-07,1.1157672450442685e-06,1.188452159893312e-06,1.1498617682820486e-05,1.2897247825004085e-06,8.977234194523856e-07,6.200347987954506e-07,2.3497979140703387e-06,7.66173319505054e-06,1.751537959888721e-06,1.1520391386267347e-06,2.2020346276462563e-06,1.0018840811943363e-06,9.268079826984696e-07,1.1090819282108242e-06,2.4387442703835127e-06
60,4.0744779209965247e-07,1.0922699342509313e-06,1.1730437175561683e-06,1.0776836828010608e-05,1.2683743108647514e-06,9.163276301036151e-07,6.267248240377609e-07,2.310399109157863e-06,8.063882416254176e-06,1.8285848123049563e-06,1.1484952552433241e-06,2.19734383286505e-06,9.822771153478345e-07,9.359537790365976e-07,1.0941734524517134e-06,2.4544487352901817e-06
61,4.0462911031747006e-07,1.0672238160164487e-06,1.1577105565921458e-06,1.0052303054085322e-05,1.2461356715607419e-06,9.343479579768487e-07,6.364040931640267e-07,2.287726689419267e-06,8.490130098442781e-06,1.9151694162066484e-06,1.1461895246188828e-06,2.189660649086263e-06,9.64935056770196e-07,9.451955048993498e-07,1.079043320265982e-06,2.466932794268861e-06
62,4.026810239930255e-07,1.0413876939295492e-06,1.1424483943092747e-06,9.333677941112428e-06,1.2237815337376931e-06,9.515000786774913e-07,6.489002522527055e-07,2.2808436191245996e-06,8.936519858237587e-06,2.0111119655966854e-06,1.145242120645215e-06,2.178588722571332e-06,9.499340070775279e-07,9.540975417459188e-07,1.0639480229082199e-06,2.4752604609934964e-06
63,4.0165114185304864e-07,1.0153642529342305e-06,1.1272250643205419e-06,8.627983668029501e-06,1.2019136811372573e-06,9.674171761432194e-07,6.639867562891412e-07,2.2887530152144166e-06,9.398274634931842e-06,2.1162527157189604e-06,1.1457858874137704e-06,2.164037430530595e-06,9.373324665913662e-07,9.621938490198937e-07,1.0490655296273342e-06,2.478906902164172e-06
64,4.016029076733138e-07,9.895671127331188e-07,1.111922398506338e-06,7.940668012493527e-06,1.1809136332892778e-06,9.8166370872591e-07,6.813755620886801e-07,2.310451665788685e-06,9.869789834976612e-06,2.230681203478963e-06,1.1478756700908018e-06,2.146058884262146e-06,9.271419558501199e-07,9.690810811864087e-07,1.0345295971378962e-06,2.477777574415307e-06
65,4.026197926932703e-07,9.641980967375926e-07,1.0963804114317704e-06,7.276028604667829e-06,1.1609401650137248e-06,9.938780145316993e-07,7.007317158768104e-07,2.3448405480468707e-06,1.0344393965316978e-05,2.3547899343428933e-06,1.1514042290642812e-06,2.1248311878061764e-06,9.192674465485317e-07,9.744513175092568e-07,1.0204637768815056e-06,2.472089937885691e-06
66,4.0478133290851893e-07,9.392671000876341e-07,1.0804895429431795e-06,6.637617580523752e-06,1.1419505895983933e-06,1.0039487339974341e-06,7.217255050402498e-07,2.3905453300980603e-06,1.0814552351330491e-05,2.4891005491744314e-06,1.1560847772414696e-06,2.100788880854445e-06,9.134925628121308e-07,9.781007971421898e-07,1.0069591630921577e-06,2.4623331805896004e-06
67,4.081605739842498e-07,9.146908639075218e-07,1.0641995428521615e-06,6.0284999983234685e-06,1.1237094911414388e-06,1.0120409444169946e-06,7.440879008751842e-07,2.4458514701402637e-06,1.1272672316274596e-05,2.6340181382772157e-06,1.161467022346298e-06,2.0747384388546733e-06,9.095417739548421e-07,9.7994268744653e-07,9.94040156875267e-07,2.449401480890524e-06
68,4.128368801764563e-07,8.904380734958621e-07,1.0474357030427323e-06,5.451334686486059e-06,1.105809196165097e-06,1.0184458547179394e-06,7.675962408812679e-07,2.508897099519109e-06,1.1712024083737072e-05,2.7896696153893516e-06,1.1669548164462345e-06,2.0478196195063205e-06,9.071775792692695e-07,9.799657305500216e-07,9.816935791778966e-07,2.4347169703441293e-06
69,4.188823131021831e-07,8.666149007489096e-07,1.0300656118250996e-06,4.90825858288528e-06,1.0877627246288052e-06,1.0234314894479134e-06,7.920073124323049e-07,2.5780684069499096e-06,1.2127429551521781e-05,2.9558231148861882e-06,1.1718715868415196e-06,2.021294213966257e-06,9.062260554606461e-07,9.781496379191722e-07,9.699837977909098e-07,2.4201056381042844e-06
70,4.263348828345287e-07,8.434178945541154e-07,1.0119934030874374e-06,4.400694709139085e-06,1.069156534409952e-06,1.0272148789773893e-06,8.170225492827907e-07,2.652420151883823e-06,1.2515705247549815e-05,3.1318377785870953e-06,1.1756360071849718e-06,1.996321215026776e-06,9.065147413445466e-07,9.74426703636543e-07,9.591640293363508e-07,2.4074526658131736e-06
71,4.35191245850287e-07,8.210211264775854e-07,9.932506318007786e-07,3.929316364202976e-06,1.0497492136510977e-06,1.029981678899975e-06,8.422936757667161e-07,2.7319564556241413e-06,1.287581734388934e-05,3.3166786044387705e-06,1.1779578842808485e-06,1.973879173102988e-06,9.078346882512488e-07,9.68715975262827e-07,9.496409966840952e-07,2.3983836810142346e-06
72,4.454126916793854e-07,7.995227358504088e-07,9.739599508343636e-07,3.4942716925481713e-06,1.029433687447377e-06,1.0318697642871567e-06,8.674429012743934e-07,2.8176761694710147e-06,1.3208406341798716e-05,3.5089712399798995e-06,1.178859289490572e-06,1.9547643774958965e-06,9.099452631921843e-07,9.609976674766228e-07,9.418157490597367e-07,2.394119548203022e-06
73,4.569302488116412e-07,7.789839561793599e-07,9.542833791064166e-07,3.0954973644018244e-06,1.0081563684071497e-06,1.0329336367032382e-06,8.921118514743122e-07,2.9113646448943896e-06,1.3514569815025427e-05,3.7069780527045203e-06,1.1785067197835169e-06,1.9395560629336786e-06,9.125637080721255e-07,9.513605834448e-07,9.359602311812048e-07,2.3954425724334926e-06
74,4.6964143240605613e-07,7.595060312982664e-07,9.344878650822869e-07,2.732860942115409e-06,9.859210966764446e-07,1.033134329869931e-06,9.160195623777008e-07,3.0152202160514814e-06,1.3794935335468825e-05,3.908510338620079e-06,1.1770287829328335e-06,1.928593897595407e-06,9.153925515118553e-07,9.399735513426499e-07,9.321752056437148e-07,2.402711818173699e-06
75,4.833985142371736e-07,7.412879856071407e-07,9.150089393984315e-07,2.4060670145420466e-06,9.628176400259073e-07,1.0323758734465463e-06,9.389550607488955e-07,3.131482822928269e-06,1.4049972373622527e-05,4.110912021195503e-06,1.1744270268851229e-06,1.921979546270408e-06,9.182297789604628e-07,9.270487149987035e-07,9.303730741324997e-07,2.415982174543572e-06
76,4.980006770867481e-07,7.246303815444181e-07,8.963658504198183e-07,2.114481651971526e-06,9.389719626128971e-07,1.0305646824648713e-06,9.606929500282143e-07,3.2621734183422405e-06,1.4280525588142994e-05,4.311081893373077e-06,1.170569846717789e-06,1.9195372490823154e-06,9.210431405485256e-07,9.128614383817462e-07,9.302930147108365e-07,2.435253380008326e-06
77,5.131921574686637e-07,7.098764158232609e-07,8.790187904374575e-07,1.8570412214111209e-06,9.144756489564277e-07,1.0276384809385537e-06,9.809391630975848e-07,3.408916191309282e-06,1.4487177444163913e-05,4.505387677899672e-06,1.1652222874704405e-06,1.920752000409268e-06,9.239000735720814e-07,8.977604343254081e-07,9.316110237494908e-07,2.4606936758740715e-06
78,5.286605271662933e-07,6.973288250637968e-07,8.632985970533529e-07,1.6322768066089237e-06,8.893919295586515e-07,1.023535941966662e-06,9.993957109244528e-07,3.5727827048006107e-06,1.466887647492926e-05,4.68960676515491e-06,1.1580662225534897e-06,1.9247943938489897e-06,9.268352080407238e-07,8.82109875583242e-07,9.341094455862199e-07,2.492646970391705e-06
79,5.440449426436055e-07,6.871960218571342e-07,8.4939579471669e-07,1.4384075638944514e-06,8.638045663148907e-07,1.0181316233037328e-06,1.015886611807666e-06,3.7541982788772664e-06,1.482221686622813e-05,4.859257627148811e-06,1.1487072318602034e-06,1.9307424779798852e-06,9.298036340740214e-07,8.662241923955746e-07,9.377432951367092e-07,2.531477220658846e-06
80,5.589865280158966e-07,6.795800884626823e-07,8.373605881423058e-07,1.2734494775458619e-06,8.378222633732331e-07,1.011212326295092e-06,1.0304373077128312e-06,3.95300213007956e-06,1.4942366923941367e-05,5.010405122410731e-06,1.1366792929977535e-06,1.937989055159577e-06,9.327178473343813e-07,8.50349515699668e-07,9.42541537680384e-07,2.5774418278371107e-06
81,5.732262511571052e-07,6.745032443545729e-07,8.270967622473472e-07,1.135285644638119e-06,8.115823757890641e-07,1.0025645271016701e-06,1.0432906840613958e-06,4.1686525652350205e-06,1.5025564260288965e-05,5.140554660859432e-06,1.121493292313464e-06,1.9466162401180838e-06,9.354512351537029e-07,8.346680644828013e-07,9.484887074005687e-07,2.630602602669597e-06
82,5.86680104267072e-07,6.719544859196607e-07,8.183530255890846e-07,1.021705510950889e-06,7.853208114885493e-07,9.92116751716037e-07,1.0549012000460256e-06,4.400476967584791e-06,1.5071462268343784e-05,5.249110904236837e-06,1.1027812723856665e-06,1.957481352881417e-06,9.377874089569347e-07,8.193094506352115e-07,9.555054464699498e-07,2.6906726326230624e-06
83,5.994166919393751e-07,6.719047083781967e-07,8.107410765008617e-07,9.304832090558295e-07,7.594109491624566e-07,9.799787699394695e-07,1.06590928502806e-06,4.647890880626851e-06,1.508340686716537e-05,5.337129594359449e-06,1.0804218784577015e-06,1.9719825051334122e-06,9.394211278800239e-07,8.043726870739864e-07,9.634738042648884e-07,2.7568384027709048e-06
84,6.11561221506238e-07,6.74298795338961e-07,8.038155306664431e-07,8.595213305295169e-07,7.343032588928272e-07,9.663450477877356e-07,1.07706354399407e-06,4.910539166157383e-06,1.5066543497106074e-05,5.406479744340417e-06,1.0544994112229777e-06,1.991688586313511e-06,9.400710900006688e-07,7.899684871081033e-07,9.722350062459582e-07,2.827665172848577e-06
85,6.232334033862474e-07,6.790713582877324e-07,7.972014270788073e-07,8.070049010646669e-07,7.104636482566546e-07,9.514102754598522e-07,1.0891007508917246e-06,5.188276415547741e-06,1.5025268501891586e-05,5.458858708862052e-06,1.0251907229827356e-06,2.0180276175910034e-06,9.396219351674137e-07,7.76286878388359e-07,9.815758224734487e-07,2.9011294883905223e-06
86,6.345649652275603e-07,6.861563615909371e-07,7.906695415452039e-07,7.71480292075683e-07,6.883641222610871e-07,9.353819128303858e-07,1.1026390049492648e-06,5.480901163340862e-06,1.4961639235226975e-05,5.495156248815656e-06,9.927677435780448e-07,2.0521287170814906e-06,9.381541158411117e-07,7.636327102256203e-07,9.912496241812483e-07,2.9748078741393592e-06
87,6.457150137442799e-07,6.954694121406631e-07,7.840910327361278e-07,7.518103945992747e-07,6.684734522606602e-07,9.185250223460325e-07,1.1181134895358492e-06,5.787705246220645e-06,1.4875178664442884e-05,5.5152882422841184e-06,9.576901886413523e-07,2.0948036239489733e-06,9.35822356421426e-07,7.523720878385214e-07,1.001036731616126e-06,3.0462176381523893e-06
88,6.568246831350819e-07,7.069046452071389e-07,7.773648852327788e-07,7.470381218072848e-07,6.512357866486694e-07,9.011918151934418e-07,1.1357512616067737e-06,6.107117156877043e-06,1.4763340038368518e-05,5.518291897937337e-06,9.206243453236792e-07,2.1465630687869163e-06,9.327126456600086e-07,7.428323520941227e-07,1.0107730569192914e-06,3.1131816431251547e-06
89,6.679697240941442e-07,7.203478173954639e-07,7.704480130894984e-07,7.562426620719339e-07,6.370521793790614e-07,8.838357390955428e-07,1.1555877902295783e-06,6.43670495741701e-06,1.4622029702103797e-05,5.502613619855641e-06,8.823627654540597e-07,2.2076009343864156e-06,9.288258880873399e-07,7.35232168529445e-07,1.0203176452696355e-06,3.1740184202237348e-06
90,6.791742019394203e-07,7.356623353891466e-07,7.634607883491815e-07,7.784449504160844e-07,6.262519352446008e-07,8.669789934264308e-07,1.177506434940216e-06,6.77350776682641e-06,1.4446243654146525e-05,5.4665879145140095e-06,8.43733199541764e-07,2.277799789569215e-06,9.241588753916635e-07,7.296561150825449e-07,1.0295206413262958e-06,3.2274731145105225e-06
91,6.904579915109629e-07,7.526449582044727e-07,7.567398896872682e-07,8.125590063530554e-07,6.190709069179184e-07,8.511205108040743e-07,1.2012496194696822e-06,7.114455446467896e-06,1.4230886517782192e-05,5.408867952780444e-06,8.055227589273356e-07,2.356802264765876e-06,9.187396953863944e-07,7.260500141945433e-07,1.0382038442522954e-06,3.272515564702649e-06
92,7.018498482520906e-07,7.710080595186958e-07,7.507795154857646e-07,8.573612248160365e-07,6.15660325339419e-07,8.366529014402398e-07,1.2263995631196254e-06,7.4566839102460245e-06,1.397160412143414e-05,5.328614146728409e-06,7.684116451299641e-07,2.4440906248537176e-06,9.125874425409493e-07,7.242347076472737e-07,1.0461480569795126e-06,3.3081825001045776e-06
93,7.133459541177776e-07,7.904347776122344e-07,7.461050968595586e-07,9.114614413839282e-07,6.16099008862508e-07,8.238705559400688e-07,1.2523754799170747e-06,7.797679217789537e-06,1.36654645228078e-05,5.2256099051377795e-06,7.329462616118784e-07,2.5390123507020254e-06,9.057073708069164e-07,7.23937822028703e-07,1.053099105738802e-06,3.3334522596593483e-06
94,7.248500238764033e-07,8.106573475724288e-07,7.431573691715398e-07,9.732902315195966e-07,6.203842992645161e-07,8.130552359477881e-07,1.2784449371965646e-06,8.135273542570745e-06,1.3311358981109033e-05,5.100540136698237e-06,6.995536101477754e-07,2.640749056431081e-06,8.981853748264038e-07,7.248396830141378e-07,1.0587559669938874e-06,3.3471033591826505e-06
95,7.361436958544723e-07,8.314667676198632e-07,7.42233330004591e-07,1.0411507089800673e-06,6.284187249539806e-07,8.04533122838895e-07,1.303706523093068e-06,8.46755426193684e-06,1.2909938845829446e-05,4.955325332556688e-06,6.68549827649024e-07,2.7482417603837988e-06,8.902895703749985e-07,7.266513210534881e-07,1.0627715056518858e-06,3.3477873941975706e-06
96,7.469262191872015e-07,8.526708868086475e-07,7.434892318215481e-07,1.113371622973177e-06,6.400195473961894e-07,7.986344604465034e-07,1.3270471368631923e-06,8.792720208171694e-06,1.2462901514495883e-05,4.793164348271637e-06,6.40123872189313e-07,2.860126342544035e-06,8.824512044176167e-07,7.291880692084907e-07,1.0648425761464239e-06,3.334441819967552e-06
97,7.569156673849092e-07,8.740853000050959e-07,7.469931176639568e-07,1.1885306832245588e-06,6.549538300028703e-07,7.956048788549348e-07,1.3471467265628564e-06,9.10883076405442e-06,1.1972106870198178e-05,4.61808788872513e-06,6.143275648077069e-07,2.9748114396128656e-06,8.751483252792921e-07,7.323499247991318e-07,1.0648069846832823e-06,3.306647299278956e-06
98,7.659290228604243e-07,8.955351970720526e-07,7.527926129429963e-07,1.265663058941799e-06,6.729618469921214e-07,7.955487022914576e-07,1.3626092170976574e-06,9.413381263890616e-06,1.1440060295408217e-05,4.434212829786588e-06,5.911041020340565e-07,3.090724107655066e-06,8.688180141400582e-07,7.36027339589632e-07,1.0626508400080313e-06,3.2646428513283965e-06
99,7.738701220433077e-07,9.168004199083229e-07,7.609396243639041e-07,1.3443709511875227e-06,6.93741370521698e-07,7.984222756680309e-07,1.3722111196208006e-06,9.70298198853159e-06,1.0872124300809307e-05,4.245170010853663e-06,5.703401165372812e-07,3.20649928041495e-06,8.638377709689253e-07,7.400468910132646e-07,1.0585107624126058e-06,3.2092815790108968e-06
100,7.806582595067073e-07,9.375399717438347e-07,7.714443963031731e-07,1.4247960127800147e-06,7.169363301454125e-07,8.040513567229354e-07,1.375161257703271e-06,9.973745764442409e-06,1.0278013780379587e-05,4.053951832128915e-06,5.518950031697529e-07,3.3209693454336497e-06,8.605316973876251e-07,7.4419402588085e-07,1.0527044704630232e-06,3.1421644924693318e-06
101,7.861628014091029e-07,9.572781967491674e-07,7.842116001451454e-07,1.507489284642201e-06,7.421812527177999e-07,8.121435764848756e-07,1.3712453855243804e-06,1.0222449275767371e-05,9.670617637656642e-06,3.86296072084806e-06,5.356131331661114e-07,3.433156261726525e-06,8.591804759210061e-07,7.482632416269969e-07,1.0456752863170304e-06,3.065707363963814e-06
102,7.901622809524471e-07,9.754899762938386e-07,7.990389509161052e-07,1.5932445155585389e-06,7.691757055449984e-07,8.222856517136537e-07,1.3607827948148923e-06,1.0447663618132228e-05,9.063517814578858e-06,3.6740377098299464e-06,5.213493785494448e-07,3.5424219715259426e-06,8.600309079196827e-07,7.521034517178644e-07,1.0378457761909592e-06,2.982849409414165e-06
103,7.923542397861127e-07,9.917542645213258e-07,8.156898155371809e-07,1.6829168986632612e-06,7.977106214903223e-07,8.339290787203651e-07,1.3444111553721407e-06,1.0650070272334404e-05,8.46941983873488e-06,3.488502768837865e-06,5.089813401769345e-07,3.6485468741711746e-06,8.632756139853255e-07,7.556381118405728e-07,1.029514913478439e-06,2.8965293083547384e-06
104,7.924488860797312e-07,1.0058611856620303e-06,8.339640451161683e-07,1.7772280846053655e-06,8.276081705190432e-07,8.463769129017992e-07,1.322831105765171e-06,1.0831826883541022e-05,7.89972087830299e-06,3.3072375117369658e-06,4.984106939356274e-07,3.751497381638459e-06,8.690268812723781e-07,7.588323990958592e-07,1.0208696938265236e-06,2.8092792779676797e-06
105,7.903041313104267e-07,1.017766449063894e-06,8.536940523624835e-07,1.8765983339486078e-06,8.586383269976738e-07,8.58810769134919e-07,1.2966938361049477e-06,1.0995343019873232e-05,7.364402483254586e-06,3.130788930484267e-06,4.896030440758932e-07,3.8510813596733955e-06,8.773517105225855e-07,7.616536522826212e-07,1.0120516047131067e-06,2.723064015009008e-06
106,7.860096454132431e-07,1.027434154273977e-06,8.746802913220198e-07,1.981049112201634e-06,8.90480570683761e-07,8.703995616400102e-07,1.2666701099289033e-06,1.1142083135283301e-05,6.87203818167531e-06,2.959507256992147e-06,4.826242950980875e-07,3.94683930462734e-06,8.883289120458374e-07,7.641064495252543e-07,1.0031956742257861e-06,2.6392776033609614e-06
107,7.79856866404547e-07,1.034725775293319e-06,8.96629789679695e-07,2.090167296050518e-06,9.227049769207803e-07,8.80475887780786e-07,1.233535198514674e-06,1.1272026831499203e-05,6.429963929348818e-06,2.793713111700182e-06,4.776002372470181e-07,4.0381696986198525e-06,9.020328268057056e-07,7.662886576441619e-07,9.944648726329363e-07,2.5588820019607044e-06
108,7.722197014955587e-07,1.0394431026275034e-06,9.1914506080957e-07,2.2031024133922816e-06,9.547565243600123e-07,8.8869339532702e-07,1.1981316700854026e-06,1.1384063705309916e-05,6.044381731905164e-06,2.6338612508481728e-06,4.7464119921815834e-07,4.124508033589498e-06,9.184555652120992e-07,7.683590137763969e-07,9.861418264662167e-07,2.4826599824614287e-06
109,7.634686815837418e-07,1.0414849447723e-06,9.417468320939967e-07,2.318612019993261e-06,9.859946133793026e-07,8.95059965725247e-07,1.161288838562501e-06,1.1476981592642985e-05,5.7202889463009335e-06,2.4806510622782346e-06,4.7381169977731684e-07,4.205507992859704e-06,9.374521387699278e-07,7.704577966601149e-07,9.787058546650197e-07,2.411409132436667e-06
110,7.539776235565975e-07,1.0409810624168764e-06,9.638582015332698e-07,2.435195692994328e-06,1.015794286726979e-06,8.998230224346276e-07,1.1238237323961601e-06,1.1550241445981748e-05,5.461393672439764e-06,2.3350205140428257e-06,4.751444482294384e-07,4.281160709466986e-06,9.587290804785097e-07,7.726777242805443e-07,9.72774956601789e-07,2.3459796549790216e-06
111,7.44128018787889e-07,1.0382947436991185e-06,9.84751736981598e-07,2.5512945685828745e-06,1.043629599157712e-06,9.033070965961992e-07,1.0865629514130049e-06,1.1603852195844791e-05,5.270129728440229e-06,2.1980239344656104e-06,4.786524030332002e-07,4.3516901545443955e-06,9.81849040696435e-07,7.751070593963783e-07,9.68964711334512e-07,2.2872354547295024e-06
112,7.342616524634624e-07,1.0339004529878949e-06,1.0035575251933727e-06,2.665479874543917e-06,1.0690614573445342e-06,9.058283754387274e-07,1.0502821326211556e-06,1.1637406000977621e-05,5.147768310497908e-06,2.0706785725649444e-06,4.843206787033059e-07,4.417186824572228e-06,1.006282236378494e-06,7.779216484093709e-07,9.677890957529937e-07,2.235983013221549e-06
113,7.246580698839162e-07,1.0282369212864375e-06,1.0193813069106755e-06,2.7765854725325233e-06,1.0916560416079439e-06,9.076926760877613e-07,1.0156248289533785e-06,1.1649166423392133e-05,5.094582986354704e-06,1.953854275622851e-06,4.920950941631903e-07,4.477214586455374e-06,1.0315430654165043e-06,7.814327338560208e-07,9.696056241424215e-07,2.1928540061411094e-06
114,7.155714842079834e-07,1.0216220509241488e-06,1.0314722515810396e-06,2.8837846249444853e-06,1.1109681235939741e-06,9.091786497947636e-07,9.831021250972963e-07,1.1636083293412867e-05,5.109995020717658e-06,1.848211140917572e-06,5.018905052742946e-07,4.53069132459742e-06,1.0573409512754615e-06,7.860150492340308e-07,9.745797534560689e-07,2.1582353752951427e-06
115,7.072665754051466e-07,1.014227829362756e-06,1.039340038813775e-06,2.986651035044729e-06,1.1266391041380155e-06,9.104706731629877e-07,9.531498470730229e-07,1.159467566677409e-05,5.1926436441775165e-06,1.7541730031843433e-06,5.136163486590105e-07,4.576097659565017e-06,1.083616734967552e-06,7.919880492942707e-07,9.82702405809511e-07,2.132291087585179e-06
116,6.999974123206838e-07,1.0060708165840866e-06,1.0427697858216283e-06,3.085247559743135e-06,1.1384771023073552e-06,9.116281358380671e-07,9.261622092002454e-07,1.1522091423309162e-05,5.340358097228591e-06,1.6719440996293146e-06,5.271833774130793e-07,4.611859183615463e-06,1.1104332771216046e-06,7.99552459482781e-07,9.938500300848138e-07,2.1149421452244254e-06
117,6.939416823555808e-07,9.97022912912691e-07,1.0417755307133244e-06,3.1801929613502513e-06,1.1464363318103966e-06,9.126456472875476e-07,9.024703967003346e-07,1.1416855739406326e-05,5.550046151476674e-06,1.6015350359561437e-06,5.424696299142489e-07,4.636783359846373e-06,1.1378494302843084e-06,8.087779231647742e-07,1.0078212081227937e-06,2.1057976787729862e-06
118,6.89144780811409e-07,9.868854584290095e-07,1.0365792712337047e-06,3.2725994518464625e-06,1.1505786824142546e-06,9.135160804568293e-07,8.822912960246041e-07,1.1279191853821248e-05,5.817571345770449e-06,1.5427337806479326e-06,5.592730462932097e-07,4.650471590679301e-06,1.1658865580061493e-06,8.195978868216155e-07,1.0243483469072211e-06,2.1041784357043777e-06
119,6.8550373186375e-07,9.75493818755292e-07,1.0276386206351547e-06,3.3638870331655534e-06,1.1510864654495685e-06,9.142052866717995e-07,8.656968794294879e-07,1.1110963454064916e-05,6.13767429191399e-06,1.4950453550282614e-06,5.772963296536821e-07,4.653540932627768e-06,1.1945158068080348e-06,8.318221388415709e-07,1.043136138462114e-06,2.109210384183826e-06
120,6.827797165846084e-07,9.627550918067758e-07,1.0156425252413435e-06,3.4556202865821023e-06,1.1482957779094693e-06,9.145993978333287e-07,8.526270792376583e-07,1.0915357954832282e-05,6.503930694685925e-06,1.4576749256226114e-06,5.961799397676002e-07,4.647500379260116e-06,1.2236001399712658e-06,8.451709997349896e-07,1.0638910306203031e-06,2.1198557904095393e-06
121,6.806341093687697e-07,9.48642712803744e-07,1.0014037077588056e-06,3.5494784907622574e-06,1.142698595272679e-06,9.145221207062932e-07,8.429178516360004e-07,1.0696421980231298e-05,6.908774378378151e-06,1.4295550237176737e-06,6.155473731168913e-07,4.634342798915657e-06,1.252851914232168e-06,8.592791210350185e-07,1.0862682387862768e-06,2.1348607696784022e-06
122,6.786997224737063e-07,9.332570278327768e-07,9.857043151644875e-07,3.6473000829872583e-06,1.1348909257050198e-06,9.13804909774119e-07,8.363460976500736e-07,1.0458509189732632e-05,7.343625139735712e-06,1.4094091542849906e-06,6.350213443919395e-07,4.616116175790399e-06,1.2818489788653676e-06,8.736693635023671e-07,1.1097973824189702e-06,2.152714794705863e-06
123,6.766816236704048e-07,9.169039299082703e-07,9.692056984623499e-07,3.751048580705949e-06,1.1254721187824161e-06,9.123434998972462e-07,8.327285159460353e-07,1.0205713436324586e-05,7.799044617406323e-06,1.3958679436611672e-06,6.542274986471826e-07,4.594661383378137e-06,1.3100733978115113e-06,8.87747404709018e-07,1.1339083706578324e-06,2.171750428781094e-06
124,6.744451165359464e-07,9.000654998149458e-07,9.52450493109511e-07,3.8626491542617775e-06,1.114933108243955e-06,9.101081532806795e-07,8.3202100513505e-07,9.941380643065311e-06,8.265068067729289e-06,1.3875794951050362e-06,6.728344771857334e-07,4.571430339951337e-06,1.336926004158358e-06,9.008199530300316e-07,1.1580414647394151e-06,2.1904083777915756e-06
125,6.72018875612269e-07,8.832821194975557e-07,9.359214749397294e-07,3.983803830773573e-06,1.1036076586907104e-06,9.071139303136151e-07,8.343069596423259e-07,9.667686519944352e-06,8.732182845704605e-06,1.3832575657741151e-06,6.906504843132793e-07,4.54728969540615e-06,1.3617480783766977e-06,9.121468835900557e-07,1.1817012837900684e-06,2.207473304368385e-06
126,6.694976331632468e-07,8.670484389150307e-07,9.201048267654738e-07,4.115887046656612e-06,1.0917353350259785e-06,9.033922537328783e-07,8.396734931140662e-07,9.385241509094972e-06,9.192568416969002e-06,1.3817034444900925e-06,7.077031448729949e-07,4.522518482025824e-06,1.3838991037248182e-06,9.21020962675004e-07,1.204400303994749e-06,2.2220518315160745e-06
127,6.669482760405972e-07,8.517847740390286e-07,9.054861291901879e-07,4.259888364673565e-06,1.0795749802763268e-06,8.990039688835197e-07,8.480852279472217e-07,9.09296308078757e-06,9.640202684322616e-06,1.3818419542901829e-06,7.241810156941555e-07,4.497202081210655e-06,1.4028457147397147e-06,9.268239390797679e-07,1.2256143870030548e-06,2.2333534444248135e-06
128,6.644166906350536e-07,8.378670488562237e-07,8.924762218482918e-07,4.416312696978151e-06,1.0674418194976686e-06,8.940921896646955e-07,8.593269448411646e-07,8.78855758775524e-06,1.006962344060122e-05,1.382769265382115e-06,7.402711193308714e-07,4.471832396728847e-06,1.4182104570361708e-06,9.291048131859584e-07,1.2448294913853668e-06,2.240578690746606e-06
129,6.619976659633319e-07,8.256503684958587e-07,8.81379755977796e-07,4.585012215149945e-06,1.0556241640502268e-06,8.889280665876382e-07,8.72994674712432e-07,8.469562606840049e-06,1.047491431922886e-05,1.3837838874317213e-06,7.56054378176678e-07,4.447751721871965e-06,1.4297891447666324e-06,9.277086775421044e-07,1.2615653015495323e-06,2.243081090231781e-06
130,6.59863158733101e-07,8.154981218972947e-07,8.724908476101871e-07,4.765033725080744e-06,1.044259030040698e-06,8.838906424846286e-07,8.885011396717533e-07,8.134541051944774e-06,1.084996213795898e-05,1.3843646037460832e-06,7.715234917447075e-07,4.4272382968694596e-06,1.4375508780865292e-06,9.228289362316113e-07,1.275307501911023e-06,2.2406659597676955e-06
131,6.582138544185239e-07,8.078453104337887e-07,8.662562639251554e-07,4.954634750611717e-06,1.0332595424292906e-06,8.793874752475331e-07,9.05112761168779e-07,7.78394777215972e-06,1.1189437799299303e-05,1.3840794111085858e-06,7.86688998174762e-07,4.413234798649931e-06,1.4415909642167101e-06,9.149292947563826e-07,1.2855082067458118e-06,2.233785501022705e-06
132,6.57209438157436e-07,8.032102862175162e-07,8.633736911230532e-07,5.151526723725769e-06,1.0223268701455656e-06,8.758014756502307e-07,9.220610445838237e-07,7.420288120841498e-06,1.14895048384066e-05,1.3824737547697852e-06,8.016882932496828e-07,4.408872881895602e-06,1.442027674067883e-06,9.046497696015058e-07,1.2917724156770392e-06,2.2234862428172854e-06
133,6.569245742697048e-07,8.021052320064305e-07,8.64750032902519e-07,5.353210214079804e-06,1.0110409365399884e-06,8.734846241817273e-07,9.387126692557489e-07,7.047492984804195e-06,1.1747696100239353e-05,1.3790942418749395e-06,8.167780208667023e-07,4.41700497522254e-06,1.4389556846156677e-06,8.927733462960974e-07,1.2940570763030235e-06,2.2111201143532244e-06
134,6.573260496826177e-07,8.049311614118129e-07,8.713600351120536e-07,5.557210212026194e-06,9.989958782783648e-07,8.727292142458207e-07,9.54692819979997e-07,6.669855940042753e-06,1.196209831906545e-05,1.3737093263350867e-06,8.322173421119611e-07,4.439861202672066e-06,1.4325256153187899e-06,8.801883409761673e-07,1.2926613540925e-06,2.1979935943052823e-06
135,6.582675505010828e-07,8.119286199944496e-07,8.841165782274289e-07,5.76114698149363e-06,9.859248750182812e-07,8.737259698392919e-07,9.69861104146396e-07,6.291179059586903e-06,1.2130514260325551e-05,1.3664848776689786e-06,8.481771913620064e-07,4.478839621920152e-06,1.423031795121658e-06,8.677817869120441e-07,1.2880368878684418e-06,2.1852027188710876e-06
136,6.595020665098132e-07,8.231737638161533e-07,9.038225072233081e-07,5.962752299166384e-06,9.717694523554715e-07,8.765635133840806e-07,9.841608866658226e-07,5.914605965714025e-06,1.2249901935242966e-05,1.3578909900729404e-06,8.647258720678995e-07,4.534465773417625e-06,1.4108935358622373e-06,8.563238876254393e-07,1.2805966172831705e-06,2.173709215075239e-06
137,6.607075656359615e-07,8.386083216418343e-07,9.311683466684522e-07,6.160002881712338e-06,9.566536712052023e-07,8.812366916413033e-07,9.97460051662211e-07,5.542962678938521e-06,1.2316030833065737e-05,1.3484724802813683e-06,8.81840458208539e-07,4.606547319184093e-06,1.3965514796629203e-06,8.464217232399103e-07,1.2706109295274217e-06,2.1644213912439355e-06
138,6.615559525386415e-07,8.580912866905489e-07,9.667119150006434e-07,6.351423446362469e-06,9.407604319978449e-07,8.876300329300534e-07,1.009480142974764e-06,5.179071402626095e-06,1.232404020391544e-05,1.3387128177625238e-06,8.994216087808185e-07,4.694408584308479e-06,1.3803710055088408e-06,8.385228640081118e-07,1.2581701821115798e-06,2.158107045805347e-06
139,6.618325762795885e-07,8.814278732706134e-07,1.0108522877249816e-06,6.536422324019423e-06,9.242079067169507e-07,8.955020558400877e-07,1.0198388929540947e-06,4.825837902333544e-06,1.2270371188908489e-05,1.328991818628954e-06,9.173122551293005e-07,4.797086631580869e-06,1.3626500618986415e-06,8.329148460268177e-07,1.2432327056107308e-06,2.1552545413075175e-06
140,6.615152459034736e-07,9.083931499122278e-07,1.0638529785868121e-06,6.71542678509509e-06,9.070078086820893e-07,9.04493163617705e-07,1.0281717056354438e-06,4.486234278088803e-06,1.2154527764750494e-05,1.3195514685028713e-06,9.353145295092785e-07,4.913508888915665e-06,1.3437674030093483e-06,8.297201830392258e-07,1.2257842756701003e-06,2.1560329187505063e-06
141,6.607291918024651e-07,9.388057081542903e-07,1.1259093637745664e-06,6.8896510483418e-06,8.8907742363606e-07,9.141563708544852e-07,1.0342621289560444e-06,4.163218995002771e-06,1.1978740407020778e-05,1.3105105011972857e-06,9.532298982696607e-07,5.04266312635991e-06,1.324366685565385e-06,8.289149468688028e-07,1.205978381553995e-06,2.160408969067938e-06
142,6.596275923071986e-07,9.726067921776947e-07,1.1971816363298844e-06,7.060513865814479e-06,8.703010791972639e-07,9.239887393894334e-07,1.03811359444684e-06,3.859561386593268e-06,1.1746075464308036e-05,1.3019467460649335e-06,9.709222929598315e-07,5.183656912228209e-06,1.305384616227817e-06,8.303754974081296e-07,1.1841000389829582e-06,2.168426332092196e-06
143,6.583133867063344e-07,1.009895874585755e-06,1.2777360798991977e-06,7.228903397217632e-06,8.506487243141699e-07,9.33449473152472e-07,1.0399228032175295e-06,3.5776475551398584e-06,1.1459397643525871e-05,1.2939341817988243e-06,9.883514957713792e-07,5.335599418093939e-06,1.2878670368574466e-06,8.339478643067624e-07,1.1604065108859872e-06,2.1804343821850482e-06
144,6.568384119670024e-07,1.0509581095959956e-06,1.3674475379138435e-06,7.394588802844769e-06,8.302520632764723e-07,9.41973072969463e-07,1.0399659003516273e-06,3.3193878626486906e-06,1.1122189422823738e-05,1.2864932505248275e-06,1.0055525404485592e-06,5.497379378856864e-06,1.2727384451782531e-06,8.395180264643119e-07,1.1350372181746235e-06,2.1969888572297776e-06
145,6.552245279922445e-07,1.0962619444340277e-06,1.4659623287930974e-06,7.5560543497124655e-06,8.093531076738227e-07,9.489711627057609e-07,1.038487211772638e-06,3.086237853972218e-06,1.0739510788712478e-05,1.2795373235919724e-06,1.0225822797313936e-06,5.667428868214687e-06,1.2606910989489894e-06,8.470206660757298e-07,1.1081061485754438e-06,2.21853684667884e-06
146,6.534701788235302e-07,1.1463511677727439e-06,1.5727374395787412e-06,7.710793453526387e-06,7.881991904676027e-07,9.538509335484202e-07,1.0356939862759406e-06,2.879246642226485e-06,1.031747360747196e-05,1.2728608126947617e-06,1.0394761409996423e-06,5.843482202940137e-06,1.252203934161142e-06,8.563613257032412e-07,1.0799122640135538e-06,2.245254295814515e-06
147,6.515726338422799e-07,1.201677058029307e-06,1.6870877921772627e-06,7.85581296534546e-06,7.670200882308423e-07,9.561314736987808e-07,1.0318377170635295e-06,2.699049372508237e-06,9.862289948740103e-06,1.2661676688115572e-06,1.0562320179440616e-06,6.022385341815832e-06,1.247616130766511e-06,8.673340699957158e-07,1.0510700983246298e-06,2.2771632212957728e-06
148,6.495936818253656e-07,1.262486536069255e-06,1.8081714672467873e-06,7.988100181244226e-06,7.460971560001878e-07,9.556282352501947e-07,1.0272505806299619e-06,2.545797699355527e-06,9.380363639744715e-06,1.259120094981847e-06,1.0727904849841332e-06,6.200087860564735e-06,1.247168865957284e-06,8.796155985274523e-07,1.0224198384537004e-06,2.3143272387298514e-06
149,6.477228597942962e-07,1.3287927832319965e-06,1.934908946214356e-06,8.104994521301746e-06,7.258077393751272e-07,9.525352806667425e-07,1.022274093200395e-06,2.41910375324122e-06,8.878701114732218e-06,1.2513588188345292e-06,1.0890012965590673e-06,6.371828618038785e-06,1.2509944032687336e-06,8.92795281499689e-07,9.948056686037422e-07,2.356878767672561e-06
150,6.462589779048641e-07,1.400391945413013e-06,2.065929366366355e-06,8.204405915727234e-06,7.06580671713831e-07,9.473180159998761e-07,1.0171693600738998e-06,2.318052811148774e-06,8.36468542288618e-06,1.2424957259318119e-06,1.1046267030333513e-06,6.532424888578016e-06,1.2590955061250641e-06,9.063798342216599e-07,9.689102435679518e-07,2.4048578104257638e-06
151,6.455134242226753e-07,1.4768822324063642e-06,2.1996252075412318e-06,8.28465432903979e-06,6.888210074358184e-07,9.405129312140163e-07,1.0120895590845167e-06,2.2412589998009476e-06,7.845639264416938e-06,1.2321650045176474e-06,1.1194421947517396e-06,6.67666116491957e-06,1.2713185113961687e-06,9.198283825549938e-07,9.452028591820254e-07,2.4580079790670933e-06
152,6.457315025230164e-07,1.5576538762269977e-06,2.334262623887938e-06,8.344033860104665e-06,6.728736939332607e-07,9.325890155616721e-07,1.0070625557922279e-06,2.186948142602961e-06,7.328562830401484e-06,1.220193801983916e-06,1.1333891507584264e-06,6.79976269456422e-06,1.2873340271313162e-06,9.326643057204198e-07,9.239585377333955e-07,2.5156359454227986e-06
153,6.470805769493565e-07,1.6418802340649274e-06,2.4680546499465016e-06,8.380951236532938e-06,6.590251058133553e-07,9.239445150912013e-07,1.0019516499218121e-06,2.1530842610092256e-06,6.819825528957257e-06,1.2067792725640714e-06,1.1466506218744841e-06,6.897800877208525e-06,1.3066816739999883e-06,9.445476992086877e-07,9.053091329354364e-07,2.5766099693664994e-06
154,6.49651622149524e-07,1.7285704601804992e-06,2.5991962994264564e-06,8.394965397660232e-06,6.475001240477075e-07,9.149834803060486e-07,9.96481892929176e-07,2.1374916134593856e-06,6.324835197449802e-06,1.1924659323848523e-06,1.1596070372313572e-06,6.967946443131943e-06,1.3288383754103551e-06,9.552141459441785e-07,8.892837719630283e-07,2.6395138231520222e-06
155,6.534386207542729e-07,1.8166769566964398e-06,2.725920063920256e-06,8.387600287690984e-06,6.384324085304666e-07,9.061531610933772e-07,9.903751075065197e-07,2.1378868208405107e-06,5.8479577808890935e-06,1.1779252888655595e-06,1.172717111120152e-06,7.008693795471046e-06,1.3532045964626697e-06,9.644146667744751e-07,8.758095660700046e-07,2.702809230156767e-06
156,6.583274336809624e-07,1.9051842190396638e-06,2.8465831886950164e-06,8.361959511964276e-06,6.318331040478505e-07,8.978946753633537e-07,9.83509701241955e-07,2.151824529443101e-06,5.392621833519728e-06,1.1637513926445961e-06,1.1864040371870913e-06,7.02014569027785e-06,1.3790196258130515e-06,9.720035729606366e-07,8.64703099442073e-07,2.7648889822637517e-06
157,6.641155057150675e-07,1.9931513155220395e-06,2.9597263028037556e-06,8.32151476341034e-06,6.275952527041849e-07,8.905821284917032e-07,9.760212967222764e-07,2.1766567549715158e-06,4.961385125556355e-06,1.1503708446341894e-06,1.2010237991939359e-06,7.004221107066029e-06,1.4052998117986972e-06,9.780663530135735e-07,8.557085169439166e-07,2.824138241344075e-06
158,6.70542764558844e-07,2.0797774209003827e-06,3.064060826339806e-06,8.268985781396319e-06,6.255221239757984e-07,8.845183428643253e-07,9.683181792986465e-07,2.209602158826782e-06,4.555963634205263e-06,1.1379980244847682e-06,1.2168634813271596e-06,6.964530812889981e-06,1.4308122193895806e-06,9.829079282584741e-07,8.485893212797871e-07,2.8791513880506773e-06
159,6.773144891486383e-07,2.164550031151514e-06,3.158363159788911e-06,8.205961780329588e-06,6.253373355533266e-07,8.799461370066549e-07,9.60994625743157e-07,2.247929926915338e-06,4.177295257135248e-06,1.1266038643112674e-06,1.2340782068893205e-06,6.905741657894919e-06,1.4540573247960517e-06,9.869215577166201e-07,8.43201388845225e-07,2.929037008108615e-06
160,6.841234137028212e-07,2.2474018159037196e-06,3.2412959252800068e-06,8.133350311486128e-06,6.266854362615464e-07,8.770395453922808e-07,9.546731328168022e-07,2.2891500381113237e-06,3.8256243458928184e-06,1.1159247154366046e-06,1.252627145588323e-06,6.83258032896572e-06,1.4733457498343264e-06,9.904711165907508e-07,8.394627230321083e-07,2.9736167391133432e-06
161,6.906649766388934e-07,2.328715852352411e-06,3.311428776584286e-06,8.052236975983853e-06,6.29172232294076e-07,8.75900172989821e-07,9.498822899932151e-07,2.3310809728552776e-06,3.500573803630268e-06,1.1055042726639066e-06,1.2723076701775838e-06,6.749034696571883e-06,1.4870709772272521e-06,9.938318377335524e-07,8.3724662231587e-07,3.013375262326166e-06
162,6.966320982930476e-07,2.409127075162292e-06,3.367744090849657e-06,7.964648944658832e-06,6.324443765057258e-07,8.765654750753651e-07,9.470257092088172e-07,2.371796113223128e-06,3.2012198055944593e-06,1.0947354357508693e-06,1.292871656864739e-06,6.658194390469046e-06,1.4940844168744953e-06,9.971670177811235e-07,8.363109234921232e-07,3.0491431014254436e-06
163,7.017144964430439e-07,2.4892595086711797e-06,3.410361925337146e-06,7.873890497103776e-06,6.362420330774631e-07,8.790372629155907e-07,9.46387309166926e-07,2.4095886587897273e-06,2.9262105018794835e-06,1.082922461609575e-06,1.3141472990344456e-06,6.56255131341717e-06,1.493944230288235e-06,1.000530005313796e-06,8.363246851022819e-07,3.081660358523594e-06
164,7.056117328351469e-07,2.5695448233835414e-06,3.4408869907227584e-06,7.784328871934141e-06,6.403766098813388e-07,8.833308618582924e-07,9.481202939799634e-07,2.443056430393898e-06,2.6739437516487895e-06,1.0694242181748346e-06,1.3360974199082131e-06,6.464309891179328e-06,1.486916455009783e-06,1.0038836686012308e-06,8.369755062874916e-07,3.111260037178483e-06
165,7.080493478972074e-07,2.6501121002367814e-06,3.462107420680077e-06,7.700726938825694e-06,6.44681858440021e-07,8.894868029146628e-07,9.522353124795864e-07,2.471251391002532e-06,2.442801928436417e-06,1.0538364264605854e-06,1.3587656391459493e-06,6.365536234895132e-06,1.4737684926085627e-06,1.007153603072279e-06,8.380828756508627e-07,3.137752225463193e-06
166,7.088296181455545e-07,2.7307294797337904e-06,3.477278891496692e-06,7.627399235088211e-06,6.490171079424211e-07,8.975191899453891e-07,9.58623892718118e-07,2.493769343453437e-06,2.2314314517967588e-06,1.0360800800589436e-06,1.3821332414937201e-06,6.268203403378402e-06,1.4554709395699986e-06,1.0103268582412338e-06,8.396215421901328e-07,3.160386140202735e-06
167,7.079264538526554e-07,2.8108746329896648e-06,3.4894842803080874e-06,7.567507307382098e-06,6.533011883260536e-07,9.073735569969896e-07,9.67114915525097e-07,2.5106986870936064e-06,2.0389793177953463e-06,1.0163659712095162e-06,1.405990305296913e-06,6.174143300004073e-06,1.4329862736918169e-06,1.013523683403905e-06,8.416703905927311e-07,3.1778365898362192e-06
168,7.055536812561257e-07,2.8899265662997786e-06,3.5013748508517743e-06,7.522651323745806e-06,6.575075612147837e-07,9.18960576216554e-07,9.775154336193892e-07,2.522395580598718e-06,1.8651545035865038e-06,9.951012917938403e-07,1.4298843382914903e-06,6.08486200088552e-06,1.4072659111147808e-06,1.0169719159415708e-06,8.443885570065262e-07,3.188321041727716e-06
169,7.021331570055306e-07,2.967327721020194e-06,3.515168559691067e-06,7.4927297032667435e-06,6.616331842383885e-07,9.322068066008445e-07,9.895997177170538e-07,2.529158069240255e-06,1.7100941204823037e-06,9.727762007254972e-07,1.4531203831567418e-06,6.001292763479268e-06,1.3793372976523456e-06,1.0209220388607137e-06,8.480069853200995e-07,3.189909609295643e-06
170,6.981767673009127e-07,3.0426111605761354e-06,3.5326456673888568e-06,7.476085601447256e-06,6.656904011126382e-07,9.47025730865116e-07,1.0030931445118054e-06,2.531022583456003e-06,1.5741438738666002e-06,9.498945815569804e-07,1.4747830696785326e-06,5.923686608910369e-06,1.3502764793921935e-06,1.0255766343928307e-06,8.527619286489513e-07,3.1809694978060614e-06
171,6.941792538192399e-07,3.1153251033660882e-06,3.555078046745524e-06,7.470063706427418e-06,6.697029565495631e-07,9.632520982333619e-07,1.0177131891035416e-06,2.527792221253156e-06,1.457648129277585e-06,9.269997811710058e-07,1.4937974406052851e-06,5.85170487044899e-06,1.3210652358783443e-06,1.0310560868684937e-06,8.587991631687572e-07,3.160621567651322e-06
172,6.905901787043195e-07,3.1849389719636963e-06,3.58314104546883e-06,7.471913129968409e-06,6.736649622698166e-07,9.806521190530713e-07,1.0332124892584033e-06,2.5191234765535676e-06,1.3607806387982343e-06,9.047132918939969e-07,1.5090786686064872e-06,5.784493443233142e-06,1.292478612909183e-06,1.0373694708833495e-06,8.661097730555868e-07,3.1290368110967907e-06
173,6.87822486585023e-07,3.2507791892444267e-06,3.6168334764547433e-06,7.479665534172138e-06,6.774870911706622e-07,9.990179210251444e-07,1.0493309854029953e-06,2.5045346046151594e-06,1.2834583414644314e-06,8.837141188273375e-07,1.5197701748181462e-06,5.720527510796106e-06,1.2650686253793439e-06,1.0443686656163878e-06,8.745100079618096e-07,3.0874468649421874e-06
174,6.862328481034704e-07,3.3120009854834897e-06,3.6554395479014876e-06,7.4925681786763215e-06,6.809781558291638e-07,1.0182660411565573e-06,1.065690313276063e-06,2.4834149904275934e-06,1.2254013075004323e-06,8.64700453155675e-07,1.525449848583143e-06,5.657410707708295e-06,1.2392099697974612e-06,1.0517337890205559e-06,8.836828513427067e-07,3.0379027835727495e-06
175,6.860944711778433e-07,3.367597157497446e-06,3.6976118278015924e-06,7.510865854454984e-06,6.838862150387729e-07,1.0384499531648999e-06,1.0817511426626758e-06,2.4551096161703783e-06,1.1863004255061021e-06,8.483748525570919e-07,1.5261376515872994e-06,5.5920734073008856e-06,1.215160645088455e-06,1.0590521812901653e-06,8.932998587706064e-07,2.982884254984459e-06
176,6.876051660443877e-07,3.416464346788365e-06,3.7416644468587145e-06,7.5350552949156755e-06,6.860022681024725e-07,1.0596727619018438e-06,1.0969076067745444e-06,2.4190373678754477e-06,1.1659226075702568e-06,8.354326987391773e-07,1.5220830228550565e-06,5.521532721256172e-06,1.1931081190120895e-06,1.0659497856933292e-06,9.031351752899698e-07,2.9248444541244194e-06
177,6.909031193418402e-07,3.457556062428517e-06,3.7860193770918244e-06,7.565133327811869e-06,6.872820975528277e-07,1.0820007884274633e-06,1.1106807723417949e-06,2.374795814914231e-06,1.1640584776930197e-06,8.265202714702444e-07,1.5135738540485109e-06,5.443876772989103e-06,1.173189835059607e-06,1.072145590392741e-06,9.130531347001926e-07,2.8658270385344776e-06
178,6.960563763376491e-07,3.490091918214533e-06,3.829544528375112e-06,7.600504959318948e-06,6.879177719856318e-07,1.105432536299545e-06,1.122880986043605e-06,2.322250557041512e-06,1.1803954825159446e-06,8.221792418540771e-07,1.5009848269188636e-06,5.358940797527447e-06,1.155474527085037e-06,1.0774176078958581e-06,9.229576206688565e-07,2.807271387719447e-06
179,7.03060888552411e-07,3.5136655267322786e-06,3.871572408259596e-06,7.640685920143754e-06,6.883157280089334e-07,1.1298699666797804e-06,1.1336249640940647e-06,2.2615968093385996e-06,1.2144297416860266e-06,8.228253095106428e-07,1.4849132343571113e-06,5.268319294052233e-06,1.139902721341995e-06,1.0816434577147077e-06,9.328409821019721e-07,2.7499975223434376e-06
180,7.11863684426952e-07,3.5280918739868114e-06,3.91166571397177e-06,7.686191698989149e-06,6.889877689604009e-07,1.1551085171946438e-06,1.1432175498822034e-06,2.1933704646529273e-06,1.2654594851932297e-06,8.287753246624838e-07,1.466143937558338e-06,5.17473635183874e-06,1.1262582016728387e-06,1.0849418630389065e-06,9.428349036850904e-07,2.694329614612359e-06
181,7.223574921655327e-07,3.5331336311197554e-06,3.949371964107655e-06,7.738892486264684e-06,6.90434940714989e-07,1.1809273920848746e-06,1.1520097372556102e-06,2.1184249057791436e-06,1.3326261021135837e-06,8.402904035561195e-07,1.4454630523293484e-06,5.0811707262481684e-06,1.114262306485358e-06,1.0877027522214098e-06,9.531574659153003e-07,2.6403125122615977e-06
182,7.343341895239404e-07,3.528477395026123e-06,3.984092093359889e-06,7.801637817468703e-06,6.930928906009697e-07,1.2072345770230959e-06,1.1603105114354574e-06,2.037909454474248e-06,1.414960628860974e-06,8.575827459782326e-07,1.4234940181237237e-06,4.990190937414703e-06,1.1037242196692818e-06,1.0904334538114314e-06,9.640281534551654e-07,2.587918758425837e-06
183,7.47444104117704e-07,3.5140242005676627e-06,4.01495768841019e-06,7.87754268627244e-06,6.973086973915113e-07,1.234104806493181e-06,1.1683305037312737e-06,1.9532716801738054e-06,1.5114422332002672e-06,8.807764098511427e-07,1.4006403709614128e-06,4.9036648910317315e-06,1.094571823727702e-06,1.0936158494667732e-06,9.756031538378851e-07,2.5371768328106955e-06
184,7.611791369499877e-07,3.4901536393085327e-06,4.040668320201474e-06,7.969445097587725e-06,7.033110024631462e-07,1.2616499962739008e-06,1.1761320181658475e-06,1.8662874147096024e-06,1.6210416607302398e-06,9.098584520509673e-07,1.3771286137329578e-06,4.822757485913666e-06,1.0867431514140755e-06,1.097692623815614e-06,9.879326302786705e-07,2.488265558155469e-06
185,7.748854132829344e-07,3.457721284327563e-06,4.059491711917543e-06,8.079700331894397e-06,7.111867098625145e-07,1.2898491044267716e-06,1.1836286654553322e-06,1.779069586274573e-06,1.7427099264979866e-06,9.446406380521421e-07,1.35314693295474e-06,4.748064723473135e-06,1.0800589938415173e-06,1.1030740663771268e-06,1.000949890969327e-06,2.4416048329877347e-06
186,7.878317769404442e-07,3.4178629906889767e-06,4.069530334012771e-06,8.210188292646341e-06,7.208691242845717e-07,1.3184697319008925e-06,1.1906576681212825e-06,1.6939626760153767e-06,1.8753590195833268e-06,9.847369847494452e-07,1.3290159356492846e-06,4.679676492439966e-06,1.0741639341978799e-06,1.110070466259217e-06,1.0144571495764886e-06,2.3978479779243976e-06
187,7.99328430883404e-07,3.3717822983847003e-06,4.069041644322511e-06,8.362387834063512e-06,7.321303708585102e-07,1.3470778094290707e-06,1.19704345934256e-06,1.6133122205556002e-06,2.017913958980627e-06,1.0295755363016526e-06,1.3052155671234553e-06,4.617067224144338e-06,1.06857610539717e-06,1.1188106852110689e-06,1.0281065131692151e-06,2.3577330993930337e-06
188,8.088367191795766e-07,3.320620246560823e-06,4.056641159090554e-06,8.53744007028916e-06,7.445847330781992e-07,1.375081348106953e-06,1.202567591127263e-06,1.5392372452449369e-06,2.1694609386849995e-06,1.0784455001730948e-06,1.2822207917673393e-06,4.559039091669762e-06,1.0628001473856387e-06,1.129218844287638e-06,1.0414640022554367e-06,2.3219440100931007e-06
189,8.160165531411395e-07,3.2653861158346635e-06,4.031452027995245e-06,8.736162261721741e-06,7.577015542697446e-07,1.401786560687053e-06,1.206897344143019e-06,1.4735217867673617e-06,2.3294156601713846e-06,1.1305281292237754e-06,1.2603217138920082e-06,4.503946733503567e-06,1.0564092902965325e-06,1.1410223236987494e-06,1.0541850910693424e-06,2.291089820137676e-06
190,8.206988808380119e-07,3.2068577590113137e-06,3.993262756998679e-06,8.95889265470801e-06,7.708245061794971e-07,1.42646141845753e-06,1.2095791969776227e-06,1.4176325249826313e-06,2.497564016465534e-06,1.18487562838611e-06,1.2395645797641848e-06,4.450090821096955e-06,1.0490988250027096e-06,1.1537410111587669e-06,1.0661632030941986e-06,2.265693656298499e-06
191,8.227999002772665e-07,3.14545161691914e-06,3.942630358476788e-06,9.205130556487183e-06,7.832241001885484e-07,1.4483962354644148e-06,1.2101189250774048e-06,1.3728299451691837e-06,2.673884329934999e-06,1.2403916498094909e-06,1.2197859357672391e-06,4.3960552962483075e-06,1.0407042413638503e-06,1.1666656490676532e-06,1.0774951619899424e-06,2.2460757582463857e-06
192,8.222399236293757e-07,3.081254029560951e-06,3.880831146476691e-06,9.473490898223591e-06,7.942022983867875e-07,1.4669316297462974e-06,1.2081224903122294e-06,1.3403184480972077e-06,2.858242727776883e-06,1.2958611161431987e-06,1.2006960682394534e-06,4.340896543351321e-06,1.031136659650925e-06,1.1788720682286531e-06,1.0883126508043539e-06,2.232196769977245e-06
193,8.189440550584062e-07,3.0143148246452715e-06,3.809579786862194e-06,9.762469513737197e-06,8.032156332750598e-07,1.481411817781847e-06,1.2034374528933903e-06,1.321359476395097e-06,3.0502215166038715e-06,1.3500029368047743e-06,1.182034412427092e-06,4.284216627884619e-06,1.0203240557776162e-06,1.1893231180362445e-06,1.0986395262916053e-06,2.223605028402807e-06
194,8.128998698951889e-07,2.9449618817083947e-06,3.730556439104874e-06,1.0071411193816215e-05,8.099742968563095e-07,1.4910818223928358e-06,1.1961998921143826e-06,1.3173195321887242e-06,3.249187548743476e-06,1.4015453499414927e-06,1.163746883435949e-06,4.226193811207317e-06,1.0082470884982331e-06,1.1970684920697047e-06,1.108338398519821e-06,2.2195368509975284e-06
195,8.041750362895012e-07,2.8738736094870994e-06,3.6449963711908424e-06,1.0400599516515472e-05,8.144942583151486e-07,1.4950678397921452e-06,1.1867709073170864e-06,1.3296625299957798e-06,3.4543528388228084e-06,1.4493636536823359e-06,1.1460321411208173e-06,4.167550405338501e-06,9.950049116879563e-07,1.2014576054964669e-06,1.1171633454437394e-06,2.2191075348221417e-06
196,7.928948525574111e-07,2.8019287818662516e-06,3.553530907686703e-06,1.0750326542089415e-05,8.170680767489418e-07,1.4925523870279416e-06,1.1756228556328611e-06,1.359873703209421e-06,3.6646183515744304e-06,1.4926389170486652e-06,1.1292165763442034e-06,4.109379810628015e-06,9.808485341794044e-07,1.2022536930887828e-06,1.1249096891586445e-06,2.221520356911837e-06
197,7.792583151932513e-07,2.729983478749576e-06,3.4561920541783375e-06,1.1119864369755902e-05,8.181367286993266e-07,1.4830603614167084e-06,1.1632135794618402e-06,1.409321236306311e-06,3.878350659751083e-06,1.530908848269447e-06,1.1135968581515078e-06,4.052890173164051e-06,9.661890332926688e-07,1.199602625739277e-06,1.1315331725378743e-06,2.2262323109329395e-06
198,7.635848294976536e-07,2.6586614393085593e-06,3.352537999654573e-06,1.1507189515949492e-05,8.18130017509716e-07,1.4666794044008707e-06,1.1499001400518544e-06,1.4791295450471112e-06,4.093358142946885e-06,1.5639439155120487e-06,1.0993804777476436e-06,3.999213462454041e-06,9.515725648116059e-07,1.1938733038583e-06,1.137125470642574e-06,2.233014125056114e-06
199,7.463069975887477e-07,2.5882034482063845e-06,3.2419947688747747e-06,1.190925150066531e-05,8.17383448805111e-07,1.4440786530524733e-06,1.1359479771825444e-06,1.5701230938656927e-06,4.307128816341715e-06,1.5915342296256697e-06,1.086699985627729e-06,3.9493132876128724e-06,9.375982342988154e-07,1.185470211719959e-06,1.141797309337958e-06,2.241868718715083e-06
200,7.278906509043863e-07,2.5184660771526343e-06,3.1243207082511013e-06,1.2321951792570886e-05,8.161519405257393e-07,1.4162883829451286e-06,1.121575284982321e-06,1.6828183612571524e-06,4.517125731474538e-06,1.6133507234445082e-06,1.0756085178731946e-06,3.903934026729103e-06,9.248096698374883e-07,1.1747623300512585e-06,1.1455708290206577e-06,2.2528452868739877e-06
201,7.087503103898896e-07,2.4490995588172588e-06,2.9999213253070368e-06,1.2739613841317077e-05,8.146391770218713e-07,1.3843815018408153e-06,1.1069387121181297e-06,1.8174263822982006e-06,4.720862249398946e-06,1.6289741572443806e-06,1.06607541427842e-06,3.8635738351725175e-06,9.136223494148035e-07,1.1621581333474511e-06,1.1483219135771476e-06,2.2659279734377165e-06
202,6.892120343688689e-07,2.3797672580908605e-06,2.8698779953462143e-06,1.3154736221021028e-05,8.129909542912589e-07,1.3492553761336638e-06,1.0921200429901594e-06,1.9738416223787763e-06,4.915659826085358e-06,1.6380308334850926e-06,1.0580344397368684e-06,3.828489906384446e-06,9.042948699439222e-07,1.1482223665908899e-06,1.149762385292483e-06,2.2811660721551146e-06
203,6.695118395849857e-07,2.310288043877116e-06,2.735776899587707e-06,1.3558700492443976e-05,8.11297146608305e-07,1.311557555674561e-06,1.0772040483025774e-06,2.1515976429816947e-06,5.098256418989106e-06,1.6403077012320577e-06,1.0514169078445592e-06,3.7987117997968957e-06,8.96914325285527e-07,1.1337143058545696e-06,1.1494434730851673e-06,2.298924779598202e-06
204,6.49800216742033e-07,2.2407345667303425e-06,2.5994784848586836e-06,1.3942941792556972e-05,8.096293552620498e-07,1.2716941733310778e-06,1.0623692961647706e-06,2.3498283505459107e-06,5.2646082722883765e-06,1.635787136898893e-06,1.0461221686224813e-06,3.7740102387993262e-06,8.91397837378329e-07,1.1195075760706087e-06,1.1468109848090459e-06,2.319964074432019e-06
205,6.30142382923909e-07,2.171515622426828e-06,2.4628876894242003e-06,1.4299733640220995e-05,8.080581128747041e-07,1.2298730693994384e-06,1.0478757502114657e-06,2.5672986799782717e-06,5.410108309190872e-06,1.6246354356888584e-06,1.041994311746303e-06,3.753897088193425e-06,8.875477261201674e-07,1.1064625633879402e-06,1.1413687417088404e-06,2.345224931444457e-06
206,6.10541256813845e-07,2.103350138922585e-06,2.327743035260439e-06,1.4622460135231539e-05,8.066315514677828e-07,1.1861728619451076e-06,1.033960248107333e-06,2.802496752282579e-06,5.5300948427624825e-06,1.6072335718439012e-06,1.0388277665241019e-06,3.7378618251477807e-06,8.851530015067412e-07,1.0953339164858836e-06,1.1329021657244223e-06,2.3754966056227613e-06
207,5.910139291166185e-07,2.0370617852695603e-06,2.1955036603375423e-06,1.4905682069408468e-05,8.053632625287278e-07,1.1406784309914066e-06,1.020732520780553e-06,3.0537159385629577e-06,5.6204383228876925e-06,1.584259106935175e-06,1.0363611931190264e-06,3.7257475995417743e-06,8.840469795634544e-07,1.0867266716078933e-06,1.1215911587764746e-06,2.411248775663285e-06
208,5.7167472553489e-07,1.973315194754987e-06,2.0674139496360154e-06,1.5145137709113682e-05,8.04225854440905e-07,1.093651352133804e-06,1.0081606744282573e-06,3.319043282092678e-06,5.678216487527251e-06,1.5566779465632368e-06,1.0342953198962806e-06,3.717879617829385e-06,8.840838218707256e-07,1.0810854163716793e-06,1.1079290614780689e-06,2.452661466625693e-06
209,5.527466131119508e-07,1.9124741634225245e-06,1.9446474063768604e-06,1.5337671126931307e-05,8.031238080125536e-07,1.0455920003418676e-06,9.961579779236763e-07,3.5962197598059563e-06,5.702384675037206e-06,1.52556083227657e-06,1.032353888286579e-06,3.7148563030117956e-06,8.851301664528752e-07,1.0786975464863836e-06,1.0925385202113511e-06,2.4996380148807764e-06
210,5.345056718778364e-07,1.8545955191917818e-06,1.8283266165337406e-06,1.548114387571982e-05,8.018680059154242e-07,9.971584016603335e-07,9.846762784534868e-07,3.882468774334079e-06,5.693903422222711e-06,1.491851389773971e-06,1.0303238578495498e-06,3.7172100178633476e-06,8.871122815098245e-07,1.0797014634084127e-06,1.0760073344086446e-06,2.551731927316727e-06
211,5.172286781387364e-07,1.7994704368071745e-06,1.7193829089700728e-06,1.5574363505758714e-05,8.001819698448167e-07,9.490579384961658e-07,9.737109417094787e-07,4.174450614588888e-06,5.655222762423452e-06,1.456245085735531e-06,1.0281088699919641e-06,3.725089770046889e-06,8.900286582538147e-07,1.084102019690095e-06,1.0588220815101788e-06,2.6080597866531468e-06
212,5.011860911871392e-07,1.7466750617989695e-06,1.618415214858258e-06,1.5616848624282155e-05,7.977647287765656e-07,9.019795729849712e-07,9.63257267203825e-07,4.468318217219632e-06,5.590111557970233e-06,1.419185825852214e-06,1.025839452192066e-06,3.738098187356181e-06,8.939308362853292e-07,1.0917867268809596e-06,1.0413766006642633e-06,2.6672482576459216e-06
213,4.866568345849736e-07,1.6956427203966122e-06,1.525687347542792e-06,1.560809524250926e-05,7.943921914654068e-07,8.565524184436573e-07,9.53327676262527e-07,4.759683772146253e-06,5.504204341351934e-06,1.3809123661524157e-06,1.0239013108708523e-06,3.7553685605383436e-06,8.989362558255318e-07,1.1025414737531097e-06,1.0239550716801658e-06,2.7275533159420413e-06
214,4.7391776117870794e-07,1.645774980511261e-06,1.441252375878072e-06,1.5546376533890035e-05,7.899617313114569e-07,8.133278870072401e-07,9.440068430045142e-07,5.0435383576577204e-06,5.405132747892998e-06,1.3415293762448436e-06,1.0227902575728345e-06,3.775776117835795e-06,9.052100089987058e-07,1.1160673648107374e-06,1.006697871860614e-06,2.7871820939414e-06
215,4.632021663224493e-07,1.5965750565494318e-06,1.3650932450317053e-06,1.5427953030827026e-05,7.844486077079828e-07,7.727785183836369e-07,9.354243855270557e-07,5.314480057581743e-06,5.3016449521125e-06,1.301096416480035e-06,1.0229205350063712e-06,3.7981092562592563e-06,9.128908954203476e-07,1.131995134999016e-06,9.896574273713783e-07,2.8445485642717244e-06
216,4.5466429169931344e-07,1.5477531898666205e-06,1.2971777059945911e-06,1.5247577512668883e-05,7.778754241496601e-07,7.352836132897491e-07,9.276462428634809e-07,5.567429804591122e-06,5.202467811718714e-06,1.259716451167001e-06,1.0245205994791485e-06,3.821131859745815e-06,9.220357315745978e-07,1.1499030889259406e-06,9.729414164457438e-07,2.8983010913539176e-06
217,4.483767159003426e-07,1.4992753756209653e-06,1.237406863597879e-06,1.5000009011372374e-05,7.703388790643756e-07,7.011204063021866e-07,9.205895666104213e-07,5.798522182951576e-06,5.115591809578449e-06,1.217627276407027e-06,1.0276360340623312e-06,3.843570675138884e-06,9.325925015178465e-07,1.1693334060691738e-06,9.568170347354809e-07,2.947293981879295e-06
218,4.4434751289988463e-07,1.4513501236345223e-06,1.1855285987510841e-06,1.4681623291966998e-05,7.620170713546446e-07,6.70518226596064e-07,9.140102927480773e-07,6.005637056921532e-06,5.047981287595867e-06,1.1752916323394685e-06,1.0322259229616882e-06,3.864038315943559e-06,9.443758491429105e-07,1.1897890672248981e-06,9.416910616760097e-07,2.9906528791596287e-06
219,4.4252722952226864e-07,1.4043323996333786e-06,1.1411197968824012e-06,1.4291625346771586e-05,7.531314219194959e-07,6.437571347557608e-07,9.075561082125205e-07,6.188279438536174e-06,5.00549351616693e-06,1.1334175020717022e-06,1.0383166424066197e-06,3.880868225423316e-06,9.57034774023513e-07,1.2107047031286259e-06,9.279989607343486e-07,3.0278357524931372e-06
220,4.4281153630557756e-07,1.3585512209513094e-06,1.1036695533301344e-06,1.3832749667001896e-05,7.438991189816312e-07,6.212111552371305e-07,9.008549971916214e-07,6.346927310676208e-06,4.992866237433472e-06,1.0928523642738893e-06,1.0461189839368006e-06,3.892032756786069e-06,9.700208605306135e-07,1.2314058458008744e-06,9.161028977040853e-07,3.0585501419395316e-06
221,4.4508061277281746e-07,1.314143421670993e-06,1.072679947063374e-06,1.331139142684021e-05,7.344826784195448e-07,6.03289020561253e-07,8.935785362239682e-07,6.482173876616206e-06,5.013727018623719e-06,1.054409433155118e-06,1.0560089566416107e-06,3.895405220354589e-06,9.825932467609138e-07,1.2511251488779407e-06,9.062535068807543e-07,3.082513812872806e-06
222,4.4927391043923046e-07,1.2709735384739741e-06,1.0476802676473572e-06,1.2737174901432423e-05,7.249591819901698e-07,5.90343605055949e-07,8.854601092823818e-07,6.594013594223402e-06,5.070638859146108e-06,1.018738016532514e-06,1.068375129617521e-06,3.889279272507506e-06,9.938991316244459e-07,1.2691251398774265e-06,8.98587893463673e-07,3.099148745476324e-06
223,4.5543181020823045e-07,1.2286474502189298e-06,1.0281648882509905e-06,1.2122088531576772e-05,7.153375831186731e-07,5.826378273141672e-07,8.763400037003861e-07,6.681588598579425e-06,5.1651569432389636e-06,9.862739512158624e-07,1.0834566542968234e-06,3.872786232136497e-06,1.003141771884721e-06,1.2848489073191434e-06,8.931258987645516e-07,3.107391240645482e-06
224,4.636717349678684e-07,1.1866236402368376e-06,1.0135561569672198e-06,1.1479378112164595e-05,7.055922888853995e-07,5.803613186793444e-07,8.662667292851597e-07,6.743434832172371e-06,5.29782968226135e-06,9.572304188322807e-07,1.1012864904256415e-06,3.8459780578417166e-06,1.0097725110438468e-06,1.2980142870312131e-06,8.897529268689068e-07,3.1057735382056273e-06
225,4.741518139674086e-07,1.1444216555868745e-06,1.0032113489511706e-06,1.0822385816585024e-05,6.956855854215529e-07,5.836369075611945e-07,8.555319872425629e-07,6.777949054561867e-06,5.468216628204856e-06,9.316015866906374e-07,1.1217482632844985e-06,3.809560153877166e-06,1.0135690114462392e-06,1.3086543118773333e-06,8.882300453061783e-07,3.0927382366921884e-06
226,4.870492832064544e-07,1.1018259154707602e-06,9.964121588593047e-07,1.0163542742308233e-05,6.85606946778186e-07,5.925026475547895e-07,8.445479435508096e-07,6.7838741392367515e-06,5.6750380752540405e-06,9.091751454843206e-07,1.1446671032838986e-06,3.7643882932966577e-06,1.0145588455633698e-06,1.3170666670929315e-06,8.883037498002376e-07,3.0670378117081882e-06
227,5.025259729912677e-07,1.0589509741432932e-06,9.923676627747089e-07,9.513707360071943e-06,6.754368680262006e-07,6.069001266663229e-07,8.33677900241027e-07,6.760771670592122e-06,5.9163295859742095e-06,8.89559004329252e-07,1.1698314533559773e-06,3.7109556138841833e-06,1.0129230245356725e-06,1.3236281419792089e-06,8.898713461406867e-07,3.0281209739915592e-06
228,5.206897638507391e-07,1.0161528901977048e-06,9.9029065722372e-07,8.88188560077325e-06,6.653699795971165e-07,6.266801232243645e-07,8.231601077927654e-07,6.709386771284241e-06,6.189375904552284e-06,8.722423150801863e-07,1.1969448199171507e-06,3.6491955373309103e-06,1.0089477761944522e-06,1.3285945718503848e-06,8.93035460278586e-07,2.9764254954732706e-06
229,5.415825859912066e-07,9.738913094086307e-07,9.894861855414673e-07,8.275174043625453e-06,6.556535070895626e-07,6.516093982268354e-07,8.131108285501747e-07,6.6317541324500005e-06,6.4904745565041925e-06,8.56683397461729e-07,1.2256003484236725e-06,3.5788546346367766e-06,1.0029623069226724e-06,1.3320574466391187e-06,8.979989642189216e-07,2.9134433858016642e-06
230,5.651980288255316e-07,9.326527436944463e-07,9.893730867479053e-07,7.698771492963354e-06,6.465186535700256e-07,6.813651215561207e-07,8.03543806333995e-07,6.531000400918135e-06,6.814820328858792e-06,8.423845155856494e-07,1.2553156629463837e-06,3.5002909964818924e-06,9.952701917317132e-07,1.3340261130793287e-06,9.049390557125563e-07,2.8414942653359338e-06
231,5.915167616457267e-07,8.929483384854152e-07,9.89443664485546e-07,7.156092740840936e-06,6.381841732193957e-07,7.15531183116682e-07,7.94423876748013e-07,6.4109303987147055e-06,7.1566444971608585e-06,8.289333422464715e-07,1.2856124458752696e-06,3.415063516140322e-06,9.861274533408282e-07,1.334470627775856e-06,9.139559933114519e-07,2.76334113097154e-06
232,6.20528718297476e-07,8.553173707919713e-07,9.89192525994521e-07,6.649060980862658e-06,6.308881393516056e-07,7.536090396453427e-07,7.857608348863705e-07,6.2755362774452646e-06,7.509486982424319e-06,8.159924096015647e-07,1.3160811020374275e-06,3.3257482549639016e-06,9.757521205984807e-07,1.3333135291915616e-06,9.250766338219129e-07,2.681846273561147e-06
233,6.522114870871725e-07,8.202857699759065e-07,9.880583054820826e-07,6.178513356527566e-06,6.248871282560971e-07,7.95017535628568e-07,7.776445695249507e-07,6.12855375524898e-06,7.866536013041585e-06,8.032298146797827e-07,1.3463428460078712e-06,3.235178264943791e-06,9.64325540016424e-07,1.3304778036789332e-06,9.382867969757801e-07,2.599763523840505e-06
234,6.864856269768962e-07,7.882967574125102e-07,9.85451999597656e-07,5.744596068150611e-06,6.204257463927265e-07,8.3907354636313e-07,7.701704604607779e-07,5.973154065499626e-06,8.22112317415929e-06,7.902541031994019e-07,1.3759661768601308e-06,3.1458014572171573e-06,9.5200328611886e-07,1.3259583332632545e-06,9.53547170820283e-07,2.5196367942343374e-06
235,7.231840356263574e-07,7.596687758031267e-07,9.80879392465608e-07,5.34704817077863e-06,6.177048984730617e-07,8.849870396698507e-07,7.63361816744406e-07,5.811806291553527e-06,8.567360261523299e-06,7.766350440077716e-07,1.4044641094350454e-06,3.0595172570917175e-06,9.389693967640453e-07,1.3198341429543294e-06,9.707701532294732e-07,2.4437165164529477e-06
236,7.620305925415996e-07,7.345969215338465e-07,9.740540023334857e-07,4.985330268332427e-06,6.168755101742249e-07,9.319020333897059e-07,7.571749075037335e-07,5.646228839238148e-06,8.9006446080179e-06,7.620470920602712e-07,1.431383545413093e-06,2.9778337518646638e-06,9.254939849449472e-07,1.3122609854633403e-06,9.898198915874822e-07,2.3738977722613226e-06
237,8.026163133556971e-07,7.131567840675392e-07,9.649152427897804e-07,4.6586614515983195e-06,6.18047203166029e-07,9.78992625352034e-07,7.515225065497853e-07,5.477301720179947e-06,9.217659922869026e-06,7.464508376872493e-07,1.4564650495003956e-06,2.902043377832602e-06,9.11929401198232e-07,1.3034580467464448e-06,1.0105511610623601e-06,2.3117262837796718e-06
238,8.443786656429356e-07,6.953016882129974e-07,9.53551985929147e-07,4.366056277345221e-06,6.212766294079994e-07,1.0255797145972432e-06,7.462470189803504e-07,5.305021131551957e-06,9.515705357474726e-06,7.301220056105707e-07,1.4797986469723224e-06,2.8332784030626573e-06,8.986540021084836e-07,1.2936320748259938e-06,1.0328108731748937e-06,2.258399130661702e-06
239,8.865891925570032e-07,6.808898732145024e-07,9.400780747028079e-07,4.1064202530454745e-06,6.26541712886798e-07,1.0712035445132176e-06,7.410882781061948e-07,5.128708720377372e-06,9.791652201473363e-06,7.135032908880099e-07,1.5018022375676446e-06,2.772506128993602e-06,8.86023490284248e-07,1.282881951126758e-06,1.056365766061347e-06,2.214722296934086e-06
240,9.283782727633361e-07,6.697299819407049e-07,9.245547406822968e-07,3.8787287257133234e-06,6.337376396706345e-07,1.11562086078363e-06,7.357170923197255e-07,4.9474535559575e-06,1.0041296393350112e-05,6.970539622461289e-07,1.5229850916227114e-06,2.7205278986544048e-06,8.743383937003769e-07,1.2712025717318813e-06,1.0808091661146354e-06,2.1811056146186504e-06
241,9.688463520002557e-07,6.615897572074146e-07,9.070466240195633e-07,3.6822041052107804e-06,6.426912795006761e-07,1.1587553720450407e-06,7.298271537866041e-07,4.7605937791103915e-06,1.025961678668211e-05,6.811876345959172e-07,1.5436958472403695e-06,2.6779376022654246e-06,8.638151558650861e-07,1.2586073118047434e-06,1.1055213195787852e-06,2.1576058102188856e-06
242,1.0072437632073868e-06,6.561646056904054e-07,8.877556282705215e-07,3.516342903276324e-06,6.531672163756769e-07,1.2006309354525696e-06,7.23202827587255e-07,4.568122491310296e-06,1.0441496648669887e-05,6.66254165463258e-07,1.5640273515596948e-06,2.6450064339492635e-06,8.545926372261346e-07,1.2452308849465265e-06,1.129720486410681e-06,2.1439707255691673e-06
243,1.0430933520131363e-06,6.530524138975304e-07,8.670731578092924e-07,3.3807859476334704e-06,6.648925329772462e-07,1.241276104238315e-06,7.157218496861699e-07,4.370937256653953e-06,1.058219447739046e-05,6.525257095218033e-07,1.5838709576955909e-06,2.621578894678609e-06,8.467587835070204e-07,1.2312914752133001e-06,1.152586151163199e-06,2.1396656616661117e-06
244,1.0761401805150384e-06,6.517711795729316e-07,8.454904680349823e-07,3.27517418323631e-06,6.776257373226617e-07,1.2806193847380667e-06,7.073705347199687e-07,4.170853538630824e-06,1.0677643730832043e-05,6.401985983625745e-07,1.6030709514127531e-06,2.6070610748416272e-06,8.403392516158637e-07,1.217027343957512e-06,1.1733591476276192e-06,2.1438763086796634e-06
245,1.1061689005966675e-06,6.518447774211727e-07,8.234672749545672e-07,3.1990808121313522e-06,6.91195717687325e-07,1.3184458939996665e-06,6.983006488726831e-07,3.970405640713648e-06,1.0725222552397548e-05,6.294240516499023e-07,1.6216145345602052e-06,2.6005067215331137e-06,8.352695819067728e-07,1.2027413080833163e-06,1.191336163848497e-06,2.155541168284744e-06
246,1.13285418286788e-06,6.529352821801899e-07,8.013908073367374e-07,3.1519924343017957e-06,7.054550997195861e-07,1.3544317526289547e-06,6.888235250170947e-07,3.7725651111614274e-06,1.072495812889582e-05,6.203329834936533e-07,1.6397218629080516e-06,2.6008405917941676e-06,8.313952644509427e-07,1.188823873227491e-06,1.2058565433402144e-06,2.1734629755620386e-06
247,1.155745924256866e-06,6.54915863531958e-07,7.796440849339845e-07,3.1332998460968063e-06,7.202335117483862e-07,1.38817610207464e-06,6.793171821530682e-07,3.5804861415410748e-06,1.0679956470960079e-05,6.130209518458297e-07,1.6577561182422219e-06,2.6071831108338236e-06,8.28477482718864e-07,1.175647486044483e-06,1.2164166942875845e-06,2.1964323501166746e-06
248,1.1743476688252899e-06,6.578052330371072e-07,7.586730709125868e-07,3.1422861058531636e-06,7.353748263746956e-07,1.4191747397589121e-06,6.701490193665794e-07,3.3972838691789085e-06,1.0595192348025473e-05,6.075253152622007e-07,1.676032404901651e-06,2.6190588943539054e-06,8.261866080455972e-07,1.1634623473520496e-06,1.2228278307359894e-06,2.223280050091545e-06
249,1.1882257709903628e-06,6.616285095343564e-07,7.389607685182663e-07,3.178075835649203e-06,7.508013313277419e-07,1.4468259319609297e-06,6.616557230451455e-07,3.225813300972448e-06,1.0475670861234967e-05,6.038522961692002e-07,1.6946726616111481e-06,2.6363146435309875e-06,8.241220693116612e-07,1.1523929330643405e-06,1.225270696228563e-06,2.252833981158318e-06
250,1.1971363443323593e-06,6.663360251364591e-07,7.209390713918964e-07,3.2395230662837265e-06,7.665185936882294e-07,1.4705610677904946e-06,6.541400339496281e-07,3.0684710873938993e-06,1.0325408251121474e-05,6.020271104659709e-07,1.7136048281232436e-06,2.6588148595920354e-06,8.218909861682393e-07,1.1424626238927004e-06,1.2242384585231909e-06,2.28379727645189e-06
251,1.2011366954359959e-06,6.71833123905425e-07,7.049187299006379e-07,3.3251213736286302e-06,7.825717027961171e-07,1.489998431137635e-06,6.478727976231352e-07,2.9270755468165905e-06,1.0147192467787736e-05,6.020786955427768e-07,1.732692934508417e-06,2.6861964040959696e-06,8.191788793626166e-07,1.1335925999960555e-06,1.2203982799440021e-06,2.314697884813374e-06
252,1.2006142807700376e-06,6.7806582239228e-07,6.910689371121883e-07,3.4330888259570136e-06,7.990023434616716e-07,1.504985142007358e-06,6.431179894489866e-07,2.8028692902826694e-06,9.942594273898612e-06,6.039760002081364e-07,1.7518489103224638e-06,2.717886417905841e-06,8.157331057209559e-07,1.1256047202442242e-06,1.2144123684767431e-06,2.3440729809904326e-06
253,1.1962270876345386e-06,6.850665843821593e-07,6.79439017438701e-07,3.561690186871267e-06,8.158113495147722e-07,1.5155529149986322e-06,6.401608401059436e-07,2.6966631113758345e-06,9.7123426246347e-06,6.076253940706249e-07,1.7709818099664155e-06,2.7532743723556185e-06,8.113372425543807e-07,1.118220565618752e-06,1.206807087566012e-06,2.3708009534764236e-06
254,1.188819321845497e-06,6.929205395342947e-07,6.700064829134661e-07,3.7096648333437726e-06,8.329203192029286e-07,1.5218614861581519e-06,6.392981134413631e-07,2.609059863885839e-06,9.457062950192537e-06,6.129471589517018e-07,1.7898380237928696e-06,2.7918269101045113e-06,8.058582449480793e-07,1.1110761040881405e-06,1.1979403560239713e-06,2.394367259256173e-06
255,1.1793285963454618e-06,7.017039055801825e-07,6.627099129435444e-07,3.8764973552287505e-06,8.501636462450703e-07,1.5241357482361818e-06,6.407898742548617e-07,2.5406530344347424e-06,9.177909412148507e-06,6.199333693277014e-07,1.8078805388555664e-06,2.833073096381997e-06,7.992786751607996e-07,1.1038370550848532e-06,1.188043512647823e-06,2.4149130200631863e-06
256,1.1686592707602457e-06,7.114521026300975e-07,6.574316815173459e-07,4.062331760632786e-06,8.673410639481779e-07,1.522599653130796e-06,6.448128219717144e-07,2.4921854439002074e-06,8.876788591991002e-06,6.286167275836398e-07,1.8242478756143818e-06,2.8764630844781343e-06,7.916465115870901e-07,1.0963342865022237e-06,1.1772746705413027e-06,2.4330141762122067e-06
257,1.1575705267112705e-06,7.221448657317186e-07,6.539594563342813e-07,4.267561051611137e-06,8.843097817550829e-07,1.5174561865480724e-06,6.514550122823667e-07,2.4647183748536866e-06,8.556306797628095e-06,6.38998191324494e-07,1.8378174476481167e-06,2.9211551935040054e-06,7.830166508259202e-07,1.0885241362017564e-06,1.1657517023537051e-06,2.449336671128872e-06
258,1.146643805070335e-06,7.33683301654864e-07,6.519874670837262e-07,4.492309736918492e-06,9.010441931985878e-07,1.5089314578182518e-06,6.607428655396848e-07,2.4597825682225617e-06,8.21966454233026e-06,6.510385509059273e-07,1.8474380803176542e-06,2.9658989170767455e-06,7.734486954535762e-07,1.0803157921585033e-06,1.1535966263927606e-06,2.4644039780964808e-06
259,1.1362910072300812e-06,7.458831015729418e-07,6.511780135853637e-07,4.736047950383503e-06,9.176034461694061e-07,1.4973156255816277e-06,6.72654444605107e-07,2.4793913126322552e-06,7.870419092283615e-06,6.647200079835981e-07,1.8522337522529186e-06,3.0091010532158096e-06,7.630382426518652e-07,1.0714717822951922e-06,1.1409743354967102e-06,2.4785356246249334e-06
260,1.126737276564513e-06,7.585008592515524e-07,6.512452746625687e-07,4.997550627250467e-06,9.340413983534949e-07,1.4829281584458342e-06,6.871232620683893e-07,2.525842342116751e-06,7.511984368318972e-06,6.800726725228724e-07,1.8517650596127002e-06,3.04895780908963e-06,7.519628620391363e-07,1.0616255688555502e-06,1.128104694645274e-06,2.4919155711272655e-06
261,1.117989593951915e-06,7.712628475340254e-07,6.520022713480246e-07,5.275270388580082e-06,9.503372726450471e-07,1.4660523981694809e-06,7.040611583814306e-07,2.601426670990147e-06,7.1473534103859876e-06,6.971567166478387e-07,1.846001294108496e-06,3.083627295753286e-06,7.405230321063086e-07,1.0503525972923062e-06,1.1153060861141476e-06,2.504811591958286e-06
262,1.1098245179276383e-06,7.838723850338028e-07,6.533353978847135e-07,5.567838687560305e-06,9.663808726644773e-07,1.446966266680649e-06,7.233637440760599e-07,2.7082858731951635e-06,6.779575551609902e-06,7.160714093023204e-07,1.8352073836623726e-06,3.1115156782805696e-06,7.291187022796371e-07,1.0372844033193766e-06,1.1030360314574683e-06,2.5178492314462816e-06
263,1.1017961907361298e-06,7.960120450762913e-07,6.551283756811524e-07,5.8742592998833254e-06,9.820277414554765e-07,1.4260463828649533e-06,7.44870679805346e-07,2.8484750265008342e-06,6.4124583702577136e-06,7.369526874916495e-07,1.8198062561161555e-06,3.1314625478592702e-06,7.181799662415935e-07,1.0222450403500343e-06,1.0918234276808868e-06,2.532097770574657e-06
264,1.093278840446167e-06,8.073665016738931e-07,6.571975872996112e-07,6.193634171830333e-06,9.972021414732955e-07,1.4037614768959214e-06,7.683310063964207e-07,3.0240094795375753e-06,6.050621309241188e-06,7.599338674975374e-07,1.8002134306773396e-06,3.1425401990706097e-06,7.081187917472273e-07,1.0053717035506507e-06,1.0821470143934481e-06,2.548890552439805e-06
265,1.083562120087763e-06,8.176652904613492e-07,6.592765390897046e-07,6.524712394372157e-06,1.0119575117263226e-06,1.3805220235966156e-06,7.933998346928011e-07,3.2367129511180628e-06,5.698869998938932e-06,7.851217659572649e-07,1.776696190896385e-06,3.1436855696645432e-06,6.992870132826259e-07,9.871856184520187e-07,1.07441627185583e-06,2.5695566726989897e-06
266,1.0719653672167313e-06,8.267216925316801e-07,6.610560286964289e-07,6.865833192330424e-06,1.0264411757675188e-06,1.356561625243278e-06,8.196294947971177e-07,3.4879455889298654e-06,5.3614263967099174e-06,8.125829036294024e-07,1.7493607752597569e-06,3.1336339261054823e-06,6.919356763549118e-07,9.685319986624388e-07,1.0690448337838724e-06,2.595268374774131e-06
267,1.0579254069913853e-06,8.344576534442997e-07,6.622580136356315e-07,7.215454577238247e-06,1.0408018395473259e-06,1.331961754431415e-06,8.464496268044017e-07,3.7783857512963e-06,5.041464241489332e-06,8.423199654204813e-07,1.7182503547352098e-06,3.1112472159805514e-06,6.862147442869198e-07,9.503771389564351e-07,1.0664479303787297e-06,2.627026295426088e-06
268,1.04105743114093e-06,8.40922780122392e-07,6.626742242056881e-07,7.572743319792637e-06,1.0551155946806557e-06,1.3067488110080653e-06,8.731698161240135e-07,4.107914480637336e-06,4.741054148590187e-06,8.742348104009367e-07,1.6834324239952271e-06,3.0760094749525247e-06,6.821886474131123e-07,9.336094459748312e-07,1.066937101639845e-06,2.6656594906840612e-06
269,1.0212036599673382e-06,8.46294807051551e-07,6.621519389585658e-07,7.937650339497466e-06,1.0693886906431906e-06,1.2809397327140333e-06,8.990373868238277e-07,4.475544426009052e-06,4.461279882798888e-06,9.080749398223805e-07,1.6450397213414368e-06,3.0284466515823576e-06,6.79826333897396e-07,9.189616044600666e-07,1.0706509347690511e-06,2.711817888571839e-06
270,9.984591664927067e-07,8.508342558029093e-07,6.606088011826011e-07,8.31036657923985e-06,1.0836159351959329e-06,1.2545159260528387e-06,9.23382461938353e-07,4.8793576873913e-06,4.202306483047846e-06,9.433934366062703e-07,1.6033046069750535e-06,2.970277140921406e-06,6.790046440460805e-07,9.070126279295324e-07,1.0775631843822396e-06,2.766099366506275e-06
271,9.731515935002616e-07,8.547994458554678e-07,6.580871623559811e-07,8.690473839712164e-06,1.0978211152420466e-06,1.2274142271587043e-06,9.4579846382283e-07,5.316482605930249e-06,3.963411890606805e-06,9.795372141094845e-07,1.5585970316559837e-06,2.9041831740101557e-06,6.795814449150136e-07,8.981952926643231e-07,1.0875071868582582e-06,2.829379288900941e-06
272,9.457833426021689e-07,8.583649204475449e-07,6.547447949517532e-07,9.076437291851288e-06,1.1120644724342717e-06,1.1995858757018185e-06,9.662127664118241e-07,5.7831193732298945e-06,3.743060866836072e-06,1.0156580708959773e-06,1.5114450452165978e-06,2.833287463669683e-06,6.815064454983358e-07,8.9281334031153e-07,1.1002020076625829e-06,2.903182522505221e-06
273,9.169689669373032e-07,8.615892317760697e-07,6.507702798395236e-07,9.465883714997769e-06,1.1264500354457499e-06,1.1710525225675718e-06,9.84795393558696e-07,6.274516757911064e-06,3.539129497119011e-06,1.050769592665509e-06,1.4624923062108634e-06,2.7606626768084864e-06,6.848681135013613e-07,8.91078648831004e-07,1.1152724582870156e-06,2.9898410069501135e-06
274,8.873656623761929e-07,8.644303151965668e-07,6.463376811604566e-07,9.856376550404009e-06,1.1411154451493355e-06,1.1418695718881757e-06,1.001804775157765e-06,6.784870649021687e-06,3.349240430602841e-06,1.083873341440588e-06,1.4123871495636546e-06,2.689120816492072e-06,6.898376644958169e-07,8.93122982377469e-07,1.1322438363821723e-06,3.092309283641437e-06
275,8.575823611012753e-07,8.6676917692994e-07,6.416390802948325e-07,1.0246135075036715e-05,1.156168124962025e-06,1.1120267206214478e-06,1.017476359360139e-06,7.307347602309939e-06,3.1709554257907313e-06,1.1141473026297433e-06,1.3617210639348534e-06,2.621147170277437e-06,6.965989464598528e-07,8.989754119537148e-07,1.1505610499702772e-06,3.213730711830792e-06
276,8.28103956385627e-07,8.684535640991816e-07,6.369024103888413e-07,1.0634465698573271e-05,1.1716168438082142e-06,1.0814239764835998e-06,1.0319819285950996e-06,7.834369552853647e-06,3.0019624897484082e-06,1.141132555331939e-06,1.311084441030333e-06,2.5587922880694054e-06,7.053304363362488e-07,9.085448334239188e-07,1.16966245716098e-06,3.3569833864570686e-06
277,7.992735629187854e-07,8.693601482015345e-07,6.323388861215701e-07,1.1021894114206058e-05,1.187350822474232e-06,1.0499981816756098e-06,1.045428408250063e-06,8.35797288225698e-06,2.8405644432229643e-06,1.1647802957339744e-06,1.2611156028373773e-06,2.503586289550826e-06,7.161823886367722e-07,9.216024662435915e-07,1.189039543479028e-06,3.5243939971304696e-06
278,7.713189121841991e-07,8.69402846609207e-07,6.280841451264632e-07,1.1410015656940099e-05,1.203120532282804e-06,1.0179058897039628e-06,1.0578435583796062e-06,8.869970747447557e-06,2.68608753480499e-06,1.1852878433081495e-06,1.2124584794285107e-06,2.4565603098775166e-06,7.292203652774756e-07,9.377569598931847e-07,1.2082515423497561e-06,3.7176290119348267e-06
279,7.444026679891316e-07,8.685200995010136e-07,6.242029257635103e-07,1.180112728269198e-05,1.2184967808149082e-06,9.856116907949673e-07,1.069134691347984e-06,9.361806593558904e-06,2.538727272638957e-06,1.2028585489992343e-06,1.1657053092196337e-06,2.418347992307166e-06,7.44381911346054e-07,9.564671983758098e-07,1.2269413831104941e-06,3.93764101277904e-06
280,7.187041011554772e-07,8.667220847168474e-07,6.207498221634987e-07,1.2197757452656182e-05,1.2328509768245507e-06,9.538185895524333e-07,1.0790756640583803e-06,9.824116225636596e-06,2.3990585786046324e-06,1.2175595525305751e-06,1.121376685330069e-06,2.3893406978377197e-06,7.614624017695819e-07,9.771131911595783e-07,1.2448533819376391e-06,4.184587923772155e-06
281,6.944843211380686e-07,8.641166046520057e-07,6.178425600575753e-07,1.2602181776996898e-05,1.2453956624829497e-06,9.233139973093435e-07,1.0873583805383282e-06,1.0246249737159385e-05,2.2676755247544993e-06,1.2292779303977836e-06,1.0799236400124093e-06,2.369824395074667e-06,7.801179516519461e-07,9.990595125755947e-07,1.2618145537287925e-06,4.4577522595409e-06
282,6.720558549618956e-07,8.608491998453879e-07,6.157001560793416e-07,1.3015935744687956e-05,1.2553129424796671e-06,8.948690566741555e-07,1.0936631356470457e-06,1.0616396389589671e-05,2.1450905826119503e-06,1.2377235695433658e-06,1.0417526759219592e-06,2.3599695575650403e-06,7.998676308516201e-07,1.0216497215982762e-06,1.277684985373164e-06,4.755486068602877e-06
283,6.51688595122086e-07,8.570369513782788e-07,6.146133424686967e-07,1.3439302695349315e-05,1.2619215283059768e-06,8.692129766628045e-07,1.097705172539743e-06,1.0922808128248e-05,2.0317235006605617e-06,1.2425137980433237e-06,1.0072493481846576e-06,2.359706674989028e-06,8.200956498154996e-07,1.0442136092778937e-06,1.2922922385535285e-06,5.075153233439555e-06
284,6.335457089246872e-07,8.527435189117951e-07,6.148702664269969e-07,1.3870755258577764e-05,1.264768299007853e-06,8.469949382147126e-07,1.0992649246817159e-06,1.1155761992889962e-05,1.927809597600506e-06,1.243335294670804e-06,9.76765920225454e-07,2.3687111781795333e-06,8.401063314138979e-07,1.0661749452686773e-06,1.305366586576077e-06,5.413070661540394e-06
285,6.176713944192038e-07,8.480012166364212e-07,6.166972996906462e-07,1.4306386846649066e-05,1.2636193942720828e-06,8.287223942503651e-07,1.0981969466684778e-06,1.1309334896301432e-05,1.8332736307036186e-06,1.2400931021174508e-06,9.506167161288993e-07,2.3865953701246774e-06,8.592220205793745e-07,1.0871407423526487e-06,1.3165541836310651e-06,5.764475542495372e-06
286,6.03998028908069e-07,8.428820405646857e-07,6.202451573318514e-07,1.4739606729227017e-05,1.258405180492913e-06,8.14725302527294e-07,1.0943830411672099e-06,1.138219868465888e-05,1.7476922750661872e-06,1.2329773479897967e-06,9.291063778807262e-07,2.4130694170880704e-06,8.768473422087726e-07,1.1068583861881448e-06,1.325523078666498e-06,6.123600284581889e-06
287,5.923494011837035e-07,8.375498623757698e-07,6.256047698213459e-07,1.5161528322837055e-05,1.249136165475515e-06,8.051484278979019e-07,1.08763857461906e-06,1.1377045536603454e-05,1.6703432319303983e-06,1.2224061017320662e-06,9.125355034336274e-07,2.447818481895226e-06,8.925660848067831e-07,1.125132979029822e-06,1.3320213998729942e-06,6.483997665343299e-06
288,5.824620610390735e-07,8.322370343426948e-07,6.328210175407502e-07,1.55620591854481e-05,1.2358269108153294e-06,7.999613395560497e-07,1.077681161515252e-06,1.1298770435021086e-05,1.600300117202366e-06,1.2088666940947308e-06,9.011637925040167e-07,2.4902315959739086e-06,9.063051210678112e-07,1.1417806264103786e-06,1.3358317202413289e-06,6.839081004616679e-06
289,5.740499952936335e-07,8.271939240413746e-07,6.418884612636371e-07,1.5931095647152572e-05,1.2185165044288727e-06,7.989918442718967e-07,1.0642722779221294e-06,1.115229750774088e-05,1.536566840925042e-06,1.1927976328579217e-06,8.951558091184768e-07,2.539260794726779e-06,9.18345567940476e-07,1.1565880826933738e-06,1.3367325579718417e-06,7.182646601103178e-06
290,5.668608118522541e-07,8.226874701182112e-07,6.527599362891445e-07,1.625938741388129e-05,1.1973718123002268e-06,8.019713600342409e-07,1.0474578820952015e-06,1.0941452400340857e-05,1.4782466831540737e-06,1.1745968975113705e-06,8.945326905592362e-07,2.593430741177748e-06,9.291127083682911e-07,1.1693115737072714e-06,1.3344918800093943e-06,7.509200257886868e-06
291,5.60661846230912e-07,8.190344100417467e-07,6.654031604563971e-07,1.6539303660387913e-05,1.1727601327140348e-06,8.085616567009912e-07,1.0276923051588103e-06,1.0669474595283965e-05,1.4247322212363412e-06,1.1546496046065902e-06,8.991550716480382e-07,2.6508859487626458e-06,9.389733893570325e-07,1.1797662422696214e-06,1.328857755504315e-06,7.814052163689458e-06
292,5.551988939259046e-07,8.165886933845082e-07,6.798512538765453e-07,1.6765742408713003e-05,1.1452431073908871e-06,8.183419121610771e-07,1.0057501613130228e-06,1.0340279915403347e-05,1.3758509336450196e-06,1.1332865752793056e-06,9.087280068696652e-07,2.7094738302408426e-06,9.481647509369362e-07,1.1879466594081526e-06,1.3196303558066563e-06,8.093303314534347e-06
293,5.502244712160124e-07,8.156873227093e-07,6.961820678087154e-07,1.6936797892736018e-05,1.115516061961543e-06,8.307719660376927e-07,9.825308349060745e-07,9.959368095062686e-06,1.3319065291206806e-06,1.110757648695899e-06,9.227913869332939e-07,2.7669506836662027e-06,9.568317569632438e-07,1.1940721251431028e-06,1.3068286449708733e-06,8.343905871711163e-06
294,5.456023548734105e-07,8.16622237301635e-07,7.145042340292795e-07,1.705361059454043e-05,1.0843119717636286e-06,8.451826990592676e-07,9.589073493233139e-07,9.534084503028368e-06,1.2936571375707037e-06,1.0872941522796017e-06,9.407102638790631e-07,2.821319665120926e-06,9.651504269110282e-07,1.1985217861874417e-06,1.290752913419957e-06,8.563801635707099e-06
295,5.413679884667751e-07,8.196270852133032e-07,7.350383141787325e-07,1.7119348807406884e-05,1.0523065946063249e-06,8.608251041407237e-07,9.356875602081894e-07,9.073353939301637e-06,1.2622748591909345e-06,1.0632121068507338e-06,9.61726287275081e-07,2.8711612468384745e-06,9.734301142686704e-07,1.2017264983486526e-06,1.271845897401723e-06,8.75192221262851e-06
296,5.376594248776145e-07,8.248478126585648e-07,7.581989843044028e-07,1.713779939937349e-05,1.0201038241464354e-06,8.769548951938656e-07,9.136288975651961e-07,8.586990369024513e-06,1.239231954235583e-06,1.0389667178936138e-06,9.850569151263534e-07,2.915810316236666e-06,9.820681011672474e-07,1.2040907322719963e-06,1.2505598307526334e-06,8.907735367789256e-06
297,5.34602785860042e-07,8.323242525911702e-07,7.845613434881409e-07,1.7112030431199527e-05,9.883055499222188e-07,8.929239781691008e-07,8.934167720276903e-07,8.084782724418294e-06,1.2260818797341908e-06,1.0151097208544728e-06,1.0099423122437746e-06,2.9553571109079085e-06,9.914015141569827e-07,1.2059282480884128e-06,1.2273779765133806e-06,9.03036620661782e-06
298,5.322695836413808e-07,8.420028255309278e-07,8.14780034192053e-07,1.7043244472360937e-05,9.575399905286493e-07,9.082692012675225e-07,8.756227379937427e-07,7.575705788836424e-06,1.2242458957353722e-06,9.922164861192151e-07,1.035632022213614e-06,2.990510917155462e-06,1.0016064022331937e-06,1.207387865740453e-06,1.2028487618414234e-06,9.118061657808587e-06
299,5.306943424372873e-07,8.537664592430093e-07,8.495806018230609e-07,1.6929978368288474e-05,9.283801311084314e-07,9.227525695488826e-07,8.606897806343358e-07,7.067530112768726e-06,1.2349379561749236e-06,9.708691172044354e-07,1.0614057714598468e-06,3.022337570142765e-06,1.01269927115831e-06,1.2084209678276775e-06,1.1775629035365771e-06,9.168561966133703e-06
300,5.298797381442613e-07,8.674760856954354e-07,8.897903596810678e-07,1.6768169055811782e-05,9.0123846322542e-07,9.36291086256043e-07,8.489226328407112e-07,6.566841795378007e-06,1.2592222055044697e-06,9.516396038686302e-07,1.0866256565651944e-06,3.051911374733714e-06,1.0245691526319037e-06,1.2088285370459753e-06,1.1521556517298554e-06,9.179841052504984e-06
301,5.297736138815066e-07,8.830227952317493e-07,9.363274661356882e-07,1.6552307157381e-05,8.763266978645187e-07,9.488156534183264e-07,8.404773797541321e-07,6.0792765370553e-06,1.2980765770201663e-06,9.350138959377453e-07,1.1107486471453707e-06,3.0800446190887143e-06,1.0369731593811287e-06,1.208334668590573e-06,1.1272850217290243e-06,9.150593217246669e-06
302,5.30261382518768e-07,9.003383693333452e-07,9.901742768546066e-07,1.6277116990296943e-05,8.5368682150997e-07,9.601727614602204e-07,8.353852913342538e-07,5.609721411605593e-06,1.3523686705252085e-06,9.213272767948071e-07,1.1333019247968634e-06,3.107249065804018e-06,1.0495325810114517e-06,1.2066101288612732e-06,1.1035526725333963e-06,9.080564254260631e-06
303,5.312156837443038e-07,9.193209337996839e-07,1.052357040455066e-06,1.593906211520699e-05,8.332631590621459e-07,9.700950558597846e-07,8.336044227683476e-07,5.16231452143616e-06,1.4227918581159398e-06,9.10757564402792e-07,1.1538305471778016e-06,3.1338437253737504e-06,1.061764742991351e-06,1.2032603213128058e-06,1.081459773675609e-06,8.970888139174511e-06
304,5.325817257617037e-07,9.397429165409167e-07,1.1238924571734474e-06,1.553734474164678e-05,8.149615565382598e-07,9.78200135750062e-07,8.350576249153986e-07,4.74027966424436e-06,1.5098296595638896e-06,9.033447872120734e-07,1.1718177623062698e-06,3.1600022612889135e-06,1.0730958240392062e-06,1.1978720176741597e-06,1.0614046925737087e-06,8.824229273179064e-06
305,5.344229597133665e-07,9.612197017518046e-07,1.2057462839557234e-06,1.507431731336435e-05,7.986662464526282e-07,9.840391341907013e-07,8.396278004491441e-07,4.345844337582862e-06,1.6137158776562193e-06,8.990298608646974e-07,1.186670891758176e-06,3.1857077073019443e-06,1.082862361008337e-06,1.190132670475905e-06,1.0436940581262665e-06,8.644522734591504e-06
306,5.368891710303704e-07,9.83222096578121e-07,1.2988531684983916e-06,1.4555381042811228e-05,7.842616085057436e-07,9.872008844273684e-07,8.471086942955752e-07,3.980414835581192e-06,1.7343757132051535e-06,8.97699182250263e-07,1.197867887286794e-06,3.210692620167875e-06,1.090376555815103e-06,1.1799118769160441e-06,1.0285943547918077e-06,8.436442119607643e-06
307,5.401432582255689e-07,1.0050983215031866e-06,1.404100830487956e-06,1.3988513602448356e-05,7.71677598048597e-07,9.873659865183123e-07,8.571434318428356e-07,3.644876497657087e-06,1.8713893569098236e-06,8.99190339198267e-07,1.205195814045402e-06,3.2343711861707354e-06,1.0950024500471555e-06,1.16723366208595e-06,1.0163868832961798e-06,8.20492952132774e-06
308,5.443059677624709e-07,1.0261055103378752e-06,1.5222328389653195e-06,1.3383525331577463e-05,7.609001803522358e-07,9.842608722850772e-07,8.691854762585444e-07,3.3397567270046053e-06,2.0239730754571935e-06,9.032531564256929e-07,1.208903228096821e-06,3.255784604392345e-06,1.0961823447526628e-06,1.1521859852498976e-06,1.0073456236989774e-06,7.954947594090772e-06
309,5.494494909942755e-07,1.0454364041425689e-06,1.653767951803715e-06,1.2751147530522082e-05,7.519415626766326e-07,9.776351080933221e-07,8.824899119870144e-07,3.0651647928428872e-06,2.1909608410635406e-06,9.095062472031642e-07,1.2096381873550273e-06,3.273641925763951e-06,1.0935199137778891e-06,1.1348479777352907e-06,1.0016501458935738e-06,7.691312377621972e-06
310,5.556213169804392e-07,1.0622523138691703e-06,1.7989775387792437e-06,1.2102056399038043e-05,7.448310955627471e-07,9.67349905754376e-07,8.961562819869466e-07,2.8206641070384137e-06,2.370821070421419e-06,9.174387392865614e-07,1.2082113275144669e-06,3.2864665605281835e-06,1.0869513805431012e-06,1.1152795086169849e-06,9.993185684238323e-07,7.418386206127062e-06
311,5.628592141820507e-07,1.075800518491079e-06,1.9578980911354913e-06,1.1445906985377852e-05,7.396353048426804e-07,9.534959358266607e-07,9.092721011498846e-07,2.6052425537051513e-06,2.5617043955266588e-06,9.264505786053822e-07,1.2053910160658385e-06,3.2928138287563536e-06,1.0768295466821138e-06,1.0935392549818184e-06,1.0002129419714388e-06,7.1396280535135385e-06
312,5.711849605464711e-07,1.0856016297687577e-06,2.130369170658924e-06,1.0790627579928407e-05,7.364589716872365e-07,9.364496485134717e-07,9.211443719246389e-07,2.4173633382377466e-06,2.761424048955195e-06,9.358813012047335e-07,1.2018471859327351e-06,3.2916024547082773e-06,1.0638099373272002e-06,1.0696886231212985e-06,1.004101789813102e-06,6.857290159100617e-06
313,5.805864530367339e-07,1.0915232555316079e-06,2.3160599053746912e-06,1.014231909001956e-05,7.354049868389576e-07,9.168419773254581e-07,9.314871851799768e-07,2.2550371369150294e-06,2.967344869892797e-06,9.450788833658911e-07,1.1981467667961896e-06,3.282549057449425e-06,1.0486310498824636e-06,1.0438758776085137e-06,1.0107063023420278e-06,6.572545615380574e-06
314,5.910037613890333e-07,1.09364904000465e-06,2.5145315811973052e-06,9.505664161124572e-06,7.365227900983165e-07,8.954355600421077e-07,9.404249060708447e-07,2.1159646294920424e-06,3.1763192112597887e-06,9.535579427141703e-07,1.1947327163081466e-06,3.266426148795231e-06,1.0319598840838294e-06,1.0165092296476145e-06,1.0196867018075048e-06,6.285974075510493e-06
315,6.023293929015864e-07,1.0921211439694818e-06,2.7254379112659003e-06,8.884354867128235e-06,7.397870304614741e-07,8.729769399716765e-07,9.483226196612077e-07,1.99779361385873e-06,3.384772575408663e-06,9.61093384050618e-07,1.191902355042449e-06,3.2448127622299993e-06,1.0143951804562914e-06,9.882830942036392e-07,1.030631880330417e-06,5.998094060513809e-06
316,6.1440257435528e-07,1.0871295651741844e-06,2.9487144930714402e-06,8.281263606078944e-06,7.451041338302997e-07,8.501055479144047e-07,9.556020690720647e-07,1.8984073467188795e-06,3.588922479561941e-06,9.676230182657078e-07,1.1897664185521242e-06,3.219448627439241e-06,9.965681063653205e-07,9.60016329904167e-07,1.0430859979052152e-06,5.709767278208097e-06
317,6.269861746831563e-07,1.0789835051059854e-06,3.1845204455985458e-06,7.698454080340882e-06,7.523089546716131e-07,8.273226553652672e-07,9.62664545140932e-07,1.816089313761844e-06,3.7850806786803894e-06,9.730893166218766e-07,1.1881944358772472e-06,3.1916855725249216e-06,9.792192716119195e-07,9.325126593376813e-07,1.056555578714553e-06,5.422450021761776e-06
318,6.397732829498512e-07,1.0681472904990407e-06,3.4329859462337964e-06,7.1372193815203424e-06,7.611569147062817e-07,8.050027486071039e-07,9.698850732879385e-07,1.7494659302256818e-06,3.969932241798891e-06,9.77389619680865e-07,1.1868020129166297e-06,3.16232219393264e-06,9.631790943225208e-07,9.064914489857734e-07,1.070527749701361e-06,5.138236707824822e-06
319,6.524722652813063e-07,1.0552121130129923e-06,3.6939354518116323e-06,6.598227647547626e-06,7.713460442037602e-07,7.834247713560426e-07,9.775881723903372e-07,1.6972723788655243e-06,4.1406835788889445e-06,9.804366454911773e-07,1.1850398354958415e-06,3.131669520338489e-06,9.492572587333043e-07,8.82532037629075e-07,1.0845682877154233e-06,4.859671857578986e-06
320,6.64940338412186e-07,1.0408160507829325e-06,3.966638880512389e-06,6.0817554556490405e-06,7.825592356988197e-07,7.628006244679534e-07,9.85992252466326e-07,1.6581179143778614e-06,4.2950954312864824e-06,9.822449108756527e-07,1.182394458313757e-06,3.0996064189616667e-06,9.38128691331046e-07,8.610436122870508e-07,1.098407501477352e-06,4.5894588200846025e-06
321,6.772593940451827e-07,1.0255802608612427e-06,4.249634973298568e-06,5.587962244087358e-06,7.945110925654117e-07,7.433058050739112e-07,9.951578327561564e-07,1.6303728085127282e-06,4.431445306258589e-06,9.82975087389943e-07,1.1785725332306319e-06,3.065644784215143e-06,9.302950645579176e-07,8.422693641285613e-07,1.1119023311074726e-06,4.330258384331068e-06
322,6.896788035805009e-07,1.0101320035616451e-06,4.540669440584658e-06,5.117133692807957e-06,8.07002187158365e-07,7.250959632044835e-07,1.0049612317167495e-06,1.6121203877729598e-06,4.5483585076970385e-06,9.828869314157742e-07,1.1735140458171667e-06,3.0291174872629706e-06,9.260942270261281e-07,8.263134511273681e-07,1.124925317329818e-06,4.08463129640952e-06
323,7.024817161565384e-07,9.951665784211347e-07,4.8367146627983995e-06,4.669828011272453e-06,8.199567336254597e-07,7.083175249460166e-07,1.015100321617735e-06,1.601123352495407e-06,4.644502973470552e-06,9.822184033381758e-07,1.167282416052734e-06,2.9893967035923773e-06,9.256948301821087e-07,8.131809902605533e-07,1.1373065591718177e-06,3.854968502547729e-06
324,7.158869660879991e-07,9.814408375756523e-07,5.134051248012689e-06,4.246940756961252e-06,8.334144690007928e-07,6.931600335430985e-07,1.0251155743810182e-06,1.5948957183172629e-06,4.718506747332429e-06,9.811115285727047e-07,1.1599927384783528e-06,2.946034435654407e-06,9.290802272861393e-07,8.02810649429023e-07,1.14889366453018e-06,3.643288505926183e-06
325,7.300111855075977e-07,9.69704266643837e-07,5.428449626568425e-06,3.849725687555593e-06,8.474872714443503e-07,6.799026918690488e-07,1.0343969086735346e-06,1.5909455614735478e-06,4.7694951380408505e-06,9.79652250624191e-07,1.15179372206365e-06,2.898875568319723e-06,9.360481664381208e-07,7.951024724302218e-07,1.1596433528466846e-06,3.451066347063142e-06
326,7.448470314586343e-07,9.606643218564262e-07,5.715481712404436e-06,3.479736265095048e-06,8.62314343369063e-07,6.688747264969237e-07,1.0421916396686986e-06,1.5870885197745167e-06,4.797874659138822e-06,9.779309766745723e-07,1.1428321619433376e-06,2.848155032669147e-06,9.46216664049727e-07,7.899885696993605e-07,1.1696020996045343e-06,3.279277151073498e-06
327,7.602433483049029e-07,9.549917447664967e-07,5.990938328775815e-06,3.1386502749777114e-06,8.780320959639561e-07,6.603745180248723e-07,1.0476795071671732e-06,1.5816590212453028e-06,4.8054718480414414e-06,9.760550649024944e-07,1.133252269545906e-06,2.7944818535962708e-06,9.590275928818725e-07,7.875206198222379e-07,1.1788129780965756e-06,3.1285454299808126e-06
328,7.759160032271925e-07,9.532944452313028e-07,6.251252326071609e-06,2.8280337631902157e-06,8.94745648885708e-07,6.54621736534445e-07,1.050150582913725e-06,1.5735239033476778e-06,4.7947918456013275e-06,9.74170573828848e-07,1.1232822053456994e-06,2.738666350099731e-06,9.7376984495769e-07,7.878598411764504e-07,1.1872883435882083e-06,2.9992168125076675e-06
329,7.915222789042232e-07,9.560665728625886e-07,6.493777778520638e-06,2.5491322535727945e-06,9.125084732608273e-07,6.51740279525144e-07,1.049221091412683e-06,1.5619328257342477e-06,4.768078994150649e-06,9.724856111864171e-07,1.1132844990923774e-06,2.6814891874822895e-06,9.896482059915642e-07,7.911694231607784e-07,1.1950540954675357e-06,2.891314435070181e-06
330,8.067853865895042e-07,9.636763654640418e-07,6.716797542004523e-06,2.302725627574376e-06,9.313558110417091e-07,6.517555707789972e-07,1.0449495784873391e-06,1.5463312854041294e-06,4.726876117522074e-06,9.712088760481203e-07,1.103671185157066e-06,2.6235466443804323e-06,1.005913391174366e-06,7.975162257650277e-07,1.2021967329840893e-06,2.8044555247641707e-06
331,8.215861260302082e-07,9.763961919837925e-07,6.919185802558674e-06,2.0890707439995233e-06,9.513622301538461e-07,6.546103224897079e-07,1.037755983846239e-06,1.5262751563554635e-06,4.672108732181744e-06,9.704506309067838e-07,1.0947787501887817e-06,2.565182914326383e-06,1.022024222983087e-06,8.068196217110813e-07,1.2088759723590448e-06,2.7378082464109163e-06
