,EMG1,EMG2,EMG3,EMG4,EMG5,EMG6,EMG7,EMG8,EMG9,EMG10,EMG11,EMG12,EMG13,EMG14,EMG15,EMG16
0,1.7016515978452047e-07,7.270521591549731e-07,2.4702816749719993e-08,9.83953920693797e-08,1.3938253657140934e-07,1.3416798167409256e-07,2.402401053804832e-07,-6.082887054685853e-08,2.4900546870128933e-06,2.657475224085281e-08,-1.9605546640627553e-08,8.171268646421154e-07,2.616173365251549e-07,3.4567996210536473e-07,1.655583970620404e-07,1.45581618236872e-07
1,4.936205189298315e-07,8.046908825126282e-07,8.848319776097882e-08,4.625680964690764e-07,1.885684059901974e-07,2.2885464050991808e-07,2.5912591363389846e-07,1.4716766086842884e-07,3.3326917103727276e-06,9.771324925515769e-08,2.0060092285880913e-07,1.9350039360986055e-05,3.314626524151885e-07,3.7440459306493175e-07,3.359545182429587e-07,2.1040605017244472e-07
2,8.06241312133136e-07,8.849560311296266e-07,1.4994512466917925e-07,8.164830612581225e-07,2.383376329590255e-07,3.1972088284706485e-07,2.7931480872420703e-07,3.4937697645884083e-07,4.192933217805586e-06,1.6772919457178887e-07,4.1225743322888674e-07,3.6623158699133084e-05,4.015137330614302e-07,4.041194224732229e-07,4.979673839934966e-07,2.758917488183875e-07
3,1.1045039310932674e-06,9.669904830638747e-07,2.0861518308257409e-07,1.1566963079912633e-06,2.877111872536335e-07,4.058680359651176e-07,3.007694191567848e-07,5.438371911864783e-07,5.0652611556941005e-06,2.3582161591412763e-07,6.128898469244777e-07,5.2454755682941166e-05,4.7081826837549817e-07,4.3422904594908826e-07,6.505074639515862e-07,3.4050880171287284e-07
4,1.3858978240580943e-06,1.0499731542363763e-06,2.6411132331656113e-07,1.4798437343697795e-06,3.358678667922649e-07,4.866461682567989e-07,3.234128545029806e-07,7.287637112798211e-07,5.94396244614769e-06,3.013392475729845e-07,8.002465421142703e-07,6.670491085465565e-05,5.385545461288284e-07,4.6425082192411136e-07,7.924613854087942e-07,4.030562714668329e-07
5,1.6490070523646631e-06,1.1331338191762103e-06,3.1619839645726983e-07,1.7827245788793946e-06,3.822131839691131e-07,5.616587696947885e-07,3.4714933275374703e-07,9.026413339289479e-07,6.823232372758379e-06,3.637309293852402e-07,9.725607647266577e-07,7.927819446226279e-05,6.040360999258364e-07,4.938055213338496e-07,9.227234265110974e-07,4.6276066794678943e-07
6,1.893191225956338e-06,1.215756410813805e-06,3.64784369880938e-07,2.06252450428538e-06,4.263896254992964e-07,6.306971255147746e-07,3.7190246854064635e-07,1.0642080906353393e-06,7.697089903203034e-06,4.2250261000862393e-07,1.1286951742886055e-06,9.011466633233193e-05,6.667812131424268e-07,5.225828090909523e-07,1.0402729139780542e-06,5.192913690073055e-07
7,2.1180496382463457e-06,1.2971003671760346e-06,4.098528613190034e-07,2.3170350150030655e-06,4.6820849696268696e-07,6.936453318433546e-07,3.9762656849723633e-07,1.2123504054408438e-06,8.559168654805078e-06,4.772548169992862e-07,1.2679911680794215e-06,9.91746758371228e-05,7.265444570179513e-07,5.503222981434384e-07,1.1442652005659486e-06,5.726516273105565e-07
8,2.3229975198347963e-06,1.3762831325451664e-06,4.514085725479682e-07,2.5447300917713564e-06,5.075520669175264e-07,7.504003222061197e-07,4.242725098037057e-07,1.346076112532432e-06,9.402503419256401e-06,5.277887277159508e-07,1.3900183549412108e-06,0.00010643496446856063,7.832153666575306e-07,5.767959572691165e-07,1.234163973930855e-06,6.230078710784132e-07
9,2.5072140121689626e-06,1.4522276352388313e-06,4.894969875937234e-07,2.7447419541412932e-06,5.443111193005508e-07,8.008619020583633e-07,4.517519401850932e-07,1.464626349467608e-06,1.0219370969972878e-05,5.74173366823384e-07,1.4945479929605534e-06,0.00011190935120393734,8.3668083588647e-07,6.017606904511296e-07,1.3099286462176844e-06,6.705536363726251e-07
10,2.670004164458145e-06,1.523666330740501e-06,5.242714819931624e-07,2.9168661034929587e-06,5.783602809986769e-07,8.450209041064827e-07,4.799255466743954e-07,1.567608085771592e-06,1.1001367919757393e-05,6.166973508001119e-07,1.5817308391464448e-06,0.00011567653542345315,8.867741013520858e-07,6.249011030584099e-07,1.372145058260982e-06,7.154210922261906e-07
11,2.811368244881061e-06,1.5891644160785018e-06,5.56021568142332e-07,3.0616475685387593e-06,6.095708344065553e-07,8.83057017152942e-07,5.085937020046845e-07,1.6550780832732226e-06,1.1740060884553056e-05,6.557644677667811e-07,1.6522423661971683e-06,0.00011788533498307469,9.333028511407901e-07,6.458027197998571e-07,1.421968533810206e-06,7.576346573886417e-07
12,2.9324204652087675e-06,1.6472345252610673e-06,5.851368676073089e-07,3.1804581643508454e-06,6.378729588822899e-07,9.153162357020934e-07,5.374910527107962e-07,1.727631368039534e-06,1.242823378093926e-05,6.918231395949367e-07,1.707283663382381e-06,0.00011873203094922615,9.760890860936438e-07,6.639807499971963e-07,1.4608760534689635e-06,7.971324862507761e-07
13,3.0353945299494567e-06,1.6965997933520097e-06,6.120766526007131e-07,3.2754267909895306e-06,6.633185727976907e-07,9.421994633690144e-07,5.663043278057317e-07,1.7865176428922325e-06,1.3061034668120517e-05,7.253415198525982e-07,1.7484337954613506e-06,0.00011842729682471788,1.0149742370556086e-06,6.789902131408576e-07,1.4903573782346761e-06,8.338260207449157e-07
14,3.123260529744764e-06,1.7365084216739574e-06,6.373647410420734e-07,3.349162490168122e-06,6.860882224237569e-07,9.640862688418112e-07,5.946862626564411e-07,1.8336848326768142e-06,1.3635934520642156e-05,7.567885779831802e-07,1.7773854688033844e-06,0.00011717051735519818,1.0498399218625453e-06,6.905831280714228e-07,1.5116987856522814e-06,8.676312602627105e-07
15,3.1991969348313305e-06,1.7669374092111901e-06,6.615619395101801e-07,3.404326428295329e-06,7.064385119905042e-07,9.812992218978067e-07,6.222302783465244e-07,1.8716096875591128e-06,1.4151520352331711e-05,7.865887133564571e-07,1.795676402767229e-06,0.0001151379297633945,1.0807086218361428e-06,6.987754785833772e-07,1.525901119767003e-06,8.984939432574953e-07
16,3.2661582723890198e-06,1.7885591763205955e-06,6.852323688947717e-07,3.4432008225857073e-06,7.246200939119895e-07,9.940871789154224e-07,6.484358062281757e-07,1.9029477493769567e-06,1.4606967764583344e-05,8.150563498163902e-07,1.804558114386698e-06,0.00011248130888347263,1.1078049839761227e-06,7.037561234429574e-07,1.5336968690847397e-06,9.264240153201663e-07
17,3.326611243964631e-06,1.8024492355530647e-06,7.089271938674794e-07,3.467397284123356e-06,7.408315972977009e-07,1.0026948412666807e-06,6.727374002210947e-07,1.9302631181159387e-06,1.5003100238822617e-05,8.423490099042407e-07,1.8050462963970584e-06,0.00010933104552025497,1.1314722413478312e-06,7.05768732764348e-07,1.5356694063082666e-06,9.514736476113277e-07
18,3.382389176339656e-06,1.8097000654510128e-06,7.331469031295102e-07,3.4777477898022027e-06,7.552394406164172e-07,1.0075178180784072e-06,6.946374853117473e-07,1.9560224477291677e-06,1.5343237753500185e-05,8.684746041454071e-07,1.798066183435713e-06,0.00010579969132097088,1.1520621410138388e-06,7.050839936321952e-07,1.5324290136460594e-06,9.737067659039044e-07
19,3.4346515140533995e-06,1.811182052559436e-06,7.582876883636041e-07,3.4743807360579592e-06,7.679917286161033e-07,1.0091921211431722e-06,7.138805758767889e-07,1.9827157818147344e-06,1.5632452618499e-05,8.933618119594406e-07,1.7845445955635053e-06,0.00010198454517047138,1.169886768425035e-06,7.020176899289616e-07,1.5246980970668065e-06,9.932406691902244e-07
20,3.4839516857051532e-06,1.8075307279814787e-06,7.846330197064051e-07,3.457015277542765e-06,7.791746666899589e-07,1.0085106387934306e-06,7.305234364090423e-07,2.0128651814759584e-06,1.587616541453936e-05,9.169755478838531e-07,1.7653677390709827e-06,9.796874442004936e-05,1.1851863413197228e-06,6.969555942929473e-07,1.5132456701202914e-06,1.0102529861308406e-06
21,3.5303294278623223e-06,1.7992572897453092e-06,8.123931481177037e-07,3.4254435568173045e-06,7.887721743893225e-07,1.0062641014943645e-06,7.44833529556015e-07,2.0488875035045746e-06,1.6079292340981616e-05,9.394199453048072e-07,1.7413103953466684e-06,9.382106182505286e-05,1.1981133583850442e-06,6.903855324237539e-07,1.4987732980109096e-06,1.0248870802688606e-06
22,3.5733476791642295e-06,1.7868450679186533e-06,8.417279033249566e-07,3.3800279598680137e-06,7.967020557004818e-07,1.0031556844403571e-06,7.571230970036437e-07,2.0929564692807813e-06,1.6246075990183953e-05,9.609411797296936e-07,1.7130907477729603e-06,8.959535218247616e-05,1.208763389961362e-06,6.828933359802108e-07,1.4818480595158546e-06,1.0372006046737119e-06
23,3.6120915952864714e-06,1.7707575586602635e-06,8.727256660240539e-07,3.3220181241480874e-06,8.029063026296575e-07,9.997810438079092e-07,7.676564927970966e-07,2.1469606027752164e-06,1.638010731334954e-05,9.818282422227314e-07,1.6814897832861428e-06,8.533062620088868e-05,1.217235850144869e-06,6.75104557339813e-07,1.462866308485705e-06,1.0472579866666198e-06
24,3.6451727363017958e-06,1.7514020575795078e-06,9.053690533107295e-07,3.2536198396811006e-06,8.073991813517119e-07,9.965963516206387e-07,7.766428960641127e-07,2.212493160773678e-06,1.648395081491491e-05,1.002335033821674e-06,1.6473726318339148e-06,8.10524401844387e-05,1.2236853139116158e-06,6.676137222346561e-07,1.4420089182921528e-06,1.0552389412375629e-06
25,3.67076402826206e-06,1.7291619150756465e-06,9.39500678693971e-07,3.17782474181968e-06,8.102210481938602e-07,9.93880919062204e-07,7.842650661442843e-07,2.290788932341537e-06,1.6558212092330365e-05,1.0226795437278852e-06,1.6116318744438918e-06,7.677608953136358e-05,1.2283193781249771e-06,6.609435666959051e-07,1.4192497132562642e-06,1.061409551349789e-06
26,3.6867122452616845e-06,1.7045170962855898e-06,9.748017630605835e-07,3.0980091733733894e-06,8.113546253272963e-07,9.917318761633092e-07,7.907334302914168e-07,2.382650679440551e-06,1.6600736485095668e-05,1.0430538374676657e-06,1.575159484388255e-06,7.251160677583408e-05,1.2313326409271119e-06,6.55538578249343e-07,1.3944968960696703e-06,1.0660217382935335e-06
27,3.690777723500158e-06,1.6781526566704663e-06,1.0108258601720067e-06,3.0174399283999513e-06,8.10690541720611e-07,9.901023195208457e-07,7.963490767571972e-07,2.4884479859949004e-06,1.660674126980467e-05,1.0636474681666966e-06,1.538814686983882e-06,6.826977480309094e-05,1.2328340819957164e-06,6.517677137551695e-07,1.367757459082214e-06,1.0692614086007334e-06
28,3.6809791068222532e-06,1.650973667506551e-06,1.0470678388520863e-06,2.938952395121588e-06,8.080652980853376e-07,9.88893246997842e-07,8.015176848595687e-07,2.6081843407077776e-06,1.6569876429078048e-05,1.0847079832794097e-06,1.5033294435833847e-06,6.406745901430246e-05,1.2328767950188726e-06,6.499172705566884e-07,1.3391633444955105e-06,1.0712423271071555e-06
29,3.6559489475663468e-06,1.6240190858090184e-06,1.0829826051918747e-06,2.8648823916458203e-06,8.033427753204069e-07,9.880735675516762e-07,8.066843727800357e-07,2.741563840613759e-06,1.6483768967317825e-05,1.1065470574424388e-06,1.469243169272288e-06,5.9929682503870485e-05,1.2316062384105486e-06,6.501751370531421e-07,1.3089330836457274e-06,1.072043358056536e-06
30,3.6152071641564333e-06,1.5983118567790228e-06,1.1179575719268043e-06,2.7970756424388345e-06,7.964959919510011e-07,9.877596233407061e-07,8.122323887300538e-07,2.8879831722927796e-06,1.6343582861241882e-05,1.1294499272453277e-06,1.436968902192174e-06,5.5886909647441254e-05,1.2293650784515007e-06,6.526171656916469e-07,1.2773874674354823e-06,1.0717824101295782e-06
31,3.5592945505231626e-06,1.5747438059419342e-06,1.15131936846049e-06,2.736844931373056e-06,7.876322735807713e-07,9.882112265537533e-07,8.184089182505158e-07,3.046422514612263e-06,1.6146855132601002e-05,1.1535693945404093e-06,1.4069316220445696e-06,5.1969305085913445e-05,1.2266365687806623e-06,6.571979781011883e-07,1.244945209272423e-06,1.070642089965077e-06
32,3.489731234533553e-06,1.5540610425977414e-06,1.1823708774710355e-06,2.684939744113793e-06,7.769329981914174e-07,9.897563934262472e-07,8.253079462429639e-07,3.2152961805352817e-06,1.5892964805274467e-05,1.1788569211258995e-06,1.3796461951658072e-06,4.820154352821331e-05,1.223896502449188e-06,6.637548329428426e-07,1.2120476626084544e-06,1.068808146053973e-06
33,3.4087643161732627e-06,1.536863116813674e-06,1.2104031217592976e-06,2.6416331323297636e-06,7.645739422470777e-07,9.927084244446702e-07,8.329271974487882e-07,3.3923409076382596e-06,1.558200528599123e-05,1.2050232899932535e-06,1.3556992948587736e-06,4.460086350134555e-05,1.2214952244408463e-06,6.720488067976387e-07,1.1791351058040802e-06,1.0664247023305164e-06
34,3.318925382171649e-06,1.5235412725541204e-06,1.234687932823493e-06,2.6069194287247554e-06,7.507260033797827e-07,9.973305238515017e-07,8.412915662360195e-07,3.5745597200431674e-06,1.5214901120866809e-05,1.2315369313163975e-06,1.3356854847388809e-06,4.117891900727832e-05,1.2196128544042638e-06,6.818138743131223e-07,1.146729172874211e-06,1.0636517639555357e-06
35,3.2226161404324022e-06,1.5142489461386162e-06,1.2544952123543133e-06,2.5807421576816528e-06,7.356269433362209e-07,1.0038189091904423e-06,8.505505537919257e-07,3.7582313497305905e-06,1.4794660418987625e-05,1.2576870248229512e-06,1.3201263934519636e-06,3.794514277961815e-05,1.2182631893923258e-06,6.927632334264853e-07,1.1154668063036893e-06,1.0607512427197362e-06
36,3.1219825987452654e-06,1.5089939262312886e-06,1.2691384206296804e-06,2.563179533241946e-06,7.196193075551633e-07,1.0122610052903046e-06,8.609573104536345e-07,3.938993905479059e-06,1.432641255962737e-05,1.2826860315984542e-06,1.3094099916254837e-06,3.490857810816114e-05,1.2173307152356392e-06,7.046009194711131e-07,1.0859881426786826e-06,1.0581225813825912e-06
37,3.019012654280192e-06,1.5077743454188531e-06,1.2779902434865886e-06,2.5545189711514535e-06,7.031043406015906e-07,1.0226034014822598e-06,8.727795441292923e-07,4.111915299260466e-06,1.381563934096116e-05,1.3057375765069634e-06,1.3037816211273678e-06,3.207752783154977e-05,1.2166252818880008e-06,7.170724502008579e-07,1.0587971787630967e-06,1.056288910970379e-06
38,2.9155795137664757e-06,1.510623687906068e-06,1.2804720221563705e-06,2.555188618299186e-06,6.864681859296985e-07,1.0346734058861892e-06,8.862391037021996e-07,4.271520099615789e-06,1.3266825746172292e-05,1.3260649425165097e-06,1.3033294091454958e-06,2.9458310893323213e-05,1.2159199541151449e-06,7.299766994896891e-07,1.0342151120186326e-06,1.0558257877994413e-06
39,2.8133540917756938e-06,1.5175383209522704e-06,1.2761505664479707e-06,2.5656044589131425e-06,6.700542070889826e-07,1.048218078446289e-06,9.014736640298182e-07,4.412070139745575e-06,1.2683958844151252e-05,1.3429811226158048e-06,1.307924166238448e-06,2.7054173764324214e-05,1.2149613700311516e-06,7.431404384791334e-07,1.0124041148562454e-06,1.0572463187603678e-06
40,2.713731534481343e-06,1.528373059852122e-06,1.2649646161189155e-06,2.58602549554911e-06,6.541881455981391e-07,1.0629239170075886e-06,9.184887600463669e-07,4.528375824130681e-06,1.207180010377681e-05,1.3560304095574928e-06,1.3171621442917113e-06,2.4864462881296963e-05,1.2134492703714497e-06,7.564531002575868e-07,9.933847369018552e-07,1.0609092839320788e-06
41,2.6178674847263928e-06,1.5427953129548732e-06,1.2473813252407014e-06,2.6164809182317693e-06,6.392127448585727e-07,1.078477666835629e-06,9.37126546146655e-07,4.616810458625646e-06,1.1436376317541675e-05,1.3651278629927704e-06,1.3303518500489139e-06,2.288411671279857e-05,1.2109994411586358e-06,7.69936808172073e-07,9.770159226499767e-07,1.0669912464042172e-06
42,2.526759999620325e-06,1.5603066219703894e-06,1.2243497833455208e-06,2.656793810069847e-06,6.255043885938887e-07,1.0946879951451034e-06,9.570894304218755e-07,4.67585762804546e-06,1.0784298878258136e-05,1.3706111095414192e-06,1.346557141391632e-06,2.11043335043922e-05,1.2071550021641256e-06,7.837335863245039e-07,9.629745949155565e-07,1.0755490714931523e-06
43,2.441285925534053e-06,1.5802641754565248e-06,1.1971237478643141e-06,2.706645522329763e-06,6.134723414120094e-07,1.1115348271720297e-06,9.780204458744416e-07,4.705863762376091e-06,1.0121716249101611e-05,1.3731550326957954e-06,1.3647053664985918e-06,1.9514950691525527e-05,1.2014573356025553e-06,7.979980930693496e-07,9.507931236153052e-07,1.0866926751382778e-06
44,2.3621816306747656e-06,1.6018440942578528e-06,1.1670786076922491e-06,2.7655668757566232e-06,6.035366526348226e-07,1.1290563805872114e-06,9.99569990929027e-07,4.7081850195189195e-06,9.454035034760982e-06,1.3735610552175726e-06,1.3837376976533496e-06,1.8107459960117806e-05,1.1935050767139667e-06,8.128045258354937e-07,9.399661542643141e-07,1.1007570382204061e-06
45,2.289974528271167e-06,1.6239766338775237e-06,1.1355940244224769e-06,2.8328129667505204e-06,5.960823596913125e-07,1.1471799406784015e-06,1.02137173465867e-06,4.684255160327315e-06,8.786501782068304e-06,1.3725541620576687e-06,1.402758900165772e-06,1.6876995097068957e-05,1.1829941971899494e-06,8.281471776031139e-07,9.300853878226986e-07,1.1182942436236358e-06
46,2.2248753814133754e-06,1.6453528369524142e-06,1.1039897767269526e-06,2.9071954072231875e-06,5.914175479317685e-07,1.1656570571489451e-06,1.0429737068904446e-06,4.63514276936982e-06,8.124756106689445e-06,1.3707255001225183e-06,1.421149335592311e-06,1.5822343102219167e-05,1.169796717857072e-06,8.439847600578191e-07,9.20953705495381e-07,1.1398868773823492e-06
47,2.1667305581015767e-06,1.66457500682494e-06,1.0734570681474808e-06,2.986991605504582e-06,5.89759891744798e-07,1.1841485209859352e-06,1.0638127607949514e-06,4.561760926628551e-06,7.474861227276244e-06,1.3685790011917965e-06,1.4385823882597816e-06,1.4944272091319552e-05,1.1540318958712418e-06,8.602362443568346e-07,9.12631641980354e-07,1.165955920894385e-06
48,2.115115007421048e-06,1.6804202282626462e-06,1.0449836458858506e-06,3.070018381055955e-06,5.912417778288273e-07,1.2023768327472242e-06,1.083246930407009e-06,4.465413809193973e-06,6.8430013388584644e-06,1.3665529428464173e-06,1.4549351902054745e-06,1.4244279489532993e-05,1.1360112070227694e-06,8.767388525444139e-07,9.05377426120653e-07,1.19667308696044e-06
49,2.069480684068141e-06,1.692070978840247e-06,1.0193162724629697e-06,3.1538567242222387e-06,5.959212454282427e-07,1.2202052599755066e-06,1.100646758378708e-06,4.348310693952822e-06,6.235072559609761e-06,1.3650178233229396e-06,1.4701807099576268e-06,1.3725818988190985e-05,1.1161035219525326e-06,8.93231597764012e-07,8.995137273060554e-07,1.2319626322898231e-06
50,2.0292360576418716e-06,1.6991671389285376e-06,9.969597198760657e-07,3.236126930888937e-06,6.037927830351401e-07,1.2375599876567155e-06,1.1155092496840324e-06,4.213822528071391e-06,5.656251326986918e-06,1.364334231454911e-06,1.4843245365500998e-06,1.3396937082518975e-05,1.0946820879504785e-06,9.093910565767988e-07,8.953151152164275e-07,1.2715676938931486e-06
51,1.9937287783135187e-06,1.7017109254581907e-06,9.78183065001567e-07,3.314725872969969e-06,6.147984342115732e-07,1.2542694248755503e-06,1.1275004576266367e-06,4.066366368379604e-06,5.110656993642534e-06,1.3649228392421201e-06,1.4973613094833568e-06,1.3271409816695816e-05,1.0721575661260617e-06,9.249396192172563e-07,8.929511602684742e-07,1.3151548174644184e-06
52,1.9621623270331464e-06,1.6999672900897607e-06,9.630416454264566e-07,3.387944426783897e-06,6.288560601750926e-07,1.269978321895154e-06,1.136410041952517e-06,3.910984961183436e-06,4.601250538473757e-06,1.3672449088364381e-06,1.509220603183174e-06,1.336736717111831e-05,1.0489951516302244e-06,9.397712270301072e-07,8.924545162959276e-07,1.362377279871654e-06
53,1.9334959915386843e-06,1.6943777374383676e-06,9.514546623457323e-07,3.4543484363606307e-06,6.459023741642939e-07,1.2841867916590558e-06,1.142074725067239e-06,3.752839139837915e-06,4.12999453735654e-06,1.3717293180030694e-06,1.519715183645871e-06,1.3704814807214953e-05,1.0256818594776992e-06,9.539504093544112e-07,8.937107044703771e-07,1.4128605927240713e-06
54,1.9064023664862657e-06,1.685406642512322e-06,9.433437263206881e-07,3.512490185922663e-06,6.659215407642682e-07,1.2963068807188309e-06,1.1442980854825523e-06,3.5968047794029718e-06,3.6981530600805024e-06,1.3787133812573828e-06,1.5285441595285147e-06,1.4303705012923385e-05,1.002666589087889e-06,9.675956201850562e-07,8.96479497793496e-07,1.466199264592887e-06
55,1.8793638986137934e-06,1.673350818077154e-06,9.387513399551904e-07,3.560819297540226e-06,6.889504799277607e-07,1.305662966492715e-06,1.142814915910861e-06,3.4472373531954525e-06,3.306542006704185e-06,1.3884066390738606e-06,1.5353858647367394e-06,1.5182923566094248e-05,9.803163166063615e-07,9.808548869063522e-07,9.004491819066885e-07,1.5220354479053333e-06
56,1.850906251271594e-06,1.6582529179359518e-06,9.378407644470949e-07,3.5979919257862595e-06,7.150687126073382e-07,1.3115505728314786e-06,1.1373772011089419e-06,3.3078765506978984e-06,2.9556031366676827e-06,1.4008947591810484e-06,1.5400451368026437e-06,1.6359683350109236e-05,9.589218889475004e-07,9.94021766181641e-07,9.053544264559488e-07,1.5801148505656035e-06
57,1.8198501814295272e-06,1.6399794950013252e-06,9.40799684231103e-07,3.6232987898161165e-06,7.443611005199453e-07,1.313431867411736e-06,1.1279228189134914e-06,3.1818517123123673e-06,2.6453445056348998e-06,1.4161456646182048e-06,1.5425726855383464e-06,1.7849004821676154e-05,9.387454645195628e-07,1.007573065617292e-06,9.111114990201252e-07,1.6402053136160766e-06
58,1.7854705038864104e-06,1.6183856898410208e-06,9.477525210275174e-07,3.636879617392486e-06,7.76847395420304e-07,1.3110679935780135e-06,1.1146746092045966e-06,3.0717338965314114e-06,2.3752923416375706e-06,1.4339480727827678e-06,1.543272712542202e-06,1.9663252385378616e-05,9.200482914267796e-07,1.0220236095165551e-06,9.178158207358445e-07,1.7019908235317042e-06
59,1.7475498519712472e-06,1.5934808672997618e-06,9.587190976427186e-07,3.6396605964972717e-06,8.124197340422742e-07,1.3044092682656606e-06,1.0980912020798928e-06,2.9795557570020966e-06,2.1445873262473863e-06,1.4538280130446785e-06,1.5426152411535802e-06,2.1811632393499534e-05,9.030414616201599e-07,1.0377542171522816e-06,9.256019422014479e-07,1.7650644747441866e-06
60,1.7063631306570517e-06,1.5655725624158922e-06,9.736168719667697e-07,3.633072922836914e-06,8.508346278679934e-07,1.2934190216083285e-06,1.0787392835843477e-06,2.9067881968402497e-06,1.952236924609093e-06,1.4750074734737895e-06,1.5411684211526778e-06,2.4299681525683696e-05,8.878033085587923e-07,1.054937394191225e-06,9.345439797461434e-07,1.8289296959855328e-06
61,1.6626010826373636e-06,1.5353494430359805e-06,9.923110552559312e-07,3.6186255367842706e-06,8.917350945015046e-07,1.278074136842036e-06,1.0571884598418186e-06,2.8543336650033546e-06,1.7973231268875075e-06,1.4963880772623482e-06,1.5395561011019738e-06,2.7128914159481578e-05,8.742326972359591e-07,1.0735339113305538e-06,9.446929494133415e-07,1.892975950092382e-06
62,1.6172301701291498e-06,1.5038132645437515e-06,1.0146716127881035e-06,3.5974924578467203e-06,9.346426669557614e-07,1.2584871790181943e-06,1.0339547161198385e-06,2.822536208855818e-06,1.6789825121434883e-06,1.5165866310947204e-06,1.5383589029654686e-06,3.0296411105195444e-05,8.620335061273412e-07,1.0933365107873058e-06,9.562083613459365e-07,1.956515065111241e-06
63,1.5713194593158629e-06,1.4720560249644662e-06,1.0406057747017266e-06,3.570308467630196e-06,9.789214665127326e-07,1.2349572330869384e-06,1.0094714312228527e-06,2.8111629663836276e-06,1.5962806705859328e-06,1.5341187018265066e-06,1.538033653372176e-06,3.37941126785889e-05,8.507302359455765e-07,1.114076312005797e-06,9.694482615046659e-07,2.018812715653639e-06
64,1.5258713605172785e-06,1.441049228156278e-06,1.0700988826542246e-06,3.537193435743865e-06,1.023751265279747e-06,1.207900524832005e-06,9.840818065499799e-07,2.8193702630972926e-06,1.5481916013482582e-06,1.547732954771039e-06,1.5389748312777994e-06,3.7608379625095915e-05,8.397692471580539e-07,1.1355391622505038e-06,9.84898701082622e-07,2.079030291215901e-06
65,1.4816800653086005e-06,1.4115676354739433e-06,1.1032666676154431e-06,3.4978917608672255e-06,1.0681205345829128e-06,1.1777337717177333e-06,9.58065494286601e-07,2.845700527232779e-06,1.5336346916909483e-06,1.5567315713809759e-06,1.541629387244681e-06,4.1720020667313144e-05,8.28700043719901e-07,1.1575765889894115e-06,1.0030047585788707e-06,2.1362028694165637e-06
66,1.439248131419167e-06,1.3841738569796326e-06,1.1403415412038191e-06,3.4519846491371366e-06,1.1108734184724292e-06,1.1447825633520269e-06,9.316997835774361e-07,2.8881088299284985e-06,1.5514203238942322e-06,1.5610888152978676e-06,1.5464904591967551e-06,4.6103773563706244e-05,8.172878957944098e-07,1.1799941452709038e-06,1.024051994594898e-06,2.1893625083428176e-06
67,1.3987739670772714e-06,1.3591964582722903e-06,1.1815576288724167e-06,3.399169850117158e-06,1.1508531831918589e-06,1.1092795787794034e-06,9.053171815000441e-07,2.9439716752771733e-06,1.600147637793914e-06,1.5613101550265385e-06,1.5539810835651594e-06,5.0726916917291966e-05,8.0546307426501e-07,1.2024355523059097e-06,1.0481314542034702e-06,2.2376908089295465e-06
68,1.360179439954478e-06,1.3367497166715165e-06,1.2270336709617994e-06,3.339533993772473e-06,1.1870935854019952e-06,1.0714597206226044e-06,8.793028123601254e-07,3.010062600860341e-06,1.6781693635156652e-06,1.5581261813555134e-06,1.5643716811347215e-06,5.554826164951858e-05,7.932386769710527e-07,1.2243495943622332e-06,1.0751347497959508e-06,2.2805277326305773e-06
69,1.3231526759817134e-06,1.3168236082888909e-06,1.2767326072066115e-06,3.273727861058459e-06,1.2189528590053434e-06,1.0316346517827548e-06,8.540284502205271e-07,3.0825426085105886e-06,1.7836160221897484e-06,1.552206538419061e-06,1.5777612913624168e-06,6.051956308363657e-05,7.807081836165939e-07,1.2450401774553368e-06,1.104756746232709e-06,2.3172789040906905e-06
70,1.2872378015577436e-06,1.2993980647339915e-06,1.3304382174502724e-06,3.2029990500404088e-06,1.2461588677839277e-06,9.901751219605012e-07,8.298026193150863e-07,3.157075919990411e-06,1.9144061749381076e-06,1.5440319975663454e-06,1.5940417751521946e-06,6.559035799778287e-05,7.680427391358316e-07,1.263794499160986e-06,1.1365058253416394e-06,2.3474745974669155e-06
71,1.2519812398064608e-06,1.2845064316859612e-06,1.3876956784552021e-06,3.1290566785101663e-06,1.268807480940506e-06,9.474923392887336e-07,8.068819642032647e-07,3.2292260234250695e-06,2.068199335676671e-06,1.533908890993683e-06,1.6128418044567609e-06,7.071314564182398e-05,7.554402807762819e-07,1.2800766201310819e-06,1.1697247677115699e-06,2.3710137897505175e-06
72,1.2170512713600535e-06,1.2721993771220941e-06,1.4477551447941047e-06,3.0537841628499817e-06,1.2873104929983525e-06,9.040751098410038e-07,7.85484258517978e-07,3.2951213191206018e-06,2.24235306440862e-06,1.5220103615124678e-06,1.633502239480991e-06,7.584420433455882e-05,7.430866906346061e-07,1.293723282380907e-06,1.2036774060100395e-06,2.388265582527093e-06
73,1.182268416377665e-06,1.262458458449439e-06,1.5095740284496965e-06,2.9789422882240403e-06,1.3022504690398224e-06,8.60497182877703e-07,7.657843618128977e-07,3.3520461696195562e-06,2.4340684640309663e-06,1.5083670103246387e-06,1.6550855758223493e-06,8.094014307073525e-05,7.311558890823738e-07,1.3050238693758356e-06,1.2377121638578138e-06,2.399850139255049e-06
74,1.1475771049207328e-06,1.2551649854741297e-06,1.5719013035799754e-06,2.906080257271324e-06,1.3141958346303894e-06,8.17338010295879e-07,7.479390044648596e-07,3.3985531011924522e-06,2.640770947473772e-06,1.4928552443020822e-06,1.6764344301866699e-06,8.59539894403456e-05,7.198265777665094e-07,1.3145941286388015e-06,1.2713597661948116e-06,2.4062912803230112e-06
75,1.1130026766171454e-06,1.2501316711299125e-06,1.6334176268950206e-06,2.836718707887798e-06,1.3235795752996504e-06,7.750958790682396e-07,7.321073318220549e-07,3.43402015962783e-06,2.860384304638343e-06,1.4752757726274787e-06,1.6963146395028445e-06,9.083172601300091e-05,7.09288756474662e-07,1.3231088642141584e-06,1.3042703205445194e-06,2.407801359220309e-06
76,1.0786295556123952e-06,1.2471175851812388e-06,1.6928610269589537e-06,2.7726039402050364e-06,1.3306340614399083e-06,7.341792811316299e-07,7.184239324951505e-07,3.4579787477628237e-06,3.0911665955850903e-06,1.4554863816203194e-06,1.7136092115108816e-06,9.550830556512494e-05,6.997209096174525e-07,1.3310706559293669e-06,1.3361042977865497e-06,2.4043336089117864e-06
77,1.044633681251702e-06,1.2457937394503673e-06,1.7490618001873957e-06,2.715768737988455e-06,1.3353411267575569e-06,6.949534824100543e-07,7.069687490994177e-07,3.46972114119289e-06,3.3313405307659592e-06,1.4334674121282152e-06,1.7274342769586041e-06,9.99072137012344e-05,6.91243662248915e-07,1.3387066837187093e-06,1.3665196130588572e-06,2.3958616479542204e-06
78,1.011328029829933e-06,1.2456989303963108e-06,1.8008609888397744e-06,2.6683520832781297e-06,1.3374529381442369e-06,6.577832359677636e-07,6.977571979574536e-07,3.468408596502184e-06,3.578948325924441e-06,1.4093139521927449e-06,1.7370749552736486e-06,0.00010394822924925745,6.838812907879325e-07,1.3459590592110138e-06,1.395239880672996e-06,2.3826650781095114e-06
79,9.791248870975054e-07,1.246277548086838e-06,1.8470170266802454e-06,2.6323560629119805e-06,1.336627338069417e-06,6.230535781698904e-07,6.907211310029794e-07,3.4534044546169188e-06,3.831897728552465e-06,1.383272728697799e-06,1.741891558035623e-06,0.00010755868719005889,6.775582837646513e-07,1.3525492653520526e-06,1.422083063157617e-06,2.365404309279922e-06
80,9.484176161703713e-07,1.2470415603186782e-06,1.8862763158971741e-06,2.6094847645263712e-06,1.332605817047517e-06,5.911590965808286e-07,6.856891456348774e-07,3.4245159097553484e-06,4.087907200731067e-06,1.355869349696414e-06,1.7414030137992135e-06,0.00011067941693419221,6.721368520074101e-07,1.3581110739829625e-06,1.4468827916729806e-06,2.3449910771697045e-06
81,9.195039381702615e-07,1.2477339835662126e-06,1.9176229968686463e-06,2.6010752271527925e-06,1.3253361420342636e-06,5.624616004277642e-07,6.824029501742364e-07,3.38209727650474e-06,4.344373361402583e-06,1.3279738033031937e-06,1.7354149773452122e-06,0.00011326216866926081,6.674857212769964e-07,1.362302675889327e-06,1.4693680834016433e-06,2.322423831165566e-06
82,8.926065620115994e-07,1.2483313157104427e-06,1.9405260887573263e-06,2.6081715113056992e-06,1.3150103242539099e-06,5.372506197179617e-07,6.805583367512411e-07,3.3270444480057255e-06,4.598438327900063e-06,1.3006526133462061e-06,1.7240005712680129e-06,0.00011526053051476262,6.635367763835168e-07,1.3648313345390338e-06,1.4891195550855278e-06,2.2986948368962295e-06
83,8.67906351366335e-07,1.2488918475782366e-06,1.9550236112065466e-06,2.6317855626799327e-06,1.3020223625703786e-06,5.15730218158952e-07,6.798347488980533e-07,3.2606673504388506e-06,4.847229492869662e-06,1.2749277874330365e-06,1.7074399160371874e-06,0.00011662099788614685,6.602753370857096e-07,1.3654239485967044e-06,1.5056147888618517e-06,2.2747293238030514e-06
84,8.45517254794967e-07,1.249433202635705e-06,1.961611509574274e-06,2.6731736390405605e-06,1.286850602430717e-06,4.980227091639675e-07,6.799246330686925e-07,3.1844287573656103e-06,5.08794724888282e-06,1.2516389460460388e-06,1.6862567320532214e-06,0.00011728572695652777,6.576740848561743e-07,1.3637843031403835e-06,1.5182874876318635e-06,2.2512684536130686e-06
85,8.254400147440919e-07,1.2499522042853651e-06,1.960989359456332e-06,2.733895968701992e-06,1.2699351800303812e-06,4.841745841111452e-07,6.805577181317434e-07,3.099617817440619e-06,5.317749564525142e-06,1.2314007325207127e-06,1.661251677728597e-06,0.00011721115701193542,6.556284779966477e-07,1.3595853170228083e-06,1.5266003626008885e-06,2.2287014252060966e-06
86,8.075540966617439e-07,1.2504894950323463e-06,1.9537988284500792e-06,2.815617785359622e-06,1.2516616420052819e-06,4.741613991431614e-07,6.814781768870784e-07,3.0071762913114683e-06,5.5336443183923074e-06,1.214581742656192e-06,1.6333799383582517e-06,0.00011638857081380708,6.539420483825424e-07,1.352543117179875e-06,1.5301662105212863e-06,2.206957844355504e-06
87,7.91660569512346e-07,1.2511501564669998e-06,1.9405318893105496e-06,2.9197880227039593e-06,1.2324451240696192e-06,4.679001421041261e-07,6.824129083023652e-07,2.907861427202697e-06,5.732490958313164e-06,1.201313872948572e-06,1.6035788446478e-06,0.0001148468320861191,6.523901100269008e-07,1.3425338221147685e-06,1.5288717352090824e-06,2.1855625551858057e-06
88,7.775586413880595e-07,1.2521050412054906e-06,1.9216322460884144e-06,3.047368179530659e-06,1.2127986645430725e-06,4.6526643826436134e-07,6.830918110517636e-07,2.8026263458332587e-06,5.91114280930983e-06,1.1915653154747038e-06,1.5727492152827452e-06,0.00011263487103969523,6.508294084178685e-07,1.3296513925311305e-06,1.5229407708334526e-06,2.1638797685343516e-06
89,7.651102743990955e-07,1.253565772889455e-06,1.897621695952273e-06,3.198686379962304e-06,1.1933213819563724e-06,4.661009087255111e-07,6.83286326575069e-07,2.6929164972022466e-06,6.066729118897675e-06,1.1852379030327546e-06,1.5418310442152054e-06,0.00010980433046627386,6.492585486456975e-07,1.3141539444497462e-06,1.5128838936321691e-06,2.1414707510751683e-06
90,7.542351736134542e-07,1.2557039357786489e-06,1.8691336479477411e-06,3.3733800506431386e-06,1.1746297305468006e-06,4.7020293816270866e-07,6.828208343365902e-07,2.5807045786002283e-06,6.196785879590511e-06,1.1821877305129573e-06,1.511804588991164e-06,0.00010640914732378886,6.477798393984226e-07,1.296370800889262e-06,1.4993384960842627e-06,2.1183791528361e-06
91,7.448517336277722e-07,1.2585678748330409e-06,1.8368912069244302e-06,3.5703864860454006e-06,1.1572698458166695e-06,4.773282885854669e-07,6.815677429859495e-07,2.468296243800863e-06,6.2990927946333844e-06,1.1821466537654268e-06,1.483616388439712e-06,0.00010251427628983953,6.465311639050694e-07,1.2766785547000945e-06,1.482930368572903e-06,2.0951939986958375e-06
92,7.368434941020983e-07,1.2620573020983819e-06,1.8016886660402663e-06,3.787996376825362e-06,1.1416370854636575e-06,4.872088085718376e-07,6.794379187281145e-07,2.358052629029874e-06,6.372092730679146e-06,1.1846533829297624e-06,1.4581149304443956e-06,9.820030432401301e-05,6.456804925319211e-07,1.2555336586401432e-06,1.4642367333272453e-06,2.072927370729318e-06
93,7.300780536450762e-07,1.265922523417492e-06,1.76437369996749e-06,4.024022926150671e-06,1.127925351661336e-06,4.99592225870019e-07,6.763614511634286e-07,2.252164745960365e-06,6.416441654204693e-06,1.1891057855738416e-06,1.4360159154185716e-06,9.356257238154884e-05,6.454592596530957e-07,1.2334531213681822e-06,1.4437955831024698e-06,2.052824316294484e-06
94,7.24452209220785e-07,1.2697739595873108e-06,1.7257977680490527e-06,4.276130883270345e-06,1.1161149759397746e-06,5.142740030158766e-07,6.722801919991163e-07,2.152580029989528e-06,6.4361654977592625e-06,1.1948842852342057e-06,1.417863091361945e-06,8.870677971800062e-05,6.46155460737234e-07,1.210908308974468e-06,1.4221334226946905e-06,2.0361426475821023e-06
95,7.199330635433749e-07,1.2731517960384282e-06,1.6867263706690987e-06,4.542266150271374e-06,1.1060007843061054e-06,5.31090794589898e-07,6.671846723560279e-07,2.061122903479553e-06,6.437903718348965e-06,1.20141002240168e-06,1.4039911557967817e-06,8.374086855577608e-05,6.480695251247716e-07,1.1882260703482805e-06,1.399789379055027e-06,2.023928530564613e-06
96,7.165495932582836e-07,1.2756072072098182e-06,1.6477514459035828e-06,4.820994578801421e-06,1.097279340714323e-06,5.498773245324069e-07,6.61175227681111e-07,1.979670075481216e-06,6.4290927752952856e-06,1.2081415148969348e-06,1.3945192140741397e-06,7.876507694314018e-05,6.514832622121413e-07,1.1655636127297922e-06,1.3772663990699907e-06,2.0168775829812113e-06
97,7.143289747503901e-07,1.2766997514474698e-06,1.6092843765943106e-06,5.111566262962723e-06,1.0896697037180646e-06,5.704316228551996e-07,6.544881692634784e-07,1.910154536477793e-06,6.416749588153316e-06,1.2145763548986107e-06,1.3893437966744716e-06,7.386495122976562e-05,6.566465135682632e-07,1.1429160608682218e-06,1.3549370377819985e-06,2.0153230583481187e-06
98,7.132382612229853e-07,1.2760030431888882e-06,1.5716825551729256e-06,5.413664752042014e-06,1.082970823934114e-06,5.925143702299384e-07,6.474594901553266e-07,1.8543874552613498e-06,6.407165600928306e-06,1.2202209159321832e-06,1.3881111681885611e-06,6.910940706961137e-05,6.637476746142546e-07,1.1201588080590337e-06,1.3330205301316625e-06,2.0192842992670388e-06
99,7.131767016741239e-07,1.2732622546056125e-06,1.535441820157653e-06,5.726923580651617e-06,1.077019906818317e-06,6.158608617611964e-07,6.404452216450776e-07,1.813890039042036e-06,6.405922305064906e-06,1.2245348127404308e-06,1.3902191690890295e-06,6.455148568586964e-05,6.728686857782548e-07,1.0971663190839797e-06,1.3116543267986792e-06,2.028522247860676e-06
100,7.140379935540854e-07,1.2685740369998615e-06,1.5012746996461694e-06,6.050378280655317e-06,1.0716137027620169e-06,6.402174601808082e-07,6.337348687648405e-07,1.7898373914669786e-06,6.417917980150277e-06,1.2269587119897801e-06,1.394869141425645e-06,6.02296277805852e-05,6.83958556423571e-07,1.073930837293282e-06,1.290989350185667e-06,2.042601472800884e-06
101,7.158268172277256e-07,1.2623548870159305e-06,1.4700153899845957e-06,6.382119063362944e-06,1.0664594946257624e-06,6.65398092380296e-07,6.274928011619706e-07,1.7830805118141112e-06,6.447397592002119e-06,1.2270344489843216e-06,1.401113351858239e-06,5.616928488087214e-05,6.968267144140569e-07,1.0505736188055617e-06,1.2712467900646366e-06,2.060927773448784e-06
102,7.187333229394114e-07,1.2551518201241337e-06,1.4425193563335316e-06,6.7193130409186784e-06,1.0611799045144618e-06,6.912772533246347e-07,6.217428672300718e-07,1.7942120870397492e-06,6.497938959025596e-06,1.224530263585793e-06,1.4078852119962447e-06,5.2385852988521166e-05,7.111377446438198e-07,1.0272611865430677e-06,1.2526911389385e-06,2.0827984288101692e-06
103,7.230915091519515e-07,1.24749969522847e-06,1.4196383091006382e-06,7.058449109983995e-06,1.055346998197875e-06,7.177204806777857e-07,6.163931017219304e-07,1.8236425497793324e-06,6.572314766298288e-06,1.2195157527578858e-06,1.4140702187534162e-06,4.888933116937968e-05,7.264189348708011e-07,1.0041189863812731e-06,1.235525073093092e-06,2.107548269856738e-06
104,7.292719830851093e-07,1.2398551843224727e-06,1.4021550700169273e-06,7.395535456354773e-06,1.0485630261774504e-06,7.445319136383047e-07,6.113063703206867e-07,1.8716658071815179e-06,6.672244615227662e-06,1.2123329474306426e-06,1.4186173499075418e-06,4.568880262287947e-05,7.421181697119953e-07,9.812185299174335e-07,1.219786282359572e-06,2.13465579896183e-06
105,7.376026321804323e-07,1.2325921219077592e-06,1.3906733920467752e-06,7.726147017969442e-06,1.040625059848118e-06,7.714202326937978e-07,6.063985030530769e-07,1.938542752962456e-06,6.798230234887318e-06,1.2034545773064316e-06,1.420633767244968e-06,4.279483269288565e-05,7.577058882015667e-07,9.58651141239524e-07,1.2053327941397874e-06,2.1636392401916547e-06
106,7.483523766781336e-07,1.2260866618424973e-06,1.3855771013348831e-06,8.045405441872829e-06,1.0316306464770458e-06,7.979746933768878e-07,6.016818888120728e-07,2.0246170958311303e-06,6.949630138845265e-06,1.1933389006870343e-06,1.4194318318891625e-06,4.022010625513527e-05,7.727426199730931e-07,9.366514683191355e-07,1.191944517666322e-06,2.193902670606173e-06
107,7.617485216638557e-07,1.2207880089352577e-06,1.3870758801628486e-06,8.348053465178367e-06,1.0218743812296353e-06,8.236846242152625e-07,5.972169689973829e-07,2.1304262345667473e-06,7.124800030478935e-06,1.182358368547402e-06,1.4145341976092526e-06,3.797937100296219e-05,7.869046251027846e-07,9.156879282074564e-07,1.179462027627806e-06,2.2247901958732706e-06
108,7.779730788752736e-07,1.2171596459498674e-06,1.3952539042384634e-06,8.628707003688339e-06,1.0116874879323629e-06,8.4799641169707e-07,5.930669823408547e-07,2.2567413178817433e-06,7.321125238931015e-06,1.1707624743149378e-06,1.4056571651485663e-06,3.6088767424998506e-05,8.00026263409715e-07,8.964196282815968e-07,1.1678440789768175e-06,2.255789428431619e-06
109,7.971139065038638e-07,1.2155698397604097e-06,1.410040739955861e-06,8.882098251601293e-06,1.0013931452041359e-06,8.703474001524743e-07,5.893284314405177e-07,2.404475370610045e-06,7.5351004906077605e-06,1.158682474747888e-06,1.3926578006463883e-06,3.456406862063835e-05,8.12110509128593e-07,8.795327620660025e-07,1.1571392205104372e-06,2.286605047704546e-06
110,8.191043607429616e-07,1.2162660146101327e-06,1.431125059994792e-06,9.102952394499615e-06,9.912876234830951e-07,8.901555170785912e-07,5.861602202019324e-07,2.5744593046262913e-06,7.762425594587414e-06,1.146241849815349e-06,1.3754717279587132e-06,3.341887144076848e-05,8.232707093421498e-07,8.655929012794668e-07,1.1474458251205911e-06,2.317016174478614e-06
111,8.43702625471594e-07,1.2194205652110286e-06,1.4578944052629033e-06,9.285631886831001e-06,9.815722657357541e-07,9.068713675200019e-07,5.837431990814539e-07,2.7671876747297442e-06,7.997834309806503e-06,1.1336892386854692e-06,1.354138620343855e-06,3.2664867002017954e-05,8.336750768258606e-07,8.549952893039863e-07,1.1388755126792217e-06,2.346689959924943e-06
112,8.705379443680439e-07,1.2251336673113348e-06,1.4894405659924738e-06,9.424369169707047e-06,9.723140082222038e-07,9.201686782475203e-07,5.822216722548526e-07,2.9826822766027223e-06,8.234905330375506e-06,1.1213849311735446e-06,1.32887856527774e-06,3.231376142991369e-05,8.435325179943351e-07,8.479890166660601e-07,1.1314997699319107e-06,2.3750699006349096e-06
113,8.992051604310643e-07,1.2333727439632313e-06,1.5246419306843963e-06,9.5143841195121e-06,9.634932655363487e-07,9.301129945992629e-07,5.816715995473626e-07,3.2205498032457842e-06,8.466337580888238e-06,1.1096572099745811e-06,1.3000911040399621e-06,3.237824793681547e-05,8.530988768768194e-07,8.447232654434135e-07,1.1252984902883585e-06,2.4013012324119973e-06
114,9.293247976371976e-07,1.243951238829809e-06,1.5623273531021518e-06,9.553035133135064e-06,9.551129810933707e-07,9.371180963779275e-07,5.820786254294408e-07,3.4801637351092202e-06,8.684509109926378e-06,1.0986918449963145e-06,1.2683042604443344e-06,3.2871252913450576e-05,8.626532865100708e-07,8.45263953753062e-07,1.1201236844981575e-06,2.4241805576309397e-06
115,9.604975925335197e-07,1.2565986718796142e-06,1.6014725101715016e-06,9.540194095608423e-06,9.472760414529708e-07,9.417727036189834e-07,5.833308892534352e-07,3.760795698574122e-06,8.881876366552217e-06,1.0885288919981317e-06,1.234169202178022e-06,3.3804458473073095e-05,8.724383781073516e-07,8.49580512175573e-07,1.1156687788440844e-06,2.442210140302141e-06
116,9.922026082717194e-07,1.2710388469263045e-06,1.641287877807464e-06,9.477815680656286e-06,9.401631534864726e-07,9.447293330710402e-07,5.852572362651818e-07,4.061558316844542e-06,9.051184097001565e-06,1.0791180368871069e-06,1.1984787973911754e-06,3.518648618087446e-05,8.826274771733858e-07,8.575621420903552e-07,1.1114741612652266e-06,2.453796864534659e-06
117,1.0237499995968898e-06,1.286982677868418e-06,1.6811048823958515e-06,9.368952965643818e-06,9.339396463549157e-07,9.466514496729425e-07,5.877037296699725e-07,4.381164288062351e-06,9.185674329760915e-06,1.070343945811472e-06,1.1621462811458965e-06,3.702091516572486e-05,8.933191588474572e-07,8.690814492721128e-07,1.1070275731040488e-06,2.457522228277419e-06
118,1.0543263887633476e-06,1.3040731255773294e-06,1.7202071749261897e-06,9.21655355584691e-06,9.286598072258258e-07,9.4813072239943e-07,5.906045252157241e-07,4.7176534239439385e-06,9.279388965431577e-06,1.061999642089795e-06,1.1261417613359526e-06,3.930559718451511e-05,9.045402732850875e-07,8.840580532113278e-07,1.1019551886665504e-06,2.452403960631121e-06
119,1.0831008610709529e-06,1.3218708522307535e-06,1.757772670313575e-06,9.022692804472026e-06,9.242256004806927e-07,9.496051109603872e-07,5.940236211021075e-07,5.068286348273258e-06,9.32746519090284e-06,1.0538104081730472e-06,1.0914122958430388e-06,4.203461995780062e-05,9.163031816764804e-07,9.024692738889257e-07,1.0961749867427427e-06,2.4380953675362136e-06
120,1.1093544912519759e-06,1.3398552263716224e-06,1.792889968500557e-06,8.788773221403649e-06,9.204230403597245e-07,9.513344167534161e-07,5.981700598704564e-07,5.429659436574735e-06,9.326025590870694e-06,1.0455544336342275e-06,1.058810179261038e-06,4.520170209727845e-05,9.286807627573751e-07,9.243038658706816e-07,1.0898659428218738e-06,2.4149012886899765e-06
121,1.132585124246998e-06,1.3574021826583528e-06,1.8246395517264064e-06,8.516365906775102e-06,9.170044699935597e-07,9.534151497847716e-07,6.033698092480709e-07,5.7978593665808446e-06,9.271638660440652e-06,1.0371365325345735e-06,1.029052303822051e-06,4.880214897163139e-05,9.417844711676076e-07,9.49524649358716e-07,1.0832961485654445e-06,2.3835187936179266e-06
122,1.1525384168286822e-06,1.3738334557403256e-06,1.852251388040789e-06,8.20792908933814e-06,9.137483349038261e-07,9.557952619596802e-07,6.099923678555012e-07,6.168401699644975e-06,9.16151394539374e-06,1.0284987069667413e-06,1.0027064414123635e-06,5.28314316761843e-05,9.55655941435964e-07,9.780902329950362e-07,1.0766842116558e-06,2.344664361290288e-06
123,1.1691800330868953e-06,1.3885924542888163e-06,1.8752025473176171e-06,7.867067389638935e-06,9.104530251503241e-07,9.582900105436975e-07,6.183882382490352e-07,6.535944040456717e-06,8.995087907852336e-06,1.019467624257708e-06,9.801910923122043e-07,5.728158206178783e-05,9.701772045137648e-07,1.0099777927585015e-06,1.0701632744340471e-06,2.298884639694932e-06
124,1.1826710742668611e-06,1.4014097294620246e-06,1.8931840548154917e-06,7.498449557207415e-06,9.068820347442367e-07,9.606257564297875e-07,6.28866163164859e-07,6.894133415657728e-06,8.775477970381097e-06,1.0097079113243489e-06,9.617959925184607e-07,6.213988732087767e-05,9.850459081645823e-07,1.0451391945273844e-06,1.0638213566382108e-06,2.246622659137942e-06
125,1.193352400782294e-06,1.4122928652530052e-06,1.9060294112905964e-06,7.107586097520376e-06,9.027092664563708e-07,9.625023605930325e-07,6.416803550262797e-07,7.235966450883201e-06,8.509306116414544e-06,9.98831631924776e-07,9.477121230432394e-07,6.739194858087083e-05,9.998143041067704e-07,1.083437342082996e-06,1.0577792188599873e-06,2.188388695424063e-06
126,1.201675484763161e-06,1.4213474670810746e-06,1.9136437330749958e-06,6.700604708366047e-06,8.975208570265167e-07,9.636525460445853e-07,6.570224613000838e-07,7.554682605278473e-06,8.205388589287008e-06,9.865954894952024e-07,9.38032773192396e-07,7.30248610672023e-05,1.013958291794826e-06,1.1246147731421932e-06,1.0522223535064234e-06,2.124910528235773e-06
127,1.208061001543545e-06,1.4285933666097545e-06,1.915885967839396e-06,6.284063299284805e-06,8.909118496320764e-07,9.639134555982918e-07,6.750265628718938e-07,7.844881787110926e-06,7.873451940881692e-06,9.730693787232513e-07,9.327168587698683e-07,7.902581973342579e-05,1.0269300169581763e-06,1.1682718850166657e-06,1.0473303650479965e-06,2.0571957069701753e-06
128,1.2127548399821034e-06,1.4339070084074186e-06,1.9124497166045766e-06,5.864749896688787e-06,8.8263769395199e-07,9.632913570600835e-07,6.9577319710985e-07,8.103392267328998e-06,7.523270956926868e-06,9.58679662287068e-07,9.315549774377649e-07,8.537631897798659e-05,1.0382587534649894e-06,1.213870327691287e-06,1.0431593415425716e-06,1.986462250044184e-06
129,1.215753442486549e-06,1.4370563301495735e-06,1.9028668663155125e-06,5.4494310398515674e-06,8.72712283615672e-07,9.619388122121792e-07,7.192854113293002e-07,8.329468120212411e-06,7.164037471699351e-06,9.441087019447612e-07,9.341888331360526e-07,9.204509804851225e-05,1.047745813354047e-06,1.2607908992005941e-06,1.0395768821851434e-06,1.9139710986344148e-06
130,1.216809680172541e-06,1.4377505990333575e-06,1.886654278834569e-06,5.04458742222469e-06,8.613738896612011e-07,9.60044147833958e-07,7.45517178449702e-07,8.524220148711544e-06,6.803878544530763e-06,9.301177046487928e-07,9.401754889418937e-07,9.898284256809999e-05,1.0555550051359755e-06,1.3083826510775887e-06,1.0362911968527343e-06,1.840857303714382e-06
131,1.2154974056025403e-06,1.4357217772619979e-06,1.8635279278813285e-06,4.656167125854762e-06,8.489569686918823e-07,9.577601657345995e-07,7.74347706825446e-07,8.689502796252557e-06,6.449728234001066e-06,9.173853564187095e-07,9.490212976691238e-07,0.00010611994056248138,1.062043781259659e-06,1.3559618392942518e-06,1.032917888519197e-06,1.768055114173474e-06
132,1.2113166598509447e-06,1.430836891124151e-06,1.8335930200982793e-06,4.289383813677134e-06,8.357870404886842e-07,9.552292950539599e-07,8.055947131425786e-07,8.826719930223555e-06,6.107579491680809e-06,9.064153622286476e-07,9.601583683998113e-07,0.00011336650975121133,1.0675051854184843e-06,1.4028189396496477e-06,1.0290000283345766e-06,1.696356584659203e-06
133,1.2038223541620533e-06,1.4231257690814185e-06,1.7973813963564465e-06,3.94871497736399e-06,8.221445420415236e-07,9.526087004004985e-07,8.390130021434359e-07,8.936260912630726e-06,5.782744588805644e-06,8.975213232554692e-07,9.729559428107523e-07,0.00012061307312583886,1.0720291695372123e-06,1.4482249577773272e-06,1.0239899723383097e-06,1.6265140454803166e-06
134,1.1927364062097067e-06,1.4126820775401564e-06,1.755668080874397e-06,3.6381756540461656e-06,8.082662244483334e-07,9.500503457774541e-07,8.742521190258107e-07,9.017946566434945e-06,5.479827318636185e-06,8.908732085061546e-07,9.86855845247226e-07,0.00012773113805066765,1.075496636102391e-06,1.4913646712748388e-06,1.0172778861612662e-06,1.5592273363290256e-06
135,1.1779874867674526e-06,1.3995931965377024e-06,1.7092143709925394e-06,3.3616079261983394e-06,7.943847448603481e-07,9.477035936108725e-07,9.108126280565301e-07,9.071930350289787e-06,5.202513644126859e-06,8.86561366348969e-07,1.0015199515875945e-06,0.00013457386577758824,1.0776556207933232e-06,1.5312668750305951e-06,1.0083296121718365e-06,1.4950154014157866e-06
136,1.1596630997877192e-06,1.3839997533637728e-06,1.6586901048768995e-06,3.122722152468825e-06,7.807922030433307e-07,9.457351561598819e-07,9.480362159890415e-07,9.09911156910741e-06,4.953447003657819e-06,8.846380600875845e-07,1.0168100855071726e-06,0.00014097577437399497,1.0782245995989515e-06,1.5668954971136228e-06,9.969056437874954e-07,1.4341480725905838e-06
137,1.1379325662890558e-06,1.3661783563639374e-06,1.6048449785486302e-06,2.924947133983038e-06,7.678513482971364e-07,9.442969482022444e-07,9.851260992553756e-07,9.100712985129677e-06,4.734361380348078e-06,8.851388509861467e-07,1.0326888247940491e-06,0.00014675127012278076,1.0769508349214194e-06,1.5974118258899082e-06,9.831856364433088e-07,1.3767674961694669e-06
138,1.1130176821452938e-06,1.3465360561592857e-06,1.5487206523969555e-06,2.7712688523449378e-06,7.559377981421915e-07,9.434648536075586e-07,1.021215184815041e-06,9.077670156470891e-06,4.546426719650665e-06,8.880699935076131e-07,1.0491945207662862e-06,0.0001517004035740595,1.073617268053691e-06,1.622407225579977e-06,9.676479839154344e-07,1.3231400757100206e-06
139,1.0852225829981654e-06,1.3255128129118923e-06,1.4916463799294074e-06,2.6641434272928004e-06,7.453919098001796e-07,9.432300675366631e-07,1.055485664459091e-06,9.030666259479626e-06,4.390491845166256e-06,8.933498116052649e-07,1.0664009555197716e-06,0.00015563218740632196,1.0680158930921457e-06,1.641906061159346e-06,9.508321056884706e-07,1.2738008753260957e-06
140,1.054966210390356e-06,1.3034622143020003e-06,1.4350137857406165e-06,2.605483146140653e-06,7.36515073131637e-07,9.435619060314351e-07,1.0872694511471633e-06,8.960573138754264e-06,4.266982441324035e-06,9.007630912056074e-07,1.0842990447761514e-06,0.00015839903438058005,1.059893697632044e-06,1.6561480791332958e-06,9.331842952001079e-07,1.2294321589650602e-06
141,1.02276681538215e-06,1.2806279478486232e-06,1.3800498672635188e-06,2.5966882514230323e-06,7.295646447260636e-07,9.444926849800351e-07,1.1160741440121505e-06,8.868406153770755e-06,4.1756360032986966e-06,9.099967961798587e-07,1.102718033198213e-06,0.00015992131593987776,1.048957123039112e-06,1.6653533252880145e-06,9.150102467272221e-07,1.1906392626940556e-06
142,9.891775146532254e-07,1.2572555972779922e-06,1.3277208714976952e-06,2.6387375425638498e-06,7.247230355977241e-07,9.461759846418679e-07,1.141551424624714e-06,8.754657084732472e-06,4.115369215346482e-06,9.207653492615744e-07,1.1213691889550815e-06,0.0001601850381219681,1.0350055907261035e-06,1.669623882066979e-06,8.965276794829086e-07,1.1578484208165767e-06
143,9.54702301808531e-07,1.2337293402598494e-06,1.2787255751973755e-06,2.732341445730976e-06,7.220589400558072e-07,9.489000959975411e-07,1.1634187321094514e-06,8.618789344827675e-06,4.084301036682877e-06,9.329461523417959e-07,1.1399613748648301e-06,0.00015921456163835293,1.0181086650632243e-06,1.6689167733391865e-06,8.779944768628667e-07,1.1313094938832505e-06
144,9.197372459154203e-07,1.210607648719154e-06,1.2335197449192416e-06,2.8780528549736948e-06,7.214958755773122e-07,9.530529267885908e-07,1.1813473238823225e-06,8.459532311187933e-06,4.079831603725345e-06,9.466259357833568e-07,1.1582566547322258e-06,0.00015704647751873976,9.986889126746586e-07,1.6630177474658363e-06,8.597767143180557e-07,1.111102753640856e-06
145,8.845592140773714e-07,1.1885478944295571e-06,1.19234530639334e-06,3.076219068427944e-06,7.227934815193647e-07,9.590449610581136e-07,1.1949214642430747e-06,8.275746864554027e-06,4.098698285208681e-06,9.620474351296497e-07,1.1759943693016658e-06,0.00015372876252860607,9.774594193338547e-07,1.6516279423513613e-06,8.422854370789775e-07,1.0971609485176486e-06
146,8.493305916031874e-07,1.168204752583762e-06,1.1552393428891425e-06,3.3267986766764637e-06,7.25547923198661e-07,9.672205959182999e-07,1.2037605827973383e-06,8.067275625527582e-06,4.136969777884863e-06,9.79499591705665e-07,1.19276612637294e-06,0.0001493365375776948,9.552657063222013e-07,1.634620425471393e-06,8.258665937368589e-07,1.0893365183537538e-06
147,8.141079435447113e-07,1.1501717834286766e-06,1.1220221504031476e-06,3.6291949640741834e-06,7.292214724339996e-07,9.778159332177113e-07,1.207714267250117e-06,7.835477351611405e-06,4.190109838591123e-06,9.99199089212515e-07,1.2079603943394218e-06,0.00014398135970373607,9.329319624470735e-07,1.6122874009811297e-06,8.107382208085714e-07,1.0874533772100556e-06
148,7.788672224036489e-07,1.1349501281674803e-06,1.0923004142061665e-06,3.982205175310613e-06,7.332087299891403e-07,9.90989554756941e-07,1.2069573758680056e-06,7.5833622729768065e-06,4.253257128311957e-06,1.0212175049996226e-06,1.2208389917169883e-06,0.00013780703872657193,9.111751553082186e-07,1.5853726143210063e-06,7.96995478185249e-07,1.0912902520953715e-06
149,7.435274077910342e-07,1.1228990709973403e-06,1.0655223971876744e-06,4.384028422646068e-06,7.369340558173973e-07,1.0068608253863048e-06,1.2019228583075545e-06,7.315286288317643e-06,4.32156768147507e-06,1.045465778568902e-06,1.230793176347993e-06,0.00013097740755559014,8.905788361926409e-07,1.5548950044156473e-06,7.846540319958847e-07,1.1005433039710845e-06
150,7.080029706727385e-07,1.1141808639803799e-06,1.0410840352367746e-06,4.832266053973261e-06,7.39952249349661e-07,1.025498270063372e-06,1.1931351301499638e-06,7.036245113096479e-06,4.3903348475518115e-06,1.0716878787586833e-06,1.2376781681148441e-06,0.00012366210638747944,8.716168864879817e-07,1.521927718566898e-06,7.736766923030277e-07,1.1148384034683272e-06
151,6.723270612453715e-07,1.1087598060163833e-06,1.0184498428770675e-06,5.323932546307297e-06,7.420074679717481e-07,1.0468959878611196e-06,1.1810455873157405e-06,6.75098111212813e-06,4.4549907886743235e-06,1.0994331310455643e-06,1.2419127166932201e-06,0.000116025510263395,8.547189596997731e-07,1.4874398879597304e-06,7.639667822284907e-07,1.1337969866999435e-06
152,6.367527198044681e-07,1.1064775369925506e-06,9.972316295844892e-07,5.855489329454037e-06,7.43030851697688e-07,1.0709565682614272e-06,1.1659583124542232e-06,6.463269442788883e-06,4.511374269510146e-06,1.1280473813697037e-06,1.2442367704144169e-06,0.00010822165486558985,8.403065639898004e-07,1.4521987810211288e-06,7.553767149398372e-07,1.1570937469230835e-06
153,6.01717801174049e-07,1.1071405567752659e-06,9.771708514133305e-07,6.422856788083229e-06,7.431039554780939e-07,1.097447064743303e-06,1.1480857565404973e-06,6.175669426219364e-06,4.556162422387269e-06,1.1567413801035297e-06,1.245415255139091e-06,0.00010039322563899479,8.287445702526655e-07,1.4167529945774233e-06,7.477559018874588e-07,1.1844393294468727e-06
154,5.677190916387006e-07,1.1105438897105074e-06,9.58046937526049e-07,7.021320585752112e-06,7.4240716897161e-07,1.125947257593352e-06,1.1276733163422811e-06,5.889714446885085e-06,4.58726385639577e-06,1.1846952604128574e-06,1.246102659405533e-06,9.267008611067356e-05,8.20271912686043e-07,1.3815392919878072e-06,7.410037535483395e-07,1.2155045745642022e-06
155,5.352334607855361e-07,1.1164407069177474e-06,9.396302443055343e-07,7.645278673777946e-06,7.411640116033975e-07,1.1558450201560724e-06,1.1050571673712672e-06,5.60631204210166e-06,4.604465786417918e-06,1.211090155689764e-06,1.2468072200497568e-06,8.516591159430102e-05,8.150166512920539e-07,1.3470368484073312e-06,7.350816618740638e-07,1.2498818282755305e-06
156,5.047355787088051e-07,1.1245242912050145e-06,9.217645483860655e-07,8.287877926989418e-06,7.396402567036529e-07,1.1864219756130157e-06,1.0806089911528492e-06,5.326167507241326e-06,4.609976073885056e-06,1.2351210718497917e-06,1.2479106820795683e-06,7.797595349957507e-05,8.130923192976901e-07,1.3138204945252854e-06,7.299625771669614e-07,1.287114189887899e-06
157,4.767328121499629e-07,1.1344521749694312e-06,9.04507184446929e-07,8.940671454102415e-06,7.381985684772251e-07,1.2170095768501337e-06,1.054697604576861e-06,5.050106879747392e-06,4.607910492889341e-06,1.2561334072923645e-06,1.2497461248969879e-06,7.117823175396253e-05,8.146560130565392e-07,1.2824860315898897e-06,7.255714611568033e-07,1.3267060595256398e-06
158,4.51750637670515e-07,1.1458871076814245e-06,8.881637602979536e-07,9.593495580055555e-06,7.372903880473248e-07,1.247066017165957e-06,1.0277594125652686e-06,4.77920508549588e-06,4.602957027071518e-06,1.2737651725382402e-06,1.252644447886676e-06,6.483649869070104e-05,8.198589992021222e-07,1.253569835039988e-06,7.218070884671238e-07,1.3680637919556132e-06
159,4.3031560851572856e-07,1.1585196717433297e-06,8.731649897249337e-07,1.0234815454800844e-05,7.373505077311635e-07,1.276076649880907e-06,1.000364883576885e-06,4.514719363535896e-06,4.599329428061253e-06,1.2878757451912837e-06,1.2568843578440663e-06,5.9002616816033236e-05,8.287667904640462e-07,1.2275519225790016e-06,7.186171850642561e-07,1.4104600581069485e-06
160,4.129878740309421e-07,1.1720542291911263e-06,8.599174371447348e-07,1.085267935825866e-05,7.386967103307578e-07,1.3034103295031172e-06,9.731670330682815e-07,4.2579240579979774e-06,4.600436847673511e-06,1.2983762234821923e-06,1.2626147371451408e-06,5.371785619141571e-05,8.413284798418576e-07,1.2048867890690244e-06,7.159947009719755e-07,1.4531150132202625e-06
161,4.0039993386131734e-07,1.1861518081178814e-06,8.487419806789099e-07,1.1436150988745614e-05,7.415009442258169e-07,1.3282743675219401e-06,9.467888536950915e-07,4.009957672418422e-06,4.608979481906507e-06,1.3052231574556854e-06,1.2698446273827798e-06,4.9013446188122114e-05,8.573807157924398e-07,1.1859789115394317e-06,7.138919850142177e-07,1.4953093525924669e-06
162,3.932518807803263e-07,1.2003570571025333e-06,8.398667293254961e-07,1.1976818664083053e-05,7.458245432701095e-07,1.3497488303768327e-06,9.217675566777547e-07,3.7717503926636195e-06,4.627188867726961e-06,1.3085352751484046e-06,1.278505714611097e-06,4.491085453203326e-05,8.766777288303056e-07,1.1711060234248546e-06,7.121925055909463e-07,1.53641667940367e-06
163,3.9227819777724144e-07,1.2140829880409198e-06,8.334227532645761e-07,1.2469875941790696e-05,7.516881291113195e-07,1.3668828873753998e-06,8.985759063607161e-07,3.5440159947228406e-06,4.657066593215344e-06,1.3086184204225923e-06,1.2885189033101848e-06,4.142241811956676e-05,8.989385252125615e-07,1.1603534241560664e-06,7.107642604687361e-07,1.5759445237191363e-06
164,3.982211654338083e-07,1.2266808044562438e-06,8.294362766859365e-07,1.2914387188543257e-05,7.591204191302439e-07,1.3788827524730227e-06,8.776408096127986e-07,3.3271972749374534e-06,4.7005440912471525e-06,1.3058864615518678e-06,1.299791354854706e-06,3.855261425209377e-05,9.238658749092184e-07,1.1536090992545126e-06,7.094801688703269e-07,1.613694514708662e-06
165,4.1183145980245276e-07,1.2375167768067452e-06,8.278336938266272e-07,1.3312608061669454e-05,7.68150968243096e-07,1.3853122746119357e-06,8.593112180534969e-07,3.12132061445155e-06,4.75958838507594e-06,1.3008323343841158e-06,1.3121425369080105e-06,3.629970929809957e-05,9.511612897590829e-07,1.1505906199349988e-06,7.08183178530395e-07,1.6499164686116004e-06
166,4.3388758516763783e-07,1.2459964736443564e-06,8.284669685495386e-07,1.3668579048818765e-05,7.788075274921519e-07,1.3861511157261387e-06,8.438178046283127e-07,2.9259453571737344e-06,4.836271684695781e-06,1.294055392231252e-06,1.3252353874322333e-06,3.465741205706903e-05,9.80570228336487e-07,1.1508633687760803e-06,7.06671584000938e-07,1.685279508916681e-06
167,4.6520105748026057e-07,1.2515984113987006e-06,8.311140705597271e-07,1.3986529442768648e-05,7.911530207018884e-07,1.3816973403545681e-06,8.312824694492184e-07,2.7403893014112664e-06,4.93276873239213e-06,1.2861988330936505e-06,1.3385742291202505e-06,3.361629433210491e-05,1.0118872166458417e-06,1.1538959006188734e-06,7.047100406781877e-07,1.7206672489528872e-06
168,5.066102858046661e-07,1.254000831692889e-06,8.354394223029443e-07,1.4269586374520386e-05,8.052741769675591e-07,1.372467716927013e-06,8.217747569311948e-07,2.5641137123736986e-06,5.051271074906286e-06,1.2778116732808666e-06,1.3515917801968635e-06,3.316472870696279e-05,1.0448970774947043e-06,1.1591752763124994e-06,7.020524743339818e-07,1.7569213023275492e-06
169,5.589959743911243e-07,1.2532457552616309e-06,8.409695202244191e-07,1.4518879308746167e-05,8.212018511625593e-07,1.3591818916259968e-06,8.153563928726037e-07,2.3970056649565085e-06,5.193823006023979e-06,1.269311362540657e-06,1.3637980838171652e-06,3.328912438302573e-05,1.0793475539392416e-06,1.1663057277628528e-06,6.985220254871511e-07,1.7946718033763361e-06
170,6.232939286938028e-07,1.249764557339972e-06,8.47107341086038e-07,1.4732991076294024e-05,8.388732915490294e-07,1.3427540764488637e-06,8.120676641601943e-07,2.2393974844101095e-06,5.362055281971505e-06,1.2610743824034504e-06,1.3748690569443093e-06,3.397345143588717e-05,1.1149627671269436e-06,1.1750365982604941e-06,6.941252917058747e-07,1.8343165061984665e-06
171,7.004754491707669e-07,1.2441976868932292e-06,8.531897663175601e-07,1.4908020408773706e-05,8.58181461300717e-07,1.3242047595029764e-06,8.118751199550885e-07,2.0918290610622056e-06,5.556855734154555e-06,1.2534962167231577e-06,1.3845778904239712e-06,3.5198170919686266e-05,1.1514112100518157e-06,1.1852246735412326e-06,6.890908695977381e-07,1.8760660614596502e-06
172,7.915331447107575e-07,1.237171881906255e-06,8.586207260658863e-07,1.5038426839484938e-05,8.790299962866844e-07,1.304507178251742e-06,8.1463461797707e-07,1.954735711848506e-06,5.778160059202881e-06,1.2469399016856493e-06,1.3926690379687052e-06,3.6938656704441156e-05,1.1882557225085042e-06,1.196731242267809e-06,6.83804585441359e-07,1.919934087809129e-06
173,8.9747169525933e-07,1.229206769850975e-06,8.630245803646252e-07,1.5118206540068248e-05,9.013141742991276e-07,1.2844571731797486e-06,8.200882999369093e-07,1.8282988827078941e-06,6.024957699735442e-06,1.2416531063965087e-06,1.398841171274454e-06,3.9163508780287815e-05,1.224948382283845e-06,1.2092805076187516e-06,6.787312071040788e-07,1.96564313516977e-06
174,1.0192486711731216e-06,1.2207244345406818e-06,8.662651218608588e-07,1.5141865105082674e-05,9.248565952453768e-07,1.2646190579626613e-06,8.278907834760136e-07,1.7124960403774465e-06,6.295335862977819e-06,1.2377212741359802e-06,1.4028245215346614e-06,4.183380245399407e-05,1.2608385775094267e-06,1.2223624925917877e-06,6.743744398689503e-07,2.0125310151192586e-06
175,1.157688725434258e-06,1.2120684575162361e-06,8.683133307569602e-07,1.5105169072953278e-05,9.493675268327158e-07,1.2453188228629085e-06,8.376531132238485e-07,1.6071572866791227e-06,6.586385091428503e-06,1.2350500387945212e-06,1.4044303963791982e-06,4.4903996611133985e-05,1.2952064506150334e-06,1.2352473038980076e-06,6.712324929691707e-07,2.0595802455434398e-06
176,1.3134359275547856e-06,1.2035073407767736e-06,8.691301206740314e-07,1.5005902550526068e-05,9.744420544011764e-07,1.2266472691803774e-06,8.489845529782968e-07,1.5119080017010186e-06,6.893996484896553e-06,1.233361132418432e-06,1.403554365464132e-06,4.832371291106703e-05,1.3273536489502327e-06,1.2470722940048234e-06,6.69731030060062e-07,2.1056094384899755e-06
177,1.4869518754319569e-06,1.1952118476089778e-06,8.686402193213428e-07,1.484464461225019e-05,9.995952392592604e-07,1.2084640867252664e-06,8.615544540032345e-07,1.426100865354321e-06,7.212660849606203e-06,1.2322187357696359e-06,1.4001763288315628e-06,5.2038662254875246e-05,1.356664638978143e-06,1.2568949988221802e-06,6.701823860260785e-07,2.1495402222811187e-06
178,1.6785779344777883e-06,1.1872030103877003e-06,8.667200360985276e-07,1.4625299809700801e-05,1.0243373181626108e-06,1.1904250949762909e-06,8.751515999891076e-07,1.3488588497715532e-06,7.535352821432851e-06,1.2311151985403162e-06,1.394341324293163e-06,5.598949432413557e-05,1.3825586128508993e-06,1.2637194592397718e-06,6.728083001827783e-07,2.1906195873418276e-06
179,1.8886670644390976e-06,1.1793292958905185e-06,8.631988858330741e-07,1.4355061340331324e-05,1.0482585357790685e-06,1.1720535335971115e-06,8.896467259560987e-07,1.2791978603743064e-06,7.85350387912502e-06,1.2295538685646377e-06,1.3861000221947276e-06,6.0109018865578137e-05,1.4044013774594435e-06,1.2666244556799821e-06,6.777965992017382e-07,2.2285386953968335e-06
180,2.117667709140595e-06,1.1713247882626262e-06,8.579338152518723e-07,1.4043696943731988e-05,1.0711129491309217e-06,1.1528166377262154e-06,9.048932922799102e-07,1.2161378640301108e-06,8.157078037205126e-06,1.2270362105547445e-06,1.3754300267483304e-06,6.432046707469786e-05,1.4215234507556392e-06,1.2650046093793524e-06,6.853224589127042e-07,2.263425290450644e-06
181,2.366066987687824e-06,1.1628800096591127e-06,8.508807721595365e-07,1.370233483844436e-05,1.092891377612759e-06,1.1321808600043162e-06,9.20677711333992e-07,1.1587858042448334e-06,8.434916790432103e-06,1.223037537994886e-06,1.362159681778659e-06,6.853957883985745e-05,1.4333734698731242e-06,1.25875015264994e-06,6.955303656701726e-07,2.2956738523616038e-06
182,2.6342591329738515e-06,1.1536377960443876e-06,8.420650600926864e-07,1.3342089111917581e-05,1.1138246991296487e-06,1.1096860640976824e-06,9.367315741858438e-07,1.1064237829809164e-06,8.6754348579282e-06,1.217117828217023e-06,1.3459458391256913e-06,7.268010463597269e-05,1.4396754527301406e-06,1.2482033150897849e-06,7.085339344441301e-07,2.3256404204832593e-06
183,2.9224143844253163e-06,1.143195564666956e-06,8.315470157516839e-07,1.297283617661725e-05,1.1342916124352347e-06,1.0850493952471955e-06,9.527643242235106e-07,1.058597278158058e-06,8.86748299531402e-06,1.2090664153453997e-06,1.3263604448012989e-06,7.665933775306645e-05,1.4405020301184213e-06,1.2339648632654772e-06,7.244255749317151e-07,2.353358380519483e-06
184,3.2303499608632174e-06,1.1312360730271173e-06,8.19504217095974e-07,1.2602316478661912e-05,1.1546864700896345e-06,1.0582466889700967e-06,9.684850053620344e-07,1.0151504799305841e-06,9.001200578416192e-06,1.1988603627768678e-06,1.3030390665765003e-06,8.040042200256283e-05,1.4362850240416565e-06,1.2167564311706144e-06,7.432530633016071e-07,2.3784160844009925e-06
185,3.5574269586091926e-06,1.1176986663476659e-06,8.063288234776247e-07,1.2235650054406976e-05,1.1753086120812856e-06,1.0295260476784035e-06,9.836351776759075e-07,9.761592519774857e-07,9.06876972643143e-06,1.186476309047049e-06,1.2758023773427692e-06,8.383069169514222e-05,1.4277796940310316e-06,1.1973537284305543e-06,7.649831773975149e-07,2.3999791757025108e-06
186,3.902535157948948e-06,1.102800803986058e-06,7.925800755117493e-07,1.187535367678521e-05,1.1962875233748966e-06,9.993336965703763e-07,9.980430004984295e-07,9.417899233186319e-07,9.064738467150233e-06,1.1717864895068969e-06,1.2447321392274414e-06,8.687870043319291e-05,1.4159902611875064e-06,1.176520159927e-06,7.894833521960374e-07,2.4169051357884888e-06
187,4.264175404760716e-06,1.0868810737626843e-06,7.788358269900555e-07,1.1521860466325347e-05,1.2175362220082485e-06,9.681646244164079e-07,1.0116360546486825e-06,9.12226633032723e-07,8.985636444835076e-06,1.1546204980847007e-06,1.2102050343827347e-06,8.947475659449383e-05,1.402058650710705e-06,1.154968768808462e-06,8.165120206411025e-07,2.4279787105138495e-06
188,4.640566849987132e-06,1.070217232500738e-06,7.655943012151838e-07,1.1174343727886034e-05,1.2387372415865362e-06,9.364200895387513e-07,1.024407597801705e-06,8.87744641882718e-07,8.829862838497057e-06,1.1349174413049886e-06,1.1728258196301434e-06,9.155712836372929e-05,1.3871158650959742e-06,1.1333254168556031e-06,8.457072639329714e-07,2.432231593311656e-06
189,5.029686796852391e-06,1.0529771450697533e-06,7.53275284105739e-07,1.0831518875043672e-05,1.2593516035851029e-06,9.043705078198226e-07,1.0363790192400487e-06,8.68779832533126e-07,8.599203626701276e-06,1.1129048588369287e-06,1.1332499212331278e-06,9.307855173637083e-05,1.3721770945703493e-06,1.1120656404066122e-06,8.765784211631306e-07,2.4291614662078896e-06
190,5.429191796017788e-06,1.0353070306556272e-06,7.422623272417894e-07,1.0492202318448404e-05,1.278628387186378e-06,8.722334315784234e-07,1.0475630502205366e-06,8.55865013997258e-07,8.300855577873184e-06,1.0891919200878687e-06,1.0920417520281574e-06,9.40044150497258e-05,1.3581349627869825e-06,1.0914953717565418e-06,9.085163209295312e-07,2.4186964449108853e-06
191,5.836202303653564e-06,1.0174300344543905e-06,7.329169801402607e-07,1.0155708904781887e-05,1.2956610953008667e-06,8.402762701604846e-07,1.05796710076429e-06,8.49537141429431e-07,7.947356161479804e-06,1.064648728736899e-06,1.0496707234193009e-06,9.430391717117678e-05,1.3457513308383807e-06,1.0718053835800016e-06,9.408529451631398e-07,2.4009485062042605e-06
192,6.246985175307775e-06,9.996631444684565e-07,7.255467088820271e-07,9.822259861386963e-06,1.3095473110350804e-06,8.088433990349372e-07,1.0676612308659994e-06,8.503177236403636e-07,7.554194015715268e-06,1.0401895942495403e-06,1.0065710865464474e-06,9.394720290012055e-05,1.3355878225094804e-06,1.0531460958844692e-06,9.729695820940959e-07,2.3760094340653756e-06
193,6.656687981557559e-06,9.823949760556425e-07,7.203618660869093e-07,9.49327524849231e-06,1.3195708659601325e-06,7.782986979437478e-07,1.0768023072881113e-06,8.587105339923475e-07,7.1371678675057046e-06,1.0166639070920814e-06,9.63184785568319e-07,9.291512750634403e-05,1.3279523001197948e-06,1.0356386490686285e-06,1.0043613227406591e-06,2.344002866370169e-06
194,7.05928042806812e-06,9.661103063265107e-07,7.174741803823495e-07,9.171298841807692e-06,1.3252799173245057e-06,7.489643315266069e-07,1.0855301927093755e-06,8.751742891250722e-07,6.710917665679549e-06,9.948168021887966e-07,9.199949596215306e-07,9.121337814811648e-05,1.3229215087514918e-06,1.0193062155770348e-06,1.0345941215112483e-06,2.3052432968104813e-06
195,7.447704940257627e-06,9.514409526803686e-07,7.169524879416424e-07,8.859616744272966e-06,1.3264637584957093e-06,7.211257482259291e-07,1.0938383713715717e-06,9.000929237845307e-07,6.288503588993018e-06,9.752400458723276e-07,8.775735325940574e-07,8.888109735630325e-05,1.3204248887849335e-06,1.004012174446981e-06,1.0632448136660608e-06,2.260238432796226e-06
196,7.814217328542966e-06,9.391394234710023e-07,7.188759736751579e-07,8.561850436424576e-06,1.3231025515865508e-06,6.950686152618641e-07,1.10155423429417e-06,9.337475835452733e-07,5.881429046293366e-06,9.583560275316138e-07,8.366036510455223e-07,8.59909247838946e-05,1.3203564259707793e-06,9.894686569953074e-07,1.0899080444217757e-06,2.2096008581298475e-06
197,8.150967105244098e-06,9.299536714710127e-07,7.233297318976689e-07,8.281640315628572e-06,1.3153182442068876e-06,6.710649789056391e-07,1.1084346263935178e-06,9.763219486067709e-07,5.499840231679324e-06,9.444432269697906e-07,7.978203964973603e-07,8.264086940959891e-05,1.3227108526894662e-06,9.753279113526759e-07,1.1142502268639481e-06,2.1540638231531673e-06
198,8.450782830379959e-06,9.244987530748986e-07,7.303981724508407e-07,8.022300723574049e-06,1.3033438467350496e-06,6.493274367328426e-07,1.1142969257966288e-06,1.0280006685483111e-06,5.152864275259821e-06,9.33695220170146e-07,7.619126400309392e-07,7.894058673263691e-05,1.3277236551315838e-06,9.613233984431356e-07,1.1360854913169347e-06,2.0945404920087553e-06
199,8.707963428125779e-06,9.231980603947184e-07,7.402178387855801e-07,7.786352699833542e-06,1.2875413519053301e-06,6.299992678092015e-07,1.119093437712878e-06,1.0891224949354983e-06,4.84891901884945e-06,9.263226109993397e-07,7.294854547906944e-07,7.499723411511557e-05,1.335910908786915e-06,9.473369356315594e-07,1.1554379084365892e-06,2.032045140053426e-06
200,8.918801112473798e-06,9.262737493892504e-07,7.530361289978052e-07,7.5751418056196525e-06,1.26842798971873e-06,6.131737332984261e-07,1.1228781802967073e-06,1.1602427996733968e-06,4.595773330690686e-06,9.226257142651499e-07,7.010915553712338e-07,7.090665473826271e-05,1.3479499477758892e-06,9.333216788178145e-07,1.172525933729108e-06,1.9675257875646087e-06
201,9.08162409520737e-06,9.337551294754067e-07,7.691976030558926e-07,7.388883994175487e-06,1.2466186058633533e-06,5.989184751198059e-07,1.1257180468670616e-06,1.2420358128033832e-06,4.400382473377547e-06,9.229638884707794e-07,6.772485313063996e-07,6.675231915285409e-05,1.3645357458031234e-06,9.191961942115712e-07,1.1876418719020143e-06,1.9018174558290763e-06
202,9.196277152374233e-06,9.455280621028663e-07,7.890566416873602e-07,7.227140457408881e-06,1.2227017438610412e-06,5.872896320522927e-07,1.1276685048528873e-06,1.335143427541293e-06,4.268737715163911e-06,9.276580058144848e-07,6.584069589327201e-07,6.260948749066248e-05,1.386350368366639e-06,9.048376270086951e-07,1.2009880743828567e-06,1.835750605526977e-06
203,9.263133597377514e-06,9.614641153721844e-07,8.12881005491808e-07,7.089368592178718e-06,1.1971601447102405e-06,5.783086980490849e-07,1.1288537420674814e-06,1.4400880313771972e-06,4.205870758213848e-06,9.369061076581601e-07,6.449122145943997e-07,5.8549772005263046e-05,1.4140662295096146e-06,8.901493711285488e-07,1.21259622119309e-06,1.7702769406977362e-06
204,9.282134624537092e-06,9.815846937974888e-07,8.407979916398071e-07,6.975256785126386e-06,1.1703458748721992e-06,5.719249177283413e-07,1.1295333898631505e-06,1.557260757285018e-06,4.215934539375532e-06,9.507599494136688e-07,6.369858151200615e-07,5.464218506235521e-05,1.4482793534558413e-06,8.751252654535803e-07,1.2223766638642352e-06,1.7064893206547555e-06
205,9.252632279176497e-06,1.006122256851418e-06,8.727759673186622e-07,6.884791392079878e-06,1.1424478392386414e-06,5.680091947741075e-07,1.130043044750526e-06,1.6869293085356576e-06,4.302262025601691e-06,9.691445322239787e-07,6.347220119587037e-07,5.095022071153731e-05,1.489416247040348e-06,8.59864505134368e-07,1.2301839681123462e-06,1.6454978901290092e-06
206,9.174212399385273e-06,1.0354274763314853e-06,9.08625212555312e-07,6.81812498579009e-06,1.1134859853852891e-06,5.663690672398962e-07,1.1306895950492195e-06,1.8291801925612221e-06,4.467393720276966e-06,9.91855626467453e-07,6.380924897099727e-07,4.7528554987585913e-05,1.537679791628938e-06,8.445300295178572e-07,1.2357957188973677e-06,1.5882405712057506e-06
207,9.047804155315974e-06,1.0698474002990667e-06,9.480235330061282e-07,6.7753334342401975e-06,1.0834097973866963e-06,5.667588980094251e-07,1.1317235491773205e-06,1.9838115381769914e-06,4.713038541226219e-06,1.018537583233697e-06,6.469498669835175e-07,4.442211508860837e-05,1.5930768411927445e-06,8.29321956020339e-07,1.238871748522551e-06,1.535368403029697e-06
208,8.87639000891174e-06,1.1096785787229254e-06,9.905512443594743e-07,6.756199988387872e-06,1.052269000877211e-06,5.689049583767077e-07,1.1333405332953134e-06,2.1503062095336087e-06,5.039947533547661e-06,1.0487214104248963e-06,6.610388969225985e-07,4.16665075124856e-05,1.6555290790883256e-06,8.144957370435685e-07,1.238983812776154e-06,1.4872799633183133e-06
209,8.665127674295346e-06,1.1551451657921827e-06,1.0356880524507132e-06,6.760165089223371e-06,1.0203351373642702e-06,5.725660821184847e-07,1.135646527649671e-06,2.327909468048726e-06,5.447813449156004e-06,1.0819065768335792e-06,6.800255348878286e-07,3.928871977599131e-05,1.7249588532941092e-06,8.003451605262227e-07,1.2356977013635835e-06,1.444255911011589e-06
210,8.42096842813319e-06,1.206342773987021e-06,1.0827678946259212e-06,6.786377770875664e-06,9.881021870123763e-07,5.77575732633131e-07,1.1386534348504732e-06,2.515679884451667e-06,5.935325390183556e-06,1.117570617637435e-06,7.035225192778336e-07,3.7308137733620064e-05,1.8012751043154718e-06,7.871529539919166e-07,1.2286988160656789e-06,1.4065764109537572e-06
211,8.151962385855927e-06,1.263179321699083e-06,1.130965987006525e-06,6.833588653669008e-06,9.562012818275247e-07,5.83804513833124e-07,1.1423549679774325e-06,2.7124198035360973e-06,6.500351882152674e-06,1.1551147281310356e-06,7.310854979129201e-07,3.573737781884815e-05,1.8843405545115622e-06,7.751835432034046e-07,1.2179592445064812e-06,1.3745316968278406e-06
212,7.866473051389504e-06,1.3253531178851947e-06,1.1793827247466224e-06,6.899782049333286e-06,9.252960025447987e-07,5.910862954423191e-07,1.1468044674788906e-06,2.9165429469600742e-06,7.140062845666905e-06,1.1938557110889913e-06,7.621818530149294e-07,3.458266830550559e-05,1.9740036775788553e-06,7.646966212930766e-07,1.2038266023774709e-06,1.3483434596265184e-06
213,7.572484175186564e-06,1.3923744820543528e-06,1.2272042187739583e-06,6.981832288654636e-06,8.959842835162094e-07,5.991734684993234e-07,1.152099453488229e-06,3.12597781663012e-06,7.850838257769648e-06,1.2330734298327613e-06,7.961619596828904e-07,3.384411309480781e-05,2.070132024865248e-06,7.55927878558795e-07,1.1869142827309896e-06,1.3280920799021337e-06
214,7.277123005142914e-06,1.4636320207518738e-06,1.273855146731335e-06,7.07556060360939e-06,8.687219054952596e-07,6.07717590065513e-07,1.1582905379478822e-06,3.3381031408761656e-06,8.628072164428161e-06,1.2720601850758837e-06,8.322714203135432e-07,3.351586976173721e-05,2.1725510694767453e-06,7.490554403875576e-07,1.1678725316389731e-06,1.3136831645845712e-06
215,6.986430723711153e-06,1.5385003741990634e-06,1.3190717691466273e-06,7.176272730753327e-06,8.438039756202793e-07,6.16265787496107e-07,1.1653012317384622e-06,3.5496613929041774e-06,9.46609731403944e-06,1.310159797664617e-06,8.697063272447792e-07,3.35860535766339e-05,2.280947607510047e-06,7.441956819172311e-07,1.1472429218529295e-06,1.3048403288020326e-06
216,6.7052886376984856e-06,1.61644323464822e-06,1.3629019322526946e-06,7.279609285865705e-06,8.214116055537446e-07,6.242987853054943e-07,1.172893327578125e-06,3.7566814300812865e-06,1.0358248817191973e-05,1.346786892337188e-06,9.076677762503551e-07,3.40364448671322e-05,2.3948560914494346e-06,7.414128149961738e-07,1.1254809678561861e-06,1.301150252877068e-06
217,6.4373570294791795e-06,1.6970295917672883e-06,1.405686574102584e-06,7.382461978870707e-06,8.016767643870992e-07,6.313348346216883e-07,1.180677655317581e-06,3.954490745751343e-06,1.1297012974631671e-05,1.3814255354838847e-06,9.454238536878728e-07,3.484221971274339e-05,2.5137112291387475e-06,7.407124709876634e-07,1.1030292033606751e-06,1.3021399644506358e-06
218,6.184993403078531e-06,1.7798408777655685e-06,1.448026990652488e-06,7.4836641993201686e-06,7.847213552556048e-07,6.370779391360757e-07,1.1881990156173265e-06,4.137904274236527e-06,1.2274404398777941e-05,1.4136541325169162e-06,9.82425306066267e-07,3.597170995299399e-05,2.636861857757549e-06,7.420466728471495e-07,1.0802869781101063e-06,1.3072886195602018e-06
219,5.94926274839378e-06,1.8643411818324638e-06,1.490686284708554e-06,7.584208383841673e-06,7.706536610844226e-07,6.415192875626751e-07,1.1950589244071622e-06,4.301751318607434e-06,1.3282586783278768e-05,1.4432231318043107e-06,1.0184112302534737e-06,3.738609658884703e-05,2.763538295760283e-06,7.45330792892872e-07,1.0574989749429998e-06,1.3159746111837294e-06
220,5.7300829326376065e-06,1.9498011778282617e-06,1.5344212611267799e-06,7.686904408646819e-06,7.595242797182273e-07,6.448970252830477e-07,1.2009415211196457e-06,4.441763555742205e-06,1.4314394087004875e-05,1.4701427638246174e-06,1.053398079666348e-06,3.903917524099404e-05,2.892923540803174e-06,7.504341482519191e-07,1.0347117849300847e-06,1.3275295675484784e-06
221,5.526408366722392e-06,2.035316281455325e-06,1.5798392091197342e-06,7.795600542307871e-06,7.512779726384604e-07,6.475442443263679e-07,1.205521894523095e-06,4.555383994133072e-06,1.5363464998823777e-05,1.4946967209985322e-06,1.0875518061705305e-06,4.0877789839861594e-05,3.0243812989206337e-06,7.571640620655374e-07,1.011880546992743e-06,1.341441485031205e-06
222,5.3364227843441e-06,2.119879881737966e-06,1.627363553360229e-06,7.91423596845393e-06,7.457417118436427e-07,6.497651391906785e-07,1.2084242408378327e-06,4.6418999783262035e-06,1.6423762713616388e-05,1.5173221766297358e-06,1.1210382931729095e-06,4.284444334784743e-05,3.157657550148909e-06,7.652681340037006e-07,9.890741267241337e-07,1.3574630565386799e-06
223,5.157774388223454e-06,2.2024213925813157e-06,1.6772695737974367e-06,8.045978056208412e-06,7.426474047829462e-07,6.518205574746382e-07,1.2093396287139331e-06,4.701793226953823e-06,1.7488498493823093e-05,1.5384222152305748e-06,1.1539462796977503e-06,4.488387932949816e-05,3.292935646732055e-06,7.744427175654538e-07,9.666185365826703e-07,1.3754862107104963e-06
224,4.987800822860112e-06,2.281768789237027e-06,1.7297148290935756e-06,8.192610639280698e-06,7.416591870865146e-07,6.539616274372157e-07,1.2082076998831606e-06,4.735787093848816e-06,1.8549512250016217e-05,1.5582297580235864e-06,1.1862777907938013e-06,4.695264018581087e-05,3.4307940762839593e-06,7.843751697619701e-07,9.450463058643003e-07,1.3953574086539447e-06
225,4.8236790900264565e-06,2.35660453504114e-06,1.7847713078314383e-06,8.354293949614619e-06,7.423999938887314e-07,6.564202153145718e-07,1.2053065203242407e-06,4.744240419128857e-06,1.9597621633295002e-05,1.5767428057720564e-06,1.2179739793291498e-06,4.902628190725384e-05,3.572110866136084e-06,7.94849354389752e-07,9.249229501130525e-07,1.416814406808902e-06
226,4.662536320058104e-06,2.4255113974098687e-06,1.8424895318880943e-06,8.52968368774223e-06,7.445133173485019e-07,6.593695835811699e-07,1.2011922955615398e-06,4.727218933444704e-06,2.0622426919673573e-05,1.5937019798075444e-06,1.2489976703107616e-06,5.109868586035248e-05,3.717942634518904e-06,8.05856726037242e-07,9.067354045534065e-07,1.4395452115999777e-06
227,4.501639058888381e-06,2.487088581262515e-06,1.9029652766353593e-06,8.71620500035215e-06,7.47753300854898e-07,6.629057357310773e-07,1.1965350072645516e-06,4.685032121785019e-06,2.16109572813807e-05,1.6086013365955572e-06,1.279428241053682e-06,5.317373141872731e-05,3.8694164589810394e-06,8.176035543635719e-07,8.90886678658966e-07,1.4632547825174822e-06
228,4.338737390786699e-06,2.5399810694742043e-06,1.966357193513621e-06,8.910285340176793e-06,7.520271979743831e-07,6.670364919913366e-07,1.1919393550912264e-06,4.618754935463706e-06,2.254711756744534e-05,1.6207523262119085e-06,1.3094769739233893e-06,5.525667442805223e-05,4.027630015439307e-06,8.303864230782926e-07,8.776931422576246e-07,1.4876358010629535e-06
229,4.1724569246803355e-06,2.5827479889688425e-06,2.032852408001683e-06,9.10752851520876e-06,7.573471887634993e-07,6.716750068910772e-07,1.187821959464725e-06,4.530403158629365e-06,2.341358769316636e-05,1.6294015211102247e-06,1.3394324199064165e-06,5.7353006761048506e-05,4.193507462915004e-06,8.444473871604297e-07,8.673481309286098e-07,1.5123197440319403e-06
230,4.00251038703772e-06,2.613791579584048e-06,2.102642790104312e-06,9.302927187765354e-06,7.637260356483875e-07,6.766801271725795e-07,1.1843635751773667e-06,4.422762761535796e-06,2.4195363247687044e-05,1.633810658559483e-06,1.3695932565335751e-06,5.9474894644826205e-05,4.3675709011269666e-06,8.599057937665164e-07,8.599209095281512e-07,1.5369401754358495e-06
231,3.8296109830459535e-06,2.631594111110742e-06,2.1759743754184884e-06,9.491186919222697e-06,7.71082959293585e-07,6.819300917609272e-07,1.18150735504241e-06,4.29914770521982e-06,2.48824833730975e-05,1.6332796612316175e-06,1.400188931828731e-06,6.164885204204636e-05,4.54967904768949e-06,8.767462577362705e-07,8.55396266114783e-07,1.5612141816029145e-06
232,3.6551415363562026e-06,2.6351320316403538e-06,2.253232178194279e-06,9.667149196603474e-06,7.792114246332247e-07,6.873536413250594e-07,1.178968620296355e-06,4.163338180241553e-06,2.5469988937482353e-05,1.6272450684459498e-06,1.4312957479377435e-06,6.391913602733192e-05,4.738892624003693e-06,8.948178630669925e-07,8.536865168557802e-07,1.5848863636454927e-06
233,3.480687137241125e-06,2.6241542181586886e-06,2.3349301174309566e-06,9.826251744295959e-06,7.878192997824721e-07,6.929186475954071e-07,1.1762775260257996e-06,4.01966357283843e-06,2.5955162418084432e-05,1.6154702051157924e-06,1.4628460153176572e-06,6.634501965141681e-05,4.9335708798916915e-06,9.138379042785549e-07,8.546295549382907e-07,1.6076093402489293e-06
234,3.307590511708398e-06,2.5992292274050743e-06,2.4215360648375034e-06,9.964957582116279e-06,7.966067277045482e-07,6.986348847337161e-07,1.1728992503052294e-06,3.87299089365929e-06,2.633401829361711e-05,1.5981553027282765e-06,1.4947914736955538e-06,6.899295706679022e-05,5.1315879164180175e-06,9.334056660660331e-07,8.580196909878409e-07,1.6288976191140171e-06
235,3.1367529359340955e-06,2.561652669977471e-06,2.513232187981955e-06,1.0081076249553125e-05,8.053280541448603e-07,7.045498426543193e-07,1.1683871583611726e-06,3.728444109597068e-06,2.6599834893898015e-05,1.5758649278273527e-06,1.5272897291755445e-06,7.192696435350985e-05,5.3304971799503795e-06,9.530130273008491e-07,8.636243010887822e-07,1.648169635934463e-06
236,2.9687508050265066e-06,2.5132761689315724e-06,2.6097743916652503e-06,1.017389527722776e-05,8.138147552902979e-07,7.107275529239403e-07,1.16245553255828e-06,3.5909480410141873e-06,2.674502506068973e-05,1.5493534562540087e-06,1.5607250813500704e-06,7.520132620651245e-05,5.5276030602756795e-06,9.720649667849267e-07,8.711687632070789e-07,1.6648981032153746e-06
237,2.8040978114268358e-06,2.4562440819071473e-06,2.7104972435322043e-06,1.0244011326199068e-05,8.219725746948843e-07,7.172658393184204e-07,1.1549317983569114e-06,3.464933150628208e-06,2.676441974668623e-05,1.5194004460014513e-06,1.5955471165339266e-06,7.88577353933411e-05,5.719897920894357e-06,9.899554298060012e-07,8.803712655612588e-07,1.6788428536682474e-06
238,2.643463531153204e-06,2.3926712270344767e-06,2.8143847157468605e-06,1.0292671219768336e-05,8.297538506069067e-07,7.243333135206718e-07,1.1456712417842139e-06,3.3543891145722187e-06,2.665702542492089e-05,1.4866846507862176e-06,1.6320866203013379e-06,8.292554569568343e-05,5.90383372534091e-06,1.0061437252308293e-06,8.910146830405528e-07,1.6901593755653295e-06
239,2.4877423614359634e-06,2.324428173139241e-06,2.920092130157543e-06,1.0320690397333583e-05,8.37109019326059e-07,7.321584023848035e-07,1.1345438457350743e-06,3.2630702565222486e-06,2.6425552817651853e-05,1.451728181151162e-06,1.6704985791692335e-06,8.742204017060352e-05,6.075230205268406e-06,1.0201281772992144e-06,9.029513326226438e-07,1.6992400003733914e-06
240,2.3379329227358716e-06,2.253148952638194e-06,3.0258836498083278e-06,1.032767301687994e-05,8.4394728850881e-07,7.409696559249671e-07,1.1215075397808635e-06,3.194589949999633e-06,2.6075051992234967e-05,1.4149763498570856e-06,1.7108101352719692e-06,9.235070998726278e-05,6.22969923540291e-06,1.0313791271499521e-06,9.160814812912167e-07,1.706460101737114e-06
241,2.194916810857924e-06,2.1803403177058026e-06,3.1296558545650676e-06,1.0312122181982206e-05,8.501135851506051e-07,7.509373827566516e-07,1.1066783982803555e-06,3.1523371655001652e-06,2.561185189804109e-05,1.3769663769665172e-06,1.7529511028640565e-06,9.76979042678504e-05,6.363339853762643e-06,1.0393567097971268e-06,9.303745079593794e-07,1.712075844244838e-06
242,2.0593050487622776e-06,2.1074268020396237e-06,3.229232538229695e-06,1.0272039550214709e-05,8.553772239930653e-07,7.621487744031669e-07,1.0903216861833776e-06,3.139282484497545e-06,2.5042907089131864e-05,1.3384097386617982e-06,1.7967224871200553e-06,0.00010342985584517929,6.472998775121886e-06,1.043598308559897e-06,9.458490642875566e-07,1.7162775038168087e-06
243,1.931424645878879e-06,2.035721631301295e-06,3.3228062548245482e-06,1.0205416391073966e-05,8.594362622099209e-07,7.746011582461807e-07,1.0727922642469641e-06,3.157793846292683e-06,2.437517084903219e-05,1.300099245527067e-06,1.8417373208636197e-06,0.00010949208146092801,6.555830462358594e-06,1.0438094130992051e-06,9.62491488726408e-07,1.7192776104101576e-06
244,1.8113851402622116e-06,1.9663821270116145e-06,3.4092186964443386e-06,1.0110645864534966e-05,8.619433427206358e-07,7.882067078338384e-07,1.0544973349359501e-06,3.2095504224649077e-06,2.3614633366982635e-05,1.2627484342865419e-06,1.8873856059852095e-06,0.00011581205244448343,6.608761924483268e-06,1.039926695641234e-06,9.80191187915147e-07,1.72137623416924e-06
245,1.6991662496731553e-06,1.9003721492804036e-06,3.4878737025640814e-06,9.987168431861636e-06,8.625808402103911e-07,8.028170426595197e-07,1.0358872640447285e-06,3.295548936093159e-06,2.276517530868902e-05,1.2268968091062171e-06,1.9328844764314385e-06,0.00012230439065110906,6.628777870241363e-06,1.0321320644675316e-06,9.9871171080307e-07,1.7229773846061215e-06
246,1.5947313155977039e-06,1.8384195592862785e-06,3.5583249610124075e-06,9.836350737056223e-06,8.611656757188848e-07,8.182352410162084e-07,1.0174310562467917e-06,3.4161471696864165e-06,2.1828961745600353e-05,1.192900556884077e-06,1.9774206922280988e-06,0.00012887517229228675,6.614134978110388e-06,1.020825628710142e-06,1.0177109155366321e-06,1.7245456728054244e-06
247,1.4981530764980608e-06,1.780958211812268e-06,3.619900305712421e-06,9.662119593601391e-06,8.576968245072304e-07,8.342191411648862e-07,9.995801205770507e-07,3.5710906113461844e-06,2.080996466021799e-05,1.1609894147259205e-06,2.0203068470881866e-06,0.00013542133901358713,6.5655163880987494e-06,1.0065849338907558e-06,1.03681385721948e-06,1.7265468990202003e-06
248,1.4096763928166066e-06,1.7280849246528904e-06,3.6717068797961318e-06,9.470876350758158e-06,8.523262395907705e-07,8.505362535427278e-07,9.827577656082162e-07,3.75947898818444e-06,1.9718508988475767e-05,1.1313602069539371e-06,2.0610510210007366e-06,0.00014182731035603487,6.486051975748159e-06,9.901339867078198e-07,1.0556583316805787e-06,1.7293971858325408e-06
249,1.3296504500450033e-06,1.6795800270956415e-06,3.712905067565701e-06,9.27070835625821e-06,8.453286430574345e-07,8.670389021268491e-07,9.67355023296864e-07,3.979688410790981e-06,1.857274464828536e-05,1.104239797817105e-06,2.099305788207767e-06,0.00014796774896403444,6.380160401267734e-06,9.723173865650878e-07,1.073846634511073e-06,1.7333804284859476e-06
250,1.2583614757232177e-06,1.6350019122522142e-06,3.74289507838616e-06,9.070208845171293e-06,8.371115403547649e-07,8.836566774004845e-07,9.536904972376448e-07,4.229343406314499e-06,1.739601704800022e-05,1.0798895818932801e-06,2.134779655760385e-06,0.000153720884820899,6.252274758404087e-06,9.540325224248594e-07,1.090877430473094e-06,1.7385561315405633e-06
251,1.1959001381118045e-06,1.593844604387729e-06,3.761282960522214e-06,8.877328988940077e-06,8.282117091220557e-07,9.003114256144734e-07,9.419728871650347e-07,4.505395411572765e-06,1.62126719977098e-05,1.0585743131112281e-06,2.167221398914672e-06,0.000158982863624386,6.106389837577041e-06,9.36120853836777e-07,1.1062001848812316e-06,1.7447124309832102e-06
252,1.142165019816798e-06,1.5557397789704686e-06,3.7677420564067715e-06,8.698828652828329e-06,8.192219730102924e-07,9.1685343531311e-07,9.323146383671501e-07,4.8042436777474045e-06,1.5044966420645451e-05,1.0404977465273908e-06,2.1964742623100654e-06,0.00016366789332697084,5.946257644453631e-06,9.192902452089624e-07,1.1194151785703994e-06,1.7513319768123017e-06
253,1.0969336120348997e-06,1.5206219215892369e-06,3.7618999020039186e-06,8.540488309820088e-06,8.106818899430249e-07,9.330402651048077e-07,9.247486091115908e-07,5.1217993730095045e-06,1.3911805725592922e-05,1.0257188449506904e-06,2.222470136194059e-06,0.00016769490206801992,5.775599124265117e-06,9.040915987292473e-07,1.1304698194336e-06,1.7575745380404423e-06
254,1.059875465438246e-06,1.4887267758802583e-06,3.743318208379474e-06,8.407507632216874e-06,8.030021680578014e-07,9.485051109257259e-07,9.191992721473283e-07,5.453460725085239e-06,1.2828602114241233e-05,1.0141073715560025e-06,2.2450811417825716e-06,0.0001709824981884131,5.598079971831567e-06,8.909109268969569e-07,1.1396775576384086e-06,1.7623724993471968e-06
255,1.0305379002028455e-06,1.4604055814487086e-06,3.7116171984876645e-06,8.30450336465785e-06,7.96435734383096e-07,9.62725937962714e-07,9.154467825472071e-07,5.794033725023299e-06,1.1807484239300697e-05,1.0053812501682162e-06,2.263970790685241e-06,0.00017346411576387764,5.417100348848549e-06,8.799603117498427e-07,1.1475655621199539e-06,1.7646753060613246e-06
256,1.0083903763552843e-06,1.4359286903879637e-06,3.66672369114502e-06,8.235098714705465e-06,7.91069812801863e-07,9.750696876611832e-07,9.131208377060703e-07,6.137605897330032e-06,1.0857613636752393e-05,9.99210901314798e-07,2.27858891980289e-06,0.00017510639968750126,5.235519004774793e-06,8.712912293434533e-07,1.1546979817129763e-06,1.7637633203395415e-06
257,9.928725383678221e-07,1.415406891478221e-06,3.609104460884202e-06,8.201493043816947e-06,7.868332383698622e-07,9.849440123920135e-07,9.117041597145088e-07,6.477386264040009e-06,9.985595016883731e-06,9.953132478767294e-07,2.2882217603458005e-06,0.00017591136102935838,5.055435556099421e-06,8.648430293868622e-07,1.1615562667177444e-06,1.759495418490958e-06
258,9.833818259431714e-07,1.3987537567353193e-06,3.5398270931304273e-06,8.204322737499214e-06,7.835267411473248e-07,9.919967559484984e-07,9.105506553167518e-07,6.805790356283354e-06,9.195901298926784e-06,9.934437938307657e-07,2.292048777724926e-06,0.00017590056565909256,4.878175561294806e-06,8.604869640515278e-07,1.1684895284845063e-06,1.7523471984828844e-06
259,9.792649403454954e-07,1.3856431086765796e-06,3.460357669597157e-06,8.24270812340558e-06,7.808666011225061e-07,9.962305251572258e-07,9.089621452862331e-07,7.115152104751296e-06,8.491213044075603e-06,9.933038751888937e-07,2.2893254167898948e-06,0.00017509336943176003,4.704624347780655e-06,8.580275915425798e-07,1.1757338179118299e-06,1.7431802592993704e-06
260,9.798557399053859e-07,1.3755616880819938e-06,3.3721653659625137e-06,8.314281163359681e-06,7.78515880990137e-07,9.979331406386014e-07,9.063119987105404e-07,7.398917897397943e-06,7.872676840751606e-06,9.944721869835449e-07,2.2796830390739836e-06,0.00017349758335734832,4.5358057625409375e-06,8.572024266727511e-07,1.1834412829149946e-06,1.7328714700622938e-06
261,9.845045946929282e-07,1.3679830819437683e-06,3.2764446982226174e-06,8.415408288022315e-06,7.760843252103766e-07,9.974918569404694e-07,9.021538911350873e-07,7.65263309425787e-06,7.340177594946764e-06,9.964267267838585e-07,2.263326777620531e-06,0.0001711194824415591,4.373294706849687e-06,8.577436065918543e-07,1.19165214274205e-06,1.7220339165285799e-06
262,9.925683433881872e-07,1.3625282576585338e-06,3.174184774855522e-06,8.541903647114574e-06,7.731047892513783e-07,9.952707740240027e-07,8.962842152994164e-07,7.874122036443657e-06,6.892648718784363e-06,9.986549377395372e-07,2.2409622897341808e-06,0.00016798065829838008,4.219142539801837e-06,8.594551133889155e-07,1.2002346501671387e-06,1.710935537962542e-06
263,1.0033818526225832e-06,1.3589847432383733e-06,3.066394621167377e-06,8.690048681607131e-06,7.690288766296929e-07,9.916063312887696e-07,8.887711735657139e-07,8.062772396060577e-06,6.528312359688937e-06,1.000792439624132e-06,2.2135098714414803e-06,0.00016412715946590985,4.075411443481788e-06,8.62192374712319e-07,1.208883783664125e-06,1.6995285648323294e-06
264,1.0162252176708276e-06,1.3571871996035783e-06,2.9541920918625593e-06,8.85750412541585e-06,7.632965132058681e-07,9.868083898356682e-07,8.79961511168633e-07,8.218328714993195e-06,6.2447645295778614e-06,1.0026810402758037e-06,2.181789386335051e-06,0.00015962403845422234,3.9437348694542115e-06,8.657699866828149e-07,1.2172039766948162e-06,1.6874840688519101e-06
265,1.03030120015135e-06,1.3568619122036883e-06,2.838733216695297e-06,9.043877651396474e-06,7.554832590090056e-07,9.811015727422742e-07,8.704310808408192e-07,8.33989037226023e-06,6.038968331387492e-06,1.0042864365814752e-06,2.1463338448219723e-06,0.00015453935064512508,3.825185711218544e-06,8.699462003115878e-07,1.224805368229751e-06,1.674276357158377e-06
266,1.044731229188426e-06,1.3575420154741866e-06,2.7211197531441083e-06,9.250905858094054e-06,7.454329407497673e-07,9.745644287664177e-07,8.608492239888019e-07,8.425736141585489e-06,5.907257650596528e-06,1.0055459913044152e-06,2.1073651498330624e-06,0.00014893748523912877,3.720322063384014e-06,8.745171383311081e-07,1.2313757332138105e-06,1.6594057065743397e-06
267,1.0585490524137597e-06,1.3586161638245492e-06,2.602397363381381e-06,9.48233808864184e-06,7.332580446408648e-07,9.671125599893158e-07,8.518176338385585e-07,8.473985157830115e-06,5.845306065446332e-06,1.0062698369284377e-06,2.064846798776271e-06,0.0001428942573522975,3.6292204421539675e-06,8.794078854121443e-07,1.236741598516438e-06,1.642687714388647e-06
268,1.0707066892980086e-06,1.3595226982426352e-06,2.4836538817813577e-06,9.743612961574589e-06,7.192261964102912e-07,9.585180540539006e-07,8.437766000696904e-07,8.483459241902446e-06,5.847968991679826e-06,1.0061449852290828e-06,2.018611284586846e-06,0.00013651671334164828,3.551553090213931e-06,8.846715988789808e-07,1.2408796998350576e-06,1.6244328539394107e-06
269,1.08014540808891e-06,1.3599727237322479e-06,2.3661159211535316e-06,1.0041322206040732e-05,7.036761921560819e-07,9.484873956752143e-07,8.369906435371113e-07,8.454174481011608e-06,5.909110075169444e-06,1.0047923376923215e-06,1.968606598420159e-06,0.0001299450648923951,3.4867681416896235e-06,8.904037643837659e-07,1.2438299385284709e-06,1.605394513486157e-06
270,1.0859079711275505e-06,1.359984766607691e-06,2.2511322347944993e-06,1.0382498361915051e-05,6.870059541627747e-07,9.368114376048614e-07,8.31577898672017e-07,8.387365008529848e-06,6.021535380072322e-06,1.0018352489083698e-06,1.915094160818938e-06,0.00012333531323830834,3.4342178427214936e-06,8.966492892361555e-07,1.245575861282841e-06,1.5865110396937993e-06
271,1.0872309238802277e-06,1.3596903738414552e-06,2.140027706524724e-06,1.0773930296024384e-05,6.696511552721593e-07,9.234687892312989e-07,8.275534036491468e-07,8.285194859508176e-06,6.176970966140569e-06,9.970213422810083e-07,1.8586045565450798e-06,0.00011683693930620042,3.3930961243846526e-06,9.033857803623498e-07,1.2460364274759037e-06,1.5686360262368079e-06
272,1.0836440839387688e-06,1.3591247784552382e-06,2.0339173172018595e-06,1.1221699139244944e-05,6.52050853026214e-07,9.085703083593391e-07,8.248478672812131e-07,8.150327227579816e-06,6.366189377297409e-06,9.903486383038637e-07,1.7997791430794205e-06,0.00011057917969854589,3.362309836548048e-06,9.105900647728504e-07,1.2451761259024548e-06,1.5524075876907457e-06
273,1.0751044167947554e-06,1.3581568693823518e-06,1.9335896006463666e-06,1.1730911435456053e-05,6.346542926146289e-07,8.922532896972163e-07,8.232940417816243e-07,7.98547289405887e-06,6.57952988439316e-06,9.820406376990813e-07,1.739327856655767e-06,0.00010466778436995174,3.3404822974339113e-06,9.182971524021651e-07,1.243054676966869e-06,1.5382085098910297e-06
274,1.0620589809816068e-06,1.3565356394944219e-06,1.8394722893080135e-06,1.2305518411832093e-05,6.179365527070192e-07,8.746562588407438e-07,8.226219711028474e-07,7.792964424698086e-06,6.807666955711915e-06,9.724307260384073e-07,1.6780491949014879e-06,9.918598816055823e-05,3.3261126408469393e-06,9.26567175786689e-07,1.2397523732565492e-06,1.5261597955352275e-06
275,1.045316498636842e-06,1.3540205687267076e-06,1.751640444647434e-06,1.294825466886121e-05,6.023646495035607e-07,8.559341523943746e-07,8.22469678557124e-07,7.5743632883886955e-06,7.042234232981204e-06,9.61943422815049e-07,1.616750242014496e-06,9.419564369148652e-05,3.317806469314214e-06,9.354162173434605e-07,1.235349961906258e-06,1.5162001784365928e-06
276,1.025791875231668e-06,1.350524571767334e-06,1.6698823562621027e-06,1.3660801806031004e-05,5.883374358861895e-07,8.362889332171157e-07,8.223784406728698e-07,7.330300798123681e-06,7.276149051209967e-06,9.511169816901524e-07,1.5561157534838768e-06,8.973842382118365e-05,3.3144835322571886e-06,9.447988320665708e-07,1.230062984275401e-06,1.508243536880019e-06
277,1.004319925153271e-06,1.3461273465186645e-06,1.5938403559400141e-06,1.444406074730088e-05,5.761544255095326e-07,8.160358634096693e-07,8.217939916714979e-07,7.060929185395659e-06,7.5036494865396106e-06,9.40521976124184e-07,1.496663008235907e-06,8.5837596652828e-05,3.315481666191216e-06,9.54626112000064e-07,1.2243605612364555e-06,1.5022689322173548e-06
278,9.8161378462916e-07,1.3409449623469483e-06,1.5231683937521416e-06,1.52980855355327e-05,5.660141128646601e-07,7.956428285969963e-07,8.201168758653603e-07,6.766933788381459e-06,7.719994882959293e-06,9.306270352890299e-07,1.4387891681079687e-06,8.25006295430136e-05,3.3205306013071695e-06,9.647940197398008e-07,1.21889122174561e-06,1.4982950161808916e-06
279,9.582678426611283e-07,1.3350359205689448e-06,1.457591271597767e-06,1.62214305080645e-05,5.580162148795752e-07,7.756804965645407e-07,8.16796922282585e-07,6.450452051855822e-06,7.92079437227677e-06,9.2172902212104e-07,1.3828372002695377e-06,7.972252690626496e-05,3.329597569357365e-06,9.75202973313537e-07,1.2142894945172565e-06,1.4963469506989036e-06
280,9.347351751409124e-07,1.3284601320439209e-06,1.3968394458197343e-06,1.7210582506264672e-05,5.521776291019486e-07,7.567128658761874e-07,8.114420542433345e-07,6.115334503793456e-06,8.101181896331726e-06,9.139739855521843e-07,1.3291412789490893e-06,7.748920681132488e-05,3.34261226654387e-06,9.857542289019272e-07,1.2110560467484086e-06,1.4964176688235552e-06
281,9.113258221409793e-07,1.3213583158009032e-06,1.3405911010262414e-06,1.8260378057333843e-05,5.48468749040507e-07,7.392030480486254e-07,8.03894071365149e-07,5.766738076583119e-06,8.255446734291659e-06,9.07459602255237e-07,1.2780474945248782e-06,7.57801302144858e-05,3.359176303930025e-06,9.96377121590122e-07,1.2095764372929173e-06,1.4983747628762847e-06
282,8.88266066906585e-07,1.3138971655215864e-06,1.2884822677800519e-06,1.9365148619768827e-05,5.468327780124883e-07,7.234705887095218e-07,7.942184070706938e-07,5.410359534872403e-06,8.377646154148114e-06,9.023629875800093e-07,1.2299144944652544e-06,7.456980717820432e-05,3.3784845357147644e-06,1.007090854553435e-06,1.210204947531841e-06,1.5019402401313052e-06
283,8.657747938089875e-07,1.306148627970744e-06,1.2401002242377975e-06,2.0519519893696295e-05,5.471728094227308e-07,7.096876133780717e-07,7.826142656443865e-07,5.051655277681791e-06,8.463016015223287e-06,8.989710869140036e-07,1.1850845782839653e-06,7.382777277777176e-05,3.3995703228960983e-06,1.0180040356334375e-06,1.2133111497847171e-06,1.506846215196688e-06
284,8.440923355508279e-07,1.2980932219066679e-06,1.1949641386052469e-06,2.171820927469617e-05,5.493484040379609e-07,6.979003700601819e-07,7.693072310143497e-07,4.6954053107533265e-06,8.509496355517618e-06,8.975876561507552e-07,1.1438149085311723e-06,7.351668264259811e-05,3.4216611065007815e-06,1.0292363867031378e-06,1.219246945638117e-06,1.5130178845062013e-06
285,8.234705645131562e-07,1.289827077076101e-06,1.1525940300198283e-06,2.2954899273919657e-05,5.532004729133145e-07,6.880574097197418e-07,7.544895858529546e-07,4.3457995641526706e-06,8.518648596119657e-06,8.984452448331607e-07,1.1062239312697817e-06,7.359044787730022e-05,3.444297202275719e-06,1.0408739301791093e-06,1.2282992087945373e-06,1.5205818208371106e-06
286,8.041938359063838e-07,1.2818389716314975e-06,1.1126535141128257e-06,2.422080026618788e-05,5.585651650889466e-07,6.800338753870048e-07,7.38349441613433e-07,4.006834378428388e-06,8.495354452969155e-06,9.017068627096333e-07,1.0723241967888064e-06,7.399524965070892e-05,3.4671007805797997e-06,1.0529979720879275e-06,1.2407043612602798e-06,1.529700896583087e-06
287,7.866520984194783e-07,1.2751212485406561e-06,1.075016246678726e-06,2.5503805549867076e-05,5.652642000787354e-07,6.736606108105754e-07,7.211600659295975e-07,3.6826675770765615e-06,8.446318477632147e-06,9.074895363062597e-07,1.0421029119995019e-06,7.467137086849304e-05,3.489392215793413e-06,1.0656864183150555e-06,1.2566721689408685e-06,1.5403852955351777e-06
288,7.713952708546133e-07,1.2710146112277516e-06,1.0396953930520562e-06,2.6788950505399447e-05,5.731161553453068e-07,6.68739255550237e-07,7.033338148495842e-07,3.3777330402952467e-06,8.378439882544501e-06,9.158402042523665e-07,1.0155385364146392e-06,7.555247656798815e-05,3.509915151865736e-06,1.0789370105882197e-06,1.2763234072272097e-06,1.5524125574324265e-06
289,7.590981188120056e-07,1.2709354696741624e-06,1.0067776845719033e-06,2.806013928315123e-05,5.819735040102991e-07,6.650445431005509e-07,6.853781113536745e-07,3.0965856255159726e-06,8.298077050029344e-06,9.267261557968577e-07,9.925275657279443e-07,7.656665930033657e-05,3.5268205973929203e-06,1.092603593481085e-06,1.2995865731595763e-06,1.565438139379181e-06
290,7.504534992199468e-07,1.2762011028356418e-06,9.76432737914054e-07,2.9302243838198586e-05,5.91724012478996e-07,6.623693727605235e-07,6.677883174872624e-07,2.843595242737277e-06,8.210938377846583e-06,9.401035631363279e-07,9.72813220202597e-07,7.764451824048987e-05,3.5379275409966884e-06,1.1064455177772901e-06,1.3261840163462842e-06,1.5792713425837896e-06
291,7.460686787499457e-07,1.2879796330008279e-06,9.488773319920828e-07,3.0502415842765316e-05,6.022378270752362e-07,6.606022840462429e-07,6.50967593181919e-07,2.6226743125724624e-06,8.121879387516982e-06,9.559721737407642e-07,9.559996667453122e-07,7.872923953856956e-05,3.5410738462566824e-06,1.1202766408592887e-06,1.3557374004994114e-06,1.594105382105238e-06
292,7.46418455235092e-07,1.3072559114474545e-06,9.242784409224311e-07,3.1650027006267635e-05,6.133263072096838e-07,6.597384654556774e-07,6.352264675853521e-07,2.4371505008629336e-06,8.034656833175586e-06,9.743146755713097e-07,9.416358155891868e-07,7.977855359055658e-05,3.534283423619865e-06,1.1340712344409157e-06,1.3878777543791096e-06,1.6104809196666704e-06
293,7.51848876084771e-07,1.334784233353963e-06,9.026950434199478e-07,3.273558468572382e-05,6.247510550386764e-07,6.597948220887225e-07,6.208268523520675e-07,2.2897775290649625e-06,7.952040403966486e-06,9.949929466653186e-07,9.292764973336154e-07,8.075765451365943e-05,3.5156570432019146e-06,1.1479079690881432e-06,1.4222278602929836e-06,1.6290351776348014e-06
294,7.625920323830451e-07,1.3710635496958076e-06,8.840837245209614e-07,3.374952554470918e-05,6.362429556488153e-07,6.60724229917386e-07,6.080002419337526e-07,2.1828142568033973e-06,7.876272007695074e-06,1.017741587471917e-06,9.18479715140755e-07,8.163552099375985e-05,3.4831505326610636e-06,1.161827556202556e-06,1.4582933783113845e-06,1.6502932292085048e-06
295,7.787926180570585e-07,1.4163353776824828e-06,8.68367249828781e-07,3.468164870120931e-05,6.47531944232924e-07,6.62406548888347e-07,5.969193538023763e-07,2.118122738803008e-06,7.809537054179644e-06,1.042266549425494e-06,9.088303853433479e-07,8.239148483638296e-05,3.434617821805489e-06,1.1757298770868415e-06,1.4954504705930027e-06,1.6746248872250643e-06
296,8.00563108669108e-07,1.4706028700331385e-06,8.55525303187281e-07,3.552141582167075e-05,6.584327429180023e-07,6.646795526785948e-07,5.876556804550351e-07,2.0972630155217715e-06,7.754224122024478e-06,1.0683249486126495e-06,9.000166070840073e-07,8.3020189484794e-05,3.3683707796217465e-06,1.1893348049924095e-06,1.5330782202698143e-06,1.7022424887613009e-06
297,8.280135049757978e-07,1.5336735750176668e-06,8.456018562745508e-07,3.625886449702456e-05,6.689249568490296e-07,6.673603821411952e-07,5.801554403277124e-07,2.1215316604537827e-06,7.71300930040515e-06,1.0957376246186157e-06,8.918365128691969e-07,8.35250061333867e-05,3.2839497803287205e-06,1.202234355725974e-06,1.5706560435447357e-06,1.7331340447923547e-06
298,8.612041830317711e-07,1.6051832333939884e-06,8.386215212884918e-07,3.6885444467936634e-05,6.791160092651145e-07,6.702796798733116e-07,5.742398872775464e-07,2.1919101861127664e-06,7.68877512324099e-06,1.124378615092797e-06,8.841491834019415e-07,8.390697366359336e-05,3.1824672383299045e-06,1.2140148937002534e-06,1.6077154369424628e-06,1.7670270224887712e-06
299,9.000748721832112e-07,1.6845666065187875e-06,8.345267781798727e-07,3.7393643252740515e-05,6.891157097416515e-07,6.733258557658651e-07,5.696257237752935e-07,2.3090137440232813e-06,7.684225938742236e-06,1.1541106030799255e-06,8.769091766478745e-07,8.415957845306714e-05,3.0662097410228348e-06,1.22432500369461e-06,1.643728486602325e-06,1.803466650707206e-06
300,9.444321863208937e-07,1.7710396018739888e-06,8.331840778338234e-07,3.777472057171903e-05,6.989469265457433e-07,6.764410797779336e-07,5.659722305576352e-07,2.4731355124857045e-06,7.70134539125433e-06,1.184671650978419e-06,8.702503410312707e-07,8.427008471295198e-05,2.9378717939161143e-06,1.2328611921522452e-06,1.678034723254514e-06,1.8419183358308887e-06
301,9.940117812765003e-07,1.8636358429436991e-06,8.343960317219632e-07,3.8015932754773316e-05,7.085379238765897e-07,6.795606683120443e-07,5.629576888672545e-07,2.6843107173737386e-06,7.74107853580866e-06,1.215639137893975e-06,8.644768616190061e-07,8.422073493061471e-05,2.80009238098344e-06,1.2393576194004639e-06,1.709870870692996e-06,1.8817743225663114e-06
302,1.0485555541818446e-06,1.9612127898781886e-06,8.378915777529171e-07,3.810009624792279e-05,7.177622538076666e-07,6.825402278444175e-07,5.603592849429119e-07,2.9422744777216727e-06,7.803194341837515e-06,1.246491430768235e-06,8.599738956009392e-07,8.398631138322394e-05,2.655472238765526e-06,1.2436137454130887e-06,1.7384998251721479e-06,1.922306708300651e-06
303,1.1078187736005538e-06,2.062430647214807e-06,8.433530395349252e-07,3.800860232812414e-05,7.264928701621998e-07,6.851145053175151e-07,5.580889488989216e-07,3.2463529212596683e-06,7.886042754662253e-06,1.2766597388530001e-06,8.571425058648565e-07,8.353520826526305e-05,2.5067165032424648e-06,1.245501660600208e-06,1.763328120227014e-06,1.962714251872412e-06
304,1.1714993209853562e-06,2.1658491469933438e-06,8.505066443241898e-07,3.7726198605084104e-05,7.346316970046841e-07,6.869368105587483e-07,5.561520290470417e-07,3.595446545646895e-06,7.986301631586202e-06,1.3055402255198474e-06,8.563543321743355e-07,8.284210784587414e-05,2.3566194005228612e-06,1.2449152571009692e-06,1.7839368926765053e-06,2.0022580548490387e-06
305,1.23917530102066e-06,2.2701629201755375e-06,8.592008875039778e-07,3.724537746826663e-05,7.421111015269899e-07,6.877081785806862e-07,5.545622484629267e-07,3.9881594344939195e-06,8.098980599380182e-06,1.332528685043657e-06,8.578999070841716e-07,8.190595562726681e-05,2.2079025273552495e-06,1.2417438730114336e-06,1.8000596321722973e-06,2.0403011992793226e-06
306,1.31031673633595e-06,2.3744434214220883e-06,8.693871359121953e-07,3.6569328518358176e-05,7.4890738647527e-07,6.873170675531532e-07,5.532857438752611e-07,4.422976048097291e-06,8.217629794863172e-06,1.3571318490614145e-06,8.619743181440826e-07,8.075745241824286e-05,2.0630345860403182e-06,1.2359000052155415e-06,1.8115853871542322e-06,2.0761792355743996e-06
307,1.3843583318729784e-06,2.4782706571323034e-06,8.81018392111624e-07,3.571321544409324e-05,7.550402759879972e-07,6.858920806479772e-07,5.522357053881332e-07,4.898397021701792e-06,8.334588897957668e-06,1.3791219949759848e-06,8.687044100968958e-07,7.94490444075741e-05,1.9241119772986952e-06,1.2272880990885097e-06,1.8186345734051907e-06,2.1090855625622403e-06
308,1.4607951724595964e-06,2.5816887616451164e-06,8.939671736666223e-07,3.4703800478369295e-05,7.605271356088857e-07,6.837420778388063e-07,5.513142237256014e-07,5.412995309089492e-06,8.441697058899182e-06,1.398588045567534e-06,8.781862374076359e-07,7.803643112406102e-05,1.792809402469255e-06,1.215737648146679e-06,1.8216472707752063e-06,2.138131374447063e-06
309,1.5392687941025684e-06,2.6849790630208646e-06,9.08037202578001e-07,3.357752536975649e-05,7.653386860651801e-07,6.812314145389051e-07,5.505113522232628e-07,5.965335943396122e-06,8.531943387411745e-06,1.4157962212044566e-06,8.905127771566509e-07,7.656611510894107e-05,1.6704031346097573e-06,1.2010643037255384e-06,1.8213663480359328e-06,2.16249849836149e-06
310,1.6195955825052975e-06,2.7883701150123633e-06,9.230495903143351e-07,3.237729601268016e-05,7.693823370765589e-07,6.786685487211644e-07,5.500007231405585e-07,6.553731143261917e-06,8.60113497059225e-06,1.4309676831987403e-06,9.057574787203293e-07,7.507472053164306e-05,1.5578506432470337e-06,1.183242332818932e-06,1.8186642438337126e-06,2.1815701715025827e-06
311,1.701702324513579e-06,2.8918909256611827e-06,9.389398115209172e-07,3.1148366148325405e-05,7.725266218684637e-07,6.762798188091256e-07,5.50128510754414e-07,7.175895144727144e-06,8.647971940258821e-06,1.4441241683297604e-06,9.239058794177367e-07,7.35960961617456e-05,1.4558574594744107e-06,1.1624839242891343e-06,1.8142943185270034e-06,2.195015137224644e-06
312,1.7855072059833825e-06,2.9954462353623114e-06,9.558135594326356e-07,2.993415614035805e-05,7.746755260177645e-07,6.74286799532992e-07,5.513054848508592e-07,7.828609516799088e-06,8.672439413581658e-06,1.455059292127255e-06,9.447848449098524e-07,7.216946407386787e-05,1.3648756174699576e-06,1.1391403982413813e-06,1.8087198241286047e-06,2.20274878231745e-06
313,1.8708267444287238e-06,3.0989201234505863e-06,9.739117922997183e-07,2.8773510973244674e-05,7.758101264717747e-07,6.73009801063416e-07,5.539051930004893e-07,8.507484250388015e-06,8.674039369730165e-06,1.4634011341023744e-06,9.680400389746089e-07,7.084243158073848e-05,1.2850650486186128e-06,1.1135858228902774e-06,1.8020728778773348e-06,2.204733409789765e-06
314,1.957329234354831e-06,3.202082480267487e-06,9.934871886701612e-07,2.77001533917027e-05,7.759527607096049e-07,6.728827107931896e-07,5.582135060791989e-07,9.206840286514935e-06,8.651169387054856e-06,1.4686622992854606e-06,9.93172691249238e-07,6.966628305192023e-05,1.216295173912827e-06,1.0861957784229795e-06,1.7941752686887369e-06,2.200839981018253e-06
315,2.0444829251491048e-06,3.3043938135637504e-06,1.0146891368209574e-06,2.6743237033394643e-05,7.751510957796474e-07,6.743619161938872e-07,5.644074087736113e-07,9.91967181323938e-06,8.60151458220966e-06,1.4702394196007142e-06,1.0196073549037369e-06,6.868703189331881e-05,1.158202819093785e-06,1.057340718622307e-06,1.7845877031902173e-06,2.190974043603724e-06
316,2.1314878305318752e-06,3.4049284707546987e-06,1.0375280976321174e-06,2.5927717500375802e-05,7.735330128637933e-07,6.778200740783376e-07,5.725562099220698e-07,1.0637614411921629e-05,8.522515769009413e-06,1.4674932280170225e-06,1.046735211256631e-06,6.793840306663833e-05,1.1102494654291414e-06,1.0273668425807676e-06,1.7727019487978579e-06,2.1753101255856648e-06
317,2.217243558840312e-06,3.502383397289404e-06,1.0618973256394227e-06,2.52743956640914e-05,7.7135413848579e-07,6.83494354940416e-07,5.826509247923013e-07,1.1350864113349156e-05,8.411865760029136e-06,1.4600031967384748e-06,1.0739230509355208e-06,6.744027800120648e-05,1.0717497493746513e-06,9.965912881669801e-07,1.7578535688470724e-06,2.1544036156576535e-06
318,2.300333909732478e-06,3.59506873630503e-06,1.0876162124704727e-06,2.4799812679700676e-05,7.689779382689065e-07,6.914805650463783e-07,5.946445691192367e-07,1.2047988579610259e-05,8.26863131114834e-06,1.447833011265208e-06,1.1005656079980553e-06,6.720193086035484e-05,1.0418933155084416e-06,9.652761416945916e-07,1.7394243766370742e-06,2.129114888324302e-06
319,2.378959404384208e-06,3.680937392926346e-06,1.114454335219213e-06,2.4515908889714113e-05,7.668042750407629e-07,7.017411699904249e-07,6.084749658975968e-07,1.2715640649952314e-05,8.094346613566888e-06,1.4315702895918593e-06,1.1262200444813229e-06,6.722704224053704e-05,1.0197430662025837e-06,9.336029439092417e-07,1.716953422597221e-06,2.1003904701287877e-06
320,2.450879426437885e-06,3.7577218753106217e-06,1.1421154984375877e-06,2.4429445308448254e-05,7.651857806334486e-07,7.141163679264853e-07,6.240577083847201e-07,1.3338601546665148e-05,7.892868987048667e-06,1.412134647848654e-06,1.1507585246683162e-06,6.751752144749973e-05,1.0041962521359264e-06,9.017059516546772e-07,1.690271002359972e-06,2.0691175377271704e-06
321,2.513515569297455e-06,3.823177900310057e-06,1.1702224214317619e-06,2.4541491434535855e-05,7.643718838070887e-07,7.28356323748281e-07,6.412636640496851e-07,1.3900901466112819e-05,7.669277097697587e-06,1.3905304323151263e-06,1.1744566891720303e-06,6.80743864903507e-05,9.939914411978081e-07,8.697399644483816e-07,1.6595854536462428e-06,2.0362279049069373e-06
322,2.5642688500747075e-06,3.87541818317525e-06,1.198314387294403e-06,2.4847187144485097e-05,7.644947559279689e-07,7.441830844290096e-07,6.599048093261608e-07,1.4388139829337047e-05,7.428929810633876e-06,1.3676761636077735e-06,1.197943737233445e-06,6.889526453590628e-05,9.87811049138729e-07,8.379320607314241e-07,1.6254530918446243e-06,2.0028455091754946e-06
323,2.600966282546752e-06,3.913273769827831e-06,1.2258590995202908e-06,2.533564810487411e-05,7.655720252559458e-07,7.61329720780621e-07,6.79740837845691e-07,1.4790013906694299e-05,7.177044868503237e-06,1.3443357174437405e-06,1.2220275490438068e-06,6.997082078897153e-05,9.843828164037558e-07,8.065939893491559e-07,1.5886728276732888e-06,1.970189181609856e-06
324,2.6222887272509345e-06,3.9365689966777715e-06,1.252325609467947e-06,2.5989916478215643e-05,7.675174947123749e-07,7.795127199061442e-07,7.005127720585525e-07,1.5101729106085658e-05,6.918505183206822e-06,1.3211348748158276e-06,1.2475297937220828e-06,7.12861705869006e-05,9.8251174728161e-07,7.760826830047531e-07,1.550175749569381e-06,1.9393145326646888e-06
325,2.6280340753404544e-06,3.946211515761379e-06,1.2772953333316635e-06,2.678711154816309e-05,7.701761379761991e-07,7.983973599624888e-07,7.219953021259877e-07,1.5323601109559967e-05,6.657707792747002e-06,1.2986357918848069e-06,1.2751910446360688e-06,7.282995496725248e-05,9.811150395166177e-07,7.467240144049417e-07,1.5109125664708617e-06,1.9109827834553585e-06
326,2.619109146711216e-06,3.944044971474015e-06,1.3005383814248909e-06,2.7699050711352452e-05,7.733543886461876e-07,8.176079081379772e-07,7.440249204560111e-07,1.545898692188005e-05,6.398488525018494e-06,1.2774016391696935e-06,1.3056197733609335e-06,7.460336697749312e-05,9.792950141885625e-07,7.187575168525966e-07,1.4717265200244978e-06,1.8857254011487787e-06
327,2.5972132474767734e-06,3.9324840602791366e-06,1.3220626908934779e-06,2.869342821876159e-05,7.767997822161407e-07,8.367386754641977e-07,7.664688447127762e-07,1.5511539226805756e-05,6.144124766230493e-06,1.2579996909025763e-06,1.3393138882739385e-06,7.661930251790136e-05,9.763510965273095e-07,6.923594534827851e-07,1.4332549021936188e-06,1.8639355162990555e-06
328,2.5643162917041724e-06,3.914049167746407e-06,1.342147231988546e-06,2.973519558684089e-05,7.801606287761907e-07,8.553695253819242e-07,7.891607453258515e-07,1.5483539026532113e-05,5.897296620909581e-06,1.240969432645234e-06,1.3767337955254685e-06,7.889248717654402e-05,9.71687112131551e-07,6.677070306450737e-07,1.3959184805079423e-06,1.8459264172917906e-06
329,2.5221825726836433e-06,3.8909418722258805e-06,1.361283840438015e-06,3.078779403126885e-05,7.83001122370626e-07,8.731060378490737e-07,8.118539810855407e-07,1.5376314457054667e-05,5.659908895472299e-06,1.226793539668117e-06,1.4183142148209877e-06,8.143123219335192e-05,9.647782188830598e-07,6.449961808360419e-07,1.3599701653338404e-06,1.8320122233318696e-06
330,2.4721529159205645e-06,3.864761328791792e-06,1.3799909134872283e-06,3.1814596709710205e-05,7.848958112624327e-07,8.895607988439473e-07,8.342301782906384e-07,1.5191929265549512e-05,5.432868162577433e-06,1.2158886286927147e-06,1.4643954194456521e-06,8.423820770417362e-05,9.553353521314357e-07,6.244315376330857e-07,1.3255167471890014e-06,1.8225132907964859e-06
