,EMG1,EMG2,EMG3,EMG4,EMG5,EMG6,EMG7,EMG8,EMG9,EMG10,EMG11,EMG12,EMG13,EMG14,EMG15,EMG16
0,4.7178876652697963e-07,1.1061534504864446e-07,3.483299116638259e-07,2.098095034948703e-06,1.6833320494685613e-07,6.089115251809351e-08,2.716360085744756e-07,1.8201570873121737e-07,1.0222827073674494e-06,1.5583078954539982e-07,3.1793940956988374e-07,8.701931083746467e-07,4.0954159361353906e-07,3.190547223925752e-07,8.740841606288345e-08,2.4041770372137525e-07
1,5.047564654612433e-07,1.627358769892581e-07,4.0190486091470407e-07,2.923812548990283e-06,2.445883307445415e-07,1.9924318637887338e-07,3.7160829554690444e-07,5.749994966402235e-07,1.302791139569624e-06,2.668353701672963e-07,4.527083756134347e-07,2.0491586305575877e-06,4.74604958380711e-07,3.634106273361078e-07,2.022505349464777e-07,3.356032155744056e-07
2,5.398368284893797e-07,2.1452127199824826e-07,4.595252547305051e-07,3.7541601676080536e-06,3.2084418156273066e-07,3.316598299738853e-07,4.695215426303101e-07,9.528397190634576e-07,1.5902470318467027e-06,3.7736825469292236e-07,5.858810443922586e-07,3.240779370139828e-06,5.422252187928343e-07,4.0891558621893357e-07,3.1515390130468286e-07,4.297306670093795e-07
3,5.767523744607791e-07,2.652537004864996e-07,5.210909095764722e-07,4.58391154234384e-06,3.9504273220734994e-07,4.568385177631496e-07,5.631128178199324e-07,1.3097718959575e-06,1.8807802644684836e-06,4.856258306748999e-07,7.166795792400506e-07,4.43133451167116e-06,6.11073711393772e-07,4.5510845667003976e-07,4.252463644907011e-07,5.214160014782265e-07
4,6.153444016808715e-07,3.145282175011907e-07,5.864575710974871e-07,5.407680840837183e-06,4.654996737602314e-07,5.734939402621379e-07,6.506210399342889e-07,1.640519248651223e-06,2.170468800330155e-06,5.90029897255485e-07,8.444850703195498e-07,5.61129322743161e-06,6.799990391849795e-07,5.01528352513955e-07,5.317644325847546e-07,6.095477929705042e-07
5,6.555406485057738e-07,3.6222323509017535e-07,6.554084866243971e-07,6.219924306935944e-06,5.311323359822061e-07,6.803383947897142e-07,7.309101302873009e-07,1.9406293991636744e-06,2.4554395022369017e-06,6.891504399250204e-07,9.687431850394834e-07,6.775170902136813e-06,7.48170883376924e-07,5.477025173070782e-07,6.341533300788391e-07,6.934407293707086e-07
6,6.972746040715185e-07,4.0835590477139063e-07,7.276278788924367e-07,7.014867663559716e-06,5.915618498454896e-07,7.761447589349996e-07,8.034610721811432e-07,2.206729041560154e-06,2.7321200961112333e-06,7.817216167063657e-07,1.088893956133786e-06,7.920313671638865e-06,8.151459649052191e-07,5.931334289496632e-07,7.320618438439073e-07,7.728065337235342e-07
7,7.404162073548079e-07,4.529466426548688e-07,8.026873180940334e-07,7.786382610153192e-06,6.470031535751199e-07,8.599293649119891e-07,8.682638560380621e-07,2.436645424508236e-06,2.9976122198821355e-06,8.668108030078371e-07,1.20439197951809e-06,9.046567585080177e-06,8.80794536966259e-07,6.373010474978785e-07,8.252322571746223e-07,8.475928823148706e-07
8,7.847465852925374e-07,4.959729267269443e-07,8.800453738689712e-07,8.527724458813716e-06,6.979952543107555e-07,9.311599149152095e-07,9.256467778873256e-07,2.6293716325750314e-06,3.2499186422830764e-06,9.439799480192903e-07,1.3148327395407011e-06,1.0157074029155166e-05,9.451521473420115e-07,6.79707093699104e-07,9.133826170122042e-07,9.179115024261096e-07
9,8.29969337738378e-07,5.373933160539917e-07,9.590556837771202e-07,9.231210746176793e-06,7.451328434028518e-07,9.898512499485972e-07,9.760999442028731e-07,2.784902314083389e-06,3.487757887018404e-06,1.0132531070410984e-06,1.4200988403322813e-06,1.1258433567579259e-05,1.0083091039165077e-06,7.199372489444809e-07,9.961741715700867e-07,9.840567414052173e-07
10,8.757352345666532e-07,5.771802996377672e-07,1.03896492637155e-06,9.888413339145354e-06,7.889160731006025e-07,1.0365283557797908e-06,1.0201545065666256e-06,2.9040583762646695e-06,3.710029492209089e-06,1.074906361325349e-06,1.5204004161471511e-06,1.2359489319544208e-05,1.0703374627869085e-06,7.576557967437262e-07,1.0732984275655108e-06,1.046480212470732e-06
11,9.2167844475898e-07,6.153218479061965e-07,1.118898585806504e-06,1.0491274877972997e-05,8.297110533850244e-07,1.0721128980302927e-06,1.058322070266807e-06,2.9883897231033725e-06,3.915328416972509e-06,1.129253743622237e-06,1.6161752813219571e-06,1.3469655747081687e-05,1.1312329167102355e-06,7.925276784410438e-07,1.1445944606766186e-06,1.105710212718175e-06
12,9.675028971284632e-07,6.518001139211827e-07,1.1978443990158728e-06,1.1033612387867076e-05,8.677705753435147e-07,1.0977694332004292e-06,1.0910480421104076e-06,3.0401385939737834e-06,4.1018517296976665e-06,1.176561363709509e-06,1.7079106564000408e-06,1.4597644900001202e-05,1.1908873276036348e-06,8.241594686763638e-07,1.2100600314068433e-06,1.1622559808509037e-06
13,1.0131028177764595e-06,6.865687378161481e-07,1.2746533853219776e-06,1.1512067923524638e-05,9.032862017157235e-07,1.1147335696909523e-06,1.1186529654370818e-06,3.0622279102582187e-06,4.267675311678775e-06,1.2170698546129036e-06,1.795999071192454e-06,1.57506839111119e-05,1.249060457311637e-06,8.520991925492772e-07,1.2697505320982226e-06,1.2165210651661836e-06
14,1.0586153300009557e-06,7.195267956593867e-07,1.3480643674506612e-06,1.1925996918650635e-05,9.364295494497291e-07,1.1241842071331766e-06,1.141296856446386e-06,3.058236714056351e-06,4.411137302856779e-06,1.2510128149314543e-06,1.880684936754285e-06,1.6934048983167688e-05,1.305348086803589e-06,8.759108602853849e-07,1.3236985304840972e-06,1.2687945485151986e-06
15,1.1043434789600076e-06,7.505008647993203e-07,1.4167202232952822e-06,1.2276288272335936e-05,9.673330553496592e-07,1.127215307199756e-06,1.1590275544223086e-06,3.0322714746332666e-06,4.531079789559639e-06,1.2785679039592102e-06,1.962028729614794e-06,1.8150828359671988e-05,1.3592169215426687e-06,8.953322995888769e-07,1.3719621838923343e-06,1.3193523931795407e-06
16,1.1505976677456579e-06,7.792641242931847e-07,1.4792544823392236e-06,1.2563658219061153e-05,9.960229145331318e-07,1.1248487540980441e-06,1.171914688271592e-06,2.9886863580988205e-06,4.62679060272579e-06,1.2997965018705853e-06,2.039829696147352e-06,1.9401816443111624e-05,1.4101288141264766e-06,9.103954199074662e-07,1.4147604181769602e-06,1.3685599870987822e-06
17,1.197569622802003e-06,8.055773088377193e-07,1.5345681424997244e-06,1.2787534879094978e-05,1.0223679942650011e-06,1.1179996875704629e-06,1.1801891454337517e-06,2.931742863005809e-06,4.6976434927024075e-06,1.3146796454159947e-06,2.1135577657512767e-06,2.0685314616640743e-05,1.4576797840274409e-06,9.213698237753496e-07,1.4525356834815639e-06,1.4168677100043801e-06
18,1.2453123400424267e-06,8.292211181498169e-07,1.5821527065419165e-06,1.2946338453023636e-05,1.0460828533556217e-06,1.1074364940207987e-06,1.1843136061016895e-06,2.865331188549826e-06,4.74274638472097e-06,1.3232676363946805e-06,2.182347284404204e-06,2.1996707051361098e-05,1.5016540914852027e-06,9.285888231249542e-07,1.4858448914452373e-06,1.4647338939459011e-06
19,1.2937687027417738e-06,8.500526890985364e-07,1.6221879058571999e-06,1.3038772671003578e-05,1.0667947990630641e-06,1.0938121786402554e-06,1.1849793636811908e-06,2.7928066435717996e-06,4.761009963450794e-06,1.3258339478005843e-06,2.245075640601853e-06,2.3327934317531958e-05,1.541967973054112e-06,9.323160520374893e-07,1.5151824621343032e-06,1.512560348157758e-06
20,1.342760454116857e-06,8.681232648487489e-07,1.6553585249041172e-06,1.3065183562937899e-05,1.0841771245031255e-06,1.077713669489213e-06,1.1830624754172417e-06,2.716952603113408e-06,4.75161031538575e-06,1.3229178661540866e-06,2.300544997312834e-06,2.466699963983586e-05,1.5785825588265484e-06,9.327294118036461e-07,1.540894044900445e-06,1.5606720403502722e-06
21,1.3919897199418677e-06,8.837845652121096e-07,1.6825318118892193e-06,1.3028455207499087e-05,1.0980944728513342e-06,1.0596510297508756e-06,1.1795570643990141e-06,2.6400402866490885e-06,4.714413043392491e-06,1.3152466875368727e-06,2.347697579259217e-06,2.599784431533055e-05,1.6114683072978533e-06,9.300213298894325e-07,1.563169675471743e-06,1.6093235721292296e-06
22,1.4411185148758156e-06,8.976569592995899e-07,1.7044599035000064e-06,1.2934322883019878e-05,1.1086439007173696e-06,1.0400451425688301e-06,1.1754787775032174e-06,2.5639156744911e-06,4.650100079343798e-06,1.3036026789262336e-06,2.385721263509808e-06,2.7301632721294627e-05,1.6405897074937563e-06,9.245401201156795e-07,1.5820287967967068e-06,1.6586914980240589e-06
23,1.489818892166025e-06,9.104614512246926e-07,1.7216214041850078e-06,1.279111565420254e-05,1.1160473174812939e-06,1.019290139717426e-06,1.171756107831518e-06,2.490077202009558e-06,4.560091872914593e-06,1.2887011403634889e-06,2.4140152502171675e-06,2.8559971544063474e-05,1.6658378559621606e-06,9.168390789961357e-07,1.597293148495483e-06,1.7088121391812453e-06
24,1.5377039237420388e-06,9.228559615940144e-07,1.7342238578273001e-06,1.2609049579480821e-05,1.1205198160739985e-06,9.978293736662384e-07,1.1691678854057934e-06,2.4197434589883606e-06,4.44635848664031e-06,1.2711463210617351e-06,2.4321457358399407e-06,2.975859748118005e-05,1.6869627684394927e-06,9.075908385241702e-07,1.6085976272124974e-06,1.7594769932517764e-06
25,1.5842369364626993e-06,9.35353425562005e-07,1.7422991230940062e-06,1.2399276635413977e-05,1.1222328419252046e-06,9.761725564610153e-07,1.1683362055736817e-06,2.3538941166182856e-06,4.311075509790017e-06,1.2514803927924212e-06,2.4398897952322777e-06,3.0889590754918835e-05,1.7036167046089592e-06,8.974792971438164e-07,1.615500257842225e-06,1.8101571695975894e-06
26,1.6287426594787236e-06,9.482812574323597e-07,1.7458350178394337e-06,1.2172861968238453e-05,1.1213094594079396e-06,9.54878675778259e-07,1.169730240684126e-06,2.2932637271495085e-06,4.156303987489646e-06,1.2302367343572045e-06,2.43731669923093e-06,3.195175978099302e-05,1.715487565797785e-06,8.871551024854879e-07,1.6177077439353937e-06,1.8600157444953956e-06
27,1.6705226886614113e-06,9.617582868810919e-07,1.7449434833039922e-06,1.1939787633331276e-05,1.1177734664368649e-06,9.345196088478073e-07,1.1736792904277945e-06,2.2382886990154207e-06,3.984077575849912e-06,1.2079239389421549e-06,2.4248135800100223e-06,3.294990822298303e-05,1.7224107187961387e-06,8.772192658846322e-07,1.615324247285416e-06,1.9080179919988623e-06
28,1.7089654218349594e-06,9.75718907511744e-07,1.7400381384159058e-06,1.1708128537125537e-05,1.1115208304509542e-06,9.156083604135146e-07,1.1803927433153817e-06,2.189063108939726e-06,3.7968644033886252e-06,1.1849990554574227e-06,2.4030044879735754e-06,3.389329034279069e-05,1.7244082286839191e-06,8.682038195819624e-07,1.6089939842217828e-06,1.95308827434201e-06
29,1.7435294079332407e-06,9.900144054812067e-07,1.7319229441752546e-06,1.1483690966459542e-05,1.1023999646666671e-06,8.985289164989382e-07,1.1899569178428066e-06,2.1454238699681014e-06,3.5979161705368426e-06,1.161898537762402e-06,2.3725521918599814e-06,3.4792877445316e-05,1.7216679684964253e-06,8.605629073728397e-07,1.5998426673600678e-06,1.994221764514746e-06
30,1.7736344079373464e-06,1.0045711922081344e-06,1.7217150658828e-06,1.127026532614627e-05,1.0903684260360779e-06,8.835093380358525e-07,1.2023374455504252e-06,2.107183884924101e-06,3.3911776540352136e-06,1.1390566109571743e-06,2.333965325229173e-06,3.5658151404833986e-05,1.714497567341734e-06,8.546625919829329e-07,1.5892016406799343e-06,2.030488260832616e-06
31,1.7986170129948416e-06,1.0195105725917401e-06,1.7106353333651416e-06,1.10701671378578e-05,1.0756068869126546e-06,8.706290612199758e-07,1.2174064420650928e-06,2.0743188989346678e-06,3.180846958916685e-06,1.11683762033492e-06,2.2876175986647646e-06,3.649630535549973e-05,1.7032993577227052e-06,8.507476436911695e-07,1.5782750943734984e-06,2.06093680543133e-06
32,1.8177876309219289e-06,1.0351552518190978e-06,1.6997882966384895e-06,1.0884589148495996e-05,1.0585031889795263e-06,8.598661627673735e-07,1.23496047777782e-06,2.046939503731071e-06,2.9709030277522253e-06,1.0954621636831022e-06,2.2339449680408126e-06,3.7314683375855086e-05,1.6885527447145453e-06,8.489145472920866e-07,1.567955751325016e-06,2.0845282081673622e-06
33,1.8305117824824383e-06,1.051967563034981e-06,1.6900495714316387e-06,1.07136679240986e-05,1.0395382292813416e-06,8.511972686478928e-07,1.2547432414041635e-06,2.0251147421718543e-06,2.7649025544574907e-06,1.075049224257381e-06,2.1735259973218905e-06,3.812244794250628e-05,1.670724586321578e-06,8.491156463472802e-07,1.5587929443232765e-06,2.1002265088442215e-06
34,1.8363034137932486e-06,1.0704967015491824e-06,1.6820656385954492e-06,1.0556465432307533e-05,1.0191773459799608e-06,8.446975449403054e-07,1.2764648301613592e-06,2.008695483075804e-06,2.5660768051628716e-06,1.0557589018256115e-06,2.106937212767092e-06,3.8928526313492094e-05,1.6501207569197408e-06,8.51167225897747e-07,1.5510083225212795e-06,2.1071892739434667e-06
35,1.8349409112730746e-06,1.0913293619678757e-06,1.676306413517386e-06,1.0411010050950488e-05,9.978181590509214e-07,8.405543849269713e-07,1.2997529557766254e-06,1.997195080840832e-06,2.377448310501729e-06,1.0378930918856776e-06,2.0346359332147535e-06,3.97384125448951e-05,1.626840210594319e-06,8.547579229827563e-07,1.544538882090918e-06,2.1049320081976725e-06
36,1.826549087820463e-06,1.1150094728605005e-06,1.6731537565636967e-06,1.027440157262971e-05,9.757639918121155e-07,8.389827970309179e-07,1.3240801622303008e-06,1.9897521291230136e-06,2.201763063963734e-06,1.021861040515527e-06,1.957079367323256e-06,4.055387605474261e-05,1.6009437247127973e-06,8.594794797353326e-07,1.53910214450441e-06,2.0934619818523815e-06
37,1.8115646594332603e-06,1.14194618385229e-06,1.6729553661243849e-06,1.0142942531812081e-05,9.532025149265652e-07,8.401360349330017e-07,1.3487677902505267e-06,1.985224403070318e-06,2.041358219453199e-06,1.0080591867079903e-06,1.8749481336251677e-06,4.137619010695515e-05,1.5727146850708359e-06,8.648723860615164e-07,1.5342201420880197e-06,2.073393747761243e-06
38,1.7905756340497507e-06,1.1723465583131054e-06,1.675942525208407e-06,1.00123386160331e-05,9.30223133451426e-07,8.4407734396853e-07,1.3730464740136813e-06,1.982405577861094e-06,1.8981550633961116e-06,9.967901612535957e-07,1.789231477642478e-06,4.220991543373803e-05,1.5427554104160754e-06,8.704859050563712e-07,1.5292121060314692e-06,2.0459624775314917e-06
39,1.7641980458977929e-06,1.2061912358296345e-06,1.682080945830394e-06,9.87810906998182e-06,9.068770446139673e-07,8.507818753680434e-07,1.3960979902234104e-06,1.9802679828105834e-06,1.7737852295994534e-06,9.88278556724514e-07,1.7011296367483202e-06,4.3063933813168675e-05,1.5118272549018777e-06,8.759338645310749e-07,1.523256157198724e-06,2.012865488520203e-06
40,1.7331684305082081e-06,1.2432747823566562e-06,1.6910074237376358e-06,9.736254601796119e-06,8.832250197723479e-07,8.601452677832737e-07,1.417067461800475e-06,1.9781397796292177e-06,1.6697511432744624e-06,9.827085107123745e-07,1.6119148890408557e-06,4.3948952017497245e-05,1.4806141209470093e-06,8.808876028794356e-07,1.515540251859813e-06,1.975983857516956e-06
41,1.698530930546931e-06,1.2832986435221451e-06,1.7020865100422182e-06,9.58399518023355e-06,8.593495846343241e-07,8.719935954295851e-07,1.4350864757724716e-06,1.9757717945322617e-06,1.5875216054249598e-06,9.802181832603402e-07,1.5228593231922038e-06,4.487317771748796e-05,1.4496149190718812e-06,8.850434641276555e-07,1.5054310612897436e-06,1.9370912413532855e-06
42,1.661628187040167e-06,1.3259348117036388e-06,1.7145279102358263e-06,9.420288566212356e-06,8.353633658593212e-07,8.860680971930946e-07,1.449364762891175e-06,1.973269927077478e-06,1.528515274039561e-06,9.808836294865127e-07,1.4351979164933303e-06,4.583830948225824e-05,1.4191570732848025e-06,8.881437152634237e-07,1.4925989044286304e-06,1.8976427265986279e-06
43,1.6238624836479423e-06,1.3708014092216122e-06,1.7275031000506818e-06,9.245940005977071e-06,8.114326806922677e-07,9.019916800102541e-07,1.459377707867891e-06,1.9709195425410334e-06,1.4940908924316952e-06,9.8470658306689e-07,1.3500645605787914e-06,4.6836926022240385e-05,1.389407513962643e-06,8.900142082242529e-07,1.4770649751245146e-06,1.8586944470356867e-06
44,1.5864690064059645e-06,1.4173844640784716e-06,1.7402343598695734e-06,9.063286902857021e-06,7.877976642378567e-07,9.192490703802142e-07,1.4650611826351483e-06,1.968994423825223e-06,1.4857323111425269e-06,9.915844923636588e-07,1.2684108692498668e-06,4.7851485376827394e-05,1.3603844117964465e-06,8.905782883079714e-07,1.4591645611982479e-06,1.8209171820716538e-06
45,1.5504434256734976e-06,1.4649606302407093e-06,1.7520635681513657e-06,8.875579222168717e-06,7.647652031787929e-07,9.37190991836308e-07,1.466834731902124e-06,1.9676454487609343e-06,1.505415361419502e-06,1.0012745899186622e-06,1.1909654799644988e-06,4.8854948814546716e-05,1.332081003598114e-06,8.898711017962171e-07,1.4394397781418838e-06,1.7846203693917903e-06
46,1.5165648436485294e-06,1.5125479045246614e-06,1.76249828030026e-06,8.686199006944075e-06,7.426770262109385e-07,9.550584973345897e-07,1.4653828380917546e-06,1.966924813331877e-06,1.555951218214772e-06,1.0133669673683922e-06,1.1182640666714136e-06,4.981258430947417e-05,1.3046746705102634e-06,8.88060103014346e-07,1.4184799517090916e-06,1.7497645602454815e-06
47,1.485487090436894e-06,1.5589142911674371e-06,1.7712034097701012e-06,8.497846631461991e-06,7.218761427532437e-07,9.720407140873251e-07,1.4613405068642094e-06,1.966938481867209e-06,1.6410969006470493e-06,1.0272732446403904e-06,1.0507073824335888e-06,5.0683516803010884e-05,1.2786270017434022e-06,8.854463364218657e-07,1.3967528749527556e-06,1.7160112302003324e-06
48,1.4578957036582514e-06,1.6026557628707263e-06,1.7779290820471291e-06,8.3119333170963e-06,7.026822720677572e-07,9.87402346607331e-07,1.4550796819102861e-06,1.9680117290847255e-06,1.7653346422868987e-06,1.0422462076132455e-06,9.885877990821243e-07,5.142074158082742e-05,1.2545780287495212e-06,8.824153393113432e-07,1.37449795156865e-06,1.6828802434641783e-06
49,1.434618079210134e-06,1.6423072979041332e-06,1.7824253541492126e-06,8.128459431468014e-06,6.853649302330179e-07,1.0006449377106757e-06,1.4466644395243434e-06,1.970704394468127e-06,1.9334443130593975e-06,1.0574457179930618e-06,9.320993913341403e-07,5.1971407078303406e-05,1.233152676771139e-06,8.793564379130339e-07,1.3517360240517225e-06,1.6500257187023114e-06
50,1.4165809406322963e-06,1.6764605989865073e-06,1.784398732719304e-06,7.946355563007061e-06,6.701184784563743e-07,1.011579602830945e-06,1.4359446374268283e-06,1.975641520993195e-06,2.1501787743048544e-06,1.072058875154479e-06,8.81380513699649e-07,5.228248101632512e-05,1.2148238585088258e-06,8.766071644623883e-07,1.3283922194390503e-06,1.6174956753744183e-06
51,1.4046508461388237e-06,1.7039079542142281e-06,1.7834854402276014e-06,7.763964253598361e-06,6.570614191156847e-07,1.0202454022520683e-06,1.4227264600669167e-06,1.983314926898013e-06,2.420176912180162e-06,1.0854232363367212e-06,8.365621322801478e-07,5.231371926136277e-05,1.1998688690246027e-06,8.74415043194052e-07,1.3044402523991328e-06,1.5857951471015506e-06
52,1.3994829097738748e-06,1.7238128374654706e-06,1.7791870149804004e-06,7.579406875743197e-06,6.462465948387447e-07,1.0267422642237745e-06,1.4069297751940802e-06,1.9940291676286224e-06,2.7479334479132894e-06,1.0970614521905782e-06,7.977587944716214e-07,5.205063819743613e-05,1.1883922318513577e-06,8.729018879469799e-07,1.279942997177912e-06,1.5557065126869002e-06
53,1.4014493689815655e-06,1.735837234568862e-06,1.770832168337784e-06,7.3907840277813e-06,6.376528641579341e-07,1.031134202591528e-06,1.3886677405334993e-06,2.0079894467811276e-06,3.137704861464129e-06,1.1066337661120184e-06,7.650235330622055e-07,5.150594432401761e-05,1.1803680446227821e-06,8.720851809205071e-07,1.2550019556091266e-06,1.5280127312293699e-06
54,1.4106148841626575e-06,1.7401460499171052e-06,1.7576872651178636e-06,7.196255966746677e-06,6.311705933237594e-07,1.033484427529161e-06,1.3682606859328464e-06,2.025376153382435e-06,3.5934180517216942e-06,1.1139030903266352e-06,7.383391266270529e-07,5.0707776709232224e-05,1.1756558461360182e-06,8.719418883321127e-07,1.2297734096465556e-06,1.5033236895923438e-06
55,1.4267172430693453e-06,1.7372854261010707e-06,1.7392015583339397e-06,6.994068838927351e-06,6.266029631853296e-07,1.0338936555396143e-06,1.3462100595369144e-06,2.0462952713976092e-06,4.118587635035431e-06,1.1187232881908992e-06,7.176594010752016e-07,4.968759917232851e-05,1.1739752889838013e-06,8.724162997622065e-07,1.2045711098434466e-06,1.4820519665479606e-06
56,1.4491701911522552e-06,1.727993327528792e-06,1.7152709994220408e-06,6.78260904962301e-06,6.236904651086322e-07,1.0324339570588022e-06,1.3231232574978858e-06,2.070677382277989e-06,4.716204444599987e-06,1.1209727593984724e-06,7.029449966653994e-07,4.8476992794125374e-05,1.1748779388153838e-06,8.733685694119181e-07,1.1798817939888422e-06,1.464450451321199e-06
57,1.4771288781080267e-06,1.7129931526352454e-06,1.6864064616116329e-06,6.560596726514124e-06,6.221703007257777e-07,1.029056331632525e-06,1.2996214074239722e-06,2.0982551192145067e-06,5.388621530374078e-06,1.1204504226538978e-06,6.941385526572668e-07,4.710729055541414e-05,1.17777416401264e-06,8.745449557564338e-07,1.156236952992808e-06,1.4506159803125214e-06
58,1.509618338968735e-06,1.6928135282910933e-06,1.6536899181339051e-06,6.327450754603146e-06,6.218458720022793e-07,1.0236156296768103e-06,1.2763146990720035e-06,2.128575035375318e-06,6.137422710562551e-06,1.116861850714469e-06,6.911023905261661e-07,4.560605973651516e-05,1.1820461902646126e-06,8.756241076937275e-07,1.1340610207180257e-06,1.4404336021768257e-06
59,1.5456380688864387e-06,1.6677057876968185e-06,1.6185017644132715e-06,6.083656780396691e-06,6.225943961818279e-07,1.0160415220139123e-06,1.2538255472045699e-06,2.1609237231285183e-06,6.96321563641304e-06,1.1099300791297145e-06,6.935799273526021e-07,4.3993535334260926e-05,1.1872235347453073e-06,8.763214617842642e-07,1.1135988125018246e-06,1.4335268680506002e-06
60,1.58414469878742e-06,1.637702499221525e-06,1.5821953328726954e-06,5.830914866246869e-06,6.242942386617303e-07,1.0065221940528869e-06,1.232755195573316e-06,2.194238217091667e-06,7.865381977161061e-06,1.099543371880052e-06,7.011819948314554e-07,4.2282389728467725e-05,1.1931074559994177e-06,8.764868102436379e-07,1.094945087261964e-06,1.4292530136714036e-06
61,1.6239606538716568e-06,1.6027631479012163e-06,1.545914309578181e-06,5.572032255555863e-06,6.267518582830579e-07,9.955285641436455e-07,1.2136239731623912e-06,2.2271834600536106e-06,8.841864593731026e-06,1.0858717834764546e-06,7.133798949079429e-07,4.048157713447492e-05,1.199733651501945e-06,8.761944921444589e-07,1.0781139907664945e-06,1.4267662034073557e-06
62,1.6637588306864596e-06,1.5629273398753531e-06,1.5105652193198906e-06,5.310665284125623e-06,6.296891651123457e-07,9.836656019709382e-07,1.1968622194403667e-06,2.258402412174951e-06,9.888980673791282e-06,1.0693957715520341e-06,7.295163475907752e-07,3.8603674163760966e-05,1.2072017299571441e-06,8.757922503082406e-07,1.0630620881876228e-06,1.4252553218714349e-06
63,1.7021593241600844e-06,1.5184511473596856e-06,1.4768330334428554e-06,5.0509551288180605e-06,6.327647053296606e-07,9.715277294560375e-07,1.18279788049483e-06,2.2867329878483547e-06,1.1001277127821827e-05,1.050803441785925e-06,7.48833500863445e-07,3.667168816371394e-05,1.215501564932718e-06,8.757912436836489e-07,1.0496766890950944e-06,1.4243268154867676e-06
64,1.7378404193930986e-06,1.4699057083192785e-06,1.44519599136574e-06,4.797051611500705e-06,6.356230746884431e-07,9.596611052923917e-07,1.1716121677033928e-06,2.311240832006979e-06,1.2171551509329322e-05,1.030811228185897e-06,7.705197898790347e-07,3.47203571282471e-05,1.2244467326966293e-06,8.76669345368628e-07,1.0377993365854291e-06,1.4242156300271108e-06
65,1.7696107285231342e-06,1.4181780183037036e-06,1.4159922626256352e-06,4.552613131020867e-06,6.379940844450411e-07,9.485341077709754e-07,1.163312820639952e-06,2.3311489953992447e-06,1.339100362829155e-05,1.0100159481423883e-06,7.937779406156848e-07,3.27914771138381e-05,1.2337077524771272e-06,8.787774064003692e-07,1.0272854145424383e-06,1.4256153513008554e-06
66,1.796488656397194e-06,1.3643604969137917e-06,1.3895274447237876e-06,4.320471317896255e-06,6.397776689658632e-07,9.384826977341236e-07,1.1577275959411826e-06,2.3458366493727795e-06,1.4649347420941804e-05,9.888514774329097e-07,8.178792321498373e-07,3.092715441160991e-05,1.242848369092187e-06,8.823421750466419e-07,1.0180486760081173e-06,1.429334114945472e-06
67,1.8178153949725492e-06,1.3096201414369799e-06,1.366110408181258e-06,4.102563852644785e-06,6.410439634741262e-07,9.297398021499681e-07,1.154530967556529e-06,2.3549401506826995e-06,1.5934873633240186e-05,9.67646219965029e-07,8.422045269202617e-07,2.916507163785129e-05,1.251361179040084e-06,8.874610204274006e-07,1.0100778043885374e-06,1.43607845873084e-06
68,1.833324445739962e-06,1.2551214690051247e-06,1.3459701445409477e-06,3.900018977647135e-06,6.419818081953092e-07,9.225429394821547e-07,1.153337426919122e-06,2.3584344668342246e-06,1.723452878286549e-05,9.466897114147574e-07,8.663062741158245e-07,2.753700380813525e-05,1.258789539121124e-06,8.940879916954808e-07,1.0034323394382355e-06,1.446400973790399e-06
69,1.8430777059117123e-06,1.2019645316814194e-06,1.329132494730133e-06,3.7132108525930923e-06,6.428515078634747e-07,9.171702927424376e-07,1.1538033951277895e-06,2.356608313596808e-06,1.853394682046567e-05,9.2623204960364e-07,8.899297430021462e-07,2.6069177860005556e-05,1.2648899461679661e-06,9.020577285664133e-07,9.982117019420292e-07,1.4606915814437774e-06
70,1.847306981609362e-06,1.1510966608444442e-06,1.3153420851584265e-06,3.5417835007923608e-06,6.439472507782353e-07,9.138590379133723e-07,1.1556466477178675e-06,2.3499915968384974e-06,1.9817234143355766e-05,9.064520613403557e-07,9.129210277495434e-07,2.4782854765351555e-05,1.2696888161630345e-06,9.111265330652606e-07,9.945196054955565e-07,1.4791756473685585e-06
71,1.8462817224777075e-06,1.103237547030167e-06,1.3040494662530113e-06,3.3847490765216987e-06,6.455536151732376e-07,9.127343212801561e-07,1.1585782523502565e-06,2.3393173723178937e-06,2.1066370735743453e-05,8.87445724794582e-07,9.351090604037448e-07,2.369464747064876e-05,1.2734315122362886e-06,9.2099503649563e-07,9.92447152666048e-07,1.501942479955257e-06
72,1.8402280295899069e-06,1.0588594667318317e-06,1.294478041726495e-06,3.240627260646225e-06,6.478941689102673e-07,9.13842312839479e-07,1.1622113091309262e-06,2.3255015473838557e-06,2.2260817611314627e-05,8.692159080044607e-07,9.562581477168401e-07,2.2816733825911782e-05,1.2765278633401142e-06,9.313563067354261e-07,9.920642363093268e-07,1.5289635706164e-06
73,1.829235112343336e-06,1.0182216064113225e-06,1.2858160650079445e-06,3.1074928717455923e-06,6.510946454396291e-07,9.172099686977887e-07,1.1660295947081879e-06,2.3095981926540946e-06,2.3378696504836074e-05,8.516622195031862e-07,9.760763265432924e-07,2.2157153165966016e-05,1.2794899296379325e-06,9.419817595602657e-07,9.934211173277407e-07,1.5600358817572146e-06
74,1.813175201067217e-06,9.814401682853278e-07,1.2775080336588407e-06,2.9829623242475045e-06,6.551806322992496e-07,9.228234601466784e-07,1.169482292026848e-06,2.2927480800022154e-06,2.4399845901354484e-05,8.346331742025234e-07,9.943027387289323e-07,2.1720205407630245e-05,1.2828052594574068e-06,9.527531288953061e-07,9.965405697119208e-07,1.5946862209053615e-06
75,1.791746219388729e-06,9.485497063347936e-07,1.2694818612105038e-06,2.8643429155270525e-06,6.600885714236816e-07,9.30548585324131e-07,1.1721619408861783e-06,2.2761333982013308e-06,2.5308925611210958e-05,8.180512910874338e-07,1.0108479681926634e-06,2.1506813219649634e-05,1.2868046527295995e-06,9.636343662975183e-07,1.0013625817026087e-06,1.6321476595781713e-06
76,1.7646565395407357e-06,9.195212333252991e-07,1.2621463237246178e-06,2.7490547232756955e-06,6.656598282465151e-07,9.40072007936061e-07,1.1738931374726146e-06,2.2608994409606848e-06,2.609659683132419e-05,8.019982505703973e-07,1.0258169237968978e-06,2.151469337535964e-05,1.2916122572623015e-06,9.746558645136644e-07,1.0076834599217755e-06,1.6714745871369439e-06
77,1.7318625268542017e-06,8.942644253127501e-07,1.2561659881665485e-06,2.635139797924085e-06,6.71627720087849e-07,9.508873024591299e-07,1.1746398125115043e-06,2.2480150666338285e-06,2.6758538921713368e-05,7.866757210090093e-07,1.0394045830220918e-06,2.1738248703851168e-05,1.2971647699514823e-06,9.85892006558192e-07,1.0151430144192248e-06,1.7117642157943354e-06
78,1.69375056619124e-06,8.726341275237324e-07,1.2521823265042274e-06,2.521590168697001e-06,6.776265825974797e-07,9.623451801175238e-07,1.1743817782467556e-06,2.2381098542362893e-06,2.7293080454213225e-05,7.723059911284871e-07,1.0518367210092269e-06,2.2168166742345427e-05,1.303250194103212e-06,9.974437508821004e-07,1.0232497297685552e-06,1.7523451339061631e-06
79,1.6511829772856612e-06,8.54448292877035e-07,1.2506400865622351e-06,2.4083571963430833e-06,6.83243493196644e-07,9.737823470788957e-07,1.1731316559692215e-06,2.2313650506675437e-06,2.769841529561332e-05,7.590789245484254e-07,1.0633765052378812e-06,2.279081137596823e-05,1.3095793329290748e-06,1.009464604469325e-06,1.0314506300326248e-06,1.7927964949003492e-06
80,1.6054031222434453e-06,8.395579938235634e-07,1.2517376206701256e-06,2.296058019726793e-06,6.880870957723528e-07,9.846663657950304e-07,1.1710295477647789e-06,2.2274898646179596e-06,2.7971457053357984e-05,7.471930511709897e-07,1.0742984236509613e-06,2.3587584219670724e-05,1.3158934954160696e-06,1.02214271940891e-06,1.0392429645885847e-06,1.832813738686688e-06
81,1.557873038514774e-06,8.279455034503224e-07,1.2554287342652945e-06,2.1855469417224352e-06,6.918044442613118e-07,9.9467481891181e-07,1.1683706415832243e-06,2.225755245792403e-06,2.811054802130434e-05,7.369328667087207e-07,1.0848243319004026e-06,2.453444956827749e-05,1.3219879103643872e-06,1.0356120765567826e-06,1.046256885608207e-06,1.8720337820245152e-06
82,1.5101095568879259e-06,8.197489420252211e-07,1.2614349096032747e-06,2.0775915484572924e-06,6.940669772570282e-07,1.0036895242308344e-06,1.1655603352511196e-06,2.225068788283786e-06,2.8120727621392735e-05,7.286560245226612e-07,1.0951139746235947e-06,2.560186429653844e-05,1.3276016247180832e-06,1.049896735802303e-06,1.05225887220203e-06,1.909917033758911e-06
83,1.463531125808772e-06,8.151816735863528e-07,1.2692719124920739e-06,1.9727844912925564e-06,6.946196592285859e-07,1.0117176254610916e-06,1.1630700497151158e-06,2.2240886632641714e-06,2.8016999938626896e-05,7.226873764736719e-07,1.1053505760075281e-06,2.6755780358506577e-05,1.332353192282883e-06,1.0649136428451704e-06,1.0570964931737454e-06,1.9457741776284204e-06
84,1.4193293812261115e-06,8.144349553975508e-07,1.2782822544176363e-06,1.871635415429782e-06,6.933663084175809e-07,1.0187796849303713e-06,1.1613991083970096e-06,2.2213630666817413e-06,2.7823002095418956e-05,7.192456946753532e-07,1.1158016209402935e-06,2.796077840161192e-05,1.3358324152698509e-06,1.0804810700524938e-06,1.0606721214994837e-06,1.9789535296854753e-06
85,1.3784093538778865e-06,8.176532227336331e-07,1.2876540201901212e-06,1.7747014305657128e-06,6.903754599278015e-07,1.02485956127681e-06,1.1610046859992167e-06,2.215485665734844e-06,2.7566756916360078e-05,7.184428678317625e-07,1.126749029216831e-06,2.9185364251061773e-05,1.3377208286431043e-06,1.0963231106502655e-06,1.0630383440376985e-06,2.0090360483706583e-06
86,1.3413993127374542e-06,8.24955350814068e-07,1.2964486152342447e-06,1.682670373476161e-06,6.858014428442315e-07,1.029951563687576e-06,1.162238616536143e-06,2.2052487937601807e-06,2.727646658951154e-05,7.202939068335441e-07,1.1383825397677554e-06,3.0407172409737107e-05,1.3378359205422292e-06,1.1120826891826429e-06,1.0645364460621671e-06,2.0358332368623866e-06
87,1.3086815187903183e-06,8.364425375982756e-07,1.3036927668797294e-06,1.596393120863438e-06,6.798400901423447e-07,1.0341004340145053e-06,1.1653419955348006e-06,2.189753720792981e-06,2.6977588991165342e-05,7.24708981980551e-07,1.1507823778428208e-06,3.161485032368107e-05,1.3361431158793907e-06,1.1273494650384258e-06,1.06578029763909e-06,2.0591761740696874e-06
88,1.2804394558550515e-06,8.52187985565157e-07,1.3085359792788782e-06,1.5168689297675813e-06,6.72770886937793e-07,1.0373712668480347e-06,1.1704695997354692e-06,2.168458224353577e-06,2.66911006390727e-05,7.31491426983848e-07,1.163942086937336e-06,3.2805367278863486e-05,1.332749493010507e-06,1.1417082334525707e-06,1.067467702090256e-06,2.078750186998422e-06
89,1.2567500102533091e-06,8.721972828857295e-07,1.3103987451307327e-06,1.4451853993375712e-06,6.649874932983597e-07,1.039841622136538e-06,1.1777201355120499e-06,2.1412070967926435e-06,2.6433031480008036e-05,7.403662566218377e-07,1.177729485583653e-06,3.3978470496729724e-05,1.3278237745461358e-06,1.1547549623366857e-06,1.070203789100072e-06,2.0941784492232295e-06
90,1.2377115238487183e-06,8.9634512467571e-07,1.3090421404021912e-06,1.3824547541821471e-06,6.56940696895672e-07,1.0416428999207858e-06,1.187143717900352e-06,2.1082980668815175e-06,2.6215238881753017e-05,7.51010733927816e-07,1.1918097829875552e-06,3.5131484199106394e-05,1.3214777926333355e-06,1.1660407007630731e-06,1.074437172006961e-06,2.1052135006839724e-06
91,1.2235718589256107e-06,9.243428526184176e-07,1.3045289390129816e-06,1.3297750219569453e-06,6.490528610507104e-07,1.0429352476796421e-06,1.1986891898779614e-06,2.070535421817067e-06,2.604658023537246e-05,7.630415246258693e-07,1.2056042091293066e-06,3.625736643415779e-05,1.3136897274448068e-06,1.1750343024122324e-06,1.0804501820590894e-06,2.1118201194024593e-06
92,1.2147950660966061e-06,9.557711987895168e-07,1.2970881477208286e-06,1.2881811813946486e-06,6.416742769305334e-07,1.0438030574124187e-06,1.2121540246476963e-06,2.0291678767931133e-06,2.593372773680124e-05,7.760084454962444e-07,1.2183202169390443e-06,3.7347122687443944e-05,1.30427176727345e-06,1.1811990757290884e-06,1.0883901294448563e-06,2.1141655244940026e-06
93,1.211998301628826e-06,9.901712722910488e-07,1.2870007613719263e-06,1.2585767126004345e-06,6.350657925245379e-07,1.0441907286071008e-06,1.2272126692622378e-06,1.9856998311263225e-06,2.5881616218519847e-05,7.894710694240878e-07,1.22908730599542e-06,3.8395215582933443e-05,1.2929130929638235e-06,1.1841494211214193e-06,1.0983728894894956e-06,2.1126261732401392e-06
94,1.2157903102615514e-06,1.0271471307238053e-06,1.2746300089385068e-06,1.2417000435233865e-06,6.293831157637885e-07,1.0439318570741528e-06,1.2434829747216665e-06,1.9416697333637356e-06,2.5893784448412668e-05,8.031035611302179e-07,1.2371816180359987e-06,3.940516039614749e-05,1.2793478955971872e-06,1.1837683788495692e-06,1.1105688338226233e-06,2.107815983611308e-06
95,1.2266383869514191e-06,1.0664067818590104e-06,1.2605111728225055e-06,1.2381422545571099e-06,6.246842317086248e-07,1.0428058467315902e-06,1.2605580950515737e-06,1.8984845504769265e-06,2.5972778785054547e-05,8.167116081303471e-07,1.2422024235562115e-06,4.039232637044069e-05,1.263544781708427e-06,1.1801789992721444e-06,1.125166784139781e-06,2.100560649118199e-06
96,1.244814079260528e-06,1.1077071242264062e-06,1.2453224452599213e-06,1.2483789024439038e-06,6.209862201190719e-07,1.0405525273813847e-06,1.2779933799288137e-06,1.8573370341030291e-06,2.612056548712319e-05,8.301441841032199e-07,1.2440700704234823e-06,4.1382357413055963e-05,1.2457632399252223e-06,1.1736030652770669e-06,1.1422695667865103e-06,2.0917960229190953e-06
97,1.2703605804597312e-06,1.150745210115523e-06,1.2297388587349582e-06,1.2728008497430625e-06,6.183435908515014e-07,1.0368853347377705e-06,1.2952950299334388e-06,1.8191863243122746e-06,2.6338543630642375e-05,8.431942273934962e-07,1.2428947934341061e-06,4.2406416518515906e-05,1.2264716376565996e-06,1.164286527307768e-06,1.1618177257934885e-06,2.0824585015803362e-06
98,1.3030699184919504e-06,1.1950730436614143e-06,1.2143161039860372e-06,1.3117486496019148e-06,6.168672318360686e-07,1.031546384437164e-06,1.3119685850883385e-06,1.7847693392413876e-06,2.6626620052203137e-05,8.556135406551069e-07,1.2388739958730884e-06,4.3496128541761834e-05,1.2062148170869577e-06,1.1525740979762948e-06,1.1835467528085257e-06,2.0734005742836786e-06
99,1.342534392540397e-06,1.2400788850233952e-06,1.1994655287837312e-06,1.3655427180696852e-06,6.166685728354142e-07,1.0243376877876395e-06,1.327626523223537e-06,1.754628756221741e-06,2.6981517037923016e-05,8.6727510198325e-07,1.232253691353278e-06,4.468004162169131e-05,1.1854963838675595e-06,1.1389889470276112e-06,1.2069535393876802e-06,2.0652881123182324e-06
100,1.3883187060634644e-06,1.2850271243348627e-06,1.1854836451105623e-06,1.4344870830464257e-06,6.178013397148026e-07,1.0150892309076309e-06,1.3420749748637323e-06,1.7291634676495608e-06,2.7395719555262584e-05,8.783155868268183e-07,1.2232689072307913e-06,4.5981221545341716e-05,1.1646971232001527e-06,1.1241738879948305e-06,1.231286471777106e-06,2.0584838975397703e-06
101,1.4402219489087497e-06,1.3291030544928336e-06,1.172617098654266e-06,1.518820360214518e-06,6.202364075940885e-07,1.0036032201820319e-06,1.3553007667798651e-06,1.7086771359610715e-06,2.7858286194683752e-05,8.890641945908513e-07,1.212073232563322e-06,4.741518765146262e-05,1.144031529122953e-06,1.1087590579117796e-06,1.2556088507662165e-06,2.0529993473649365e-06
102,1.4985002067602839e-06,1.3714057087709358e-06,1.161111245010947e-06,1.6186159793614653e-06,6.238551771737844e-07,9.896194179191426e-07,1.3673603375362257e-06,1.6933559102168994e-06,2.8356903364528473e-05,8.998402257430674e-07,1.1987198835032937e-06,4.898935628803479e-05,1.1235772607133026e-06,1.0932888147442009e-06,1.2789516953256998e-06,2.0485915787467996e-06
103,1.5638784037685514e-06,1.4109394763657877e-06,1.1511992785798718e-06,1.7336725485797932e-06,6.284559024377978e-07,9.72863880116943e-07,1.3782401881304425e-06,1.6831591690815556e-06,2.8879553757692346e-05,9.108435880733229e-07,1.1831674310194179e-06,5.0705609505531675e-05,1.1033831354346058e-06,1.0781986880544223e-06,1.3004575555773397e-06,2.0449449109635853e-06
104,1.637315729711526e-06,1.4467086448193221e-06,1.143121617170269e-06,1.8634530050141242e-06,6.337875875974281e-07,9.531967748525355e-07,1.387784230334385e-06,1.6777170547945242e-06,2.941462349211835e-05,9.221634055922672e-07,1.1653002518962278e-06,5.2564864595774796e-05,1.0835399104362563e-06,1.0637816067477546e-06,1.319392978704281e-06,2.041728536876759e-06
105,1.7197168394688732e-06,1.477887371569696e-06,1.137226101832646e-06,2.0071518847455474e-06,6.396225461729929e-07,9.307490529899454e-07,1.3957381189574657e-06,1.6763302063759355e-06,2.9949343184452902e-05,9.337991359723682e-07,1.144992942290899e-06,5.457050934463955e-05,1.0641311597884142e-06,1.0501707559734755e-06,1.3350881853702107e-06,2.0385176983781368e-06
106,1.8117938657071548e-06,1.5039564445558862e-06,1.1340281233656744e-06,2.1639299389079894e-06,6.458158839472739e-07,9.059329841998694e-07,1.4018245705242633e-06,1.6780661528809705e-06,3.046817986295687e-05,9.456584764456533e-07,1.1221994395750342e-06,5.672819588590185e-05,1.0451494960226246e-06,1.0373635587595513e-06,1.3469787153821594e-06,2.0348389697119932e-06
107,1.914090920924131e-06,1.5247657802704328e-06,1.1341361291793376e-06,2.333206047876138e-06,6.522802556410141e-07,8.793387420126732e-07,1.4057582863542762e-06,1.6818799092603263e-06,3.0953205787446064e-05,9.575352744951894e-07,1.0970338110020972e-06,5.9041971271322355e-05,1.02648828254062e-06,1.0252607111118764e-06,1.3547385413787606e-06,2.030424105215158e-06
108,2.0270923395167086e-06,1.540519498587813e-06,1.1381037873562496e-06,2.5148176060543814e-06,6.589102405676053e-07,8.516260088223883e-07,1.4073046513367946e-06,1.6866874589171352e-06,3.138619342047513e-05,9.690967967303448e-07,1.0698229042684105e-06,6.151057051700109e-05,1.0080261786959075e-06,1.013714959852201e-06,1.3583214792849905e-06,2.0254223535645985e-06
109,2.151334377161573e-06,1.5516603182815647e-06,1.1463336663961902e-06,2.708930629247253e-06,6.655419414491766e-07,8.23484388001414e-07,1.4064594590829993e-06,1.6913563163019623e-06,3.1750652335989716e-05,9.799617667598198e-07,1.0410920079435185e-06,6.412845189974139e-05,9.897317677856031e-07,1.0025762432505914e-06,1.3578450341827055e-06,2.0203320686229527e-06
110,2.2874148808534857e-06,1.5586614656862348e-06,1.1590947717151931e-06,2.915769711085977e-06,6.719523526778492e-07,7.95618446689069e-07,1.403557650932561e-06,1.6946273113405048e-06,3.203315336315665e-05,9.898874864546388e-07,1.011482134053835e-06,6.689051976682744e-05,9.716716763948706e-07,9.91728932100189e-07,1.3534606021092423e-06,2.0157051256932625e-06
111,2.435884081289644e-06,1.5618247633453016e-06,1.176585608611927e-06,3.1354886213683357e-06,6.77868333118304e-07,7.687003579113876e-07,1.3991446965277608e-06,1.695042887042964e-06,3.222417714950375e-05,9.989244275641088e-07,9.816787508983685e-07,6.979405179921611e-05,9.539295969336256e-07,9.811810645293913e-07,1.3453891775905595e-06,2.011856435997883e-06
112,2.597155183439357e-06,1.5612033885962534e-06,1.1989282561064349e-06,3.368346883696298e-06,6.830062388693017e-07,7.433199324170412e-07,1.3937406443808336e-06,1.6910054639340182e-06,3.2317719756903745e-05,1.0073823340313196e-06,9.523778556104493e-07,7.283532974259524e-05,9.365859888812194e-07,9.711467285286176e-07,1.3340801144711925e-06,2.008713565925874e-06
113,2.771542382914183e-06,1.5566594024830036e-06,1.2260927224771219e-06,3.614862557833096e-06,6.87172145730995e-07,7.199632802274093e-07,1.387713132688482e-06,1.6810140318893474e-06,3.230890858274947e-05,1.0156597579306324e-06,9.242371582020259e-07,7.60077414865673e-05,9.197948510472974e-07,9.61967268980118e-07,1.320244928838135e-06,2.0058250089612206e-06
114,2.9593837034770543e-06,1.5479426228486324e-06,1.2578423590292106e-06,3.875625955826222e-06,6.903774106256708e-07,6.990015116298236e-07,1.3812842706262918e-06,1.6639435669243204e-06,3.2191914056639586e-05,1.0241077614718774e-06,8.978224348214234e-07,7.930593185188567e-05,9.038100081692794e-07,9.539529546849143e-07,1.3046857267596542e-06,2.0025449383165985e-06
115,3.1611853349482676e-06,1.53469253122188e-06,1.2937546086653256e-06,4.150903232408653e-06,6.928601274518048e-07,6.806844344970372e-07,1.3745417895500012e-06,1.639180987883779e-06,3.196110492567889e-05,1.032987961744694e-06,8.736097588982892e-07,8.272928202529378e-05,8.888835726385932e-07,9.473258656805059e-07,1.288113994681436e-06,1.9983058070211e-06
116,3.377775118418379e-06,1.5164419176496507e-06,1.3333034368661132e-06,4.440348555160887e-06,6.949832290307674e-07,6.651494689695384e-07,1.3674012334947229e-06,1.6065980835068865e-06,3.161424645887706e-05,1.042480771580201e-06,8.52033375920175e-07,8.62782999150773e-05,8.751471069555489e-07,9.422373592388976e-07,1.2710964182758485e-06,1.9927522815749963e-06
117,3.610431329003568e-06,1.492775685367097e-06,1.3759439091851144e-06,4.742989202488728e-06,6.97121913115851e-07,6.52434448087305e-07,1.3596126243153562e-06,1.5665046551032027e-06,3.1154821219272076e-05,1.0527009210387648e-06,8.334923844476022e-07,8.994665275303238e-05,8.625853748255091e-07,9.387639273777423e-07,1.2541082687521012e-06,1.98568608845421e-06
118,3.860922259760093e-06,1.4635996394076856e-06,1.421134121803201e-06,5.057391140112797e-06,6.996183833647192e-07,6.424920978654794e-07,1.350880734364515e-06,1.5196652933580972e-06,3.0592877952535455e-05,1.0637222087527217e-06,8.182994019850762e-07,9.371396814822363e-05,8.5111884024768e-07,9.36874356304782e-07,1.2376424757640377e-06,1.9770351855402477e-06
119,4.131392442195265e-06,1.4293096490055663e-06,1.4682667090687465e-06,5.381828333590632e-06,7.02766488131727e-07,6.352118311632345e-07,1.3410217394119764e-06,1.4672693740384868e-06,2.9944556808792202e-05,1.075597902652311e-06,8.066568054426805e-07,9.75419012065625e-05,8.407476883914939e-07,9.364151488292038e-07,1.2222463928210916e-06,1.966938605323412e-06
120,4.424042394129293e-06,1.390757216545322e-06,1.5165563383001432e-06,5.7144004018665875e-06,7.068011002870319e-07,6.304216726822129e-07,1.330015249743725e-06,1.4107408381749403e-06,2.922953887650225e-05,1.0883210749139223e-06,7.98680745709962e-07,0.00010137470201225288,8.316272206017551e-07,9.371370348723019e-07,1.2084088113811862e-06,1.955753474906283e-06
121,4.740665124355403e-06,1.349078477941216e-06,1.5650132766986124e-06,6.053138564131042e-06,7.118890224138965e-07,6.278672986281602e-07,1.3179043231364596e-06,1.3515002021544173e-06,2.846686330020348e-05,1.1017598375183313e-06,7.9440120280172e-07,0.00010514423485703852,8.240068069652317e-07,9.387185860726382e-07,1.1964262969318747e-06,1.943876064354819e-06
122,5.08226639956063e-06,1.3054933125134078e-06,1.6125890635433706e-06,6.3960885778303074e-06,7.181027975947658e-07,6.272202945554878e-07,1.3046504084581416e-06,1.2908435046516928e-06,2.7671838821434628e-05,1.1156438628306914e-06,7.937269259336162e-07,0.00010877654334688546,8.181317967875687e-07,9.407752391185103e-07,1.1863694335766585e-06,1.9315559597458696e-06
123,5.448893442728372e-06,1.2611416056066462e-06,1.6584025297403337e-06,6.741289996603225e-06,7.253886151552481e-07,6.281246452332112e-07,1.2900640567995502e-06,1.229903051836993e-06,2.6855710941616473e-05,1.1295806424929182e-06,7.964263579928114e-07,0.00011219511546948883,8.141853524669675e-07,9.429125396524566e-07,1.1781017524789122e-06,1.9188277751435228e-06
124,5.839537100096933e-06,1.2170028600785955e-06,1.7018700618800108e-06,7.086656568322673e-06,7.335468976184362e-07,6.302221928687914e-07,1.273833060595925e-06,1.1696046321039577e-06,2.6026697153419105e-05,1.1430940761981043e-06,8.021385277311703e-07,0.0001153180114475758,8.122495782254157e-07,9.448238238992419e-07,1.1712835591392496e-06,1.9054770138472457e-06
125,6.251992170217757e-06,1.1739175453660518e-06,1.7426611493365409e-06,7.429878673802206e-06,7.422246819860623e-07,6.331423132861479e-07,1.2556467576783232e-06,1.1106625093344072e-06,2.5190812792797972e-05,1.1556881963804048e-06,8.104315196838851e-07,0.0001180534668932211,8.122737139775394e-07,9.463535379640029e-07,1.1653827882601864e-06,1.8910241989118501e-06
126,6.682760373539266e-06,1.132638355686381e-06,1.7805211733786555e-06,7.768380044137134e-06,7.509342478279588e-07,6.36521446965727e-07,1.2353749990453085e-06,1.0536578412684944e-06,2.4352382480156752e-05,1.1668787413142273e-06,8.209228316153519e-07,0.0001203043809206538,8.140532748642063e-07,9.474641313074696e-07,1.1597296416963913e-06,1.8747971642748663e-06
127,7.127132499689662e-06,1.093820661148223e-06,1.8150689044888224e-06,8.099181895390785e-06,7.591269782653924e-07,6.400810505986868e-07,1.2131799239361357e-06,9.991285507001698e-07,2.351442170974969e-05,1.176247350968628e-06,8.333832678039787e-07,0.00012198488698678316,8.172299845341357e-07,9.481222976153157e-07,1.153614500548131e-06,1.8560429750203786e-06
128,7.579475698007818e-06,1.0579882683698642e-06,1.8456994782689749e-06,8.418543440227588e-06,7.663273621699915e-07,6.437048715014322e-07,1.1894946986809976e-06,9.475821241092364e-07,2.2678744140539108e-05,1.1835628878330234e-06,8.477465224489862e-07,0.00012303827324043983,8.213333791242799e-07,9.482062307430853e-07,1.1464358244267817e-06,1.8339888627266314e-06
129,8.033586470884115e-06,1.025533671622232e-06,1.8716227519415799e-06,8.721576374557633e-06,7.722762953147059e-07,6.474599468636694e-07,1.164910702798535e-06,8.994864148008107e-07,2.184552152014912e-05,1.1887886831559357e-06,8.640434400491523e-07,0.00012344134392634784,8.258495544091666e-07,9.475174490080988e-07,1.1378804150561171e-06,1.8079357244304559e-06
130,8.482902518785283e-06,9.967089885376035e-07,1.8919284508831902e-06,9.002424675473274e-06,7.769884752277297e-07,6.515519687960858e-07,1.1400308826108127e-06,8.553524263042142e-07,2.1012683974227392e-05,1.1919133964741005e-06,8.823044699580812e-07,0.00012319100929731203,8.302582666328032e-07,9.458710155893978e-07,1.128046792645738e-06,1.7775416922642192e-06
131,8.920509788452387e-06,9.715928209416981e-07,1.9056254930837329e-06,9.255389011113167e-06,7.806703588100724e-07,6.562370752360033e-07,1.1153396739713992e-06,8.158948506273292e-07,2.017642763577927e-05,1.192818436514772e-06,9.024614126891279e-07,0.00012228642588233487,8.340199731829976e-07,9.431999734429067e-07,1.117436996520931e-06,1.743168433091601e-06
132,9.339117593245954e-06,9.500800784748242e-07,1.9117432916517413e-06,9.476525265954036e-06,7.835652028075098e-07,6.617583728686215e-07,1.0911563719440492e-06,7.821813305073228e-07,1.933302684339764e-05,1.1912744802937683e-06,9.242918846798932e-07,0.00012072351070371886,8.3657303473631e-07,9.396231611345915e-07,1.1068165351236777e-06,1.705923176693319e-06
133,9.7312663296818e-06,9.318948847105536e-07,1.9095570320723814e-06,9.664792974341824e-06,7.858371649974044e-07,6.683632947968166e-07,1.0676973039248819e-06,7.557105266993182e-07,1.8480307622713224e-05,1.1869551706725376e-06,9.47428874781251e-07,0.00011850210702003588,8.373568992426299e-07,9.354277671953209e-07,1.0970005054718296e-06,1.667303775752482e-06
134,1.0089894408926887e-05,9.166045802105967e-07,1.8988524400334498e-06,9.82225315588156e-06,7.875289947495899e-07,6.763545008533707e-07,1.0451702300260706e-06,7.383662708196829e-07,1.7617480346944228e-05,1.1794540758271961e-06,9.713908374034575e-07,0.00011563553026542689,8.358200079267725e-07,9.309822953487667e-07,1.088671761143915e-06,1.6287725989445179e-06
135,1.040914184058753e-05,9.036277307392944e-07,1.8800698472886398e-06,9.953478442308515e-06,7.885810941797071e-07,6.860857132547567e-07,1.0238037169528815e-06,7.322471485373521e-07,1.6743870500552255e-05,1.168390252073898e-06,9.955846845308342e-07,0.00011215791159226573,8.314878736322564e-07,9.266493376081566e-07,1.082299417160261e-06,1.591574600913536e-06
136,1.0685033734568924e-05,8.92243908096215e-07,1.854230287732195e-06,1.0064572267112658e-05,7.88894793272253e-07,6.978924706944392e-07,1.0038045522342919e-06,7.394844394337058e-07,1.5858638817083944e-05,1.1535807255712368e-06,1.0193036942487894e-06,0.0001081287419793725,8.241667843151926e-07,9.227321749724846e-07,1.07813983603364e-06,1.5567788076847926e-06
137,1.091556346749465e-05,8.816639885833665e-07,1.822673898715992e-06,1.0162000801231055e-05,7.883878205276514e-07,7.120230440664967e-07,9.853103719699691e-07,7.621550417916932e-07,1.4962842072742996e-05,1.135160788023989e-06,1.041777301647813e-06,0.0001036317781266316,8.14102427492465e-07,9.19459309219046e-07,1.0762868034738601e-06,1.525312268442406e-06
138,1.1099860366700679e-05,8.711920499389923e-07,1.7867538086373077e-06,1.0251446563430393e-05,7.870137714462883e-07,7.286123283893375e-07,9.683832071824506e-07,8.022743858616834e-07,1.4061982136733628e-05,1.1135398250393645e-06,1.0623148814256212e-06,9.87661651331954e-05,8.018928183875201e-07,9.169886023679532e-07,1.076727615006431e-06,1.4978877652943324e-06
139,1.1236759490050373e-05,8.603578546022847e-07,1.7476455479517971e-06,1.033718732519722e-05,7.847812305402274e-07,7.476809769251352e-07,9.530182094719356e-07,8.618210545408646e-07,1.3166251243345206e-05,1.0892191451501457e-06,1.0804919323055318e-06,9.363251629473376e-05,7.882736231232002e-07,9.154018380548927e-07,1.0793657093480503e-06,1.4749405152740482e-06
140,1.13237816228461e-05,8.488894203473471e-07,1.7062953770990693e-06,1.0422264144068866e-05,7.817843574924636e-07,7.691553835268909e-07,9.391334874322321e-07,9.427858201694983e-07,1.2288424428096196e-05,1.062641297336917e-06,1.0962289857057542e-06,8.832072155138217e-05,7.739864774935962e-07,9.146997024103139e-07,1.084044430907931e-06,1.4566478484116234e-06
141,1.1357262408827157e-05,8.366194324247759e-07,1.6634205888097948e-06,1.0509054637080552e-05,7.78206604814461e-07,7.929229988245089e-07,9.265935345863535e-07,1.047225236574691e-06,1.144133789594272e-05,1.0341624524700073e-06,1.1096967516407943e-06,8.290503622298709e-05,7.597218543927519e-07,9.148256413292617e-07,1.0905827625124373e-06,1.4429758006473994e-06
142,1.1333354931665835e-05,8.235046276406123e-07,1.6195405278913746e-06,1.0599738719028515e-05,7.742852378951791e-07,8.188754685958706e-07,9.153365737754448e-07,1.1772744023706676e-06,1.0636273671008611e-05,1.0041267726105358e-06,1.1211480662480502e-06,7.744599870114423e-05,7.46065183834302e-07,9.157014528549692e-07,1.098747603417731e-06,1.433724892122383e-06
143,1.1249285598518039e-05,8.097220736502057e-07,1.5750578792623062e-06,1.0696421170323993e-05,7.702583647614599e-07,8.468796043587764e-07,9.055205055974573e-07,1.3350946260087972e-06,9.882300021880777e-06,9.729797111950872e-07,1.1308083576929106e-06,7.199462145862366e-05,7.334702752677307e-07,9.172102007845757e-07,1.1081672647662983e-06,1.4286289167620186e-06
144,1.1104576038439132e-05,7.956645514084495e-07,1.530351178332188e-06,1.0800932449034587e-05,7.663187178996608e-07,8.767064630489715e-07,8.975146136439126e-07,1.5227674321235119e-06,9.18612847842025e-06,9.41306587730724e-07,1.138843366850636e-06,6.659570666345579e-05,7.222618560862616e-07,9.191401658215144e-07,1.1182907773104973e-06,1.4275264557807874e-06
145,1.0901999171955885e-05,7.817980469505002e-07,1.4858417728088882e-06,1.0914505979164479e-05,7.62623582083044e-07,9.079830254979521e-07,8.917330976250372e-07,1.742167077202259e-06,8.552184180079237e-06,9.097673629640759e-07,1.145337637755425e-06,6.128984209613022e-05,7.126310724419685e-07,9.212096927572057e-07,1.1284393327693624e-06,1.4304904998176825e-06
146,1.0647853059076838e-05,7.685192083578313e-07,1.442029783298182e-06,1.1037470235625782e-05,7.59365887545898e-07,9.40172587244991e-07,8.884796163776357e-07,1.99485121104898e-06,7.982826496092246e-06,8.790168916355858e-07,1.1502935101077184e-06,5.611447970421084e-05,7.046338570693336e-07,9.231912919627862e-07,1.137881045450653e-06,1.4377795990438713e-06
147,1.0351275687218439e-05,7.561312441346699e-07,1.3994882562757464e-06,1.1168883758793738e-05,7.568059204796735e-07,9.725777850694592e-07,8.879057552006302e-07,2.2819942519956617e-06,7.478729773105307e-06,8.496496978522362e-07,1.1537282889823668e-06,5.110434088224404e-05,6.982160082231763e-07,9.249884035870346e-07,1.1458512040908808e-06,1.449665327862356e-06
148,1.0022841471882218e-05,7.449089403910482e-07,1.358808481730323e-06,1.130616190660372e-05,7.552219233302568e-07,1.0044057360577491e-06,8.900290229874924e-07,2.6043465605686633e-06,7.039327740347694e-06,8.221525092709433e-07,1.1558182153075989e-06,4.629103524665131e-05,6.932651724907846e-07,9.265713846367002e-07,1.1516108919652084e-06,1.466325995870403e-06
149,9.673046052428601e-06,7.351520049309499e-07,1.3205041600866739e-06,1.1445184841502203e-05,7.548506466491998e-07,1.0349139977450638e-06,8.94730310462203e-07,2.9622018289538633e-06,6.66317140174598e-06,7.968751139501908e-07,1.1569226154097758e-06,4.170179026691682e-05,6.89663675681199e-07,9.278648842284033e-07,1.1546625607155695e-06,1.4878382360110616e-06
150,9.311157202704224e-06,7.271773886474363e-07,1.2849063374797508e-06,1.158118744101226e-05,7.558412714846824e-07,1.0635648621388118e-06,9.017287145054636e-07,3.3554108874647398e-06,6.348164015753656e-06,7.74031911215872e-07,1.15745228604944e-06,3.735785647915635e-05,6.872990585569571e-07,9.287280291169703e-07,1.1549596501833974e-06,1.5141295230664026e-06
151,8.944600080265483e-06,7.212750272357068e-07,1.2521153666955814e-06,1.1709871421623562e-05,7.582152550254624e-07,1.0900766411516577e-06,9.105643870861492e-07,3.783443401639948e-06,6.09175938489766e-06,7.537280162293665e-07,1.1577276470977188e-06,3.327360023297482e-05,6.860432492727731e-07,9.290378275870516e-07,1.1528618228931554e-06,1.544878495616922e-06
152,8.578856071504817e-06,7.176940445293376e-07,1.2220665835050365e-06,1.1827956255465934e-05,7.618803393002652e-07,1.1143303270160683e-06,9.205978113846346e-07,4.245390515449153e-06,5.891182030917997e-06,7.359829072991961e-07,1.1579198292148177e-06,2.945674677729877e-05,6.85745422921168e-07,9.287622317907947e-07,1.148877557681348e-06,1.5794815341664098e-06
153,8.21770404128509e-06,7.166824460149641e-07,1.1946604304555102e-06,1.1932945109820888e-05,7.667091939959897e-07,1.136200026582281e-06,9.310388901580792e-07,4.739840707129798e-06,5.743637933603074e-06,7.207257730385746e-07,1.1580246232881534e-06,2.5909371147848422e-05,6.862280607046332e-07,9.279495757738448e-07,1.143437193269741e-06,1.6171178168247856e-06
154,7.863537309333659e-06,7.1851407624437e-07,1.16982179102434e-06,1.2022271591020189e-05,7.726081070101019e-07,1.1554311333704259e-06,9.410253522129727e-07,5.264686675676496e-06,5.6464590641760005e-06,7.078048429073e-07,1.157851239496008e-06,2.2629085767107703e-05,6.872803660193288e-07,9.26697281712409e-07,1.13680315316623e-06,1.6568788204821386e-06
155,7.517598399491766e-06,7.234555695011138e-07,1.1474679884549233e-06,1.2092260848742263e-05,7.795139118022529e-07,1.1716545287742082e-06,9.4973849816506e-07,5.816949145103752e-06,5.5971073361541775e-06,6.970407295739328e-07,1.1570900501462362e-06,1.9610252953865563e-05,6.886886943465351e-07,9.251638358000103e-07,1.1290475447262306e-06,1.6979473526038787e-06
156,7.1801819197530805e-06,7.317108079046861e-07,1.1274890809180744e-06,1.2137802785594147e-05,7.87329139472078e-07,1.1845316823736654e-06,9.56524600497496e-07,6.392684608932356e-06,5.593006711089203e-06,6.882539103444629e-07,1.1554469856251038e-06,1.684521922623279e-05,6.902877692036809e-07,9.235684589578932e-07,1.1200490212596723e-06,1.7397677537233067e-06
157,6.850904282386265e-06,7.433891356513364e-07,1.1097437135764479e-06,1.2153315175814442e-05,7.958542357998781e-07,1.1939436740912089e-06,9.609726044836475e-07,6.98703756443449e-06,5.631362842370249e-06,6.812381777579655e-07,1.1527164038678828e-06,1.4325473505853424e-05,6.919754889817862e-07,9.221381319907524e-07,1.1095341022682267e-06,1.782115524992242e-06
158,6.529015610753613e-06,7.58491597413462e-07,1.0940079874327615e-06,1.2134375460766974e-05,8.047670756658786e-07,1.2001100849163945e-06,9.628881194386586e-07,7.594447607730532e-06,5.7091495115977425e-06,6.757481317574304e-07,1.1487291174873478e-06,1.2042535464031838e-05,6.93693545585512e-07,9.210515524622543e-07,1.0972217673908588e-06,1.8250393480475322e-06
159,6.213672670265853e-06,7.76891898827782e-07,1.0799183929161443e-06,1.207901501612582e-05,8.136574275203525e-07,1.203553941725182e-06,9.622058343757242e-07,8.208927764274753e-06,5.823111166320097e-06,6.715431195850545e-07,1.1432885749063509e-06,9.988365672707953e-06,6.954092185785133e-07,9.204084112217422e-07,1.0830570002564906e-06,1.8686968284166116e-06
160,5.904167769780934e-06,7.983165957019825e-07,1.0669654295569966e-06,1.1988280993030054e-05,8.221101220674029e-07,1.2049279055997527e-06,9.58981439917462e-07,8.824275117688375e-06,5.969578078396611e-06,6.684526148387627e-07,1.136230345030503e-06,8.155297453930177e-06,6.971156160246168e-07,9.20224559668026e-07,1.0673438361834738e-06,1.9131381023636023e-06
161,5.600153576358279e-06,8.22336622298525e-07,1.0545357687028404e-06,1.1866146893626872e-05,8.298209747749298e-07,1.204838504850431e-06,9.534599350898923e-07,9.434101311633463e-06,6.144310141806793e-06,6.66386107896976e-07,1.1275632220611918e-06,6.5358299728565765e-06,6.988384181647491e-07,9.204524063336557e-07,1.050658145549172e-06,1.9581853363473537e-06
162,5.301853139693616e-06,8.483638823650695e-07,1.0420217262659997e-06,1.1719010999544534e-05,8.366886812775239e-07,1.203778515314966e-06,9.460579969449727e-07,1.0031646719503938e-05,6.342559898571551e-06,6.65290558426717e-07,1.117536093561063e-06,5.122604871874926e-06,7.00648277520975e-07,9.209864039958703e-07,1.0337027010369418e-06,2.0035122542358345e-06
163,5.0101474705716085e-06,8.756556210475415e-07,1.0289866707553801e-06,1.1555029993922114e-05,8.428184838417465e-07,1.2021203322120928e-06,9.372471766621019e-07,1.0609426653295516e-05,6.55913660449151e-06,6.651422620057261e-07,1.1065773654338897e-06,3.9084873426173625e-06,7.02692902389169e-07,9.216438555571644e-07,1.0172432461243192e-06,2.0487822160588367e-06
164,4.726394327563163e-06,9.033648314456335e-07,1.0152530019376931e-06,1.1383374035344553e-05,8.484368550439311e-07,1.2001035923515609e-06,9.274916050302348e-07,1.1158799824680842e-05,6.788366326407693e-06,6.659724743655338e-07,1.0951903631178028e-06,2.8865016341723716e-06,7.051841366392633e-07,9.222000875457438e-07,1.0020353701904084e-06,2.0936316122175994e-06
165,4.4520134832720685e-06,9.306572608212403e-07,1.0008334280665373e-06,1.1213322291369119e-05,8.537892991875106e-07,1.1978365755960954e-06,9.172608742094643e-07,1.1669516145757493e-05,7.024014830342744e-06,6.67883906754257e-07,1.08387188978146e-06,2.04961925668688e-06,7.083045800208201e-07,9.224987172080211e-07,9.887058226649288e-07,2.1375171818125767e-06
166,4.1881162444036805e-06,9.568258378369316e-07,9.858510683615811e-07,1.1053209553140156e-05,8.590901810552879e-07,1.1953070762456955e-06,9.070063661611839e-07,1.2129439736341456e-05,7.259097139509848e-06,6.710684960561895e-07,1.073044633547469e-06,1.390610993745027e-06,7.12146437803371e-07,9.22520037509e-07,9.77694351446123e-07,2.1796111122281656e-06
167,3.9353327648006605e-06,9.81315824762532e-07,9.705532853286792e-07,1.0909499910394114e-05,8.645092379602543e-07,1.1923860068722979e-06,8.971140412315906e-07,1.2525069970628017e-05,7.485721185935301e-06,6.758011885545071e-07,1.0630085928357766e-06,9.020754254790976e-07,7.167480863404038e-07,9.223456115215247e-07,9.692783514836343e-07,2.2188182500385165e-06
168,3.6937290160971192e-06,1.0036881913213417e-06,9.553020401099794e-07,1.0786315209819094e-05,8.70133373716366e-07,1.1888751988146862e-06,8.879233248336721e-07,1.2843404069996603e-05,7.695373449816205e-06,6.823977786127985e-07,1.053929087153846e-06,5.765868719559096e-07,7.221460424329483e-07,9.220868576568142e-07,9.63606966027072e-07,2.2538458629445e-06
169,3.4628394468819145e-06,1.0235988705917859e-06,9.404814236771381e-07,1.0685493062427726e-05,8.759063171500507e-07,1.184620181243629e-06,8.797896285833724e-07,1.3074655237079694e-05,7.879682091416548e-06,6.911769479994554e-07,1.0458363170028644e-06,4.0696022982050284e-07,7.283670870114443e-07,9.218280408746672e-07,9.607169582444462e-07,2.283318679378118e-06
170,3.2419552511577786e-06,1.0407839929881408e-06,9.264116168637521e-07,1.060697761350654e-05,8.816163672196274e-07,1.1796219718809097e-06,8.731202968493733e-07,1.321443427813632e-05,8.03123097771765e-06,7.024229182440976e-07,1.038652209188075e-06,3.866691308317873e-07,7.353937210064259e-07,9.216145189437295e-07,9.605807924367517e-07,2.306046343173852e-06
171,3.030532490422874e-06,1.0549947795772363e-06,9.133344279477116e-07,1.0549267115295645e-05,8.869719211861168e-07,1.1740741669527043e-06,8.683533611998481e-07,1.326419616642002e-05,8.143918024753397e-06,7.163557153269526e-07,1.0322884272122217e-06,5.102511416003272e-07,7.431881869867398e-07,9.215010309577357e-07,9.632133903368233e-07,2.3214234500513243e-06
172,2.828450921079612e-06,1.0658978282521924e-06,9.014562433587548e-07,1.0509712713738769e-05,8.917108004356551e-07,1.168291682836008e-06,8.658953386422885e-07,1.3229742050057331e-05,8.212552030930628e-06,7.331457616952973e-07,1.0267620758466512e-06,7.734576693827895e-07,7.517624977288785e-07,9.215908269781164e-07,9.6875002690568e-07,2.3296980854668977e-06
173,2.6360098676435406e-06,1.0730446987447178e-06,8.909716942244724e-07,1.0484591675496258e-05,8.956403045807687e-07,1.1625787453297336e-06,8.660833865990653e-07,1.3118654841804512e-05,8.232061014294308e-06,7.52942880975799e-07,1.022238571544768e-06,1.173118806171896e-06,7.611824060634214e-07,9.220103123135514e-07,9.774023597857818e-07,2.3318796817097327e-06
174,2.453708576592677e-06,1.0759797131644918e-06,8.820394438944451e-07,1.0469011470280849e-05,8.985830783383786e-07,1.1571580790272325e-06,8.691906921811106e-07,1.2938274931760067e-05,8.197459695804173e-06,7.758658170558608e-07,1.0189839840650716e-06,1.7068702857097956e-06,7.715050635589139e-07,9.228365140318116e-07,9.893269525494137e-07,2.3293589447510766e-06
175,2.2819817214403004e-06,1.0744079846462054e-06,8.747829775668741e-07,1.0456768248894157e-05,9.003247604683387e-07,1.1521930378182207e-06,8.754195588053243e-07,1.2695370964127219e-05,8.105258608271809e-06,8.019771302429881e-07,1.0172773386136162e-06,2.3728650438906184e-06,7.827411521959645e-07,9.240173467853137e-07,1.0045253313841362e-06,2.3235245081609132e-06
176,2.1210547899169777e-06,1.0682788816927613e-06,8.693447091859142e-07,1.0440299233819226e-05,9.00639693134038e-07,1.1477877648258081e-06,8.848792053483479e-07,1.2396963280674957e-05,7.95541641024134e-06,8.312963122502231e-07,1.0173529559529378e-06,3.1695074127206905e-06,7.948298241698415e-07,9.253361548756235e-07,1.022862730325719e-06,2.31560109260448e-06
177,1.970922465303199e-06,1.0577342565106762e-06,8.659250292595351e-07,1.0410922570262849e-05,8.993329944942615e-07,1.143919967537167e-06,8.975943670305862e-07,1.2050844037286721e-05,7.752009106250677e-06,8.638130882905382e-07,1.0193807743925725e-06,4.095224670267557e-06,8.075912190569999e-07,9.264401452601072e-07,1.0441714843629968e-06,2.3066721635936085e-06
178,1.8313469823422802e-06,1.0430086296727524e-06,8.647501758527159e-07,1.0359585993624803e-05,8.962146534479853e-07,1.1404250411224109e-06,9.135226771790936e-07,1.1665227554158338e-05,7.501951466819552e-06,8.994382915554083e-07,1.023437194401273e-06,5.148285595158263e-06,8.207050757494031e-07,9.268965612404474e-07,1.0683143363602007e-06,2.2976857889864132e-06
179,1.7018600620132532e-06,1.0244032406190462e-06,8.659894760365675e-07,1.027815295442138e-05,8.910607326784356e-07,1.1371185893197711e-06,9.325391517220405e-07,1.1248036668644549e-05,7.213385627716827e-06,9.379279042459034e-07,1.0294626150427742e-06,6.32665791907518e-06,8.337648840926234e-07,9.262732758278932e-07,1.095169818647924e-06,2.289373454596169e-06
180,1.5818927573215855e-06,1.0023484697525855e-06,8.696839829594589e-07,1.0160863239194047e-05,8.836439654442276e-07,1.1339689738305044e-06,9.544079869473637e-07,1.080643277183567e-05,6.895050072051697e-06,9.788524589914883e-07,1.037238112246548e-06,7.627867093742644e-06,8.463896785987663e-07,9.242903483304713e-07,1.1246104473399038e-06,2.282169066561418e-06
181,1.4710653812660413e-06,9.77450063173612e-07,8.757212133801361e-07,1.0005359832120645e-05,8.737743909496218e-07,1.1311575905607697e-06,9.787707671976037e-07,1.0346762311488841e-05,6.555811860379704e-06,1.0216270765264965e-06,1.0464015095294885e-06,9.048776853419974e-06,8.583185411565101e-07,9.209674384506715e-07,1.1564986796465142e-06,2.2761919044653995e-06
182,1.3694210524911024e-06,9.504310980556242e-07,8.838533042161949e-07,9.812851651270384e-06,8.612944102215133e-07,1.1289758306295194e-06,1.0051715918328389e-06,9.874745592270302e-06,6.20390783274496e-06,1.0655524303778091e-06,1.0565144812996238e-06,1.0585287685916542e-05,8.69409813180498e-07,9.165908808229174e-07,1.19070241467377e-06,2.271295639448997e-06
183,1.2773957125987739e-06,9.219971732853573e-07,8.937311098939888e-07,9.587421220128994e-06,8.460987431010001e-07,1.1276660095201029e-06,1.0331143051879657e-06,9.39570186471402e-06,5.8465684785439504e-06,1.1098302078718503e-06,1.067167469783331e-06,1.2232159962034205e-05,8.795421294385654e-07,9.115202646907632e-07,1.2271119289619007e-06,2.2671455677548513e-06
184,1.19558085010466e-06,8.927181977604704e-07,9.049291797560202e-07,9.334779006128375e-06,8.282082614805626e-07,1.1273376125475685e-06,1.0620767391816561e-06,8.914754757368329e-06,5.490049113831596e-06,1.1536234597758988e-06,1.0780847609822352e-06,1.3983154428300512e-05,8.885132127899336e-07,9.060516579984273e-07,1.2655803477507062e-06,2.2632697442261683e-06
185,1.1244863200549124e-06,8.629898081386377e-07,9.170015575826496e-07,9.060849537285655e-06,8.078237237920512e-07,1.1279771922348739e-06,1.0914483499298537e-06,8.437046534871363e-06,5.139667094021798e-06,1.1962131261495454e-06,1.0891819260224285e-06,1.583130463579045e-05,8.960307955860685e-07,9.004268478393002e-07,1.3058268494744328e-06,2.259117334173091e-06
186,1.06442362032131e-06,8.330753078334876e-07,9.295720408953503e-07,8.770701947640695e-06,7.853006238692566e-07,1.1294944512635169e-06,1.1204779398338186e-06,7.967938767837189e-06,4.799872128449763e-06,1.2371406734822117e-06,1.100524204398898e-06,1.776889368914498e-05,9.01798092159143e-07,8.948658142617502e-07,1.3474197878567432e-06,2.254216631327244e-06
187,1.0154811986817802e-06,8.031828622449596e-07,9.423542154607536e-07,8.468260873253557e-06,7.610687557108661e-07,1.1317718091010602e-06,1.1483040549036583e-06,7.513084450552363e-06,4.474444055372702e-06,1.276211106872176e-06,1.112199873718915e-06,1.9786943058854258e-05,9.056499954225794e-07,8.895230322269164e-07,1.3898182129515213e-06,2.2483627608388434e-06
188,9.775365152047132e-07,7.735216652387815e-07,9.551122615518418e-07,8.15664696022255e-06,7.355992111310663e-07,1.134705075840021e-06,1.174051398035982e-06,7.0782636261870135e-06,4.166652041303183e-06,1.3133602795602081e-06,1.124211300544049e-06,2.187438024468172e-05,9.076629003084041e-07,8.844220309299117e-07,1.4324491075439385e-06,2.241610210247531e-06
189,9.502809877684232e-07,7.443143083314756e-07,9.676847901887653e-07,7.838588651830988e-06,7.094526198686993e-07,1.1382161663139984e-06,1.1969635045725247e-06,6.669037445096246e-06,3.879225817137148e-06,1.348499792011722e-06,1.13646847934309e-06,2.4017197024449057e-05,9.081401994427126e-07,8.794716543150262e-07,1.4748853556357702e-06,2.2340392135336443e-06
190,9.332435309287809e-07,7.157956248295176e-07,9.800347139852795e-07,7.516643624609228e-06,6.832925361121909e-07,1.1422401503365808e-06,1.2165464099796235e-06,6.290402247283617e-06,3.614259861950339e-06,1.3814700427339767e-06,1.1488683823981597e-06,2.619790811923618e-05,9.074936315630399e-07,8.745855111448751e-07,1.517010174421316e-06,2.225587728558321e-06
191,9.258512277489641e-07,6.882425744040468e-07,9.92208444261931e-07,7.193349946966641e-06,6.578053765547439e-07,1.1467046531956873e-06,1.2326597432033373e-06,5.946520760452141e-06,3.373283077395468e-06,1.4121009338719549e-06,1.1613489422855584e-06,2.8395372320834467e-05,9.061414664429048e-07,8.697861372684746e-07,1.5589363842920657e-06,2.2161606926906565e-06
192,9.27547503891443e-07,6.620194702237753e-07,1.00422417808255e-06,6.871384838724656e-06,6.336089192196055e-07,1.1515005086351007e-06,1.2454858293226407e-06,5.640506172252591e-06,3.157512277382002e-06,1.440262915460367e-06,1.1738301583543353e-06,3.058454611565722e-05,9.044951093568997e-07,8.651600077425073e-07,1.6007526507183686e-06,2.2058303909268417e-06
193,9.378627759651215e-07,6.375679812286329e-07,1.015983444735461e-06,6.553624829023851e-06,6.112090601011332e-07,1.1564682434972185e-06,1.2553821459064292e-06,5.3743528170352705e-06,2.968069205785244e-06,1.4658713825460673e-06,1.1860992479352333e-06,3.273567448686379e-05,9.0299674708224e-07,8.607274926691119e-07,1.642378898440189e-06,2.1948429421122813e-06
194,9.563814942165464e-07,6.153298549943201e-07,1.0272371408311012e-06,6.243047102685462e-06,5.909930621438109e-07,1.1614484164709256e-06,1.2627135304364527e-06,5.149088887931954e-06,2.8060001230312187e-06,1.4889070308614227e-06,1.1977512426029097e-06,3.481326793600889e-05,9.020960272194823e-07,8.56411460705448e-07,1.6836156392605176e-06,2.183417208781236e-06
195,9.826987167109723e-07,5.956738366816611e-07,1.0375878386573073e-06,5.9425640630789835e-06,5.73241398071481e-07,1.1663346307740066e-06,1.2677608035176095e-06,4.9649803334068e-06,2.672166916994252e-06,1.5094601800432693e-06,1.2082255873461638e-06,3.677627617913338e-05,9.02152173174293e-07,8.521532786729353e-07,1.7242876524770494e-06,2.1715360515063524e-06
196,1.0163995729008116e-06,5.788694885529069e-07,1.0465392723942028e-06,5.654820704945689e-06,5.581506563237257e-07,1.171036627128216e-06,1.270701498527094e-06,4.821597629313821e-06,2.5671764440958e-06,1.5277204995867102e-06,1.2169087157123953e-06,3.858073566817901e-05,9.033658754483581e-07,8.48038647131222e-07,1.7643627244407247e-06,2.1589418985245073e-06
197,1.0570039555478262e-06,5.650840206672316e-07,1.0536020718820912e-06,5.381889627136775e-06,5.458586440988314e-07,1.175444502125207e-06,1.2715888230117494e-06,4.717765315453424e-06,2.4913791254028323e-06,1.5438614579359064e-06,1.223227203831786e-06,4.01847480606388e-05,9.05799671213072e-07,8.442892689605159e-07,1.8039301431052487e-06,2.1453720396365852e-06
198,1.1038965514514487e-06,5.543805154181214e-07,1.0584069039153003e-06,5.1249585166438525e-06,5.364644169504928e-07,1.179489448521865e-06,1.2703133888455267e-06,4.651518304348114e-06,2.4448627027157e-06,1.5578813790442825e-06,1.2266868024964469e-06,4.155425142126319e-05,9.094817542078179e-07,8.411630513149149e-07,1.843021176882265e-06,2.130814322639295e-06
199,1.1563003184766658e-06,5.467281138823593e-07,1.0607622649771183e-06,4.884184933046654e-06,5.300388684189671e-07,1.1831872568913138e-06,1.2666106919731706e-06,4.62014440137037e-06,2.4275098983649384e-06,1.5694973720540093e-06,1.2269007842709317e-06,4.266698776678546e-05,9.145078152829229e-07,8.388871281967304e-07,1.881418920956354e-06,2.115547134013487e-06
200,1.2132706991169964e-06,5.420242646662857e-07,1.0606186787210913e-06,4.658735072631147e-06,5.266176013458457e-07,1.1866088611887838e-06,1.2601373197147808e-06,4.6202852685640434e-06,2.439149608225449e-06,1.5781213598582613e-06,1.2236581221130615e-06,4.351151927994618e-05,9.210158056452919e-07,8.376314529968538e-07,1.918581918894245e-06,2.0999751493017455e-06
201,1.273672538351491e-06,5.401096182804021e-07,1.0579682198350458e-06,4.447007367037925e-06,5.261741017817262e-07,1.1899016404332417e-06,1.2505739772383372e-06,4.648022957661845e-06,2.4796091535359974e-06,1.582947799059843e-06,1.2170042867169484e-06,4.408177854535837e-05,9.290663722926119e-07,8.374871019823543e-07,1.9536685109723866e-06,2.084454511176896e-06
202,1.3361629881389617e-06,5.407884199287274e-07,1.052798125412174e-06,4.24705851429917e-06,5.285973644130555e-07,1.1933484099217017e-06,1.2377413774842986e-06,4.698983614999207e-06,2.548719923556528e-06,1.5832277051266667e-06,1.2072619044559722e-06,4.437440823324161e-05,9.385724475321418e-07,8.384574880417042e-07,1.985655689167106e-06,2.069223982296272e-06
203,1.3992152310248428e-06,5.438617225980766e-07,1.0451460643386704e-06,4.057066722114699e-06,5.337156281317473e-07,1.1973161705628127e-06,1.2217244951259958e-06,4.76861718946039e-06,2.646523003928232e-06,1.578668761102744e-06,1.1949455536944346e-06,4.439327207566822e-05,9.493123305885022e-07,8.404952080374294e-07,2.013491388682808e-06,2.0543948518573005e-06
204,1.4611918839010848e-06,5.491251178514237e-07,1.0351376530185764e-06,3.875607310800745e-06,5.413718010328837e-07,1.202146075993668e-06,1.2029311827829153e-06,4.852722293395047e-06,2.773514418709994e-06,1.5696760020212615e-06,1.1806009626155114e-06,4.415467150943087e-05,9.609553434313955e-07,8.435908173841751e-07,2.0361186539341267e-06,2.0399499232089644e-06
205,1.5204463422322122e-06,5.563263064968743e-07,1.0229203319357977e-06,3.7016799759223684e-06,5.514814926168896e-07,1.2081380668350878e-06,1.1820061687106714e-06,4.9479760586641146e-06,2.930644323799392e-06,1.5572171804990944e-06,1.164690018981768e-06,4.368688792944246e-05,9.730631135184915e-07,8.478224838256385e-07,2.052450972629065e-06,2.0257886154503963e-06
206,1.5753860381417388e-06,5.651618311300412e-07,1.0085820453843219e-06,3.5345849000517976e-06,5.640109030853422e-07,1.2155936569016089e-06,1.1596363347148708e-06,5.052052150826263e-06,3.119172347673539e-06,1.542440901606471e-06,1.1476222388160542e-06,4.302607719260376e-05,9.851245953234119e-07,8.532929144798032e-07,2.0615498792973025e-06,2.0118439764645927e-06
207,1.6244351417734863e-06,5.753543718357525e-07,9.921639469810895e-07,3.3738181262871625e-06,5.789198178897315e-07,1.2248020293260128e-06,1.136390342361455e-06,5.163164743408878e-06,3.3406126798411115e-06,1.5263542256330614e-06,1.1298640486909233e-06,4.2212076677992204e-05,9.966585645900408e-07,8.600293941846879e-07,2.062962326828874e-06,1.9981993794569164e-06
208,1.665952472737733e-06,5.86731120081923e-07,9.73741664991418e-07,3.21911161476112e-06,5.961372156101415e-07,1.235963284579331e-06,1.1127132481087863e-06,5.2794128047327336e-06,3.596773075414772e-06,1.5097003826193029e-06,1.1119663971080605e-06,4.1284401697493214e-05,1.0072873842540538e-06,8.679446985100504e-07,2.0569438784832106e-06,1.985065699892487e-06
209,1.698292392038534e-06,5.992139937028158e-07,9.53489304515537e-07,3.0705748299406677e-06,6.155492579239469e-07,1.2491190482912032e-06,1.0890459331413143e-06,5.398538415939668e-06,3.889717226492971e-06,1.4929423521651107e-06,1.0944717680451313e-06,4.0278508395573994e-05,1.0167160531108108e-06,8.768522876314865e-07,2.0443684570620516e-06,1.9725871796078395e-06
210,1.7200949870920526e-06,6.12786165101915e-07,9.316911321880247e-07,2.9287464665887004e-06,6.369723617554254e-07,1.26412881554479e-06,1.0659059571836024e-06,5.518269184464576e-06,4.2215359007564965e-06,1.4762564985299105e-06,1.0778222992035411e-06,3.922406662297847e-05,1.0246889379628426e-06,8.864904502328535e-07,2.0263571334900247e-06,1.960666167064757e-06
211,1.7306255538207032e-06,6.275167103260668e-07,9.086949594882424e-07,2.794403233653016e-06,6.601325934398112e-07,1.2806601720118206e-06,1.043827109854021e-06,5.636851661879837e-06,4.59397684107868e-06,1.4595736942565881e-06,1.0623687103792393e-06,3.81455521561887e-05,1.0309732984240294e-06,8.965701477544329e-07,2.003901821378338e-06,1.948993339248098e-06
212,1.7299351912330897e-06,6.435658853292501e-07,8.848164345035118e-07,2.6682136256084046e-06,6.846672579540498e-07,1.2981950034678035e-06,1.0232409641848662e-06,5.753374428844796e-06,5.008086235749705e-06,1.4426972327116147e-06,1.04841222996041e-06,3.706270872491424e-05,1.0353156418339056e-06,9.068695873326407e-07,1.9777026485671623e-06,1.93723264536475e-06
213,1.7187967014139994e-06,6.611164793485366e-07,8.602552617242868e-07,2.5505284808276274e-06,7.101586073629907e-07,1.3161032669338807e-06,1.0044249939796016e-06,5.867733125033401e-06,5.4639750631913206e-06,1.425417307746523e-06,1.0361791515864121e-06,3.598946262759763e-05,1.0373508560873418e-06,9.173154278209527e-07,1.948231125999443e-06,1.9251757769799663e-06
214,1.6984940888738664e-06,6.803001678610072e-07,8.350894994518336e-07,2.4414608525161087e-06,7.362072581712075e-07,1.3337592679267764e-06,9.875160266442333e-07,5.9802305753285094e-06,5.960676451242096e-06,1.4075609120519027e-06,1.0257753255452541e-06,3.4932668089543686e-05,1.0365532320856258e-06,9.27987965380449e-07,1.91593154677062e-06,1.9127554531541018e-06
215,1.6705534041681582e-06,7.011596895607391e-07,8.093482852377323e-07,2.341101296481344e-06,7.62520852341236e-07,1.3506127034949847e-06,9.725313925253133e-07,6.09094068413441e-06,6.4960006244600345e-06,1.3890287143440063e-06,1.0172012275594497e-06,3.38920727536981e-05,1.0323306501327706e-06,9.390562164997764e-07,1.881353545245128e-06,1.8999565965216227e-06
216,1.6364991342548554e-06,7.236387762452786e-07,7.831187311485211e-07,2.249658631192019e-06,7.889672282743224e-07,1.366161026465508e-06,9.59405027984785e-07,6.199077762592238e-06,7.066385269245256e-06,1.3698675632154682e-06,1.0103913515705834e-06,3.286207968252508e-05,1.0242457457892093e-06,9.506940365345837e-07,1.8450659217607636e-06,1.8867103755473964e-06
217,1.5976959269986976e-06,7.475978376918941e-07,7.5663935824448e-07,2.167472908254182e-06,8.155557622649199e-07,1.379843449958507e-06,9.480742763773635e-07,6.302566535811724e-06,7.666801569212827e-06,1.3503352582591925e-06,1.0052261507316632e-06,3.18362655297332e-05,1.012208305779139e-06,9.630507832640594e-07,1.807464045299043e-06,1.872858791007885e-06
218,1.55527717905443e-06,7.728474789346339e-07,7.30347768991871e-07,2.0949853372185154e-06,8.423665601473522e-07,1.3909660124168474e-06,9.38582547876583e-07,6.3978795310701036e-06,8.290734518958249e-06,1.330880525535042e-06,1.0015280684583484e-06,3.0813491980638227e-05,9.964808998748867e-07,9.762756447383491e-07,1.7686433591659254e-06,1.8583011840540345e-06
219,1.5101680637162723e-06,7.991791242016762e-07,7.048793167411227e-07,2.0327665777359704e-06,8.694798193416161e-07,1.3987610994712195e-06,9.310995634094534e-07,6.480209620907854e-06,8.93021807520506e-06,1.3120090546060643e-06,9.990571548358963e-07,2.9801039286781586e-05,9.77515182875448e-07,9.905215785288412e-07,1.7284268614198263e-06,1.843237298081972e-06
220,1.4632195555388907e-06,8.263625371664504e-07,6.810329725272624e-07,1.9815910991515022e-06,8.969244861500837e-07,1.4025484491151416e-06,9.2582459983708e-07,6.5441255922084745e-06,9.575963907909373e-06,1.2941075498042953e-06,9.97532736647333e-07,2.881208103209751e-05,9.557794440189092e-07,1.005908493813142e-06,1.6865815811814432e-06,1.828211828765735e-06
221,1.4153563266527158e-06,8.541149702460157e-07,6.597180352081704e-07,1.942464156103464e-06,9.246437674555203e-07,1.401889523897055e-06,9.228672022121605e-07,6.584677066231581e-06,1.0217651064151758e-05,1.2773410226761851e-06,9.967226645210989e-07,2.7860326692150306e-05,9.316811908399747e-07,1.0224638092946638e-06,1.643094767202116e-06,1.8139329372278032e-06
222,1.367584675642704e-06,8.821044837326117e-07,6.418872053523876e-07,1.916564593466121e-06,9.524824462088295e-07,1.396670048281052e-06,9.22195640598498e-07,6.598506798147008e-06,1.0844280545163469e-05,1.2616766282397798e-06,9.965598826184546e-07,2.695623286652163e-05,9.05607602298272e-07,1.0400676624821513e-06,1.5982473998288898e-06,1.8011763590749392e-06
223,1.3208547004280402e-06,9.100084565534694e-07,6.284779891955587e-07,1.9051451748045557e-06,9.80178713910934e-07,1.3870823132132638e-06,9.236277937811463e-07,6.584414543516414e-06,1.1444427450660416e-05,1.247005079658886e-06,9.971661195426531e-07,2.6105734994415246e-05,8.780485354049933e-07,1.0584662740475452e-06,1.552425033854478e-06,1.7908552278638497e-06
224,1.275919150589351e-06,9.375645854137796e-07,6.203902590397581e-07,1.909443954600178e-06,1.0073527517872124e-06,1.3735169338482556e-06,9.268206882172159e-07,6.543180263589842e-06,1.2006553905139502e-05,1.2332366194247094e-06,9.98742402447913e-07,2.530986623844729e-05,8.496513269985083e-07,1.0773577906999224e-06,1.5059025861418381e-06,1.7839975539971142e-06
225,1.2332793767424554e-06,9.645795367292974e-07,6.18480775855958e-07,1.930633839915169e-06,1.0335116853628792e-06,1.3564392121324209e-06,9.31272219838708e-07,6.476856982680082e-06,1.2519706731396481e-05,1.2202781452293806e-06,1.0014271841527732e-06,2.4564446671648823e-05,8.211213041337498e-07,1.096441566871029e-06,1.4587792044820253e-06,1.7815514960123095e-06
226,1.1931803626816847e-06,9.909399873932204e-07,6.235458901214194e-07,1.969790492201547e-06,1.0580583472139896e-06,1.3363214727222048e-06,9.363402761191724e-07,6.387844329362856e-06,1.29743624831749e-05,1.207992659098042e-06,1.0052250589732074e-06,2.386001996412527e-05,7.930973761367482e-07,1.1153816418228922e-06,1.410987958985847e-06,1.784216946433076e-06
227,1.1556093392105975e-06,1.0166570323246137e-06,6.363078819837985e-07,2.027824270348624e-06,1.0803212167826872e-06,1.3136214811821613e-06,9.412709535778298e-07,6.27809156765812e-06,1.3362637047362151e-05,1.19623034907562e-06,1.0100045531082982e-06,2.3182511678373882e-05,7.661246296952283e-07,1.1337957504848428e-06,1.3623212170301028e-06,1.792409715353499e-06
228,1.120320728271983e-06,1.0418933510153413e-06,6.574113297258577e-07,2.105375385918249e-06,1.099682489700486e-06,1.288746244204371e-06,9.452823258091787e-07,6.148865263839505e-06,1.3677411717018756e-05,1.1848338220386486e-06,1.015521652490583e-06,2.2515230422200357e-05,7.406723094572426e-07,1.1513287871743764e-06,1.3125749261759372e-06,1.8062741476281102e-06
229,1.086937848990549e-06,1.0669111108475752e-06,6.8741466478451e-07,2.202750087323635e-06,1.1157676526888993e-06,1.2619794994366218e-06,9.477362811518258e-07,6.001184839860367e-06,1.3911058788857955e-05,1.1735807209508716e-06,1.0214485362045468e-06,2.184202373528819e-05,7.171242972421873e-07,1.167694892002308e-06,1.2618242305929192e-06,1.825664485786052e-06
230,1.0551281458682742e-06,1.0919620971930017e-06,7.267880758074682e-07,2.319941201929966e-06,1.128517662141794e-06,1.2334403064511403e-06,9.482880746905763e-07,5.836432016115973e-06,1.4055323869618487e-05,1.1621773833320306e-06,1.0274029318338021e-06,2.115065359446461e-05,6.957575058457011e-07,1.1826071789928472e-06,1.2105997049433839e-06,1.8501094906039129e-06
231,1.024758178743851e-06,1.117191804305585e-06,7.759251179381435e-07,2.456684846806549e-06,1.1380639774606797e-06,1.2031453194419936e-06,9.468568864120728e-07,5.656620914881065e-06,1.4103031606972362e-05,1.1503509563957156e-06,1.0330020583344981e-06,2.0435327889363044e-05,6.767286645529207e-07,1.1956733860246009e-06,1.159775546001365e-06,1.8788376770655793e-06
232,9.959408504673617e-07,1.1425814495106222e-06,8.351572515256279e-07,2.612477620430473e-06,1.1445590586784333e-06,1.1711401033494832e-06,9.434411363259357e-07,5.464304244490698e-06,1.4050406505008146e-05,1.137962455952952e-06,1.0379473156041103e-06,1.9696798441138783e-05,6.600704827360582e-07,1.2063711890334586e-06,1.1103046665563331e-06,1.9109317875987854e-06
233,9.689822772915476e-07,1.1679069918708449e-06,9.047804276494869e-07,2.7865295281855153e-06,1.1481483274876457e-06,1.1376107685234532e-06,9.379661236728012e-07,5.262361394930898e-06,1.3898426076476907e-05,1.1250526330054613e-06,1.0420561767339193e-06,1.8939679433306437e-05,6.457229467563238e-07,1.214128632900605e-06,1.0630404538246684e-06,1.9455766995535736e-06
234,9.442803268805384e-07,1.1927158250768244e-06,9.850759901386015e-07,2.9777076818665203e-06,1.1490660205284665e-06,1.102940601517868e-06,9.302596696976413e-07,5.053815250591977e-06,1.3652660312025584e-05,1.1117994920790296e-06,1.0451888332228923e-06,1.8170314849931514e-05,6.336110280305921e-07,1.2184352635120007e-06,1.0186943751694624e-06,1.9822691184323905e-06
235,9.222120154886766e-07,1.2163357225672265e-06,1.0762825704758983e-06,3.1845064046386757e-06,1.1476997676613658e-06,1.0677243786324535e-06,9.200807954325469e-07,4.841668179223334e-06,1.3321844983287659e-05,1.0984262746937163e-06,1.0471664354922604e-06,1.7397160592616892e-05,6.237157554781497e-07,1.2188974430661918e-06,9.778559837461404e-07,2.0208472297810536e-06
236,9.030364109817449e-07,1.2379031577361044e-06,1.1785432938619406e-06,3.4049979712604685e-06,1.1445480847402201e-06,1.0327350261988783e-06,9.07161055610125e-07,4.6287275652859195e-06,1.291579869501531e-05,1.0851264459735364e-06,1.0477759100608036e-06,1.6630653247001206e-05,6.160739800774208e-07,1.2152354306297061e-06,9.410237555536683e-07,2.0612997868383203e-06
237,8.86835948820209e-07,1.25639147255432e-06,1.2918623738650344e-06,3.636810173001955e-06,1.1401277783717258e-06,9.988183233546658e-07,8.913196298287911e-07,4.417420888670828e-06,1.2443701243078425e-05,1.0720692420639905e-06,1.0468326418363131e-06,1.588155742181797e-05,6.107132830394941e-07,1.2072787335604702e-06,9.086297699198625e-07,2.1034965010644187e-06
238,8.735092700478635e-07,1.2706654888539108e-06,1.4160516418180768e-06,3.87730016962395e-06,1.1348969129093233e-06,9.667509816457739e-07,8.726218789795263e-07,4.20960834391989e-06,1.1913698946711644e-05,1.059450301937549e-06,1.0442505608238974e-06,1.5160048429222111e-05,6.075910718154012e-07,1.1949623481379618e-06,8.810329140855917e-07,2.1470208859024846e-06
239,8.62798626617097e-07,1.2796250401381964e-06,1.5506720284389632e-06,4.123923686753754e-06,1.1292022139033014e-06,9.371497125169213e-07,8.514286735222073e-07,4.006481308667621e-06,1.1333690066366331e-05,1.0474763125193843e-06,1.0400797534603153e-06,1.4475659229614539e-05,6.065887078215613e-07,1.1782828964652926e-06,8.584778621541916e-07,2.191182661987147e-06
240,8.543122453534986e-07,1.282437378945331e-06,1.6950093259314964e-06,4.374563407011877e-06,1.123268535883047e-06,9.104559932377141e-07,8.282736493610977e-07,3.808695432096776e-06,1.0712200574656278e-05,1.0363006523923844e-06,1.034462189807554e-06,1.383754016202193e-05,6.075444614460479e-07,1.1572754824892938e-06,8.410644939238764e-07,2.235237500966402e-06
241,8.475503993224473e-07,1.2787444434546463e-06,1.848096771317416e-06,4.627649714884879e-06,1.1172233727787932e-06,8.869527272118144e-07,8.03681456555226e-07,3.616722445540887e-06,1.0058692472462661e-05,1.0260060696861957e-06,1.0275568547608438e-06,1.3255119879253938e-05,6.102804127161054e-07,1.132100663849533e-06,8.287486928922135e-07,2.2787079720605684e-06
242,8.419837899314214e-07,1.2687170693157131e-06,2.0087373251207176e-06,4.88214030572551e-06,1.111082352174053e-06,8.668055589517102e-07,7.780673948528867e-07,3.431208655230362e-06,9.383462465633463e-06,1.0166231113309864e-06,1.0195354355456072e-06,1.273844490465787e-05,6.146363825227944e-07,1.103155703503605e-06,8.213505014242068e-07,2.3215002478270577e-06
243,8.371778929392499e-07,1.2529391242870272e-06,2.1754667493501293e-06,5.137493368467734e-06,1.1046917997363306e-06,8.501430101250548e-07,7.517484800964261e-07,3.253169876571542e-06,8.697386844987421e-06,1.008142986267165e-06,1.0106016564227526e-06,1.2297764146163357e-05,6.205418650286202e-07,1.071061250142933e-06,8.185450145379917e-07,2.3636947283616457e-06
244,8.328987450020029e-07,1.2322073492704387e-06,2.346506501112065e-06,5.393597019725987e-06,1.097730751861052e-06,8.371222943732776e-07,7.250131347185872e-07,3.0839802287499095e-06,8.01148574538064e-06,1.000522724104197e-06,1.0009433074916064e-06,1.194270265570131e-05,6.280570218105705e-07,1.0365225349397315e-06,8.198534206594173e-07,2.40529349956861e-06
245,8.291278603709706e-07,1.2073360863278387e-06,2.5198279933236494e-06,5.650486282294216e-06,1.0898469339500104e-06,8.279179686712098e-07,6.981952366664843e-07,2.9251561203552537e-06,7.336310473482112e-06,9.936684300927354e-07,9.906863909976857e-07,1.1681478943784498e-05,6.373111766028072e-07,1.0002026562110254e-06,8.246565331454361e-07,2.446122273844741e-06
246,8.259566780163895e-07,1.1790143858109092e-06,2.693340242588791e-06,5.907945769911978e-06,1.080857052729822e-06,8.226635900595191e-07,6.717058953757936e-07,2.7780198580305035e-06,6.681401657426561e-06,9.874176109478604e-07,9.799437909833923e-07,1.1520787531586229e-05,6.483940166558333e-07,9.627272636078362e-07,8.322075007445171e-07,2.485766021564879e-06
247,8.234369701068206e-07,1.1477385806153845e-06,2.8650842488616417e-06,6.165402184296668e-06,1.0708165467019812e-06,8.214279912538517e-07,6.459882768089466e-07,2.6434513406095184e-06,6.05503650257056e-06,9.816014595862884e-07,9.688821713675585e-07,1.1466563916148063e-05,6.612941613693896e-07,9.247551622225536e-07,8.41652258534497e-07,2.523526859944135e-06
248,8.215164076975405e-07,1.1138168792478052e-06,3.033331662885711e-06,6.422193906146954e-06,1.0598840945647e-06,8.242429640533992e-07,6.21433738029392e-07,2.5218382928630374e-06,5.464294755024435e-06,9.761556873441e-07,9.576928373988692e-07,1.1524809210502761e-05,6.759133940012019e-07,8.869647842338754e-07,8.521044623113597e-07,2.558480505759295e-06
249,8.2008543354854e-07,1.0774480532755462e-06,3.1965694709094034e-06,6.677869600811578e-06,1.048158489601801e-06,8.311189809328328e-07,5.983402909319462e-07,2.4131049992550897e-06,4.915296996089188e-06,9.711303059101352e-07,9.465068697735519e-07,1.1701558005666781e-05,6.921063463678903e-07,8.499724614060746e-07,8.627304545263793e-07,2.5895646356639234e-06
250,8.190286007855136e-07,1.0389049495424193e-06,3.353405827532926e-06,6.932350278100929e-06,1.035690226736328e-06,8.420116530474656e-07,5.769204290327057e-07,2.3167101928606997e-06,4.41334125376331e-06,9.666205986808156e-07,9.353648033069709e-07,1.2002287718877856e-05,7.096843696438292e-07,8.142916743811868e-07,8.727607698416651e-07,2.615765639433049e-06
251,8.18198104362593e-07,9.987566153058457e-07,3.5024642349185996e-06,7.1860934836104896e-06,1.0226430352503062e-06,8.567807047088618e-07,5.57311040833845e-07,2.2316517546303787e-06,3.962843971231917e-06,9.627380438943037e-07,9.242466401232519e-07,1.2432021241899651e-05,7.283980542463702e-07,7.803393095031227e-07,8.814886347774262e-07,2.6364319179378784e-06
252,8.173654163278769e-07,9.579438807660732e-07,3.64233738336578e-06,7.440310770634143e-06,1.0093887928701699e-06,8.75196828269331e-07,5.395882245685451e-07,2.1565046247328977e-06,3.5672556387383264e-06,9.59576270322221e-07,9.131036140208416e-07,1.2996491789989975e-05,7.479438344803548e-07,7.484476959788752e-07,8.883673017101538e-07,2.6513517050525463e-06
253,8.162305014828864e-07,9.176394259735288e-07,3.7715865999522592e-06,7.69711441374483e-06,9.96419135436158e-07,8.969966750105674e-07,5.238066640082774e-07,2.089453266198067e-06,3.229078011226143e-06,9.571328901299884e-07,9.018636435861028e-07,1.3703130838438178e-05,7.679862402031622e-07,7.188892334361842e-07,8.93153796623493e-07,2.6604329149042684e-06
254,8.144750393969073e-07,8.790270481446746e-07,3.888654042520298e-06,7.959506276011106e-06,9.842049742405704e-07,9.219221025347369e-07,5.100254979081447e-07,2.0283579674400823e-06,2.9499512477253698e-06,9.552684432070735e-07,8.904220511998346e-07,1.4560769273915135e-05,7.881703454499273e-07,6.91910314857112e-07,8.959619088281932e-07,2.6634052358480196e-06
255,8.118280903688213e-07,8.431485437114311e-07,3.991642482637768e-06,8.231240530912324e-06,9.731516400836047e-07,9.497036496870181e-07,4.98298886648651e-07,1.970985623772838e-06,2.7307517461704195e-06,9.537303829359915e-07,8.786823300266212e-07,1.5578238483795424e-05,8.081275526634453e-07,6.677321724812105e-07,8.971728941216585e-07,2.6598725165152717e-06
256,8.081319048825982e-07,8.108482635984689e-07,4.078233829333258e-06,8.516555193937537e-06,9.636208000282626e-07,9.80059216683859e-07,4.886655490168038e-07,1.9153910534228566e-06,2.57167988947635e-06,9.522029880397138e-07,8.666530368877258e-07,1.676267771444431e-05,8.274713617972015e-07,6.465280842819901e-07,8.972695209391339e-07,2.64952341351084e-06
257,8.033563577796119e-07,7.827733087532146e-07,4.146031436294491e-06,8.8196714428469e-06,9.559409181883037e-07,1.0127546003029512e-06,4.81142589284931e-07,1.8602008796973384e-06,2.47232577356924e-06,9.503518796531148e-07,8.544681971084691e-07,1.811827344941776e-05,8.457733907037091e-07,6.284241283254528e-07,8.967325473846569e-07,2.6322542342242808e-06
258,7.97520997712405e-07,7.593980861039949e-07,4.1931500047940945e-06,9.144058483145516e-06,9.503910099815407e-07,1.0476239091562718e-06,4.757037404605845e-07,1.8046154556626795e-06,2.431708755294244e-06,9.478208468571753e-07,8.422864901768335e-07,1.964581225370614e-05,8.625750344802794e-07,6.135193799610091e-07,8.960347880686293e-07,2.6082721150416014e-06
259,7.905819524357421e-07,7.410633843130531e-07,4.218612061757856e-06,9.491681517719379e-06,9.471569506740792e-07,1.0844813756838745e-06,4.722543382076827e-07,1.7482406070030032e-06,2.4482956907724396e-06,9.442071685980039e-07,8.302064228960325e-07,2.1343206177699197e-05,8.774942537270215e-07,6.01895838296909e-07,8.956266402445783e-07,2.578277385094308e-06
260,7.82384786873707e-07,7.28006806992709e-07,4.22235085616948e-06,9.86250451806465e-06,9.462776643510985e-07,1.1230132339644075e-06,4.7063293474584494e-07,1.6909691452366318e-06,2.5200027289342424e-06,9.391404281743724e-07,8.182699088967948e-07,2.3207310923249844e-05,8.903340832539066e-07,5.936013852461483e-07,8.958881624784467e-07,2.543588906335959e-06
261,7.727179089208943e-07,7.203637789568541e-07,4.2049657971108e-06,1.0254299960704584e-05,9.476346181409507e-07,1.1627389663875974e-06,4.706449053239394e-07,1.6329651691164567e-06,2.644208560436987e-06,9.324652442360301e-07,8.065154328368287e-07,2.5236971732024152e-05,9.010579408795322e-07,5.886240802839665e-07,8.971020480466607e-07,2.5060234562961547e-06
262,7.614079964008839e-07,7.181619217892876e-07,4.167482087842092e-06,1.0662623779297294e-05,9.510034095370966e-07,1.203057534075528e-06,4.720895495198414e-07,1.574654514138994e-06,2.8177945379976353e-06,9.243318472018502e-07,7.950850430551056e-07,2.7435718318658963e-05,9.096832852024711e-07,5.868930901035323e-07,8.99435832160884e-07,2.4675455657698434e-06
263,7.483667233539764e-07,7.213616956621911e-07,4.111231728368358e-06,1.1081015694574361e-05,9.561182015217828e-07,1.2433922617806974e-06,4.747563123604183e-07,1.516651956859631e-06,3.037172676692308e-06,9.151033070997287e-07,7.843351373786074e-07,2.9811561996001974e-05,9.162241405587325e-07,5.882840339539084e-07,9.02913809884015e-07,2.429912794757135e-06
264,7.335718456297133e-07,7.299641018297731e-07,4.0377850102775974e-06,1.1501691571385305e-05,9.627024246829906e-07,1.2833766369312107e-06,4.784421149372239e-07,1.4596311933693995e-06,3.298270058642926e-06,9.052198062561678e-07,7.748203895774069e-07,3.2373554432689385e-05,9.206933730976348e-07,5.926007879685173e-07,9.074146453471052e-07,2.3944993265726248e-06
265,7.170607244263198e-07,7.441007913761034e-07,3.948790074069822e-06,1.1916684325554159e-05,9.704755127277345e-07,1.3229124951764109e-06,4.830245060536969e-07,1.4041773691254947e-06,3.596516520450142e-06,8.951193507966658e-07,7.671847998106884e-07,3.512853941834431e-05,9.231274174375835e-07,5.995745286364599e-07,9.127266309328931e-07,2.362270933481753e-06
266,6.989901872570534e-07,7.639961349745919e-07,3.845786817316445e-06,1.231901618409735e-05,9.791567657252597e-07,1.3620291295720521e-06,4.885110441474955e-07,1.350696563606813e-06,3.9269325875934145e-06,8.85189976402252e-07,7.620965505881155e-07,3.8080169257937e-05,9.236098273237884e-07,6.088909344642028e-07,9.186263367913028e-07,2.3338536704898058e-06
267,6.797036187207421e-07,7.898483190268535e-07,3.7303026482988078e-06,1.2703518925452317e-05,9.884565373470348e-07,1.4006723188380501e-06,4.95000439669687e-07,1.2994433671327143e-06,4.284336590891369e-06,8.757441239102213e-07,7.602303779165508e-07,4.1228022579475235e-05,9.222460663009906e-07,6.201985574742687e-07,9.24903749979789e-07,2.3096753325409597e-06
268,6.597082207317511e-07,8.217474096418884e-07,3.6042515320651384e-06,1.3067149197625529e-05,9.98050126786354e-07,1.4385878667589643e-06,5.026177547344714e-07,1.2506341902049043e-06,4.663529929782349e-06,8.670074042860264e-07,7.622442272350035e-07,4.456625621282436e-05,9.190901632678157e-07,6.331168923958165e-07,9.313100279582445e-07,2.29005731418509e-06
269,6.3956849398887e-07,8.596390980654168e-07,3.4702188372659458e-06,1.3408882700055777e-05,1.007568813552517e-06,1.4753647564512656e-06,5.114799910654527e-07,1.2045634580070855e-06,5.059263654220142e-06,8.591403551014551e-07,7.687437108579682e-07,4.808321067665208e-05,9.140948379061841e-07,6.472958188220078e-07,9.375020085068727e-07,2.275176622374052e-06
270,6.198137555486168e-07,9.033010327794563e-07,3.3313711173456074e-06,1.3729446761488862e-05,1.0166513628572567e-06,1.5106087310206977e-06,5.216681566219246e-07,1.1616649389043249e-06,5.4659410971045585e-06,8.523301470343049e-07,7.802449524558826e-07,5.176113533520208e-05,9.071367253232459e-07,6.62488064428993e-07,9.430630714093426e-07,2.2649917344539366e-06
271,6.009038457185467e-07,9.52333372952916e-07,3.191139555362485e-06,1.4031080218010674e-05,1.0250479127169078e-06,1.544127910471984e-06,5.33194596280184e-07,1.1224898063825e-06,5.877283882834916e-06,8.468608217232209e-07,7.971589381258664e-07,5.557666507247941e-05,8.981083170521215e-07,6.785630673438581e-07,9.475985064845898e-07,2.2592179278227687e-06
272,5.832295019031988e-07,1.0061638778023483e-06,3.052906624563587e-06,1.4317208784822473e-05,1.0326995345189816e-06,1.5759532056324643e-06,5.459770192825849e-07,1.0876119986210103e-06,6.286288650712172e-06,8.430570554682927e-07,8.197996958509333e-07,5.9504705324053345e-05,8.870005548771798e-07,6.954747313298439e-07,9.508697855846885e-07,2.2573319605495455e-06
273,5.671319824643873e-07,1.0640706187435897e-06,2.9197847225639264e-06,1.4591802829183395e-05,1.0397120376428318e-06,1.6061402794302079e-06,5.598191118322663e-07,1.0575195500399059e-06,6.685533420017738e-06,8.411792403411476e-07,8.483743349316158e-07,6.352355891040649e-05,8.73901020746256e-07,7.132325519240754e-07,9.528863652087575e-07,2.2585940684886973e-06
274,5.529165399879014e-07,1.1252494843589687e-06,2.7944712703273243e-06,1.485842510019308e-05,1.046223974731645e-06,1.634520083520219e-06,5.744016075680913e-07,1.0325531274301955e-06,7.067630801879761e-06,8.413899234774046e-07,8.829433982015371e-07,6.761527292719141e-05,8.589603833931942e-07,7.318556186471843e-07,9.538464349800387e-07,2.262110242448591e-06
275,5.408355866489973e-07,1.1889051683501677e-06,2.679148976453364e-06,1.5119161498436535e-05,1.0522560775566416e-06,1.6605807202427857e-06,5.892897925151306e-07,1.0128942828794524e-06,7.425731415513062e-06,8.437743986254976e-07,9.233883745354038e-07,7.176045017449866e-05,8.424022628077998e-07,7.512875310196245e-07,9.539974644070982e-07,2.2669261407674345e-06
276,5.310626934587115e-07,1.2542700028343643e-06,2.575426098446969e-06,1.537365866488372e-05,1.0576330666618433e-06,1.6835317730560882e-06,6.039704730505806e-07,9.985601962645988e-07,7.754036555642835e-06,8.483434939721838e-07,9.694069549222103e-07,7.593461656120263e-05,8.245108232322607e-07,7.713370828499894e-07,9.535699632588031e-07,2.2721449466270657e-06
277,5.236841724719995e-07,1.3205450507391341e-06,2.4843359935271773e-06,1.561867586131723e-05,1.0620153243154671e-06,1.70253130877443e-06,6.179365702132777e-07,9.893927472631234e-07,8.047910274031191e-06,8.550227995257691e-07,1.0205329047808961e-06,8.011076959841324e-05,8.055505046087174e-07,7.916873690800122e-07,9.527593292879189e-07,2.27706873361106e-06
278,5.187167601511397e-07,1.3868880050481553e-06,2.406394820286388e-06,1.5848460889855243e-05,1.0650357857884063e-06,1.7169795799301133e-06,6.307898350914708e-07,9.850590194600147e-07,8.303150053950073e-06,8.63671949635215e-07,1.0761631754678473e-06,8.426347133293693e-05,7.857151622086995e-07,8.11935586624876e-07,9.517005221331475e-07,2.281317111429277e-06
279,5.161476971366294e-07,1.4525020604804885e-06,2.3416614170626708e-06,1.605569126630898e-05,1.0664849229260844e-06,1.726698954845597e-06,6.422949948792317e-07,9.850648314924547e-07,8.51496358996551e-06,8.741384397919451e-07,1.1355588650611263e-06,8.836856060242789e-05,7.651577677017681e-07,8.316665049926981e-07,9.504604599121588e-07,2.2848742947602054e-06
280,5.159681164333891e-07,1.516758047529667e-06,2.289764100938547e-06,1.6232504776877283e-05,1.0664269094827823e-06,1.7318753125380304e-06,6.523623869416056e-07,9.887877024098837e-07,8.677832747189195e-06,8.863114922319589e-07,1.1978113974527626e-06,9.239832710297266e-05,7.440286836135213e-07,8.505648358067202e-07,9.490300471483541e-07,2.2880721337457585e-06
281,5.181756317604615e-07,1.5792858570178532e-06,2.2499225190144227e-06,1.6371378057344636e-05,1.0651594531654378e-06,1.7328294137789493e-06,6.609860655333602e-07,9.955259915253156e-07,8.786215036909969e-06,9.001240619170424e-07,1.261812190344879e-06,9.631755514810025e-05,7.224877887276358e-07,8.684658413437971e-07,9.473089999989136e-07,2.291543450453902e-06
282,5.227572541324712e-07,1.6400041047869246e-06,2.220975246621463e-06,1.6465776975901172e-05,1.0630496950993517e-06,1.7298214757703862e-06,6.681851226191397e-07,1.0045258661715052e-06,8.835109971576571e-06,9.155000387797027e-07,1.3262548285759036e-06,0.0001000873216159753,7.007314774465557e-07,8.853149712035592e-07,9.451532874960751e-07,2.29615550939924e-06
283,5.296786410590338e-07,1.6990598129789673e-06,2.2014411482185006e-06,1.651059051231168e-05,1.0603619589643524e-06,1.7230019615156956e-06,6.739759080409726e-07,1.0149686963540625e-06,8.821002750899969e-06,9.323104090579611e-07,1.389690205390406e-06,0.00010367564177356796,6.790275527362659e-07,9.011370779395203e-07,9.425043174831899e-07,2.302897711635841e-06
284,5.388884414084667e-07,1.7566761824114097e-06,2.189691345170468e-06,1.6502440789163533e-05,1.0571750380263837e-06,1.7124373495208645e-06,6.783506507246676e-07,1.02595147257004e-06,8.743797556427315e-06,9.503858870082526e-07,1.45071618659417e-06,0.00010706479698670624,6.57705256852626e-07,9.160214031055675e-07,9.395101420353956e-07,2.3127071595498456e-06
285,5.503236379474161e-07,1.8129878104327414e-06,2.1841910314945804e-06,1.6439952784975614e-05,1.053411030902946e-06,1.698121285694524e-06,6.812590400197514e-07,1.036513196835247e-06,8.607902667285275e-06,9.695941388991303e-07,1.508305426214801e-06,0.00011024735952662341,6.371068594196705e-07,9.300531839692339e-07,9.365550637436702e-07,2.326294806238742e-06
286,5.639334128790167e-07,1.8679883537513645e-06,2.183650881999229e-06,1.6323949373682143e-05,1.0489282818940422e-06,1.6800063460238424e-06,6.826131851000213e-07,1.0457456374767648e-06,8.42109833818686e-06,9.899092812111748e-07,1.5620457673135713e-06,0.00011321374448064063,6.175473542145431e-07,9.432275017152918e-07,9.341857272546769e-07,2.344072853741951e-06
287,5.79731607806292e-07,1.921593619855697e-06,2.1870147763276753e-06,1.615740397001569e-05,1.0436039763920412e-06,1.6581208502196376e-06,6.823087864223159e-07,1.0529581173607277e-06,8.192663218329484e-06,1.011358364409532e-06,1.6120864022052433e-06,0.0001159426607112586,5.993147061208035e-07,9.554389956042753e-07,9.329683615063895e-07,2.3661987122490326e-06
288,5.978079113525817e-07,1.9736884885172907e-06,2.19333984347686e-06,1.594499125199681e-05,1.0373452608615012e-06,1.6327020493939768e-06,6.802803191286227e-07,1.0577926397034004e-06,7.932374869311353e-06,1.0338946902156224e-06,1.6588587641210984e-06,0.00011840270773651376,5.827272883342935e-07,9.665700125580592e-07,9.333494956262964e-07,2.392648216593993e-06
289,6.182848867469325e-07,2.024100897641534e-06,2.2016317619319206e-06,1.5692243146285774e-05,1.030038622942017e-06,1.6041866145068247e-06,6.765723476466189e-07,1.0602215665874899e-06,7.650226442582309e-06,1.0573474012873141e-06,1.702784703490075e-06,0.0001205613532031678,5.68196397367062e-07,9.765945791460922e-07,9.355798589495798e-07,2.423207841856192e-06
290,6.412861940268822e-07,2.072585216750037e-06,2.2106807712711137e-06,1.5404453308220764e-05,1.0215389273233404e-06,1.5730429226473511e-06,6.713530015543391e-07,1.0604652306739739e-06,7.356058671383432e-06,1.0814588674667894e-06,1.7440930509711298e-06,0.000122391492050051,5.562029563641625e-07,9.855723425662322e-07,9.396961878892736e-07,2.4573634108478393e-06
291,6.669134407778881e-07,2.1188834922113923e-06,2.2190228536276604e-06,1.5085508359425373e-05,1.011739321564411e-06,1.539631778827176e-06,6.649094869477404e-07,1.058884104678701e-06,7.05899678593193e-06,1.1059210995082944e-06,1.7827561482422811e-06,0.00012386921342814983,5.472023851782456e-07,9.935255684632702e-07,9.455421861310854e-07,2.494214843689026e-06
292,6.952193774730776e-07,2.162803030180028e-06,2.2251352777602253e-06,1.4737011623500132e-05,1.000622059831208e-06,1.5042097542971048e-06,6.576863326689953e-07,1.055858335106689e-06,6.7672047661768816e-06,1.1303601020683284e-06,1.8185894027826696e-06,0.00012496546284178196,5.415571432795332e-07,1.0003295938274575e-06,9.528343115112828e-07,2.5325353359185876e-06
293,7.261940187548369e-07,2.2041743709711017e-06,2.2277539203230975e-06,1.4358277340410776e-05,9.88241988817516e-07,1.4669907592410028e-06,6.502822545888248e-07,1.0516988046403469e-06,6.488104120609536e-06,1.1542865753012848e-06,1.8515166783296236e-06,0.00012564404095355964,5.395357902117968e-07,1.005686506416019e-06,9.612608330477715e-07,2.5709062183684603e-06
294,7.597426098084277e-07,2.24268366367468e-06,2.2260810553671203e-06,1.394735702867003e-05,9.747178860111597e-07,1.4281907378747639e-06,6.433520589057141e-07,1.046651351126161e-06,6.228561516270155e-06,1.177061471006695e-06,1.8817991249396057e-06,0.00012587238305459818,5.413288018249148e-07,1.0091490258556916e-06,9.705763070268238e-07,2.607835224928911e-06
295,7.956500324430749e-07,2.2777973201741305e-06,2.219781353628347e-06,1.3502540426503364e-05,9.602550106142287e-07,1.388064775148519e-06,6.37493213997734e-07,1.0409713550285325e-06,5.994752316360118e-06,1.1979387540621442e-06,1.9100265167458735e-06,0.00012563357424378324,5.470422742000463e-07,1.0101891488365493e-06,9.806616242989098e-07,2.641912909989654e-06
296,8.335631278451181e-07,2.3089293389755003e-06,2.2088530848907583e-06,1.3023706805083537e-05,9.451257662189473e-07,1.346935115129752e-06,6.331864177262451e-07,1.034988795143559e-06,5.79199760544013e-06,1.2162269782242004e-06,1.936913320245844e-06,0.00012492505980352697,5.566927016325851e-07,1.0083220625023659e-06,9.915317294947057e-07,2.672050023963181e-06
297,8.730066464117151e-07,2.3356594806213333e-06,2.1935481158387223e-06,1.2513239001211966e-05,9.295910926428571e-07,1.3051975001380442e-06,6.307827719784178e-07,1.0291008383615703e-06,5.624898989886911e-06,1.2314650130943654e-06,1.963086609424136e-06,0.0001237452071313534,5.702126731739256e-07,1.0032490775496605e-06,1.0032887095736215e-06,2.6976837199633597e-06
298,9.134193706944941e-07,2.3577283648377015e-06,2.1744100727322884e-06,1.1976335853035555e-05,9.138486280485131e-07,1.2632876059496502e-06,6.305105412438463e-07,1.0236820990259556e-06,5.497724580659e-06,1.2434492744179405e-06,1.989007961331526e-06,0.00012208443514894878,5.874486639949161e-07,9.949768963563438e-07,1.0160652600719064e-06,2.7188291756431383e-06
299,9.541759999472981e-07,2.374861348177716e-06,2.152302758939431e-06,1.1420613225906827e-05,8.98052957888132e-07,1.221596394622141e-06,6.324912350293863e-07,1.0189857601651826e-06,5.414760951736314e-06,1.2521562217806647e-06,2.015018717868641e-06,0.00011993292574795687,6.081625964346036e-07,9.83846260294713e-07,1.0300213879139492e-06,2.7360082275576323e-06
300,9.945891989073677e-07,2.386721946433431e-06,2.128288647613112e-06,1.0855094576238006e-05,8.823641663909577e-07,1.1804012343803553e-06,6.367608640409654e-07,1.015105895872391e-06,5.380447335368878e-06,1.2576907149322945e-06,2.041393266879188e-06,0.0001172969822892701,6.320485805371774e-07,9.704024736970622e-07,1.0453964922590281e-06,2.7501354171184963e-06
301,1.0339474038272133e-06,2.3930903002620377e-06,2.103422158042948e-06,1.0288944307583975e-05,8.669927192654828e-07,1.1398647220780846e-06,6.432957361175295e-07,1.0119692030581168e-06,5.399384103732657e-06,1.2602349732354823e-06,2.068339856033761e-06,0.00011420956216599082,6.587609138868081e-07,9.55185567970858e-07,1.0625423373826132e-06,2.7623189311979664e-06
302,1.0716384600300752e-06,2.394065410374391e-06,2.0786268411072587e-06,9.730364390380022e-06,8.522173045063454e-07,1.1000532751231737e-06,6.520366066312807e-07,1.009314342439542e-06,5.476332969755192e-06,1.2599573668576507e-06,2.0959799187007657e-06,0.0001107289877859492,6.879460896236971e-07,9.386028523714291e-07,1.081862182386397e-06,2.7735490447364217e-06
303,1.1073240022513822e-06,2.3901590611613865e-06,2.054684443742923e-06,9.185979945520447e-06,8.383432737363362e-07,1.0609697978647985e-06,6.628920311032539e-07,1.0066969451673981e-06,5.616110391939224e-06,1.2569226634754757e-06,2.1243439586123787e-06,0.00010692735466698022,7.19241434726171e-07,9.209397067214175e-07,1.1036948365588503e-06,2.7844627915634146e-06
304,1.141057178144223e-06,2.382285837282945e-06,2.032227091847206e-06,8.660833958504256e-06,8.256491240196635e-07,1.0226354953070093e-06,6.757278069960565e-07,1.0035582131261706e-06,5.823237197890086e-06,1.2510407362405293e-06,2.153374791525661e-06,0.0001028747326273072,7.522414042328392e-07,9.024319344329521e-07,1.128241759146861e-06,2.7953822208693678e-06
305,1.1732580687256912e-06,2.371599046088246e-06,2.0116730576023206e-06,8.15868474250463e-06,8.143894770615897e-07,9.8518377576912e-07,6.903879005406127e-07,9.993260393438156e-07,6.101428889619793e-06,1.2420670462651023e-06,2.1828825374008765e-06,9.8626417739501e-05,7.864915778118461e-07,8.833107127437719e-07,1.1555417198234156e-06,2.806500930677165e-06
306,1.2045642998849358e-06,2.359176699972982e-06,1.993138491605285e-06,7.682114636862303e-06,8.0481030948935e-07,9.48914668538375e-07,7.067751976902179e-07,9.934934988221063e-07,6.45319319425611e-06,1.229649801638061e-06,2.2124326313682443e-06,9.421781055067622e-05,8.215073075799492e-07,8.638445794917245e-07,1.1854594958716774e-06,2.8179208828133277e-06
307,1.2356635260206707e-06,2.3457379344174183e-06,1.976371044191514e-06,7.232463273069882e-06,7.971184431678754e-07,9.142909325578273e-07,7.249315770473664e-07,9.856526356313853e-07,6.879714411328198e-06,1.2134409619729066e-06,2.241252227967314e-06,8.966828562768553e-05,8.567879249503445e-07,8.443979435942754e-07,1.2176814421206571e-06,2.8295051653829675e-06
308,1.2671996719748886e-06,2.3315182725396915e-06,1.9607475378038094e-06,6.809979811268339e-06,7.914457810706528e-07,8.818684207746479e-07,7.450127931509607e-07,9.754799236453444e-07,7.380976367459883e-06,1.1932804882956067e-06,2.2682315863133816e-06,8.499229390263597e-05,8.918626224811754e-07,8.25420671036618e-07,1.2516883495542238e-06,2.840772709916893e-06
309,1.299743876795077e-06,2.316240903067311e-06,1.9453634540382256e-06,6.414207981447014e-06,7.878494491814325e-07,8.521816984953396e-07,7.671744113382083e-07,9.626760923239825e-07,7.955922082236375e-06,1.169375920788759e-06,2.292017426790908e-06,8.021216478589733e-05,9.263576663171703e-07,8.073885182962829e-07,1.2867051777771205e-06,2.850935491569819e-06
310,1.33375863457831e-06,2.299109757093753e-06,1.9292119922593403e-06,6.044232273978913e-06,7.863171049449402e-07,8.256408848121583e-07,7.914776462131326e-07,9.469267548951126e-07,8.602412635092089e-06,1.142362813578738e-06,2.3112105811575737e-06,7.536552432765795e-05,9.599900074310754e-07,7.907809219224124e-07,1.321670961555295e-06,2.8590023370765476e-06
311,1.3695408209015071e-06,2.278843904796094e-06,1.911446806736154e-06,5.69860015035348e-06,7.867529511635858e-07,8.024864592633599e-07,8.178472115366724e-07,9.279723069721231e-07,9.316909173929905e-06,1.1131932206767678e-06,2.3246532711736747e-06,7.050395218617657e-05,9.924677350563092e-07,7.760497351403857e-07,1.355246821430138e-06,2.8639243153351553e-06
312,1.4072114956383824e-06,2.2538385144719334e-06,1.891661958061118e-06,5.375164460567347e-06,7.889637827963752e-07,7.828083597927889e-07,8.460575565821369e-07,9.05758720281767e-07,1.0094076135028044e-05,1.0829291699629732e-06,2.3316638158753003e-06,6.5685359498156e-05,1.0234068799601503e-06,7.635509475898867e-07,1.3858918653713206e-06,2.8647801822865597e-06
313,1.4467901045055382e-06,2.222516295963536e-06,1.8700000066103037e-06,5.0712518392220365e-06,7.926571383735409e-07,7.666053874714883e-07,8.757467290924011e-07,8.805584755628237e-07,1.092650748241715e-05,1.052584480898042e-06,2.332075257076599e-06,6.096509831109736e-05,1.0523541357585907e-06,7.53499884560871e-07,1.4120744615665706e-06,2.860930384661488e-06
314,1.4883083679542726e-06,2.1837637015401776e-06,1.8469577970921203e-06,4.784206556753513e-06,7.9746084317637e-07,7.538396080948588e-07,9.06457705589217e-07,8.529960993567103e-07,1.180455740471411e-05,1.0230477357989387e-06,2.3261063706226904e-06,5.63894247556545e-05,1.078893518936447e-06,7.459629955453685e-07,1.4326035674942308e-06,2.8521044068963483e-06
315,1.531909014893824e-06,2.137230045287617e-06,1.8230295662243918e-06,4.5119330555022136e-06,8.029567138613026e-07,7.444394173909092e-07,9.376835975749851e-07,8.239669491099646e-07,1.2716361054105115e-05,9.950350808097205e-07,2.314221990234062e-06,5.199269237839401e-05,1.1027587940413145e-06,7.408781583347074e-07,1.4469072834787493e-06,2.8384367027110737e-06
316,1.577902141185238e-06,2.0833592688921047e-06,1.7984512768977595e-06,4.253117895728249e-06,8.086956545366606e-07,7.382500595567655e-07,9.688889327587787e-07,7.944798952842266e-07,1.3648403503570394e-05,9.690823337799532e-07,2.297066149798245e-06,4.779781313675415e-05,1.123847763078767e-06,7.381180318683636e-07,1.4550708825160947e-06,2.8203967058503876e-06
317,1.6267717576242654e-06,2.023187302134276e-06,1.7731652953174248e-06,4.007135670209717e-06,8.142379884356608e-07,7.349794575315852e-07,9.995277054141506e-07,7.655043396127475e-07,1.4586684462463738e-05,9.455846452970957e-07,2.275380416142318e-06,4.381810911302646e-05,1.1420954253862801e-06,7.375731726434583e-07,1.4576248544469077e-06,2.79856036839794e-06
318,1.679152380600335e-06,1.958047367486822e-06,1.7469488709073974e-06,3.7738365049522065e-06,8.192715485679019e-07,7.341722828170053e-07,1.029114390782775e-06,7.379040418572146e-07,1.5517856089476927e-05,9.248243877397633e-07,2.2498473465821535e-06,4.005896357136328e-05,1.1573381885801781e-06,7.392028673264423e-07,1.4552364373918182e-06,2.7733351854722245e-06
319,1.7357942056996662e-06,1.8893441326253941e-06,1.719569316468166e-06,3.553399967400763e-06,8.237049592368661e-07,7.352112701271579e-07,1.0573101977077304e-06,7.124774818654113e-07,1.6429608574766097e-05,9.069600531780059e-07,2.2210240954329883e-06,3.651957200605588e-05,1.1693429704829695e-06,7.430509739787254e-07,1.4484635751931221e-06,2.744816727461896e-06
320,1.7974988486503602e-06,1.8184713676167508e-06,1.690864129928865e-06,3.34629617695478e-06,8.276144910215835e-07,7.373680215081992e-07,1.0838995779658634e-06,6.900402849888069e-07,1.7310041371614314e-05,8.920267255393968e-07,2.189453656447123e-06,3.319616316907241e-05,1.1779902832176642e-06,7.492439301388684e-07,1.4376517116377642e-06,2.7127801876199188e-06
321,1.8650228410999447e-06,1.746805358419307e-06,1.6607581688890576e-06,3.1532789299458115e-06,8.310909989845431e-07,7.399353226969184e-07,1.1086540922778418e-06,6.714516261285563e-07,1.814633526328339e-05,8.799945052570454e-07,2.155717981259281e-06,3.0086637067799833e-05,1.1833960606040078e-06,7.579434589320572e-07,1.4229434357036486e-06,2.676705987912231e-06
322,1.9390300452822267e-06,1.675657493271643e-06,1.6292758946261687e-06,2.975322785992229e-06,8.341232322025965e-07,7.423967406429424e-07,1.1312180373565926e-06,6.575535348279979e-07,1.8923782719532538e-05,8.708320718641097e-07,2.1202987131131523e-06,2.7194072357929735e-05,1.185804231414166e-06,7.692587061776723e-07,1.4043161603080132e-06,2.6359146618528273e-06
323,2.020198883783195e-06,1.6061976216721225e-06,1.5965508574919644e-06,2.8134523726673216e-06,8.365969717892203e-07,7.445185449973149e-07,1.1510937856861584e-06,6.490867327574403e-07,1.9626354669049258e-05,8.64493082843781e-07,2.083433537749576e-06,2.4526473170914524e-05,1.1853871329219596e-06,7.831782358973074e-07,1.3816800269187955e-06,2.589896179352125e-06
324,2.109473160393259e-06,1.5394479915679235e-06,1.5627910212040937e-06,2.6684863206077816e-06,8.383763469176777e-07,7.462905187861279e-07,1.1677192691028446e-06,6.466464586370026e-07,2.023871120673476e-05,8.608606746414713e-07,2.0451269920611462e-06,2.209328297614427e-05,1.182204067070946e-06,7.995412543129699e-07,1.3551012949444311e-06,2.538617490531473e-06
325,2.2082940700668546e-06,1.4763200021623534e-06,1.5281935502572568e-06,2.5408144459987383e-06,8.39351388906747e-07,7.477703191707725e-07,1.1806025104305246e-06,6.506759914184593e-07,2.0748457583997527e-05,8.597316823835781e-07,2.0052848582798847e-06,1.990194574622012e-05,1.1763236396669194e-06,8.180342592651674e-07,1.325014207213182e-06,2.4825545634325837e-06
326,2.3186307518533666e-06,1.417583359338633e-06,1.4928448791155215e-06,2.4303376116469443e-06,8.393989340822342e-07,7.489579219627896e-07,1.18944288839027e-06,6.61472867255425e-07,2.1147805718987554e-05,8.608588374919846e-07,1.9638645353177222e-06,1.7956742154209445e-05,1.1679508868584001e-06,8.382205468609543e-07,1.2922295984558603e-06,2.4224818949514178e-06
327,2.442769948152523e-06,1.3637811102894628e-06,1.4566447733506425e-06,2.3365986099279963e-06,8.383474049404025e-07,7.497664275026577e-07,1.194190124392823e-06,6.791955101499929e-07,2.143445500416754e-05,8.640345317342446e-07,1.920963715368451e-06,1.6259226580335797e-05,1.1574582911875572e-06,8.5959521931788e-07,1.2577499683405888e-06,2.3592292458833994e-06
328,2.58299657180741e-06,1.3151815803001783e-06,1.4193190766107091e-06,2.2590433484957066e-06,8.360186271855376e-07,7.500935604381991e-07,1.1950649043265115e-06,7.038749787714696e-07,2.161132733255811e-05,8.691787983496633e-07,1.8768560914547307e-06,1.4808888615113948e-05,1.1452998528611966e-06,8.816238221012727e-07,1.222555352597024e-06,2.293560982344343e-06
329,2.741318346775178e-06,1.2717999221085091e-06,1.3805535235294253e-06,2.1973306549601933e-06,8.32288508107758e-07,7.499469241447663e-07,1.1925553436812687e-06,7.35480980335536e-07,2.168461906606854e-05,8.76371941857171e-07,1.83199865074776e-06,1.360367565111908e-05,1.1318997632018194e-06,9.037519986126829e-07,1.1874974425532477e-06,2.2261640189225325e-06
330,2.919273620478166e-06,1.2334589359653308e-06,1.34013745168021e-06,2.151595924531242e-06,8.270947082640879e-07,7.494865535950073e-07,1.187338392683632e-06,7.741019774726551e-07,2.1661009568518813e-05,8.858064535072924e-07,1.7869815448363516e-06,1.2640373833927782e-05,1.1176442174854103e-06,9.254147514853581e-07,1.15331162016492e-06,2.157632969007199e-06
