,EMG1,EMG2,EMG3,EMG4,EMG5,EMG6,EMG7,EMG8,EMG9,EMG10,EMG11,EMG12,EMG13,EMG14,EMG15,EMG16
0,3.034574692764221e-07,-4.128402633972629e-08,5.550484524120019e-07,2.885562890965635e-06,2.5034084353151576e-07,1.6891832080206333e-07,7.270004103356831e-07,-1.227397465024098e-08,1.3795864312619143e-06,7.012357387723444e-07,3.969973564614445e-07,9.093986960616642e-08,1.513281967440267e-07,8.023766121647398e-08,-3.1837191213863035e-08,9.704613754966432e-08
1,3.712854942784167e-07,3.885909308821365e-08,5.835715819787405e-07,3.5822464667396812e-06,3.1183381815354377e-07,2.180069473871187e-07,8.05544548878783e-07,2.1748446454204723e-07,1.7742850183614997e-06,7.975282590330404e-07,6.640380596617137e-07,4.270768359504073e-06,2.3348483511497587e-07,1.8855017896482862e-07,8.22895711671887e-08,3.9467423197316115e-07
2,4.4215041397690543e-07,1.1740284319564977e-07,6.135508739882862e-07,4.260310998386715e-06,3.7349952365487883e-07,2.6777134183463277e-07,8.862020867839225e-07,4.3910034342850474e-07,2.1869151760005563e-06,8.901568762202091e-07,9.208275322123553e-07,8.329703369847828e-06,3.15027874796499e-07,2.942089110357948e-07,1.9410715488745972e-07,6.878776850769488e-07
3,5.153291286157613e-07,1.9333128249337495e-07,6.448744376054909e-07,4.911081758250465e-06,4.348288938570563e-07,3.179813163087531e-07,9.674269995047614e-07,6.504731248161604e-07,2.613014912267577e-06,9.785656415922393e-07,1.16436803426666e-06,1.222298794473274e-05,3.9403610594884435e-07,3.9619050162358017e-07,3.029224453373282e-07,9.736377480373468e-07
4,5.901703923191235e-07,2.6587386440175686e-07,6.774818133309158e-07,5.526280408567137e-06,4.954420448157981e-07,3.684581256022268e-07,1.0479447854845364e-06,8.497802715070482e-07,3.0487161136498047e-06,1.062430343478737e-06,1.3917695943024327e-06,1.59069485217854e-05,4.6911540219343856e-07,4.935200955338876e-07,4.081482847797794e-07,1.2491105661842488e-06
5,6.6616454830578e-07,3.345047393038346e-07,7.113095845550523e-07,6.098340524850814e-06,5.550016854170802e-07,4.190676665264961e-07,1.1267949183427406e-06,1.0355203639949934e-06,3.4911821509053156e-06,1.1415120088453954e-06,1.6004761908409832e-06,1.9341140810713604e-05,5.394331639411423e-07,5.853113227482811e-07,5.093024569815438e-07,1.5116718571969755e-06
6,7.429577980667193e-07,3.9889399840176646e-07,7.462212741425069e-07,6.620829750758156e-06,6.13143206609246e-07,4.69677698760662e-07,1.2032654434614814e-06,1.206416068547669e-06,3.938650593084683e-06,1.2154847934014918e-06,1.788478603107917e-06,2.2490457778018075e-05,6.045782906260341e-07,6.708169139525965e-07,6.059357676396545e-07,1.7590528815478326e-06
7,8.202782494359632e-07,4.5890385318928064e-07,7.819718317132416e-07,7.088899131989244e-06,6.694510238493343e-07,5.201117811027567e-07,1.2767910840089163e-06,1.3613416857091372e-06,4.3900297393971906e-06,1.2838603014364498e-06,1.954383362538164e-06,2.532604680619975e-05,6.64397337165206e-07,7.49404745023815e-07,6.975406568520238e-07,1.9895826488984925e-06
8,8.9781070626752e-07,5.146391645712177e-07,8.181841148204593e-07,7.4995815749323305e-06,7.23454817536244e-07,5.701422582764717e-07,1.346840853347639e-06,1.499475642592594e-06,4.844270432678955e-06,1.3460242707813403e-06,2.0974258141081494e-06,2.782522527981624e-05,7.188974322890677e-07,8.204641714940558e-07,7.835217427174539e-07,2.202304783624246e-06
9,9.750955754601796e-07,5.6647396803825e-07,8.5432457336139e-07,7.851775592388907e-06,7.74631018106555e-07,6.195273041358324e-07,1.4127988920404776e-06,1.6205718324082035e-06,5.299801236043233e-06,1.4013657994365455e-06,2.2175268757942113e-06,2.997130123241118e-05,7.681784627399403e-07,8.833603096181327e-07,8.632668500519768e-07,2.3968857447848716e-06
10,1.051494168470124e-06,6.150003784237065e-07,8.897314446571758e-07,8.145874983080274e-06,8.22424115254319e-07,6.680416497040511e-07,1.4738750560622871e-06,1.7250743167355721e-06,5.754227028681963e-06,1.4494152043883971e-06,2.3153186287523786e-06,3.175401058183132e-05,8.123526885772652e-07,9.375114589959375e-07,9.362760774032601e-07,2.5734703481488987e-06
11,1.1262165126176137e-06,6.609177379914242e-07,9.237482135432648e-07,8.38308068314334e-06,8.663142769563775e-07,7.154684100466522e-07,1.5291109085431028e-06,1.8139781889975452e-06,6.2044824365711635e-06,1.489857326074454e-06,2.392047239745096e-06,3.317081175427104e-05,8.514888237786993e-07,9.825721754686317e-07,1.0022640236135222e-06,2.732585788706161e-06
12,1.198410197869896e-06,7.049261971560169e-07,9.559271564760616e-07,8.564505192223334e-06,9.059158756132558e-07,7.616050428553239e-07,1.5775282711643607e-06,1.8885619152322795e-06,6.647703819064871e-06,1.5224345132387125e-06,2.4493782778843783e-06,3.42285889077211e-05,8.856125883546513e-07,1.018635429796942e-06,1.0611968931991694e-06,2.8750755695867135e-06
13,1.2673234773256376e-06,7.476684255340045e-07,9.861564244091714e-07,8.690474302107983e-06,9.41048811045003e-07,8.063019938441504e-07,1.6183757981053327e-06,1.9501764411955252e-06,7.0825879829433275e-06,1.5469390638914282e-06,2.489147894167612e-06,3.4944535955506934e-05,9.147172793405625e-07,1.046319539986586e-06,1.113302172711662e-06,3.0020379236983548e-06
14,1.3325014149535738e-06,7.896947141521611e-07,1.0145893916697857e-06,8.760604208268349e-06,9.717454635139317e-07,8.494492589191074e-07,1.6513457039885601e-06,2.0001593905976146e-06,7.510037375149323e-06,1.5633677069630037e-06,2.513105945043031e-06,3.534468365494656e-05,9.387451148608258e-07,1.0666643507052425e-06,1.1590805192204448e-06,3.1147897372790577e-06
15,1.3938962540825318e-06,8.314208417358628e-07,1.0414494756451707e-06,8.774734461409428e-06,9.982105716399456e-07,8.90901834837113e-07,1.6766503409478979e-06,2.0397848708808362e-06,7.93233919869468e-06,1.572067942321835e-06,2.522778485063592e-06,3.5459626958256836e-05,9.576145181203916e-07,1.0809021835780168e-06,1.1992701498398748e-06,3.2148694062420804e-06
16,1.4518083929679841e-06,8.730976407455355e-07,1.0668774080218862e-06,8.734121920055464e-06,1.0207571696142882e-06,9.304358138446243e-07,1.6949224537842347e-06,2.070202753808809e-06,8.352021462602504e-06,1.573768197846521e-06,2.519479517681096e-06,3.5319811177925746e-05,9.713728926931068e-07,1.0902387521232426e-06,1.2347102156617264e-06,3.304021841810608e-06
17,1.5066937200342769e-06,9.148205597482514e-07,1.0908758258339288e-06,8.642243662853166e-06,1.0397102192432313e-06,9.677684308828147e-07,1.7069801369639064e-06,2.0924719870194585e-06,8.771457059120523e-06,1.5695220327915797e-06,2.5043086762774635e-06,3.495392440777278e-05,9.80367007211686e-07,1.0957237254105775e-06,1.2661508804167732e-06,3.384083123342008e-06
18,1.5589393637124839e-06,9.565695972543708e-07,1.1133159843118392e-06,8.50494085940532e-06,1.0552929934923387e-06,1.0026272473807917e-06,1.7135787123930714e-06,2.1077002207674403e-06,9.192528787996977e-06,1.5605540718861573e-06,2.478089029915858e-06,3.439011278500519e-05,9.85244464436143e-07,1.0981979224394598e-06,1.2941203922431288e-06,3.4567558282555976e-06
19,1.6087019589504445e-06,9.982328502764762e-07,1.1339772476036383e-06,8.329972483343593e-06,1.0675719418244857e-06,1.0348397583372377e-06,1.7152891790323687e-06,2.117110087940025e-06,9.615941427087171e-06,1.5480261473899737e-06,2.4414116634312568e-06,3.3656124714430085e-05,9.867844995095121e-07,1.098290014947347e-06,1.3189115216948969e-06,3.5233590163165125e-06
20,1.6558436221660917e-06,1.0395903654208545e-06,1.1526116412972867e-06,8.126208490927669e-06,1.0765187312659587e-06,1.0643551137971834e-06,1.7125276019644662e-06,2.121927668284593e-06,1.0040897618790083e-05,1.5328768008710534e-06,2.3948655406762593e-06,3.2777423217390374e-05,9.857258610057889e-07,1.0964550361598224e-06,1.3406434668557905e-06,3.5846579148518663e-06
21,1.6999288742075963e-06,1.0802884608161837e-06,1.16904527049018e-06,7.902698649686386e-06,1.0821277789646627e-06,1.091156798065035e-06,1.705613742281985e-06,2.1231844640271934e-06,1.0465628988988044e-05,1.5158320085360622e-06,2.3393107795956586e-06,3.1776135133359e-05,9.826968462927133e-07,1.0930072898893806e-06,1.359287857845315e-06,3.6408809322754344e-06
22,1.7402493450050704e-06,1.1198418495929133e-06,1.1833130994050274e-06,7.667825130380368e-06,1.0844522647899137e-06,1.1152009876705685e-06,1.6947372266079602e-06,2.1215701780223267e-06,1.0888652746885084e-05,1.4974962737125622e-06,2.276018741604053e-06,3.067164544221153e-05,9.782034732311362e-07,1.0881074001659367e-06,1.3746330220824746e-06,3.6919718677912445e-06
23,1.7758993551963678e-06,1.157665230282292e-06,1.1957821223352277e-06,7.428803590411473e-06,1.0835349735375745e-06,1.1364971343572281e-06,1.6798566449967107e-06,2.1173900055280457e-06,1.1310094476416458e-05,1.4784235104377604e-06,2.2066377026649585e-06,2.9480641962733656e-05,9.72613501721056e-07,1.0817556309678153e-06,1.386322145629771e-06,3.737895982005359e-06
24,1.8059287849644664e-06,1.1930934623027644e-06,1.207210645907511e-06,7.191726522342621e-06,1.0793556649521606e-06,1.1552162040531044e-06,1.6606630850536196e-06,2.1106246580161555e-06,1.1732285199302814e-05,1.459168361962672e-06,2.1330423911526695e-06,2.82161224444026e-05,9.661531169000239e-07,1.0738362515029113e-06,1.3940639048806788e-06,3.778730884711685e-06
25,1.829548322059334e-06,1.2253864322820536e-06,1.2187222810038872e-06,6.9619420601617756e-06,1.0718605104006959e-06,1.171664300350243e-06,1.6366890081130798e-06,2.1011190810124054e-06,1.2159310095133207e-05,1.4402945479336357e-06,2.057147667435876e-06,2.688749004818512e-05,9.589647549503757e-07,1.0641579650262294e-06,1.397870081564158e-06,3.8145001804421604e-06
26,1.84632453544516e-06,1.2537764522955752e-06,1.231705451249083e-06,6.744268291282993e-06,1.0610160515754557e-06,1.1861437104999941e-06,1.6075269635921134e-06,2.0888544182078776e-06,1.2595742601772967e-05,1.4223160032056321e-06,1.9807462780129718e-06,2.5502817058239606e-05,9.512247207667208e-07,1.0524606057052475e-06,1.3980929747023508e-06,3.844880453647712e-06
27,1.8563087225406256e-06,1.2775420100599983e-06,1.2476627621503945e-06,6.542797696884251e-06,1.0468450411020718e-06,1.1988566268173458e-06,1.5730551321046256e-06,2.0741216122036668e-06,1.3045219886420119e-05,1.4056468316692207e-06,1.905388021529812e-06,2.4071932733589787e-05,9.432383358007174e-07,1.038443390353027e-06,1.3952655339096658e-06,3.8689583423408296e-06
28,1.8600636221554076e-06,1.2960514806168288e-06,1.268043690728441e-06,6.36050717447478e-06,1.029465745655979e-06,1.209927230440883e-06,1.53356959399251e-06,2.0574997192830514e-06,1.3509523504815966e-05,1.3906007182121726e-06,1.8323330077584458e-06,2.260854253236923e-05,9.354348822301215e-07,1.0218345948429755e-06,1.3899169370118197e-06,3.8852683330031705e-06
29,1.8585486322419614e-06,1.308834874424264e-06,1.2941057562690714e-06,6.199004383450544e-06,1.0091582659369967e-06,1.2194501161992626e-06,1.4897888758404753e-06,2.0397179525330696e-06,1.3988331347409805e-05,1.3774056954380936e-06,1.7625969226373359e-06,2.1130491283112888e-05,9.282935523171811e-07,1.002492614469352e-06,1.3824444685237826e-06,3.892211703500222e-06
30,1.8528640733932235e-06,1.315716476950452e-06,1.3268356533103654e-06,6.058546500919076e-06,9.864282774165337e-07,1.227509435904417e-06,1.442771013328601e-06,2.0214787437043732e-06,1.4479220320814018e-05,1.366250558915075e-06,1.6970067051047264e-06,1.9658249456309915e-05,9.222720225230366e-07,9.805437740692557e-07,1.3730650612520076e-06,3.8886209321205316e-06
31,1.8439726096901801e-06,1.3168470900412784e-06,1.3669204241718848e-06,5.9383292058570825e-06,9.619831993773987e-07,1.2342312212676351e-06,1.393794513724173e-06,2.0032710017153715e-06,1.497754095778086e-05,1.3573260074830774e-06,1.6361936541465392e-06,1.8212574060332163e-05,9.177447482640089e-07,9.564579035692597e-07,1.3618921864131336e-06,3.874065603555158e-06
32,1.8325332481391473e-06,1.3125397354698879e-06,1.4147358755622507e-06,5.836960799720689e-06,9.365980414794579e-07,1.2398268820202533e-06,1.3442186238257323e-06,1.9852357157841998e-06,1.5476646951469866e-05,1.350751554816402e-06,1.580561232643335e-06,1.6812573662817666e-05,9.149391065328178e-07,9.309305245048783e-07,1.349094996330944e-06,3.8487395188521445e-06
33,1.8188594706682205e-06,1.303135310566496e-06,1.4703366161116902e-06,5.752919614353045e-06,9.109876171390312e-07,1.2445272175046951e-06,1.295327924551077e-06,1.9671284819413963e-06,1.596899593678531e-05,1.346447501512772e-06,1.530306551369607e-06,1.5474789197439697e-05,9.138944033845494e-07,9.046676704973089e-07,1.335012890084715e-06,3.813130474897012e-06
34,1.8029359409875784e-06,1.289102637395703e-06,1.5334539536399255e-06,5.684841629322335e-06,8.857669696915464e-07,1.2484898938575362e-06,1.248201587366823e-06,1.9483635423200768e-06,1.6447363431100837e-05,1.3441300955039994e-06,1.485512560660129e-06,1.4213060197970773e-05,9.1446441534627e-07,8.782717553888946e-07,1.3201304947581444e-06,3.7677491185383776e-06
35,1.7844614517567556e-06,1.2711861778700065e-06,1.6034997755487582e-06,5.63167123185464e-06,8.614443572341009e-07,1.2518044619208953e-06,1.2036690149832266e-06,1.9281440483794186e-06,1.6905166586871974e-05,1.3434606377290654e-06,1.4462384187969937e-06,1.3038672882295193e-05,9.163536316201859e-07,8.522310497891512e-07,1.3049257490795452e-06,3.713046265459373e-06
36,1.7629523096855315e-06,1.2503413347215144e-06,1.6795671517502566e-06,5.592757734877208e-06,8.384212746859327e-07,1.2545516762831725e-06,1.1623680574732667e-06,1.9056669474809653e-06,1.733602046396903e-05,1.3442053077005728e-06,1.41254641599993e-06,1.1960565068082998e-05,9.191727944468312e-07,8.269095948554742e-07,1.2897099793399279e-06,3.649484863946047e-06
37,1.7379115262675148e-06,1.2275265141883229e-06,1.7604524818221651e-06,5.567864150192988e-06,8.170245434531531e-07,1.256810618072163e-06,1.1248451489765529e-06,1.8803005372380512e-06,1.7733237505111313e-05,1.346281944756807e-06,1.3844788348956765e-06,1.0985610322349128e-05,9.224829537370635e-07,8.025302393334114e-07,1.27457005803517e-06,3.5776125775610882e-06
38,1.7089847978790712e-06,1.203588359466344e-06,1.844735177009231e-06,5.556946125337437e-06,7.975331336599619e-07,1.2585909467449446e-06,1.091608263057358e-06,1.8516594634913215e-06,1.808967781143412e-05,1.349725960593212e-06,1.3620018532107324e-06,1.0118985774135415e-05,9.257880737454953e-07,7.791916457620337e-07,1.2594521503169238e-06,3.497989432862531e-06
39,1.6760544006427374e-06,1.1793015350499883e-06,1.9308925468540636e-06,5.559689670860628e-06,7.801720218218197e-07,1.2597784326947035e-06,1.0630933590778955e-06,1.819614505936498e-06,1.839794500040783e-05,1.354670475294547e-06,1.3449319110404815e-06,9.364550006368707e-06,9.285021843820221e-07,7.569031892415681e-07,1.244354837952355e-06,3.410981367118225e-06
40,1.639281922063479e-06,1.1554367430142788e-06,2.0173855189174147e-06,5.57515712576611e-06,7.651030068137234e-07,1.2601439270590761e-06,1.0395820804172499e-06,1.7842944052119115e-06,1.865077131441994e-05,1.361363350474413e-06,1.3328988516381124e-06,8.725136803920736e-06,9.299518871487863e-07,7.355944376610163e-07,1.2295070074568122e-06,3.3166334471329766e-06
41,1.5990949415389485e-06,1.1327555510894151e-06,2.1026705779864953e-06,5.601918963588e-06,7.52420450129321e-07,1.2593291227850114e-06,1.021137937853048e-06,1.7460740884502337e-06,1.8841420946563456e-05,1.3701680266238286e-06,1.325367794490537e-06,8.20266199609885e-06,9.294410978143611e-07,7.151081559112525e-07,1.2153955869930508e-06,3.214888087083185e-06
42,1.5561242756437915e-06,1.1119423133417837e-06,2.185141880381634e-06,5.638576935257082e-06,7.421425847850187e-07,1.2567984716681881e-06,1.0075980885676749e-06,1.7055214732205842e-06,1.8963824520846707e-05,1.381491251916103e-06,1.3216867419270124e-06,7.797974209385602e-06,9.263914850277841e-07,6.952206639327226e-07,1.2026276869166783e-06,3.106078496840707e-06
43,1.5111452046066218e-06,1.0935247938904386e-06,2.263062710185305e-06,5.684295901363932e-06,7.342083448276507e-07,1.2519030222625819e-06,9.986125496651925e-07,1.6633300022263696e-06,1.9011996284284897e-05,1.3956554672708927e-06,1.3211447704422869e-06,7.510565965651514e-06,9.205053721352012e-07,6.757120354399936e-07,1.1917481743275764e-06,2.991231456144369e-06
44,1.465046889690728e-06,1.0778230042105644e-06,2.334571497924347e-06,5.739101866340193e-06,7.284905165373389e-07,1.2441017756490202e-06,9.936891309611925e-07,1.6202898654176581e-06,1.8978772425947362e-05,1.4127914878440541e-06,1.3230427810590197e-06,7.338452544884105e-06,9.118334422679892e-07,6.564707216995267e-07,1.1831399028035141e-06,2.8719249429530307e-06
45,1.4187779603844144e-06,1.0649482409972183e-06,2.397813965356763e-06,5.803911568070166e-06,7.248272453104411e-07,1.2331627426271966e-06,9.922196491740424e-07,1.5772853822009402e-06,1.8855288064956036e-05,1.4327891779397213e-06,1.3267746072901107e-06,7.278371963684656e-06,9.007117916074483e-07,6.375472576122437e-07,1.1770007420005862e-06,2.7499800192840664e-06
46,1.3732306441558505e-06,1.0548441973525073e-06,2.451178630759233e-06,5.880384552100474e-06,7.230449870381969e-07,1.2191503082158355e-06,9.93522352221863e-07,1.5352550460276907e-06,1.8632887582458588e-05,1.4552979471489602e-06,1.3319093339382611e-06,7.326136628328375e-06,8.876282161936366e-07,6.190893853188001e-07,1.1733389614832228e-06,2.627306946858912e-06
47,1.3291275253276179e-06,1.0473347566296654e-06,2.4935485101658824e-06,5.970727726375302e-06,7.229352357351359e-07,1.2022443354635575e-06,9.969006762500558e-07,1.4950875224295915e-06,1.830717212834693e-05,1.4798001544471637e-06,1.3382048505242172e-06,7.476945013871566e-06,8.730905925014475e-07,6.012555602167702e-07,1.1720207833221826e-06,2.5058653295019495e-06
48,1.2870058062633006e-06,1.0421450168287141e-06,2.5244703995256157e-06,6.077534897780033e-06,7.242003550126634e-07,1.1826015919718537e-06,1.0016641083331325e-06,1.4574951622592366e-06,1.788179830049405e-05,1.5057641102091164e-06,1.345494072062727e-06,7.725608659604586e-06,8.575471665597451e-07,5.842130893258828e-07,1.1728962435140862e-06,2.387551966876588e-06
49,1.247273913892138e-06,1.0388904285598908e-06,2.544185297493591e-06,6.203655795402956e-06,7.264173544168347e-07,1.1603340478799057e-06,1.0071464373048726e-06,1.4229448198786832e-06,1.7369260388256224e-05,1.5327459200030744e-06,1.3535542646253085e-06,8.066679474389204e-06,8.413756997598827e-07,5.681631308856482e-07,1.1759054417904482e-06,2.273993354073341e-06
50,1.210238396641858e-06,1.03708540037941e-06,2.5535119622263956e-06,6.351993157687221e-06,7.290563839678083e-07,1.1355283508455327e-06,1.012768735607349e-06,1.3916832560579186e-06,1.678774451921097e-05,1.5603051255178478e-06,1.3620758707078436e-06,8.494468318758917e-06,8.249360032012475e-07,5.533410141337704e-07,1.181067043838664e-06,2.166379097994762e-06
51,1.1761293943422803e-06,1.0362341019770932e-06,2.5535866209303384e-06,6.52510828789579e-06,7.315638346742125e-07,1.1082909255557055e-06,1.0180801473495073e-06,1.3638028322656599e-06,1.6156336209577972e-05,1.587810609569718e-06,1.370673678600475e-06,9.002947729822466e-06,8.086180176774174e-07,5.400154131325344e-07,1.1883736742092264e-06,2.065458715811633e-06
52,1.1451908373598126e-06,1.0359715264244575e-06,2.54552162196425e-06,6.724696896381662e-06,7.334719583431472e-07,1.0788458006285773e-06,1.0227403460980458e-06,1.3392877481822295e-06,1.549169742831267e-05,1.6143191609268796e-06,1.3788844834414337e-06,9.585460357731342e-06,7.927994427046687e-07,5.284709585598428e-07,1.1976975026614756e-06,1.971706268463582e-06
53,1.117730671784869e-06,1.0361465058872576e-06,2.530181228531681e-06,6.951192829387176e-06,7.344806857635648e-07,1.0476330847845915e-06,1.0265007631625852e-06,1.3180509804979048e-06,1.4806963379759132e-05,1.6386290988854518e-06,1.3861891998128307e-06,1.0234174227184826e-05,7.777513411365677e-07,5.189720261044701e-07,1.208761111337847e-06,1.8855449168689479e-06
54,1.0940551132435973e-06,1.0367747564918357e-06,2.5081852645406195e-06,7.203624325706917e-06,7.344932199457787e-07,1.0153258530666426e-06,1.029230697129705e-06,1.2999829872445143e-06,1.4111840995545006e-05,1.6595015648280898e-06,1.3920739604831431e-06,1.0939446703245149e-05,7.635971712417753e-07,5.117422054308705e-07,1.221140263777919e-06,1.8074709081350556e-06
55,1.074383709572874e-06,1.0379024106069596e-06,2.4799732665961026e-06,7.479639750248999e-06,7.336116528390616e-07,9.827431770944047e-07,1.0309802600922467e-06,1.2849876965972012e-06,1.3413019608702254e-05,1.6759098468371013e-06,1.396046431949831e-06,1.1689414375537478e-05,7.503734165121522e-07,5.069594249340905e-07,1.2342756148420408e-06,1.7379762509111205e-06
56,1.0588125644845973e-06,1.0395159772997188e-06,2.445792295331024e-06,7.775727658988876e-06,7.320937036875259e-07,9.507084017358734e-07,1.0320162239811762e-06,1.2729622319826677e-06,1.2714520690685745e-05,1.6871542872870963e-06,1.3975638681955058e-06,1.2469989846729227e-05,7.381471450547689e-07,5.047467919359523e-07,1.2474928089819772e-06,1.6773553272586092e-06
57,1.0473109936922092e-06,1.0415643518882077e-06,2.405725129095198e-06,8.08772327121667e-06,7.302694196708172e-07,9.199377840075336e-07,1.0327637939880103e-06,1.2637219164683111e-06,1.201811448870255e-05,1.6928438891214567e-06,1.3960287145867607e-06,1.326553705997738e-05,7.270735842057469e-07,5.051557268601808e-07,1.260035098679684e-06,1.6256039838754067e-06
58,1.0397391192365012e-06,1.044004691073783e-06,2.359883778518367e-06,8.411440796389931e-06,7.284390607027908e-07,8.909984928964295e-07,1.033670947892974e-06,1.2569527255730459e-06,1.1324142372383504e-05,1.6928289505346058e-06,1.3909843487006638e-06,1.4060834473405778e-05,7.173749137491563e-07,5.081572848216363e-07,1.2711672211892505e-06,1.5824965088922786e-06
59,1.0359009159411368e-06,1.0468001060249704e-06,2.308687091837145e-06,8.743129557773676e-06,7.268008628675529e-07,8.643037629480878e-07,1.0350775113620315e-06,1.2522344727719496e-06,1.0632701687526072e-05,1.6871196624528277e-06,1.3823709882436445e-06,1.4844051015604e-05,7.093247333214753e-07,5.136443892267507e-07,1.2803472371177026e-06,1.5477075130272409e-06
60,1.0356532289361142e-06,1.049909970717313e-06,2.253035217888698e-06,9.079670203119031e-06,7.254487740007278e-07,8.401331279208724e-07,1.0371448825187329e-06,1.2490639239509232e-06,9.944784091021579e-06,1.6758413211144928e-06,1.3705903774896128e-06,1.560886965626629e-05,7.032309245156521e-07,5.21438491864908e-07,1.2873280215276776e-06,1.5208396693694543e-06
61,1.0390051446210752e-06,1.053297145716902e-06,2.1943022676218545e-06,9.418656487030268e-06,7.244336771555519e-07,8.187013072651487e-07,1.0398382542949988e-06,1.246886185243133e-06,9.262997430389525e-06,1.6592736501484595e-06,1.356316688868708e-06,1.6354303196662506e-05,6.993815904843056e-07,5.313287321029892e-07,1.2921159479923675e-06,1.5014328874965158e-06
62,1.046111021130976e-06,1.0569040383385635e-06,2.1342193612694925e-06,9.758487236904891e-06,7.238379019130878e-07,8.002310319224187e-07,1.04292714459986e-06,1.2452174081077434e-06,8.59171346769004e-06,1.6378810066110393e-06,1.34023259928898e-06,1.708274637287253e-05,6.980028243640639e-07,5.43151300131204e-07,1.2948512837156353e-06,1.4890469461731245e-06
63,1.0571885602635647e-06,1.0606011500745738e-06,2.07471853411276e-06,1.0098471610864875e-05,7.238102411031432e-07,7.849475736479094e-07,1.0460083034199125e-06,1.2437737814613745e-06,7.936679370732193e-06,1.6122070709109304e-06,1.3229006145460978e-06,1.7797654749282223e-05,6.992523810788466e-07,5.56846949067306e-07,1.2956778730564217e-06,1.4832798752467547e-06
64,1.072474511994399e-06,1.0641893436204138e-06,2.0177420036145637e-06,1.0438875920205768e-05,7.245491520473817e-07,7.730167968717362e-07,1.0485933685463804e-06,1.242472609268279e-06,7.304247265582467e-06,1.5827149468094278e-06,1.3048085820712702e-06,1.8501558672473624e-05,7.0320782554687e-07,5.724475551568471e-07,1.294676908438457e-06,1.4836294617876364e-06
65,1.0922630904391424e-06,1.0674872294864092e-06,1.9650698126733796e-06,1.0780794699388356e-05,7.262599996340623e-07,7.645012950042511e-07,1.050266005941536e-06,1.241367091533092e-06,6.700454240459761e-06,1.5497554602612436e-06,1.2864633807601655e-06,1.9194671109173723e-05,7.098354402723747e-07,5.900193165768228e-07,1.2919340242866813e-06,1.489364380502581e-06
66,1.1169720683894642e-06,1.0704471142948917e-06,1.918240496628435e-06,1.1125706428673795e-05,7.291064247324138e-07,7.593455854502432e-07,1.050844862381635e-06,1.2406461009535327e-06,6.1302837879101515e-06,1.5136756316525476e-06,1.268435738441244e-06,1.987474591331911e-05,7.189646971438113e-07,6.096164113395663e-07,1.2876650446592208e-06,1.4995539459407727e-06
67,1.1471695582834241e-06,1.0732047265704798e-06,1.8785305000965058e-06,1.147467581124779e-05,7.331585645865922e-07,7.573741031603634e-07,1.050462318940714e-06,1.2406709675821387e-06,5.597356893854603e-06,1.4749327559395747e-06,1.2513801423094556e-06,2.0538655767510967e-05,7.302868455823943e-07,6.312546466149817e-07,1.2822457480556555e-06,1.5131926570643412e-06
68,1.1835679966544608e-06,1.0760027413570628e-06,1.8469708120295749e-06,1.1827551732663688e-05,7.383553278677419e-07,7.58305732639582e-07,1.0494962517887127e-06,1.2419236765065683e-06,5.103979060422635e-06,1.4341114903406507e-06,1.2360347153722292e-06,2.1185075119322185e-05,7.433982367357633e-07,6.548925264297718e-07,1.2761059725019007e-06,1.5293013139307604e-06
69,1.227027039431242e-06,1.0790592268562513e-06,1.824437597782318e-06,1.2182789140560135e-05,7.445074727991135e-07,7.61777287708161e-07,1.0483942119727427e-06,1.244875133512421e-06,4.651328039218294e-06,1.391845718558493e-06,1.2231500882135715e-06,2.1817144802295342e-05,7.578871828064257e-07,6.80424512863448e-07,1.269594945566189e-06,1.546997696799189e-06
70,1.2785454653750452e-06,1.0825253259372698e-06,1.8117408926117175e-06,1.253794609074374e-05,7.513476529445484e-07,7.673488856589421e-07,1.0475358211870066e-06,1.2499039635181957e-06,4.239730392503343e-06,1.3487268769794794e-06,1.2133690399666695e-06,2.244423438341607e-05,7.734204549534298e-07,7.076947803316527e-07,1.2629283247967607e-06,1.5655387585055445e-06
71,1.3391765613856319e-06,1.0865623073562473e-06,1.809600222009474e-06,1.28901237395435e-05,7.586047303625201e-07,7.745213654157984e-07,1.0472016591407278e-06,1.257288404693214e-06,3.868975479560166e-06,1.305277475609836e-06,1.2071343286120485e-06,2.3082180457212114e-05,7.897932599531413e-07,7.365365828955778e-07,1.2561931847239133e-06,1.5842759992161438e-06
72,1.4098757479719073e-06,1.0914250159899944e-06,1.8185319891825667e-06,1.3235866342453071e-05,7.660492675776608e-07,7.828180611108801e-07,1.047558326739318e-06,1.2671821488261408e-06,3.538445144275041e-06,1.2619884340438165e-06,1.204647275723071e-06,2.3751786222096904e-05,8.069154957789735e-07,7.668113408381048e-07,1.2493385317607122e-06,1.6025976884359683e-06
73,1.4913857014987768e-06,1.097447139444942e-06,1.838771625297328e-06,1.3570784657598325e-05,7.734730892477003e-07,7.918809102170689e-07,1.0486105359765468e-06,1.2795667533019721e-06,3.2470113721369286e-06,1.219336805472677e-06,1.205854159736106e-06,2.4476087492523742e-05,8.247330483450764e-07,7.984040480095036e-07,1.24218395138747e-06,1.6199929439405037e-06
74,1.5842204322492168e-06,1.1049612205513364e-06,1.8703120614331546e-06,1.388935496553757e-05,7.806470719209951e-07,8.015032863862597e-07,1.050199082372919e-06,1.2942662148752837e-06,2.992950037903817e-06,1.1777332146351415e-06,1.2104421420001451e-06,2.5277456916557706e-05,8.43164653802095e-07,8.311851738043909e-07,1.2345062780323697e-06,1.636171740655347e-06
75,1.6886827173082388e-06,1.1142681936205071e-06,1.912999335950101e-06,1.4185129662050205e-05,7.873399666486382e-07,8.116135882330458e-07,1.0520995654308199e-06,1.3110470712016868e-06,2.7740346468449723e-06,1.1374834068699463e-06,1.2178571851210095e-06,2.6175437193897657e-05,8.62101821342523e-07,8.649924335269375e-07,1.2261434544991394e-06,1.6511198058311425e-06
76,1.8048464411961975e-06,1.1256547653635501e-06,1.9665534310352206e-06,1.4451419505665223e-05,7.93408832165113e-07,8.222530560650573e-07,1.0541399439032062e-06,1.3297021230726743e-06,2.5877394805720143e-06,1.0988290616395004e-06,1.227406775572784e-06,2.718541368328603e-05,8.814205402560146e-07,8.996646041625442e-07,1.2170103285928368e-06,1.6650863233604405e-06
77,1.932532823798158e-06,1.1393676656146744e-06,2.030476928300153e-06,1.4682338850573281e-05,7.988700125388071e-07,8.335331443550525e-07,1.0562151597377473e-06,1.3500143970814156e-06,2.431383961950155e-06,1.0619783734154525e-06,1.238464130984318e-06,2.831772380954266e-05,9.009916399035603e-07,9.351012320563135e-07,1.2070685819699399e-06,1.6785290808093312e-06
78,2.071310522290073e-06,1.1555913612254525e-06,2.1039484266879902e-06,1.4873869936885291e-05,8.038604700437702e-07,8.455538110406927e-07,1.0582459027502463e-06,1.3716532206106433e-06,2.302154640297648e-06,1.0270788614020344e-06,1.2506354580268596e-06,2.9576951570414844e-05,9.206859919468231e-07,9.712826612470958e-07,1.1963562747587292e-06,1.6920127801189601e-06
79,2.220529864748461e-06,1.1744981422501659e-06,2.185770505375825e-06,1.5024549135632102e-05,8.085151608391199e-07,8.583427432387099e-07,1.0602212174077092e-06,1.3941529333225476e-06,2.197151029187899e-06,9.941951508743154e-07,1.263733659787988e-06,3.096146332815131e-05,9.40321568264991e-07,1.0082207139487133e-06,1.1850194879344605e-06,1.7060536340808603e-06
80,2.3794314948479047e-06,1.196266237884614e-06,2.2743338659734025e-06,1.5135610198480618e-05,8.128706106306599e-07,8.718659133226333e-07,1.0622959082529261e-06,1.4170244331151441e-06,2.113539356639144e-06,9.633104751108674e-07,1.2776057118063844e-06,3.24632192892887e-05,9.595884160539111e-07,1.0458937471147872e-06,1.1732793091438646e-06,1.7209671388018183e-06
81,2.5472874070344606e-06,1.2210076420869666e-06,2.367586030588353e-06,1.5210608446202852e-05,8.168783620271414e-07,8.86057761248152e-07,1.0648147118140838e-06,1.4399141328240985e-06,2.0487451925602043e-06,9.343505044865189e-07,1.2920176872195435e-06,3.40676739112932e-05,9.78075237040214e-07,1.0842498946840247e-06,1.161410204915849e-06,1.7368132041756148e-06
82,2.723443980512667e-06,1.2486936491099162e-06,2.463083658677851e-06,1.5254500420673658e-05,8.205177390620764e-07,9.008102095666934e-07,1.068240200830884e-06,1.4627150684259434e-06,2.0007246399374e-06,9.072341041851179e-07,1.3066845387638466e-06,3.5753505540643555e-05,9.954182907986122e-07,1.1232751016229503e-06,1.1497259429000897e-06,1.7534442305041648e-06
83,2.9071959092162413e-06,1.2791159591478216e-06,2.558231264455316e-06,1.5272211559196616e-05,8.238939622563725e-07,9.159217725539416e-07,1.073048113100036e-06,1.485585592359392e-06,1.9683008248661122e-06,8.819343911079001e-07,1.321325714819047e-06,3.7492066386932904e-05,1.0114104660841612e-06,1.1630131271470132e-06,1.1385120095125835e-06,1.770561417323551e-06
84,3.0975488940885714e-06,1.3118709370444915e-06,2.6506844957706772e-06,1.5267242601765498e-05,8.272200610815904e-07,9.310498510258162e-07,1.0796580103671453e-06,1.5088558024928887e-06,1.951296608390838e-06,8.585284075940518e-07,1.335651114211251e-06,3.924662140878146e-05,1.0259523123203256e-06,1.2034799508223135e-06,1.1279643956945377e-06,1.7877210479944458e-06
85,3.29306813759938e-06,1.3463634995133212e-06,2.7386564043660736e-06,1.5241135968981458e-05,8.307260393787736e-07,9.457400085898268e-07,1.0884276607972691e-06,1.5328598450300359e-06,1.950274772132334e-06,8.371760861599758e-07,1.3493670311127097e-06,4.097162920651552e-05,1.038961317696696e-06,1.2445641396393542e-06,1.1181795767409736e-06,1.8043796399315865e-06
86,3.4919839713382e-06,1.38182015660654e-06,2.8208784431705596e-06,1.5193879481685682e-05,8.345950489177945e-07,9.59565408526901e-07,1.0996640826766078e-06,1.557839898084947e-06,1.966060273333501e-06,8.180259048502627e-07,1.362294354925968e-06,4.261289911992928e-05,1.0503451098085634e-06,1.2859923892681152e-06,1.1091680619421668e-06,1.8200630189842083e-06
87,3.6924916440645553e-06,1.4173546247618232e-06,2.896317095491449e-06,1.5124551231017574e-05,8.389489232126365e-07,9.722888018305509e-07,1.1135954058600325e-06,1.5840031314222747e-06,1.9994156694684154e-06,8.011364780727085e-07,1.3744859687029072e-06,4.411049039426033e-05,1.0599964209941202e-06,1.3273305145192684e-06,1.100871164727458e-06,1.8345538977695654e-06
88,3.893029020860333e-06,1.452127977726553e-06,2.9639308775972554e-06,1.503165565453413e-05,8.438816720442593e-07,9.839171235980825e-07,1.1303378629510735e-06,1.6115772383898083e-06,2.0510204385361568e-06,7.864380184753588e-07,1.386197079810563e-06,4.5406015923259603e-05,1.0678083655972547e-06,1.3679754169379694e-06,1.0931705194712562e-06,1.8479592866475277e-06
89,4.092354588874957e-06,1.4855250135637383e-06,3.0225547994139655e-06,1.4913124196876934e-05,8.495338169798736e-07,9.94625826430335e-07,1.1498922157729144e-06,1.6407113496630875e-06,2.1215680194519534e-06,7.737121896878569e-07,1.3977552971140942e-06,4.645267313134818e-05,1.0737363638335034e-06,1.407148340687289e-06,1.0859057370670037e-06,1.8607050191182654e-06
90,4.2893752284318025e-06,1.5172318478602681e-06,3.070803213152204e-06,1.4766300774628672e-05,8.561330099970037e-07,1.004642801435018e-06,1.172120375851601e-06,1.6713124354582966e-06,2.2118193834864356e-06,7.625982218397501e-07,1.409446523801255e-06,4.722246698141245e-05,1.0778595669892067e-06,1.4439387357138733e-06,1.0789066676792572e-06,1.8735594320423613e-06
91,4.482799791100042e-06,1.5471888398152e-06,3.106996920056155e-06,1.4588203666657725e-05,8.639369541118258e-07,1.0141783395650754e-06,1.1967019088775774e-06,1.7029775596342691e-06,2.322618673849873e-06,7.526252875755963e-07,1.421442514013032e-06,4.7705871945063215e-05,1.0803786220218602e-06,1.4774078307436238e-06,1.0720237648293034e-06,1.8876275393625184e-06
92,4.670795218677753e-06,1.575459297263414e-06,3.1293019133440545e-06,1.4376026789905307e-05,8.731200131887498e-07,1.0234194119044895e-06,1.223159912454809e-06,1.7350559607201318e-06,2.45485177085891e-06,7.432821816570032e-07,1.4337552576464491e-06,4.7904255912762214e-05,1.0815437171589252e-06,1.5067159055922625e-06,1.0651678768514078e-06,1.9042113924678755e-06
93,4.850890385508735e-06,1.6020603739094815e-06,3.1361313055364517e-06,1.4127664544908167e-05,8.836964177524627e-07,1.03255729760684e-06,1.250960504674982e-06,1.7667795675170868e-06,2.6093102645282963e-06,7.341490761470406e-07,1.446233416873039e-06,4.782038898984869e-05,1.0815803580475838e-06,1.531252317928126e-06,1.0583547305900556e-06,1.9245760774036977e-06
94,5.020235746974069e-06,1.6268266964160335e-06,3.1266120128930457e-06,1.3842115155178195e-05,8.955349495710167e-07,1.0418025083183649e-06,1.279567035037453e-06,1.7973728544569405e-06,2.78651552322866e-06,7.25054041197605e-07,1.458600471560234e-06,4.7453945053152706e-05,1.0806724066607066e-06,1.550727764722653e-06,1.0516925867334912e-06,1.949736757626461e-06
95,5.176056538962896e-06,1.6494020193263705e-06,3.1009283443365196e-06,1.3519733123115828e-05,9.084492640746507e-07,1.051359818600432e-06,1.3084175835233433e-06,1.8260897323411023e-06,2.9865827184050682e-06,7.161481559197002e-07,1.4704679261984442e-06,4.6804502553456824e-05,1.0789607867781084e-06,1.5651623987399263e-06,1.045276492909077e-06,1.980344476357996e-06
96,5.316084038542884e-06,1.669386931312007e-06,3.0604569058060133e-06,1.3162378418610944e-05,9.222828674972865e-07,1.0613796869128992e-06,1.3369109664953174e-06,1.8522251540367026e-06,3.2091288855725722e-06,7.078341457842262e-07,1.4812858735875876e-06,4.587806747806191e-05,1.0764882277673246e-06,1.5747658089845301e-06,1.039062888447343e-06,2.0167398423427074e-06
97,5.438838196916917e-06,1.6865507466888488e-06,3.0076091620673974e-06,1.2773479266907114e-05,9.369081580196321e-07,1.0719163958008257e-06,1.3644063168451513e-06,1.8752049534480916e-06,3.453208318809899e-06,7.006241972885913e-07,1.490295625049982e-06,4.46921568412948e-05,1.073129952465337e-06,1.5798004750015238e-06,1.0328513928660844e-06,2.059199985163526e-06
98,5.543704014846674e-06,1.7009537998691567e-06,2.9453795595569715e-06,1.2357918540380285e-05,9.521546151873793e-07,1.082901586863897e-06,1.3902126449722644e-06,1.8947622692199383e-06,3.7173173987727225e-06,6.950577359140464e-07,1.4965729685411374e-06,4.327735786870251e-05,1.0686188790041359e-06,1.580535952431482e-06,1.026399908040559e-06,2.1082090437517793e-06
99,5.6308602978667705e-06,1.7128814823018966e-06,2.8767926496926494e-06,1.1921621760246047e-05,9.677658468177121e-07,1.094159348478549e-06,1.413637461574446e-06,1.911046359673631e-06,3.99949182588134e-06,6.916821427993847e-07,1.499202230692921e-06,4.1675110964530374e-05,1.0626859845141994e-06,1.5772959111064293e-06,1.0195468430349921e-06,2.1644860455023425e-06
100,5.7011438421991255e-06,1.7226560836774384e-06,2.8044909071085284e-06,1.1470786641585343e-05,9.834533714142221e-07,1.1054942660432902e-06,1.4341111658069724e-06,1.9245191607104133e-06,4.297403463546473e-06,6.910159842516016e-07,1.4975192300165397e-06,3.993260475321328e-05,1.0552065302092765e-06,1.570474487163605e-06,1.0122087333494185e-06,2.22873692002156e-06
101,5.7557880935629465e-06,1.7305100259156092e-06,2.7305407767368e-06,1.1010864943720611e-05,9.990162002277843e-07,1.116789592501409e-06,1.451292177357857e-06,1.9357047762832693e-06,4.608323771815839e-06,6.934958553667202e-07,1.4912680220349705e-06,3.809673097413617e-05,1.0462272820130035e-06,1.5604382071078539e-06,1.00429675917004e-06,2.3013567151925716e-06
102,5.7959737286097795e-06,1.7366137925532039e-06,2.656410831224786e-06,1.0545723117189235e-05,1.014440028272556e-06,1.1280032151972707e-06,1.4650973725355564e-06,1.9449910404223163e-06,4.929006852176905e-06,6.994580868019741e-07,1.4805912572078481e-06,3.620922873942395e-05,1.0359051201608785e-06,1.5474097689265931e-06,9.956924397063849e-07,2.3822850681869885e-06
103,5.822463023096518e-06,1.7411699220094344e-06,2.5830909585940457e-06,1.0077471384302159e-05,1.0299120027727918e-06,1.1390551210698385e-06,1.4756576816891022e-06,1.9525723970479873e-06,5.2558034529585355e-06,7.091578032038666e-07,1.4659224802099552e-06,3.4304301415806386e-05,1.0245141138346776e-06,1.5314569460371807e-06,9.863095900468067e-07,2.471078618724918e-06
104,5.835786213513321e-06,1.7444440337631218e-06,2.511315360783067e-06,9.606951659227985e-06,1.0457537879672114e-06,1.1497054239853116e-06,1.4831801688026515e-06,1.9584422614459074e-06,5.585163854284508e-06,7.227920763505406e-07,1.4478742913049187e-06,3.240876315234152e-05,1.0125258700173528e-06,1.5125634629159964e-06,9.761604764644217e-07,2.567125534397016e-06
105,5.8369852193025255e-06,1.7467085634863036e-06,2.441780459405046e-06,9.134406661945321e-06,1.062333081309244e-06,1.159499994099452e-06,1.4877567061343456e-06,1.962354603284669e-06,5.914251184171024e-06,7.405177977261515e-07,1.4271656655524014e-06,3.054401898919735e-05,1.000593754186341e-06,1.4907240472702068e-06,9.653459665893755e-07,2.6697704256459672e-06
106,5.828342881325304e-06,1.7481453399503298e-06,2.375227814770514e-06,8.659936816607963e-06,1.0800030919731897e-06,1.1678060336824477e-06,1.4892527952361334e-06,1.9638291321431676e-06,6.241389140541098e-06,7.624607389452034e-07,1.404572797816116e-06,2.872904302571504e-05,9.894016851704915e-07,1.4660704546122551e-06,9.539631666109984e-07,2.778210094333671e-06
107,5.8136150115461694e-06,1.7487445862569979e-06,2.3123423769056877e-06,8.183671477669194e-06,1.0990565218163989e-06,1.1739263581042196e-06,1.48735683940747e-06,1.9622698367530602e-06,6.566327382571049e-06,7.886954550782875e-07,1.3808537307096995e-06,2.698341329087357e-05,9.795121744625984e-07,1.439000603666376e-06,9.420151932478928e-07,2.891298659555432e-06
108,5.797737880843919e-06,1.7482599640386208e-06,2.2535406083856855e-06,7.705794238438105e-06,1.1196625573536567e-06,1.1772226383583658e-06,1.4817204253045823e-06,1.9571265241535585e-06,6.89024262233353e-06,8.192215628029732e-07,1.3566531830714207e-06,2.5329219642651934e-05,9.713024249392103e-07,1.410189683481789e-06,9.293963198373237e-07,3.007415634154253e-06
109,5.786209844591007e-06,1.746292828316015e-06,2.1988190230820446e-06,7.226634978767791e-06,1.141807489372789e-06,1.177182017435094e-06,1.4720443816288595e-06,1.948028536949236e-06,7.2153127547934036e-06,8.539591587470847e-07,1.3324295058441549e-06,2.379077371584945e-05,9.649745174796742e-07,1.3804165114310583e-06,9.159691301613052e-07,3.1244444595559705e-06
110,5.784367296969207e-06,1.742489596852152e-06,2.1478285410835578e-06,6.746985004901281e-06,1.1652888468827221e-06,1.173455344800719e-06,1.4580374112360066e-06,1.9348978419255372e-06,7.5439086549561004e-06,8.92726189132797e-07,1.308404477765361e-06,2.239241019768187e-05,9.606118123801613e-07,1.350341910668479e-06,9.017153960478901e-07,3.2399262430748016e-06
111,5.7968043102601855e-06,1.7367467094207246e-06,2.1001588219712345e-06,6.268602438722756e-06,1.1897555611301499e-06,1.1659184724673236e-06,1.4393329928784741e-06,1.9180198370348376e-06,7.877714106499647e-06,9.352026714221091e-07,1.2845635562524138e-06,2.1156722954829678e-05,9.582408628068198e-07,1.3204153224923394e-06,8.86846092197092e-07,3.3513646857740982e-06
112,5.827107747484957e-06,1.7292996380235592e-06,2.055582069809369e-06,5.794602584519029e-06,1.2147263831464563e-06,1.1547265771389827e-06,1.4155243016012513e-06,1.8980061569516214e-06,8.217250651809104e-06,9.80949018111802e-07,1.2607596796936715e-06,2.010484069441457e-05,9.5783254157333e-07,1.2909048508580766e-06,8.717553805361169e-07,3.456509623789394e-06
113,5.877833794195128e-06,1.7206228679560996e-06,2.0140535179894075e-06,5.329347107425942e-06,1.2395740892716918e-06,1.1402846823411394e-06,1.3863603761709126e-06,1.8756546042704648e-06,8.56207319442345e-06,1.0294913185345198e-06,1.2368699277378888e-06,1.9257157426531618e-05,9.592488396392124e-07,1.261958566407116e-06,8.568847186481889e-07,3.5535232590765118e-06
114,5.950554472542366e-06,1.711241906255431e-06,1.975581574172575e-06,4.877778417590847e-06,1.263558737176476e-06,1.123116014062719e-06,1.3519906159736022e-06,1.8517955507611236e-06,8.911397334454848e-06,1.0803811489543318e-06,1.2128808838143918e-06,1.8632662144983605e-05,9.6222116005124e-07,1.23367862253748e-06,8.426318946995555e-07,3.6411102183803743e-06
115,6.045906493004606e-06,1.701665193901946e-06,1.940198786482593e-06,4.444607672224851e-06,1.2859496432469434e-06,1.1037092073163126e-06,1.3131116219843487e-06,1.8271846617261336e-06,9.264793505895717e-06,1.1331676384517476e-06,1.1888702702184645e-06,1.8247433442859895e-05,9.664003076900173e-07,1.2062228065040027e-06,8.293182581584133e-07,3.7186730680054026e-06
116,6.163628253076716e-06,1.6924232822251905e-06,1.908060094889352e-06,4.033815491402148e-06,1.3061409248206556e-06,1.0824533557385563e-06,1.270908101019395e-06,1.8024528093014151e-06,9.62277277710546e-06,1.1873360144888539e-06,1.1649735859235237e-06,1.8113644304212638e-05,9.714381510257379e-07,1.1798779122809685e-06,8.171793039083768e-07,3.786367595858859e-06
117,6.302562292161122e-06,1.6840316694052797e-06,1.8795168940353908e-06,3.6485143861685144e-06,1.3236667369592982e-06,1.0596767595637441e-06,1.226799174758279e-06,1.7781295599383799e-06,9.98708431861648e-06,1.2422515324252494e-06,1.1414000283110763e-06,1.8239476304165006e-05,9.770495652910427e-07,1.155018599562519e-06,8.064084136401087e-07,3.84488994299108e-06
118,6.460583088643537e-06,1.676911176741146e-06,1.8550468724422823e-06,3.290953212663864e-06,1.3381662838503547e-06,1.0357149037882087e-06,1.1821748970785852e-06,1.7547185880278619e-06,1.0360401680582624e-05,1.297114040738433e-06,1.1184390038893703e-06,1.8629557273387684e-05,9.830335410997728e-07,1.1319650652495507e-06,7.972401410385737e-07,3.895045312898676e-06
119,6.634481534838429e-06,1.671380138697753e-06,1.8350589207175206e-06,2.9625547644329787e-06,1.34939664485802e-06,1.0109572688619e-06,1.138270584027798e-06,1.732738595460929e-06,1.074536038644791e-05,1.3509890208124097e-06,1.0963777087755728e-06,1.9285400851219035e-05,9.892378773852817e-07,1.1108645421767029e-06,7.899684146716936e-07,3.937310463807058e-06
120,6.820023661047118e-06,1.6676523530481703e-06,1.8197027040971953e-06,2.663984026754421e-06,1.3572731776864612e-06,9.858621355569287e-07,1.096135805368589e-06,1.7126804319373933e-06,1.1143729235206806e-05,1.402943417278284e-06,1.0753695262118776e-06,2.0205604938533166e-05,9.954878964785179e-07,1.091700581329183e-06,7.84891346448609e-07,3.971531570508725e-06
121,7.012270837026718e-06,1.6658175966536669e-06,1.808804031627281e-06,2.395237777976614e-06,1.3618289078144814e-06,9.609239544288973e-07,1.0566209554618808e-06,1.6949214069906044e-06,1.1556441884255497e-05,1.4521839138284338e-06,1.0553616817532557e-06,2.138584694654381e-05,1.001582758231508e-06,1.0744115318188603e-06,7.82281142355883e-07,3.996827862199305e-06
122,7.2057852229951075e-06,1.6658607509915242e-06,1.8019341772615075e-06,2.1557347536597312e-06,1.3630810008709396e-06,9.366082034553549e-07,1.0203766408582426e-06,1.679641828139712e-06,1.1983958530149618e-05,1.4980983571203756e-06,1.036132282534875e-06,2.2818752579443995e-05,1.0073968980561785e-06,1.0590030442867058e-06,7.823884352255253e-07,4.011761363117496e-06
123,7.394421622927428e-06,1.6676876602794362e-06,1.7985328578854727e-06,1.9443809606523513e-06,1.3609582956732338e-06,9.133172073036806e-07,9.878881285024858e-07,1.6667464511892343e-06,1.2426020800764056e-05,1.5402241376121042e-06,1.0174227878740965e-06,2.4493650109032983e-05,1.0129467222166993e-06,1.0455559885188183e-06,7.854275495194872e-07,4.014735693112911e-06
124,7.571129056294704e-06,1.6711048140343672e-06,1.7980176131699165e-06,1.7596169912532656e-06,1.3553965316798913e-06,8.914166964893031e-07,9.59533035776967e-07,1.6558081183370364e-06,1.2880811795109853e-05,1.5782125743793622e-06,9.99112159245043e-07,2.6396196522348033e-05,1.0183098300582366e-06,1.0341585670076882e-06,7.915424423269242e-07,4.004469745632519e-06
125,7.728344648178502e-06,1.6757555739114964e-06,1.799846040007582e-06,1.5994968557556783e-06,1.3464882951978363e-06,8.712610677621253e-07,9.356007337505222e-07,1.6460599499372046e-06,1.3344295144979496e-05,1.6118002847532047e-06,9.813123565928603e-07,2.850784757959037e-05,1.0234774194800934e-06,1.0248578571585602e-06,8.007657588956013e-07,3.9803652912907225e-06
126,7.858880404006502e-06,1.6810958584554321e-06,1.8035082933367268e-06,1.461825189592361e-06,1.3345198777001637e-06,8.531576049801478e-07,9.16253403781788e-07,1.6364347771074757e-06,1.381029581885219e-05,1.6407548195727405e-06,9.642894456555541e-07,3.080517861491461e-05,1.0282769487374917e-06,1.0176481235500915e-06,8.129834565176887e-07,3.942632551866222e-06
127,7.956790004903302e-06,1.6864877503012218e-06,1.8084810908901327e-06,1.344296308531603e-06,1.319862051693876e-06,8.373168589018501e-07,9.014916658774288e-07,1.6256694291429268e-06,1.4271202706338957e-05,1.6647752036483413e-06,9.483010123685815e-07,3.32591488997067e-05,1.032406000013413e-06,1.0124773186283785e-06,8.279403475181149e-07,3.892180660825788e-06
128,8.017857512974705e-06,1.6913476481222455e-06,1.8142100098032408e-06,1.2446038621392653e-06,1.3028154016674333e-06,8.238452388781949e-07,8.911723378960392e-07,1.6124790114738025e-06,1.4718853827697503e-05,1.6834019160546758e-06,9.335190269436117e-07,3.583440992628055e-05,1.0355379225086414e-06,1.009273577556394e-06,8.452790015630758e-07,3.830471233608448e-06
129,8.039518506273972e-06,1.6952556529414243e-06,1.8200946128354793e-06,1.1605811842768695e-06,1.2835558959607896e-06,8.127426547380492e-07,8.850484330630551e-07,1.5957230307052641e-06,1.5145256582191049e-05,1.6960608538319582e-06,9.200645359095964e-07,3.848866553396847e-05,1.0374373967822344e-06,1.0079478306475656e-06,8.645538433484026e-07,3.7595033274750284e-06
130,8.020162043785003e-06,1.6980197257716902e-06,1.8254174976102042e-06,1.0903318605356604e-06,1.2622295092566626e-06,8.038747619388424e-07,8.827763482002942e-07,1.5745029133583985e-06,1.5542921345529026e-05,1.702254506828489e-06,9.080627014346856e-07,4.1172023061523785e-05,1.0380230260744042e-06,1.0083464396060092e-06,8.85229409731173e-07,3.6817993865280833e-06
131,7.958251438037822e-06,1.6996977100809634e-06,1.8293243576035518e-06,1.032228324944337e-06,1.239087716320522e-06,7.969629403694226e-07,8.838848355738393e-07,1.5482312516940379e-06,1.5904707915820577e-05,1.7017392640800847e-06,8.976375181979428e-07,4.3826229619895984e-05,1.0373313239473238e-06,1.0102341782533626e-06,9.067233271698773e-07,3.6001535538076123e-06
132,7.852196869663806e-06,1.700569331061479e-06,1.8309678799836494e-06,9.84818775206377e-07,1.2145262153171892e-06,7.916314700391251e-07,8.87747268234641e-07,1.5167188116283195e-06,1.6223156443657793e-05,1.6946078791411808e-06,8.888598511559406e-07,4.638408230482201e-05,1.035406818888029e-06,1.0133561220029354e-06,9.284487745859822e-07,3.5172099289052012e-06
133,7.701313869644073e-06,1.701065354648956e-06,1.8296869760012464e-06,9.467777300246932e-07,1.1889994314040037e-06,7.8747159119023e-07,8.935837767392174e-07,1.4802429994145513e-06,1.6489406880877668e-05,1.6813484751371536e-06,8.817395626666924e-07,4.877083112827544e-05,1.0322032507475413e-06,1.0174911632501265e-06,9.497824996867818e-07,3.4351747551361777e-06
134,7.5070332404231605e-06,1.7016437628288644e-06,1.8250745947794821e-06,9.16911478372418e-07,1.1629015497724434e-06,7.840566284642765e-07,9.005037608403702e-07,1.4395248269687107e-06,1.669232093244972e-05,1.6628548896364823e-06,8.762863078685655e-07,5.091020362434512e-05,1.0275439075900023e-06,1.022422071384972e-06,9.70022573713269e-07,3.3558055546396667e-06
135,7.273448019889363e-06,1.7026273581971373e-06,1.8169846476744443e-06,8.941239809033931e-07,1.1365215701826884e-06,7.809511282551775e-07,9.075973928545287e-07,1.395605116877847e-06,1.681883563304586e-05,1.6402847101523956e-06,8.725656750093847e-07,5.273470379808172e-05,1.02117108173996e-06,1.0278828662233702e-06,9.884195058980642e-07,3.280575233966777e-06
136,7.007008260326574e-06,1.7041074492107491e-06,1.805534985790243e-06,8.773145320637066e-07,1.1100698019705492e-06,7.777916869431966e-07,9.140358214592339e-07,1.3496804622896078e-06,1.6855981559060858e-05,1.6148342780375708e-06,8.706949642985568e-07,5.4195134579776636e-05,1.0129201661592157e-06,1.033589129985364e-06,1.0042822450329715e-06,3.210852973469532e-06
137,6.715587901813252e-06,1.7059708877648888e-06,1.791030843343379e-06,8.652975118435246e-07,1.083686055223745e-06,7.743917371687815e-07,9.191229468404628e-07,1.3029486131215843e-06,1.6793817553650507e-05,1.5875758295937234e-06,8.707850488491935e-07,5.526365608415888e-05,1.002899733840143e-06,1.0393556238926086e-06,1.0171293997604293e-06,3.1479923256712374e-06
138,6.407292979262207e-06,1.7079456720321928e-06,1.773788976598461e-06,8.568269938600131e-07,1.0574065993859569e-06,7.707758859435727e-07,9.223102377387581e-07,1.2564927911335108e-06,1.662793182175787e-05,1.5593928208662956e-06,8.728701244649468e-07,5.592898334318237e-05,9.914766183188993e-07,1.0451834394160805e-06,1.026778443496838e-06,3.093275282115242e-06
139,6.089479468160666e-06,1.7095905975811224e-06,1.7540063882084732e-06,8.507195909626658e-07,1.0311599236222511e-06,7.671135787791899e-07,9.232027597552648e-07,1.2112363382604061e-06,1.6360183239958613e-05,1.5310236917926925e-06,8.768757048005918e-07,5.6187019590626683e-05,9.79131517023972e-07,1.0512234161448746e-06,1.033272672009982e-06,3.0477409535529154e-06
140,5.768271933877523e-06,1.7102861934741076e-06,1.7317528383482088e-06,8.460206996027341e-07,1.004839432655392e-06,7.635886210049354e-07,9.215328759959121e-07,1.1679452008233801e-06,1.599703256683091e-05,1.503189458132281e-06,8.826469161686038e-07,5.6033048088910814e-05,9.66393098187525e-07,1.0576575196411588e-06,1.036746545266976e-06,3.0120179730204897e-06
141,5.4485046991620465e-06,1.7092427920526904e-06,1.7070038635828947e-06,8.421412390852499e-07,9.784199677311907e-07,7.602918982882555e-07,9.171246882106801e-07,1.1272219566018167e-06,1.5546723488706526e-05,1.4766824394958585e-06,8.900003537436974e-07,5.546143160222777e-05,9.538313641360046e-07,1.0645889675953255e-06,1.0373759808562731e-06,2.9862886162784637e-06
142,5.133871102191112e-06,1.7055185637107226e-06,1.679657351518703e-06,8.389010785729289e-07,9.520421673530003e-07,7.571981668710633e-07,9.09935171067389e-07,1.0895002130217075e-06,1.5017796028303753e-05,1.4523272793755693e-06,8.987271768484172e-07,5.44731257213531e-05,9.420118771767365e-07,1.071984487781129e-06,1.0353889363892237e-06,2.9703659833208827e-06
143,4.827138655647009e-06,1.6981302650631968e-06,1.649569851843747e-06,8.36466437727136e-07,9.260012054354651e-07,7.542201839262685e-07,9.001216739939675e-07,1.0550703470614302e-06,1.4419532345560151e-05,1.430853314112956e-06,9.085380719601792e-07,5.308466298966907e-05,9.314291828874704e-07,1.0796649672471599e-06,1.0310612888551902e-06,2.9637380412173943e-06
144,4.530344494157629e-06,1.6862685572214536e-06,1.616659992591269e-06,8.352124278355426e-07,9.006395571247561e-07,7.513108557154223e-07,8.880157034286286e-07,1.02410525934427e-06,1.3762765448780841e-05,1.4127746750621093e-06,9.190203086500004e-07,5.1332177593686416e-05,9.224517589925259e-07,1.087309784285895e-06,1.0246844324219244e-06,2.9655123879407364e-06
145,4.244943112702334e-06,1.6694910099441715e-06,1.581069362361106e-06,8.355852088142601e-07,8.762312967702321e-07,7.485565842150228e-07,8.740744172747061e-07,9.966515792680047e-07,1.3060040329737719e-05,1.3983394764245645e-06,9.296585827493602e-07,4.9268825062326914e-05,9.153110435123392e-07,1.0944495762629469e-06,1.01650098461799e-06,2.974316286229798e-06
146,3.971903910038146e-06,1.6478149934347164e-06,1.5432818490272658e-06,8.380794508465803e-07,8.529517559800195e-07,7.461836675855119e-07,8.588850350579902e-07,9.726188827966219e-07,1.2325140646092667e-05,1.3875385686027442e-06,9.399365367061078e-07,4.6957810240304176e-05,9.101662506651066e-07,1.100457677649549e-06,1.0066277391016295e-06,2.9882308560128048e-06
147,3.7117496679237913e-06,1.6217230899652816e-06,1.504086710237606e-06,8.433472317954188e-07,8.309303177822676e-07,7.444672638379386e-07,8.431167424758408e-07,9.517962930525687e-07,1.1572007433665083e-05,1.3801237256453405e-06,9.494745848878752e-07,4.446436131080315e-05,9.071857857762057e-07,1.1045699926602418e-06,9.950334407451122e-07,3.004835264346829e-06
148,3.4645671495415103e-06,1.592066996929173e-06,1.4643910455994326e-06,8.522815330773577e-07,8.103138693786558e-07,7.436258077862442e-07,8.274088087846052e-07,9.338688086067788e-07,1.0813389091733487e-05,1.3756222849003477e-06,9.580744093192181e-07,4.184925212417659e-05,9.065588664131223e-07,1.1059991859087198e-06,9.815976171194513e-07,3.0213816801519823e-06
149,3.2300531703044164e-06,1.559850225016008e-06,1.4250271560682511e-06,8.659579022750218e-07,7.912742848433911e-07,7.437776655028705e-07,8.123100187124753e-07,9.184426207917063e-07,1.0059934101540602e-05,1.373402169974548e-06,9.65624321276892e-07,3.916523712345183e-05,9.084652719008703e-07,1.104156611220109e-06,9.661761249805158e-07,3.0350301666989027e-06
150,3.0076256331189653e-06,1.5259774322109438e-06,1.3866903690723577e-06,8.854937269321344e-07,7.739505304389882e-07,7.449537780679766e-07,7.982753126256828e-07,9.051034897402143e-07,9.320010654729188e-06,1.3728143561652786e-06,9.7196885977996e-07,3.6456403074147076e-05,9.130774480378659e-07,1.0988228073458764e-06,9.486347604278458e-07,3.043059571528346e-06
151,2.7965771261060886e-06,1.4911193981391646e-06,1.3499849706994075e-06,9.119263524741876e-07,7.583944517219289e-07,7.471224802550895e-07,7.856608838240179e-07,8.934464091194668e-07,8.600060599259654e-06,1.373322020232203e-06,9.768312067533014e-07,3.375920401757664e-05,9.205664819804348e-07,1.0901246267298567e-06,9.289253585782912e-07,3.043020675774509e-06
152,2.59623803428359e-06,1.45575430431414e-06,1.3154496951507713e-06,9.461520798792212e-07,7.44584677907218e-07,7.502083818530832e-07,7.747049521943505e-07,8.830685552056108e-07,7.905265039640638e-06,1.3744901310790144e-06,9.798196632768438e-07,3.110379560876244e-05,9.310525167547665e-07,1.078407185714037e-06,9.071976506353916e-07,3.0328370209626026e-06
153,2.406136513802188e-06,1.4202907234785297e-06,1.2835060483974315e-06,9.88910831038363e-07,7.32481469253007e-07,7.540952573335994e-07,7.655092182927608e-07,8.736250794408933e-07,7.240150611818253e-06,1.375848117600369e-06,9.805359632174792e-07,2.851504310229991e-05,9.445419451231438e-07,1.0641580569321731e-06,8.838226687603791e-07,3.0108890636015205e-06
154,2.2261366845454226e-06,1.3851134738559005e-06,1.2543921685884412e-06,1.040774260936058e-06,7.220577051530357e-07,7.58609538619308e-07,7.580557701002426e-07,8.649426363479927e-07,6.608706058848839e-06,1.3768159695722098e-06,9.787218324796305e-07,2.6013197169172234e-05,9.609079886985641e-07,1.0479760939355635e-06,8.593116499368272e-07,2.976134479652567e-06
155,2.0565037515167594e-06,1.350544412312776e-06,1.2281421925844797e-06,1.1021240899806634e-06,7.13280177695939e-07,7.635425047906905e-07,7.52275566875591e-07,8.570672570546563e-07,6.0141099627524245e-06,1.3768418744155833e-06,9.743145550744316e-07,2.3614436305529257e-05,9.798937776899254e-07,1.0304987369671676e-06,8.342192062251697e-07,2.9282653983016136e-06
156,1.8978453719044628e-06,1.3168540405535585e-06,1.204590372947003e-06,1.1731473987148482e-06,7.060569615391146e-07,7.687479790769884e-07,7.481080735736697e-07,8.501986858527543e-07,5.458569645264727e-06,1.3756258805063056e-06,9.673721867076187e-07,2.1331376287018854e-05,1.0011249075291682e-06,1.0123321625182817e-06,8.090758311452039e-07,2.8677977705008074e-06
157,1.750931184195499e-06,1.2843419816146817e-06,1.18337648747393e-06,1.253909937564196e-06,7.001866255712806e-07,7.742065342196544e-07,7.454825009180769e-07,8.445726086963773e-07,4.943449440601882e-06,1.3731705902155194e-06,9.579790139393447e-07,1.917342652697344e-05,1.0241311077937564e-06,9.940632450099858e-07,7.843589097809688e-07,2.7959594408424935e-06
158,1.6164648149937142e-06,1.2533673846739407e-06,1.1639999576936287e-06,1.3445557687260092e-06,6.953342372937704e-07,7.799593082759766e-07,7.442498143302557e-07,8.403556215649506e-07,4.4695378303229164e-06,1.3695983871379757e-06,9.462738875209881e-07,1.714690611425786e-05,1.048350483611633e-06,9.762977435267438e-07,7.604898966285267e-07,2.714344296243202e-06
159,1.4949171025925263e-06,1.2242773522481308e-06,1.1459576854438828e-06,1.445551875328737e-06,6.910253539318783e-07,7.859980893126385e-07,7.441522122244834e-07,8.37574564947639e-07,4.03735878741555e-06,1.3649315700687177e-06,9.325624604391286e-07,1.5255125463370198e-05,1.0731432565827196e-06,9.596514353089009e-07,7.378186681613778e-07,2.6244890071899544e-06
160,1.3864681727302889e-06,1.197289085893061e-06,1.1288956123615211e-06,1.5577955687475004e-06,6.866539682880216e-07,7.922182107653554e-07,7.448713307816054e-07,8.360957516376595e-07,3.647408377775494e-06,1.3590604951081528e-06,9.173206599225909e-07,1.3498724742704798e-05,1.0978548529958882e-06,9.447021655846675e-07,7.166047030331868e-07,2.527692310423599e-06
161,1.291022234440864e-06,1.1723978781562201e-06,1.1126777749466692e-06,1.682487705177995e-06,6.815555610962996e-07,7.984299483532964e-07,7.461313615464097e-07,8.356854485351934e-07,3.30015297871576e-06,1.3519302989236548e-06,9.010804046057518e-07,1.1876296210593518e-05,1.1218867821772727e-06,9.319255608124548e-07,6.970495540463249e-07,2.4252399770776074e-06
162,1.2082634038417073e-06,1.1493389783938302e-06,1.0973773411031857e-06,1.8208555438461522e-06,6.751865090990522e-07,8.044266854170656e-07,7.477838947198886e-07,8.361460294518709e-07,2.9958462800268716e-06,1.3437542420924604e-06,8.843592028645783e-07,1.0385071680458735e-05,1.1447408783080128e-06,9.216407626114497e-07,6.793493245802685e-07,2.31877150861887e-06
163,1.137728625460749e-06,1.1275958130676957e-06,1.0832631971272602e-06,1.973906367161448e-06,6.673211402066906e-07,8.101061451157913e-07,7.497978789389044e-07,8.374350873332141e-07,2.734417004398891e-06,1.3350406523432307e-06,8.676442364431644e-07,9.021459562867901e-06,1.166059943129411e-06,9.140048656269872e-07,6.63680149465149e-07,2.21039049161502e-06
164,1.0788417267343713e-06,1.1064746377247058e-06,1.0707884143185207e-06,2.14232865527123e-06,6.580951433903925e-07,8.155421354410359e-07,7.521628516819944e-07,8.396634030768353e-07,2.515552692968732e-06,1.3264345872234205e-06,8.513531167099112e-07,7.781335625947704e-06,1.185649854176888e-06,9.090524690765535e-07,6.501423046188676e-07,2.1024269244449195e-06
165,1.0309040395187123e-06,1.0852816475010147e-06,1.0605178710248108e-06,2.326535425817134e-06,6.478655305062737e-07,8.209170831372383e-07,7.547990149551794e-07,8.429965568713067e-07,2.3388598680855095e-06,1.318549493041546e-06,8.357949485487202e-07,6.6600859172404104e-06,1.2034172921001183e-06,9.067334455723243e-07,6.387504958667983e-07,1.997073376527996e-06
166,9.93115033044142e-07,1.0635514377770233e-06,1.053010143868177e-06,2.5267926922310526e-06,6.37051165423233e-07,8.263805819790935e-07,7.575366971521564e-07,8.475780198352986e-07,2.203965364447361e-06,1.3118884160426367e-06,8.211963657383829e-07,5.652514492710781e-06,1.2192360763205172e-06,9.069492988668374e-07,6.294690911099964e-07,1.8961553725148034e-06
167,9.646522386353474e-07,1.0411941374045807e-06,1.0487535061563878e-06,2.743353658970322e-06,6.260634030096595e-07,8.319758051865006e-07,7.601436733793968e-07,8.535019744907516e-07,2.110514120738385e-06,1.3068300876070292e-06,8.077867606900098e-07,4.75283619982333e-06,1.2328695381660448e-06,9.096399652939904e-07,6.222491266891798e-07,1.801110762529465e-06
168,9.447492071705412e-07,1.0184878561762047e-06,1.0481635747475055e-06,2.976490321607673e-06,6.152769234293959e-07,8.376884070003507e-07,7.623824893135542e-07,8.607855176530126e-07,2.0580443571353185e-06,1.3036447233586545e-06,7.958414788386547e-07,3.954912931863045e-06,1.2440140126450671e-06,9.148799664429268e-07,6.170656229351982e-07,1.7130522584587242e-06
169,9.327142357604005e-07,9.959556279991596e-07,1.0515664922797591e-06,3.226362424602797e-06,6.050038986129795e-07,8.435434754108457e-07,7.640870079624922e-07,8.69366534126481e-07,2.0458546966905328e-06,1.3024876504172966e-06,7.856219738115355e-07,3.2526454086228538e-06,1.252378420853496e-06,9.228547583216085e-07,6.139408192199891e-07,1.6328073850920952e-06
170,9.278992915462677e-07,9.74198056620978e-07,1.0591952691269506e-06,3.492774640853058e-06,5.954930989033771e-07,8.496416835523916e-07,7.651838634092991e-07,8.791713048544817e-07,2.0730140206659237e-06,1.303347321371725e-06,7.773082427628118e-07,2.6402301850398193e-06,1.2577223140256792e-06,9.337221990905559e-07,6.129081556561222e-07,1.5609537265068266e-06
171,9.296514691662087e-07,9.537419303991369e-07,1.0712580917079454e-06,3.774938786537941e-06,5.869387697203264e-07,8.561041087954672e-07,7.656506505911133e-07,8.901801780334886e-07,2.1384254630486357e-06,1.3060184991159922e-06,7.710258113302785e-07,2.1121036961329866e-06,1.259878746720366e-06,9.474957871387038e-07,6.139436144922884e-07,1.4978708570379832e-06
172,9.37255939769301e-07,9.34955308195773e-07,1.087995773280719e-06,4.071356164794931e-06,5.794741422732161e-07,8.629796600664814e-07,7.65525740477825e-07,9.024050054772895e-07,2.2407800097131454e-06,1.310142334463694e-06,7.669069776312843e-07,1.6627214054063005e-06,1.258800644355809e-06,9.640034249269007e-07,6.169538922292214e-07,1.4438214514259371e-06
173,9.49882568582358e-07,9.180345360538975e-07,1.1096344407262032e-06,4.3798571082768765e-06,5.731692407939892e-07,8.701715020538988e-07,7.64988480770475e-07,9.158099322457285e-07,2.378464354198151e-06,1.3152597419115865e-06,7.650704037894841e-07,1.2864090316688095e-06,1.2546045799993185e-06,9.828974519841196e-07,6.218311518256127e-07,1.3990382116955232e-06
174,9.66581476725189e-07,9.030205070450196e-07,1.1362877385791887e-06,4.697735741302896e-06,5.680501288248839e-07,8.77409187198256e-07,7.643930337093237e-07,9.302521243410121e-07,2.549630839884279e-06,1.3208419289576787e-06,7.655427426497069e-07,9.773386206002205e-07,1.2475771885062866e-06,1.003720631188644e-06,6.284874865674225e-07,1.363758109706903e-06
175,9.86354714921322e-07,8.898233211310598e-07,1.1679049964404916e-06,5.02192090579691e-06,5.641269400795057e-07,8.843009484744984e-07,7.642062011888035e-07,9.45459707744176e-07,2.7524532934501944e-06,1.3263473379769983e-06,7.682283568206382e-07,7.29627979707123e-07,1.2381607292155712e-06,1.0259966387928464e-06,6.368261375210245e-07,1.338246429128815e-06
176,1.0082703423005977e-06,8.78265846713794e-07,1.2042644215439043e-06,5.349145342492184e-06,5.614133344086653e-07,8.904911703417933e-07,7.649080510503201e-07,9.610462642743551e-07,2.985289517334639e-06,1.3313579691114615e-06,7.729360254525366e-07,5.375642051464271e-07,1.2269084669660987e-06,1.049255928079386e-06,6.467049316729426e-07,1.3228472204199658e-06
177,1.0315667950145069e-06,8.681187710612441e-07,1.244958735240884e-06,5.676025381481886e-06,5.599236127854246e-07,8.95851097737573e-07,7.669114399611372e-07,9.765905422478322e-07,3.246514792794691e-06,1.3357231872878583e-06,7.794256965918594e-07,3.958038556407338e-07,1.2143710284650996e-06,1.073002333016071e-06,6.579306322372427e-07,1.3179718988506538e-06
178,1.0556998344143278e-06,8.591023745452757e-07,1.2893643250201803e-06,5.9989805001224755e-06,5.596504242920108e-07,9.005481663902237e-07,7.705205785415951e-07,9.917536425410374e-07,3.534166511437999e-06,1.3395484186312326e-06,7.874961283253031e-07,2.9940775071654275e-07,1.2009880490553856e-06,1.0966864493074426e-06,6.702684317368606e-07,1.323979650916962e-06
179,1.0802904041189804e-06,8.508803321203119e-07,1.336631534567569e-06,6.314016945587382e-06,5.605417700224091e-07,9.049291236087432e-07,7.759299903393611e-07,1.0063157253539871e-06,3.845690796583604e-06,1.3429985144320762e-06,7.970694706252691e-07,2.437615537450277e-07,1.1870994902404312e-06,1.1196779510058414e-06,6.834728009878823e-07,1.3410346946221531e-06
180,1.104992265242843e-06,8.430586215572279e-07,1.3857470204745775e-06,6.616443960087842e-06,5.624883785853828e-07,9.093329511539479e-07,7.832385091615278e-07,1.0200869930788966e-06,4.177940086789267e-06,1.3460957288090533e-06,8.081691929586422e-07,2.2448176670214403e-07,1.1730405479375501e-06,1.1412690117252429e-06,6.973453976038569e-07,1.3690527026173334e-06
181,1.129368559753344e-06,8.352215423378851e-07,1.4356395535049262e-06,6.900723455209368e-06,5.653350178697243e-07,9.139853899764448e-07,7.924455103128329e-07,1.0328150548347087e-06,4.5274185714775815e-06,1.3486812824660762e-06,8.208295810828443e-07,2.3734977005191063e-07,1.159212501552569e-06,1.1607880386062672e-06,7.117832540231224e-07,1.4077668541045193e-06
182,1.1528348810138776e-06,8.270439069699441e-07,1.4852277375164012e-06,7.160877614663628e-06,5.689236411332829e-07,9.190003476780799e-07,8.034380036347467e-07,1.0441880742256943e-06,4.890582649720936e-06,1.350533596970424e-06,8.350358607984631e-07,2.783334756947452e-07,1.1460998756100232e-06,1.1777743561910105e-06,7.267855868552673e-07,1.4568436493784664e-06
183,1.1746676066439316e-06,8.184149539362979e-07,1.5334751073583748e-06,7.391617968838417e-06,5.731248542992968e-07,9.244166868260102e-07,8.160047338622252e-07,1.053861444155999e-06,5.263916847809698e-06,1.3515380624767761e-06,8.507002507916348e-07,3.4372107908386813e-07,1.1342492299900774e-06,1.192071973163211e-06,7.42411210383902e-07,1.5159338189114234e-06
184,1.1941243999423663e-06,8.094989736026572e-07,1.5796035969979058e-06,7.589606854888594e-06,5.778160756130871e-07,9.30213388950644e-07,8.298691198301543e-07,1.0614296759891059e-06,5.643685471426267e-06,1.3517997936335054e-06,8.676611929865952e-07,4.302324802935373e-07,1.124207551889535e-06,1.2037602205087681e-06,7.587015047782569e-07,1.5846011692246507e-06
185,1.2106986795984575e-06,8.007443819696721e-07,1.623340125758717e-06,7.753993576681093e-06,5.828567226353633e-07,9.363016927288795e-07,8.447108403712121e-07,1.0664157162967077e-06,6.025495017309872e-06,1.351626517167469e-06,8.857123967862054e-07,5.349599793989513e-07,1.1164278650315164e-06,1.21298101517844e-06,7.756191792724725e-07,1.6622110775733905e-06
186,1.224341189268237e-06,7.928452404981463e-07,1.6649474998521113e-06,7.885897520189876e-06,5.881082381082282e-07,9.425277428957039e-07,8.601825047322328e-07,1.0683685389726935e-06,6.403930942079346e-06,1.3513922460337883e-06,9.046363619136147e-07,6.552184240956341e-07,1.1111921119224415e-06,1.2198210898836058e-06,7.9303248883737e-07,1.7478843851223554e-06
187,1.2354736784067525e-06,7.866334496272416e-07,1.7050252767487485e-06,7.987197739756664e-06,5.934509952418873e-07,9.487156661382545e-07,8.75913223196471e-07,1.0670191950894786e-06,6.772531923828997e-06,1.351401922693754e-06,9.242009733314675e-07,7.885134066586031e-07,1.1085922780906637e-06,1.2242970189543082e-06,8.10735785379408e-07,1.8404871967573577e-06
188,1.2448472171809165e-06,7.829440782015644e-07,1.7442317957309155e-06,8.059403697148439e-06,5.987780387195695e-07,9.54737291065844e-07,8.914945840848418e-07,1.0623808164457135e-06,7.124296276630756e-06,1.3518709136998141e-06,9.441482971713988e-07,9.326778487449097e-07,1.108535315953974e-06,1.2263424845437833e-06,8.284807376004717e-07,1.938590242746387e-06
189,1.2533907399780521e-06,7.825380506947402e-07,1.7830492343109824e-06,8.103262692464556e-06,6.040005711547817e-07,9.605434893043286e-07,9.065076683299451e-07,1.0547335171111868e-06,7.4528421964243595e-06,1.352950850775207e-06,9.64230206024198e-07,1.0860458175615711e-06,1.110733691032095e-06,1.225792420765392e-06,8.45984424099643e-07,2.040460007525448e-06
190,1.262088232848686e-06,7.86087998266327e-07,1.8216608937210148e-06,8.11907018786658e-06,6.090434161373544e-07,9.661096295641469e-07,9.205955544270692e-07,1.044504166024056e-06,7.75397912088223e-06,1.3546999673679796e-06,9.842415852588937e-07,1.2475237078495815e-06,1.1147306987368264e-06,1.222475886687628e-06,8.629628319077453e-07,2.144202034717353e-06
191,1.2718548074679416e-06,7.941631002836926e-07,1.8599586060735525e-06,8.107187132844685e-06,6.138142603766528e-07,9.71350051404484e-07,9.334894643848459e-07,1.0321356499274177e-06,8.026762066842174e-06,1.3570807903927047e-06,1.0039924840083004e-06,1.4165067859876608e-06,1.1199931127035783e-06,1.2164067063979904e-06,8.792384048765772e-07,2.248034650984756e-06
192,1.2834163624966037e-06,8.071945288966778e-07,1.8976007959787435e-06,8.068469437254775e-06,6.181875350949675e-07,9.761111416107903e-07,9.449691935258219e-07,1.0180617662380273e-06,8.273039716690921e-06,1.360038617330617e-06,1.0232892131012367e-06,1.5926816355042946e-06,1.1259922158427704e-06,1.2078900118579082e-06,8.947945500785579e-07,2.350517769886027e-06
193,1.2972364068757302e-06,8.254518108317469e-07,1.9340380493517574e-06,8.004552996239924e-06,6.220230688138385e-07,9.8025606372309e-07,9.548513709356901e-07,1.0027507174007357e-06,8.495747103497429e-06,1.3635299488438095e-06,1.0419915708956934e-06,1.775817382826913e-06,1.1322245147098038e-06,1.1974135084177298e-06,9.096709598808541e-07,2.450593767283103e-06
194,1.313532231641229e-06,8.490412572692716e-07,1.9685808966993585e-06,7.91796340589349e-06,6.252139397701564e-07,9.837386668934352e-07,9.630395008813383e-07,9.866927445819162e-07,8.697463946974827e-06,1.367437104915076e-06,1.0600785489637837e-06,1.9656412653269356e-06,1.1382454877047258e-06,1.18542408683295e-06,9.238191179544884e-07,2.547424092984251e-06
195,1.332364323619234e-06,8.779081059409242e-07,2.0005690755529517e-06,7.812068459587357e-06,6.277263928711259e-07,9.86595871008802e-07,9.69543402662407e-07,9.703682456568497e-07,8.88019629897038e-06,1.3714987678876162e-06,1.07765449350437e-06,2.1617827146822876e-06,1.1437196381597797e-06,1.1721884328409133e-06,9.370766442119207e-07,2.640121640973913e-06
196,1.3536992486739586e-06,9.118243322205775e-07,2.0294691124621844e-06,7.690908380718003e-06,6.29583250282162e-07,9.88879208803586e-07,9.744078732783139e-07,9.542820284868294e-07,9.045832753156775e-06,1.3753702781577103e-06,1.0949011778583125e-06,2.3636890844207354e-06,1.1483783800312627e-06,1.157806821522258e-06,9.492567615994236e-07,2.7275738462559388e-06
197,1.377377303085363e-06,9.503745592080629e-07,2.0548076071915188e-06,7.558917508196924e-06,6.308190585801035e-07,9.905795297282057e-07,9.776312936132558e-07,9.389854570515025e-07,9.196514273314573e-06,1.3787705393792664e-06,1.1119919381953877e-06,2.5704938874215583e-06,1.1519262114134948e-06,1.1423248376235997e-06,9.60244340934167e-07,2.808519372582071e-06
198,1.4030508746224437e-06,9.92957734925395e-07,2.076177993081742e-06,7.4205890092025095e-06,6.314730729942466e-07,9.916288082728336e-07,9.791836771116271e-07,9.250135791576336e-07,9.334826421314663e-06,1.381626631417788e-06,1.129033945831585e-06,2.7809414103398483e-06,1.154017591793536e-06,1.1258644859899023e-06,9.700486336768796e-07,2.881862595330763e-06
199,1.4301609137859554e-06,1.0387993721457879e-06,2.093445909110176e-06,7.280164015986165e-06,6.316131172351193e-07,9.920263056005572e-07,9.79116469535372e-07,9.128012500507068e-07,9.463858502573045e-06,1.3841549685659372e-06,1.1460723206174223e-06,2.9935003948069663e-06,1.1542732190394227e-06,1.10871029279817e-06,9.788483811555033e-07,2.947033754481292e-06
200,1.45792469569386e-06,1.0869895614280048e-06,2.1068909751629226e-06,7.141412931965251e-06,6.313316864181269e-07,9.919778305075557e-07,9.776473842147342e-07,9.026389729109053e-07,9.58697311623182e-06,1.386812109742858e-06,1.1630708065826967e-06,3.2066380737408873e-06,1.1523243890397869e-06,1.0913018648327221e-06,9.870144257519784e-07,3.0041509443278897e-06
201,1.4853539323552028e-06,1.1365554330834563e-06,2.117096892687708e-06,7.007536658499649e-06,6.307360502514959e-07,9.918901517502335e-07,9.75119880628955e-07,8.946651346419918e-07,9.707166865937158e-06,1.3901147411707977e-06,1.179868845297287e-06,3.4189741745820107e-06,1.1479422592847745e-06,1.0741297608565305e-06,9.950379648917962e-07,3.0538780533175704e-06
202,1.5113714949275316e-06,1.1865098631412545e-06,2.124754123957434e-06,6.881116784726434e-06,6.299974480625891e-07,9.922276934097795e-07,9.718579215927256e-07,8.888856724527873e-07,9.826217347556056e-06,1.3944518740459254e-06,1.1961981277785482e-06,3.6291197430971753e-06,1.1411301714179481e-06,1.0576146163197756e-06,1.0034077446274409e-06,3.0971192785899426e-06
203,1.5349791467539322e-06,1.2358716664240306e-06,2.1305906103971996e-06,6.7639577754924275e-06,6.294056144310349e-07,9.93371834938904e-07,9.680412765803926e-07,8.851983230904534e-07,9.944043890176998e-06,1.4000046410869356e-06,1.2117126060003074e-06,3.835475043328094e-06,1.1320441897687491e-06,1.0420431012771169e-06,1.0125550390150347e-06,3.1347741420312306e-06
204,1.5553447132088079e-06,1.283741276500596e-06,2.135442572294359e-06,6.656808522304925e-06,6.293402539188036e-07,9.955662352821008e-07,9.637062140598868e-07,8.833786586732464e-07,1.005850828994418e-05,1.406766745291592e-06,1.225990591339036e-06,4.036407493122392e-06,1.1209007210187774e-06,1.0275429136855697e-06,1.0228571621012414e-06,3.1675901883713405e-06
205,1.5717756976690478e-06,1.3293880206628159e-06,2.140324660483432e-06,6.559258516626516e-06,6.301855755002549e-07,9.989353359279107e-07,9.588444966455718e-07,8.83039329971422e-07,1.0165688901288996e-05,1.4145860736501024e-06,1.238596032614617e-06,4.230756156172392e-06,1.108038399733754e-06,1.0140892434483295e-06,1.034612234979438e-06,3.1960111301581753e-06
206,1.583684169751409e-06,1.3722133458145763e-06,2.1463787506860256e-06,6.470015930106438e-06,6.322620790209411e-07,1.0035331450942676e-06,9.534682882401246e-07,8.836309162562044e-07,1.0260666875166362e-05,1.4231687023766952e-06,1.2491996417736588e-06,4.418214967527408e-06,1.0939862437722514e-06,1.0015845982376538e-06,1.0479889726497198e-06,3.220072125183025e-06
207,1.590631803148958e-06,1.411663910910417e-06,2.154714252881639e-06,6.38730746917422e-06,6.35808049405316e-07,1.0093621966897297e-06,9.475697345097987e-07,8.845233941584723e-07,1.0338529539289728e-05,1.4320690224106215e-06,1.2576290709005564e-06,4.599305570957394e-06,1.079373881950113e-06,9.899795046846496e-07,1.063011188004998e-06,3.2395010810395904e-06
208,1.5923905788065193e-06,1.4473029179255935e-06,2.166251983823507e-06,6.309080308985518e-06,6.409883230622168e-07,1.0163425436114102e-06,9.410597524176742e-07,8.851467733445769e-07,1.0394967870749242e-05,1.4407245929557978e-06,1.2638204343824918e-06,4.775022798647207e-06,1.0647636024472786e-06,9.793234200742923e-07,1.0795666846315593e-06,3.2539752606236747e-06
209,1.5888892079343638e-06,1.4790196041351127e-06,2.1816519690338415e-06,6.23305970792294e-06,6.47889653022122e-07,1.0242824408748287e-06,9.337877682037299e-07,8.85133277352938e-07,1.0426141911457144e-05,1.44849253687767e-06,1.2677812616881826e-06,4.94640633311167e-06,1.0505390476877234e-06,9.697050198787684e-07,1.0973838694915365e-06,3.263320866299138e-06
210,1.580083252006359e-06,1.507132053423675e-06,2.201297889499061e-06,6.156884523402753e-06,6.565176018118524e-07,1.0328837101300501e-06,9.25632671983759e-07,8.84392693305195e-07,1.042842270590094e-05,1.4546037804390436e-06,1.2695937788584746e-06,5.1142590210863785e-06,1.0368800889144614e-06,9.61157229450764e-07,1.1159811932064095e-06,3.2675678071075428e-06
211,1.5659446614064115e-06,1.5322506549812287e-06,2.22526629476849e-06,6.078378232549241e-06,6.668252432873195e-07,1.0417454038153518e-06,9.165958789892353e-07,8.83070955892318e-07,1.0399238498153848e-05,1.4581169566605571e-06,1.2693781816216532e-06,5.279155586164105e-06,1.02379622791447e-06,9.536014284724543e-07,1.1346459494790668e-06,3.266897406347969e-06
212,1.5466087345749654e-06,1.5550295660198454e-06,2.253256851621031e-06,5.995809857632661e-06,6.787284321342929e-07,1.0503357248371137e-06,9.06830133878168e-07,8.814153520721959e-07,1.0338889557159962e-05,1.4580438927262567e-06,1.267231729291888e-06,5.441709047827532e-06,1.0112201030967933e-06,9.468552346606964e-07,1.1524915664774588e-06,3.26151215876595e-06
213,1.5224897994151823e-06,1.576014677913391e-06,2.2845199101715097e-06,5.9080129806344625e-06,6.920676624542479e-07,1.0579954627832144e-06,8.96587303785704e-07,8.796691398117179e-07,1.025137870759049e-05,1.453627480785663e-06,1.2632060837546752e-06,5.602750894167284e-06,9.9913497768245e-07,9.407149366559257e-07,1.1686055763692863e-06,3.2515014723632234e-06
214,1.4942568318535407e-06,1.5956360779352996e-06,2.3178513186830636e-06,5.814432734501994e-06,7.065664498531804e-07,1.0640490938666864e-06,8.861431446921678e-07,8.780876341873258e-07,1.01432234029875e-05,1.4445556624044246e-06,1.2572647837547714e-06,5.7631515994526955e-06,9.876372355384416e-07,9.35048685900754e-07,1.1822268796901881e-06,3.236867471620576e-06
215,1.4627613634627442e-06,1.6142234735436849e-06,2.351719359612106e-06,5.715252031005597e-06,7.218345543714945e-07,1.0679427855852664e-06,8.757597913435957e-07,8.77003187780557e-07,1.0021431500052567e-05,1.430963205839757e-06,1.2492231797937306e-06,5.923725407679504e-06,9.769391785831891e-07,9.297892460109843e-07,1.1928800828951931e-06,3.217824051180199e-06
216,1.4290101759440188e-06,1.6319600777838815e-06,2.384531055797265e-06,5.61156401755037e-06,7.374014787076385e-07,1.0692671117555124e-06,8.656977886161367e-07,8.768124849564035e-07,9.892141155629431e-06,1.4132701341471044e-06,1.2388296599910667e-06,6.085800447776378e-06,9.673701213855459e-07,9.248540683831695e-07,1.2004669339089119e-06,3.19526565424744e-06
217,1.3941382915442557e-06,1.6488089325794895e-06,2.414957680419864e-06,5.5053876637611706e-06,7.527632877406397e-07,1.067729944752032e-06,8.562532219506055e-07,8.778791588334504e-07,9.760193519907438e-06,1.3920083970223357e-06,1.226009242315102e-06,6.252040433419681e-06,9.593083756278378e-07,9.201141774541905e-07,1.2052890324337285e-06,3.171060703846071e-06
218,1.3593094692765778e-06,1.6644654880057711e-06,2.442170852028939e-06,5.399413419063898e-06,7.674388182635258e-07,1.0632144851083622e-06,8.477692842985988e-07,8.804410741324281e-07,9.62911558439878e-06,1.367743239880173e-06,1.2110445946934783e-06,6.426632913809387e-06,9.530573907644533e-07,9.154239392584349e-07,1.2079198147038964e-06,3.1478492943165934e-06
219,1.325595624960037e-06,1.6783964151640249e-06,2.4658769641570846e-06,5.296559095162233e-06,7.809983343278566e-07,1.0558162172116953e-06,8.405931427614098e-07,8.845827570044237e-07,9.501166075982078e-06,1.341071476986503e-06,1.1945135223582614e-06,6.614695880721114e-06,9.487946436373526e-07,9.10669057201517e-07,1.2089759351260358e-06,3.128435633587132e-06
220,1.2939238226034964e-06,1.6900119071082104e-06,2.4861836292408875e-06,5.199509970530091e-06,7.930459364351327e-07,1.045730911187212e-06,8.350217960071177e-07,8.902871242442874e-07,9.377393911415378e-06,1.3126067762348542e-06,1.1770578842838427e-06,6.821510539038899e-06,9.466027258710816e-07,9.058323670003978e-07,1.2089500447454333e-06,3.1152263775837346e-06
221,1.2650615732117083e-06,1.6989021982259457e-06,2.5034276026717386e-06,5.110390061194838e-06,8.032338890035028e-07,1.033133221203174e-06,8.313007575261843e-07,8.97547576728334e-07,9.257590392053926e-06,1.2829137337456172e-06,1.15919082100804e-06,7.052224188016989e-06,9.465114512836671e-07,9.010407305121679e-07,1.2081594822377443e-06,3.1100313915455247e-06
222,1.2396010308617771e-06,1.705013026147089e-06,2.5180413544443384e-06,5.030590947908748e-06,8.113559828024661e-07,1.0182119991436632e-06,8.296737037478356e-07,9.064399016617562e-07,9.140070772180727e-06,1.252456612021056e-06,1.141259530147939e-06,7.312134874635682e-06,9.484945742606299e-07,8.965502745747107e-07,1.2067540205752462e-06,3.1141332654807414e-06
223,1.2180052383187268e-06,1.708703809763504e-06,2.530448893663047e-06,4.960680112746745e-06,8.174235483514885e-07,1.0012915721882084e-06,8.304160157127439e-07,9.170760591791136e-07,9.021662295112055e-06,1.2216124960844256e-06,1.123528601583677e-06,7.607100765772446e-06,9.524040376062474e-07,8.926893454788723e-07,1.2047417777258193e-06,3.1283604481894005e-06
224,1.2007361230362006e-06,1.7106877623076297e-06,2.5409912636332097e-06,4.900315819221156e-06,8.216381569217373e-07,9.828619517193392e-07,8.338048440307304e-07,9.295262005005169e-07,8.898386666294855e-06,1.190696243045678e-06,1.1062609107663388e-06,7.943566271298768e-06,9.5790336955769e-07,8.89785174370544e-07,1.202028011319816e-06,3.153059585703145e-06
225,1.1883513535718933e-06,1.7118856208422468e-06,2.549915855253961e-06,4.848159494776206e-06,8.242870171538164e-07,9.63471801973787e-07,8.400712924438777e-07,9.437991068122374e-07,8.766726344096343e-06,1.1599710155065305e-06,1.0897015188566312e-06,8.32806940319548e-06,9.644561958387266e-07,8.881266660703612e-07,1.1984360450618836e-06,3.1880486470557278e-06
226,1.1814692784091946e-06,1.7132582177173979e-06,2.5573799280283327e-06,4.80185056127101e-06,8.256278994501888e-07,9.435984903540398e-07,8.493887345587955e-07,9.598372095124866e-07,8.624843472079434e-06,1.1296708780889994e-06,1.073996615056304e-06,8.766443404819648e-06,9.713510189811783e-07,8.880098209508287e-07,1.1936799763558215e-06,3.2326301180869958e-06
227,1.1806391540160467e-06,1.7156636932201041e-06,2.563386050711071e-06,4.758116299061393e-06,8.258347864568006e-07,9.235832016245318e-07,8.618634074900301e-07,9.775138086731456e-07,8.473205464272076e-06,1.0999980482468586e-06,1.0591314592968283e-06,9.263128525798109e-06,9.777449731736534e-07,8.897808990636412e-07,1.1873341969778045e-06,3.2856449845328854e-06
228,1.1862378552099921e-06,1.7197421709110323e-06,2.5677853938595937e-06,4.712986123216596e-06,8.25034084958792e-07,9.036049445921234e-07,8.775091397575555e-07,9.96664211054054e-07,8.314432185829424e-06,1.0710663486136748e-06,1.044928275158953e-06,9.820846237262728e-06,9.827509497917856e-07,8.937828623785542e-07,1.1788819535923802e-06,3.345544369733209e-06
229,1.198445052861535e-06,1.72584090907586e-06,2.570532482313585e-06,4.662044025921487e-06,8.233615171240852e-07,8.836832063339161e-07,8.962387994051238e-07,1.0170980413884893e-06,8.152507389701818e-06,1.0428650214500708e-06,1.031130049245345e-06,1.0440458599813842e-05,9.855911567569627e-07,9.002677591863447e-07,1.1678610440190587e-06,3.4104913051671915e-06
230,1.2172425563392574e-06,1.7340073778224434e-06,2.5720179277509777e-06,4.600771390777136e-06,8.209589747565355e-07,8.637474649704764e-07,9.178738089008266e-07,1.0385911504899685e-06,7.991742886770947e-06,1.0152918912299093e-06,1.0175431222412514e-06,1.1120840053949112e-05,9.857891292818864e-07,9.093656799277026e-07,1.1540288108261133e-06,3.4784195703848783e-06
231,1.2424116622699633e-06,1.7440363014911646e-06,2.573162738434802e-06,4.52509266247848e-06,8.17939819194506e-07,8.437443574858868e-07,9.421884064823725e-07,1.0609589480326485e-06,7.835937304473953e-06,9.88207024034558e-07,1.0041339091404846e-06,1.1858898612234729e-05,9.832790871913636e-07,9.211032529515604e-07,1.1374620346824833e-06,3.5469253754691437e-06
232,1.2735558278794264e-06,1.7555230597317055e-06,2.5752404750138574e-06,4.432084648135499e-06,8.143913435037361e-07,8.236829969739183e-07,9.689967051096365e-07,1.0841968448587412e-06,7.687931525962899e-06,9.614768086456582e-07,9.910243234107603e-07,1.2649888358273713e-05,9.783195105872503e-07,9.354495675426832e-07,1.1185689464537996e-06,3.613045592564398e-06
233,1.31012158107628e-06,1.7678818115265394e-06,2.5796065406541774e-06,4.320597581240497e-06,8.104054942749676e-07,8.036034715819928e-07,9.981881008170535e-07,1.108536841027136e-06,7.549409651646208e-06,9.350266082491455e-07,9.78435477859582e-07,1.3488036203784286e-05,9.713043641997889e-07,9.523590670350777e-07,1.0979991201920214e-06,3.6731851258210028e-06
234,1.351370793909221e-06,1.7803135702069643e-06,2.587474239146389e-06,4.191528260917848e-06,8.06082941376183e-07,7.83570172894358e-07,1.02964456688101e-06,1.1343511413508885e-06,7.420728073372786e-06,9.08885795202445e-07,9.66624935460938e-07,1.4367501124764894e-05,9.626712950305875e-07,9.717474522052087e-07,1.0764662596355725e-06,3.723417496314728e-06
235,1.396345544589991e-06,1.7917849943862417e-06,2.5997585572670064e-06,4.047698150135238e-06,8.014964813103498e-07,7.637226818971276e-07,1.063119768889384e-06,1.16198934607139e-06,7.300867164427733e-06,8.83198596110893e-07,9.558151317350615e-07,1.5283496022595498e-05,9.529074021336723e-07,9.934169434390488e-07,1.054599137960481e-06,3.760118940651116e-06
236,1.4439244043935434e-06,1.8011173096941077e-06,2.6169625123723337e-06,3.893457955574832e-06,7.966683791722656e-07,7.442967828275118e-07,1.0981682486545523e-06,1.1916680059189889e-06,7.187691226584495e-06,8.582238135651791e-07,9.461358021915483e-07,1.623294780943552e-05,9.425134396020031e-07,1.017011031079727e-06,1.0329054942097846e-06,3.7806149032225056e-06
237,1.4930147092972313e-06,1.80717613670507e-06,2.639126116343771e-06,3.7341307461782288e-06,7.916238374337205e-07,7.255671837318736e-07,1.1341189720199007e-06,1.223454794080924e-06,7.078357565277475e-06,8.343310053601665e-07,9.376217000131433e-07,1.7213892511898137e-05,9.319250618106457e-07,1.042028321985204e-06,1.0117897210462136e-06,3.783469467136474e-06
238,1.5428173679782566e-06,1.809046206879727e-06,2.665847500248449e-06,3.5753827085108753e-06,7.864775566725898e-07,7.0776829243383e-07,1.1700830350978744e-06,1.2573053544718162e-06,6.969626171520916e-06,8.119449966099543e-07,9.302704051975463e-07,1.8223676411641306e-05,9.214700671360151e-07,1.0678717349136277e-06,9.915507720198516e-07,3.7683588871888293e-06
239,1.5930456979024322e-06,1.80611761809532e-06,2.69633976720541e-06,3.42266955229118e-06,7.814347893515414e-07,6.910648281086961e-07,1.2050383609021614e-06,1.2930806367225297e-06,6.858147679749501e-06,7.914425826505649e-07,9.24122210607355e-07,1.9257396565762395e-05,9.113608393313677e-07,1.0938711203794323e-06,9.723705899291652e-07,3.7358251302697404e-06
240,1.6440248850480228e-06,1.7980967918439966e-06,2.7295236530303395e-06,3.280897962884051e-06,7.766897539857183e-07,6.755643461942595e-07,1.238011867606366e-06,1.3305334601174452e-06,6.740958711815237e-06,7.730772981717104e-07,9.192838430693236e-07,2.0307649907641664e-05,9.01722187473499e-07,1.1192452603693111e-06,9.543370100367834e-07,3.687168760278936e-06
241,1.696659069986185e-06,1.784975679888233e-06,2.7640983679910764e-06,3.1543002720276706e-06,7.723388065570885e-07,6.613225725988796e-07,1.2682723165247e-06,1.3693336809086353e-06,6.616125099333063e-06,7.569604650555029e-07,9.158530989715166e-07,2.1364924584933054e-05,8.926624111761837e-07,1.143047569442621e-06,9.375129860879432e-07,3.624421339955603e-06
242,1.7522669300551281e-06,1.7669823116326706e-06,2.798493989635466e-06,3.0464350136032243e-06,7.684057021247322e-07,6.483571404848162e-07,1.295377986044848e-06,1.4091458949380981e-06,6.483140741118196e-06,7.430724954975331e-07,9.13821169785534e-07,2.241757928408025e-05,8.843142451231381e-07,1.1641558663286395e-06,9.219980982734391e-07,3.5501768827030184e-06
243,1.8123265402647102e-06,1.7445390457825666e-06,2.8308626068566103e-06,2.9602912694935642e-06,7.649516476134049e-07,6.366907928712723e-07,1.3190331557596804e-06,1.4496768801921776e-06,6.34282837576848e-06,7.31284740752359e-07,9.130620991667563e-07,2.345139377314459e-05,8.767876725191895e-07,1.1813694497689705e-06,9.079340156640541e-07,3.4671995995589943e-06
244,1.8782269568210341e-06,1.718228779959911e-06,2.85933914559182e-06,2.898475869712975e-06,7.621589872992368e-07,6.263654110730949e-07,1.3389186177262768e-06,1.4906640527239351e-06,6.196877160037831e-06,7.2137818912411e-07,9.13415997597196e-07,2.4449917614254908e-05,8.700998562515566e-07,1.1936516775611456e-06,8.955087576826244e-07,3.3779822048880737e-06
245,1.9510992557649984e-06,1.6887096501932193e-06,2.8824583392755704e-06,2.8633431424858685e-06,7.603082468829087e-07,6.173915926396125e-07,1.3546579741607621e-06,1.5318636786198194e-06,6.047249689865407e-06,7.130619508593638e-07,9.147649370992876e-07,2.5396723386228714e-05,8.642039729570733e-07,1.2004162468554972e-06,8.849914167088759e-07,3.284533191405396e-06
246,2.031740259958653e-06,1.6565657450525091e-06,2.899437691331343e-06,2.856961216717883e-06,7.596819465043706e-07,6.096854290471752e-07,1.3658683651661229e-06,1.573077810390802e-06,5.895592289113957e-06,7.0599977468032e-07,9.170196120734957e-07,2.627796819349268e-05,8.591394483573813e-07,1.2016500558737228e-06,8.767057174554262e-07,3.1884244366717077e-06
247,2.1206112788369153e-06,1.622225151858528e-06,2.910179576731768e-06,2.8810225385378065e-06,7.604886158146563e-07,6.030455284122839e-07,1.372196180585212e-06,1.6141940519619834e-06,5.742833382181937e-06,6.998457393722963e-07,9.200732155713834e-07,2.7082336133989606e-05,8.551560879495639e-07,1.19776962905376e-06,8.709227063138755e-07,3.0908480453032313e-06
248,2.217851593609185e-06,1.586050504896369e-06,2.9150091910227496e-06,2.9369000442408e-06,7.628433689666226e-07,5.971687711740566e-07,1.3733616679930631e-06,1.6551787281165913e-06,5.589253255758721e-06,6.943153921438181e-07,9.237987870862192e-07,2.7799053230339694e-05,8.526654735219115e-07,1.1893334257809045e-06,8.677851228853977e-07,2.992573497219328e-06
249,2.3232608151576647e-06,1.5485159399856196e-06,2.9142795894615073e-06,3.0258824606784256e-06,7.667935100018179e-07,5.916929473882711e-07,1.3692562432994903e-06,1.6960080133668365e-06,5.435048074617547e-06,6.892786685173568e-07,9.280381525155363e-07,2.841773873601991e-05,8.520768883370282e-07,1.1768505474845793e-06,8.673239231587629e-07,2.893974023095137e-06
250,2.4363152126344133e-06,1.5103148838204004e-06,2.908046477773749e-06,3.149382651739252e-06,7.723670841134284e-07,5.862920519542268e-07,1.3600283760637093e-06,1.7365897156566135e-06,5.2808883930331514e-06,6.848006758949547e-07,9.325483701779121e-07,2.8930911221607815e-05,8.536704799164416e-07,1.1608054190261422e-06,8.695148329643088e-07,2.795230194841717e-06
251,2.556291181137429e-06,1.4723305021416343e-06,2.896009559198915e-06,3.308894026664148e-06,7.795816060551213e-07,5.807964743606249e-07,1.3460434677513868e-06,1.7766965801117803e-06,5.127910604182457e-06,6.81119391877986e-07,9.370025051376578e-07,2.9336042160144874e-05,8.575505395032395e-07,1.141792270035669e-06,8.742949502754542e-07,2.696578197989161e-06
252,2.6824356039737377e-06,1.4355034864665288e-06,2.8777386497967674e-06,3.5057022238226857e-06,7.883867471922819e-07,5.752196823924097e-07,1.3277505340497045e-06,1.8158886488525969e-06,4.977211025473874e-06,6.785894490549444e-07,9.411207802277339e-07,2.963475404573989e-05,8.636420463266476e-07,1.1205835232998378e-06,8.815167031156531e-07,2.5984523149614635e-06
253,2.814071235151002e-06,1.4006750150221422e-06,2.8529414139726984e-06,3.7405741500169735e-06,7.986168520275936e-07,5.69678675751148e-07,1.3056340060552542e-06,1.8534798019920135e-06,4.8294964648900825e-06,6.775965946543604e-07,9.448436717288015e-07,2.9829733738162275e-05,8.717048443701454e-07,1.0980658591795914e-06,8.908823120930295e-07,2.5015649135066633e-06
254,2.9505995750141616e-06,1.3684651662636176e-06,2.821535862917316e-06,4.01361955388033e-06,8.099982660159034e-07,5.643220765367616e-07,1.28029145521043e-06,1.8886248134399012e-06,4.685350262708412e-06,6.784783593060039e-07,9.483800225275455e-07,2.9922203356775645e-05,8.813516399173177e-07,1.0751065544850925e-06,9.019084698636478e-07,2.40700172813675e-06
255,3.0914227424206186e-06,1.3392219307711629e-06,2.7835596963641287e-06,4.3243339408451256e-06,8.22171332266858e-07,5.593023188360426e-07,1.2524808204665364e-06,1.9204963576864112e-06,4.5458923040829804e-06,6.814854421303829e-07,9.520974466334225e-07,2.991295485216196e-05,8.92069519861755e-07,1.0524574164339047e-06,9.139534667343196e-07,2.3162329300723465e-06
256,3.2358155309457917e-06,1.3130326110045047e-06,2.7391141011955917e-06,4.671702321164053e-06,8.347273201865162e-07,5.54765875432545e-07,1.2230369129269698e-06,1.948493767727783e-06,4.413262339669944e-06,6.867670429052249e-07,9.563680853765703e-07,2.9806737184817007e-05,9.03247418038952e-07,1.030729274507319e-06,9.263227615843186e-07,2.23092198239864e-06
257,3.3828191329515958e-06,1.2897467752295367e-06,2.688451052712648e-06,5.0542066538726795e-06,8.472737300522645e-07,5.508623377037819e-07,1.192718054531957e-06,1.9724422622073314e-06,4.290554069796821e-06,6.943661984134444e-07,9.614676236691795e-07,2.961615675708882e-05,9.141993300958294e-07,1.0103955642998767e-06,9.384112125712202e-07,2.1526377595275302e-06
258,3.5312510602987747e-06,1.269018247941066e-06,2.632132533359107e-06,5.469657950448276e-06,8.594551059167659e-07,5.477500397043829e-07,1.1621013128970061e-06,1.992669537702028e-06,4.181259100241906e-06,7.042281411798615e-07,9.675488782208167e-07,2.936132509363162e-05,9.242225656389687e-07,9.917993557568983e-07,9.497852442335943e-07,2.08266041226987e-06
259,3.679799945177873e-06,1.2504408818993007e-06,2.5711269817951206e-06,5.914995328956547e-06,8.7090205195738e-07,5.45581648490438e-07,1.1316028977407107e-06,2.009848277142194e-06,4.088619441833961e-06,7.162229789901352e-07,9.746597786785667e-07,2.906587295438328e-05,9.327582178219474e-07,9.751398375169385e-07,9.601546394137523e-07,2.0219292658812385e-06
260,3.827040163730271e-06,1.2337677467629e-06,2.506772177416945e-06,6.386228491278503e-06,8.812050267978153e-07,5.445081781680418e-07,1.101598693326651e-06,2.0247016088284323e-06,4.015272555956796e-06,7.301845536355237e-07,9.827624616429292e-07,2.875481016914462e-05,9.395859660495618e-07,9.604407839163092e-07,9.69295525319827e-07,1.9710999120844574e-06
261,3.97127597633687e-06,1.2190619266514014e-06,2.4406042557424395e-06,6.878431387913964e-06,8.899636337338962e-07,5.447113405967046e-07,1.0725337440091462e-06,2.0378018169323995e-06,3.96323176053551e-06,7.459398563950033e-07,9.917261447622908e-07,2.8457412279962935e-05,9.448739149993118e-07,9.475748880290606e-07,9.770254902329744e-07,1.9306271069733176e-06
262,4.110300415221431e-06,1.2066501109379248e-06,2.3741020916306706e-06,7.385626081066729e-06,8.968394868556821e-07,5.464160510291237e-07,1.0449395508937287e-06,2.0495048785123526e-06,3.934028616811177e-06,7.632901303336236e-07,1.0012845861047865e-06,2.821107310957663e-05,9.490204668173285e-07,9.36371522043901e-07,9.832273458430194e-07,1.9007499538519124e-06
263,4.2412619854639835e-06,1.196962310986214e-06,2.3084541370517423e-06,7.900665404623642e-06,9.015446082915824e-07,5.498593268700895e-07,1.0193799804324105e-06,2.0599146335263323e-06,3.928934520537821e-06,7.819597131677099e-07,1.0109933300756433e-06,2.8061280013597712e-05,9.52423378874666e-07,9.267383184589936e-07,9.878380767391044e-07,1.881402261433477e-06
264,4.360818048137648e-06,1.1904399943233596e-06,2.2444461376643517e-06,8.415402731305492e-06,9.038161417247762e-07,5.552519314726709e-07,9.963838315435995e-07,2.068894316404906e-06,3.949221872654475e-06,8.015661839905065e-07,1.0202719915106005e-06,2.8057841293932403e-05,9.553391873452849e-07,9.187246746990993e-07,9.908332254571244e-07,1.872168552561923e-06
265,4.465569884861871e-06,1.1875263347968262e-06,2.182459978044152e-06,8.921325619780137e-06,9.034869529463397e-07,5.627797299926842e-07,9.763937126231178e-07,2.076131441573715e-06,3.996325637025947e-06,8.216231496271652e-07,1.0285669379968502e-06,2.8250144492455275e-05,9.578653289444256e-07,9.125050541320026e-07,9.92284035145531e-07,1.8723039375124141e-06
266,4.5525752552187555e-06,1.1886297546680056e-06,2.1225388709838226e-06,9.410568251722696e-06,9.00632629224294e-07,5.726323385855763e-07,9.597392995012197e-07,2.0811441754559482e-06,4.07176753126672e-06,8.415408457777203e-07,1.0355427135189588e-06,2.868363874175071e-05,9.599855701590087e-07,9.083126984008687e-07,9.924082355342835e-07,1.880769443645376e-06
267,4.619732628129109e-06,1.1940450862038857e-06,2.0644771530532537e-06,9.876996540417955e-06,8.956346706958195e-07,5.850006669771965e-07,9.466234735463412e-07,2.083297969417539e-06,4.176867840509527e-06,8.606158497015777e-07,1.04115212427249e-06,2.939811864914701e-05,9.616090013400335e-07,9.063628099539655e-07,9.915083497873979e-07,1.8962637499807558e-06
268,4.665922658519035e-06,1.2039234467766394e-06,2.0078495854363146e-06,1.03169875774331e-05,8.89076720398714e-07,6.000298703400778e-07,9.370974268601745e-07,2.0819980402784555e-06,4.312440910590733e-06,8.780769906779935e-07,1.0455376616389073e-06,3.042716753143639e-05,9.625841755984724e-07,9.067800494794406e-07,9.898403818713664e-07,1.9172827899527155e-06
269,4.6908202600611705e-06,1.2183269380180091e-06,1.9520268228540843e-06,1.0729626488248858e-05,8.815714056617312e-07,6.177711249586524e-07,9.310259982463977e-07,2.0769599639011866e-06,4.478630621479131e-06,8.932559838689946e-07,1.0489047643397468e-06,3.179799603381613e-05,9.62727265632532e-07,9.09563318630098e-07,9.875278257716583e-07,1.9421968523007118e-06
270,4.694394227276262e-06,1.237270529488734e-06,1.896314048549861e-06,1.1116271720670104e-05,8.736653307839734e-07,6.381691049024097e-07,9.28067862408236e-07,2.0683506390996477e-06,4.674825099098502e-06,9.058099651984803e-07,1.051484499131517e-06,3.353137395677674e-05,9.61848902570715e-07,9.146033589682182e-07,9.845808871281197e-07,1.9692933053021266e-06
271,4.676443127895974e-06,1.2606783566374913e-06,1.8401428867333576e-06,1.1479612021738139e-05,8.65861057820469e-07,6.610918456653674e-07,9.276864939466425e-07,2.0567468955988626e-06,4.899534726701691e-06,9.158133348643677e-07,1.0535012632120172e-06,3.564162289615728e-05,9.597511754660764e-07,9.2170106530339e-07,9.809948661538475e-07,1.9968776375579147e-06
272,4.636701621325053e-06,1.2883254657724368e-06,1.7831800496599254e-06,1.1822381208561089e-05,8.586806766203046e-07,6.86368265184653e-07,9.292047863733e-07,2.0429704468599357e-06,5.150259963884238e-06,9.236451844110978e-07,1.0550844331133491e-06,3.813657810664253e-05,9.562817764688664e-07,9.305580313216816e-07,9.768621866188007e-07,2.023497012776294e-06
273,4.57557439956548e-06,1.3198421619842663e-06,1.7253892173487478e-06,1.2146054844393364e-05,8.526805249824136e-07,7.137868291959814e-07,9.319094104136184e-07,2.027896490707332e-06,5.4234113952508255e-06,9.29798664621256e-07,1.0562105870424543e-06,4.1017389878224645e-05,9.514706469731694e-07,9.407948976098464e-07,9.724261052348853e-07,2.0481135843113016e-06
274,4.494863191860237e-06,1.3547385218223366e-06,1.6671041293732975e-06,1.2449999714559911e-05,8.483907858885207e-07,7.430838124785171e-07,9.35158357505537e-07,2.012326636651574e-06,5.714307057580435e-06,9.347597437057672e-07,1.0567426324038884e-06,4.4278195563805254e-05,9.45577288791855e-07,9.520448826775752e-07,9.68031625046648e-07,2.0701231223037262e-06
275,4.397870664294089e-06,1.3923937681262721e-06,1.6090383611923744e-06,1.2731280961259467e-05,8.46235250474073e-07,7.739697715003693e-07,9.384103248986189e-07,1.996919686002112e-06,6.0173597147752346e-06,9.38966313285253e-07,1.0565512516354806e-06,4.7905814432801164e-05,9.38957375501967e-07,9.640666022135088e-07,9.6401627458846e-07,2.0892841623069296e-06
276,4.288871766042365e-06,1.4320576252657373e-06,1.5521562960507716e-06,1.298503030645813e-05,8.464890370454314e-07,8.061669470126915e-07,9.411684770174022e-07,1.9821137538383973e-06,6.326573666850852e-06,9.42798683876516e-07,1.055652369299988e-06,5.187945595014658e-05,9.319068785972251e-07,9.767781370024144e-07,9.606297736363308e-07,2.1055847758641957e-06
277,4.172345355016982e-06,1.472910004914207e-06,1.4974918165026057e-06,1.320526353273583e-05,8.492802568180392e-07,8.394333689720716e-07,9.429414068683037e-07,1.968088185573864e-06,6.636209783291562e-06,9.465799663837721e-07,1.054252877105402e-06,5.6170224755867745e-05,9.246394870883327e-07,9.901948928105317e-07,9.580342294583267e-07,2.1190831518872464e-06
278,4.052358342455067e-06,1.5141558334599974e-06,1.4460550231299738e-06,1.338595387811208e-05,8.546226344895346e-07,8.735790514865867e-07,9.433078775213927e-07,1.9548682686639987e-06,6.941227108592361e-06,9.50582580287265e-07,1.0526657887036805e-06,6.0740338983029856e-05,9.17339081166654e-07,1.004345358533554e-06,9.56367811531012e-07,2.1297986915780516e-06
279,3.932282080509221e-06,1.5551516486494404e-06,1.398813400670839e-06,1.3522079870195703e-05,8.62441824066218e-07,9.084467461088351e-07,9.420218654920596e-07,1.9425202587867793e-06,7.237171456879283e-06,9.550407342028685e-07,1.0512244759902774e-06,6.554226538813778e-05,9.101557754840231e-07,1.0192312936468655e-06,9.557924560740016e-07,2.137642741362822e-06
280,3.814747815725806e-06,1.5955533819769271e-06,1.35663355635725e-06,1.3610465347531959e-05,8.725574099140992e-07,9.438580115799885e-07,9.39015139483864e-07,1.9312974012520103e-06,7.5195360381284765e-06,9.6016724469202e-07,1.0502803003445559e-06,7.051782557238007e-05,9.031555844709302e-07,1.0348059453806309e-06,9.564884489217536e-07,2.142367709101718e-06
281,3.7016669528026955e-06,1.6353929901264574e-06,1.3201768986579234e-06,1.3650325987872472e-05,8.846458244378998e-07,9.795958825507599e-07,9.342906773329161e-07,1.921666134700108e-06,7.783046871817847e-06,9.661714900494255e-07,1.050171280948785e-06,7.559701966189947e-05,8.963250899750333e-07,1.0509363116526326e-06,9.586339506863728e-07,2.14360789845501e-06
282,3.594267808903176e-06,1.6750046490207823e-06,1.2898383419909383e-06,1.364346699040227e-05,8.982320736619785e-07,1.0154568862734535e-06,9.278504174259578e-07,1.91420473870799e-06,8.021417546436596e-06,9.732523044721083e-07,1.051126659159865e-06,8.069758712768373e-05,8.896259961894509e-07,1.0674025425377493e-06,9.623758452821656e-07,2.140999323874945e-06
283,3.493166185901366e-06,1.7148263989536682e-06,1.2657400859037524e-06,1.3594086647924737e-05,9.127081504221578e-07,1.051307109075736e-06,9.197280350213147e-07,1.909413882267304e-06,8.22770274550293e-06,9.81551927239571e-07,1.053239890750666e-06,8.572808328873369e-05,8.830099258807066e-07,1.0839355746779766e-06,9.677711380003443e-07,2.13423098711113e-06
284,3.3984518414104216e-06,1.755181687177173e-06,1.2477391990404318e-06,1.3508171660370075e-05,9.273643729412728e-07,1.0870818488516077e-06,9.100590602702145e-07,1.9075313109242966e-06,8.395016874977286e-06,9.91105304900792e-07,1.0565653592563007e-06,9.059443823966994e-05,8.764016452561735e-07,1.100201587805715e-06,9.74726283096176e-07,2.123010607481149e-06
285,3.3097825195690345e-06,1.796161419653582e-06,1.2354873000166173e-06,1.339261460081262e-05,9.414592228199886e-07,1.122742087530759e-06,8.991070018901245e-07,1.908426407634266e-06,8.517427102268782e-06,1.0017990293762686e-06,1.0612386665846122e-06,9.520481748548807e-05,8.697190363109852e-07,1.1157440986305418e-06,9.829791235377811e-07,2.1071167673234756e-06
286,3.226546027847702e-06,1.8376246124066837e-06,1.228579772409354e-06,1.3254354803416709e-05,9.543283862779464e-07,1.1582048256226334e-06,8.872087310179885e-07,1.911574182038091e-06,8.59085287428031e-06,1.0133352247705505e-06,1.0674904974457872e-06,9.946923803637305e-05,8.629203419700098e-07,1.1299756296481227e-06,9.921161412613546e-07,2.0866335784532385e-06
287,3.148138292490043e-06,1.8792473917248144e-06,1.2267009981669473e-06,1.3099792913158478e-05,9.654685893706557e-07,1.1932508517184629e-06,8.746633731504675e-07,1.9161028284951495e-06,8.613660061116538e-06,1.02521512672593e-06,1.0755362550982995e-06,0.00010329753401745719,8.560201610948614e-07,1.1422465604677944e-06,1.00160038832598e-06,2.0622092617333043e-06
288,3.074271159631026e-06,1.9206393253914517e-06,1.2296372243056751e-06,1.2934442905964918e-05,9.745309285035733e-07,1.2274600464874791e-06,8.616419151717818e-07,1.9209373578576352e-06,8.586659329397288e-06,1.0367507672217172e-06,1.0854493681661226e-06,0.00010660168567701474,8.490520474796318e-07,1.1519742004263061e-06,1.0108309074523102e-06,2.035068168701994e-06
289,3.0051544907579254e-06,1.961543811798906e-06,1.2371588947479838e-06,1.2762566906232035e-05,9.812294874529375e-07,1.2602140700087952e-06,8.481746952892348e-07,1.9250111662649352e-06,8.512418295765329e-06,1.047114197700196e-06,1.0971025432382988e-06,0.00010930351724275089,8.420450394643025e-07,1.1587578443476473e-06,1.019247598630042e-06,2.00671383508338e-06
290,2.9414869640226546e-06,2.0019869852112773e-06,1.2489027091034528e-06,1.258663130198033e-05,9.852760187264783e-07,1.2907150394376876e-06,8.342089812767169e-07,1.9274672808630123e-06,8.39412165521229e-06,1.0554479111955616e-06,1.1101636713970761e-06,0.00011134285062158824,8.350809229829117e-07,1.1623857711101745e-06,1.0264295475442032e-06,1.978552084811933e-06
291,2.8843077005775753e-06,2.0422543295181052e-06,1.264358588357633e-06,1.240675548990256e-05,9.86445544859575e-07,1.317972391083478e-06,8.196853099845698e-07,1.9277621223536316e-06,8.234728300590762e-06,1.0610467796232435e-06,1.124136205889182e-06,0.00011267965983831627,8.283560570262358e-07,1.1627917696327872e-06,1.0321085479061158e-06,1.951670456603046e-06
292,2.834808888577895e-06,2.0827127108394225e-06,1.282937726603087e-06,1.2220537621398948e-05,9.847116147799116e-07,1.3408323800689985e-06,8.045855107763056e-07,1.925599164369252e-06,8.037145326711786e-06,1.0635644192489945e-06,1.1384675095300222e-06,0.00011328675097076021,8.221428432825577e-07,1.1601078753818162e-06,1.036075706668005e-06,1.9267990359456046e-06
293,2.794165168543265e-06,2.123591787660968e-06,1.3040261216406304e-06,1.2023461184586883e-05,9.80307918785684e-07,1.3581542142548177e-06,7.889295783943661e-07,1.9207729284915526e-06,7.805097735581583e-06,1.063136327921354e-06,1.1526621215091057e-06,0.00011313816576994795,8.166813901155466e-07,1.1547761767550792e-06,1.038051988599426e-06,1.9043440324901212e-06
294,2.7633617816993666e-06,2.1648634817339017e-06,1.32696165396158e-06,1.1809801579655559e-05,9.736759430954534e-07,1.3690882549364833e-06,7.727259767566342e-07,1.9131632136915245e-06,7.54365729473963e-06,1.060339577566547e-06,1.166296979061084e-06,0.00011220716437422624,8.121063990270845e-07,1.14752241055177e-06,1.03763225751434e-06,1.8844191905230459e-06
295,2.743056102781256e-06,2.206258373014506e-06,1.3509695221360566e-06,1.1573900037657351e-05,9.65365672713142e-07,1.3732893567128674e-06,7.559316149239903e-07,1.9029218777631054e-06,7.258945242308376e-06,1.0560077087670183e-06,1.178992117619483e-06,0.00011047965247865003,8.084658956397898e-07,1.1391638248014476e-06,1.0343593254333615e-06,1.866872896040301e-06
296,2.733574136741959e-06,2.2473578189203317e-06,1.375134477772633e-06,1.1311624925007095e-05,9.559613043854051e-07,1.370955203969331e-06,7.384844432590664e-07,1.8905929087681325e-06,6.957396052313642e-06,1.0509966408149269e-06,1.1904146301797116e-06,0.00010797172970360144,8.057936495747716e-07,1.1304291444444944e-06,1.0278627533054888e-06,1.8513154255106026e-06
297,2.735034106360175e-06,2.2877172272905955e-06,1.3984038500031548e-06,1.1021660727097041e-05,9.460455716729007e-07,1.3627045913932259e-06,7.203840668683085e-07,1.8770133659874268e-06,6.645180054599452e-06,1.0460297091584004e-06,1.2002587802888572e-06,0.00010473908631552129,8.041444209735034e-07,1.121883340272387e-06,1.0179107551556573e-06,1.8372145370844867e-06
298,2.74750646007622e-06,2.3269956360916407e-06,1.419604353351699e-06,1.0706219603947473e-05,9.361710477040295e-07,1.3493739705973852e-06,7.017397103759188e-07,1.863097013978606e-06,6.328014392116946e-06,1.0416998272421803e-06,1.2081833795986624e-06,0.00010087558759780316,8.035587068607741e-07,1.1139018006130418e-06,1.004337827801205e-06,1.824110350607813e-06
299,2.7711861196060415e-06,2.3650496852277603e-06,1.4375873949657129e-06,1.0370961394017673e-05,9.268140472521896e-07,1.3318080359055832e-06,6.827522393854702e-07,1.8496389904663029e-06,6.011202015021513e-06,1.0385550762093325e-06,1.2137637668298125e-06,9.650224361122142e-05,8.040162610868693e-07,1.1066536751314389e-06,9.870228309796172e-07,1.8117471350312286e-06
300,2.806565888671666e-06,2.4019330974361634e-06,1.4515517368092843e-06,1.0024198453960414e-05,9.183282292907215e-07,1.310701013700169e-06,6.636590459626172e-07,1.8372311814911113e-06,5.699638021416851e-06,1.0371174398666378e-06,1.2165351004080884e-06,9.174998143517277e-05,8.054209954551882e-07,1.1001107942344575e-06,9.660301551154889e-07,1.7999375127434104e-06
301,2.8545381845482895e-06,2.437748812014615e-06,1.461314100753369e-06,9.675703569733608e-06,9.109441236046078e-07,1.2865490011713116e-06,6.446881693095196e-07,1.826269005902296e-06,5.397691396342175e-06,1.0378112325337471e-06,1.216173317112135e-06,8.674313818423271e-05,8.076074854550516e-07,1.0940725080006247e-06,9.417633521008404e-07,1.7883659053705085e-06
302,2.916379971504733e-06,2.47240667861619e-06,1.4672711209071833e-06,9.335474790711187e-06,9.048205397388003e-07,1.2597432170207897e-06,6.260450287100639e-07,1.8169344984357634e-06,5.109096730218808e-06,1.0409028466828718e-06,1.2126608644012306e-06,8.158992449357376e-05,8.103733766189636e-07,1.0881691604819985e-06,9.149649240144573e-07,1.7766139706840074e-06
303,2.993675813847078e-06,2.5054644067050146e-06,1.4701059936833819e-06,9.012678390229738e-06,9.000860271275881e-07,1.2307302443033252e-06,6.079100759353672e-07,1.8091345033960877e-06,4.8369636433097735e-06,1.046510944269908e-06,1.206241203720291e-06,7.638055344896854e-05,8.135315917557792e-07,1.0818752582096351e-06,8.865848832661822e-07,1.7643421899558977e-06
304,3.088251081192489e-06,2.536171604831197e-06,1.4705365290968512e-06,8.714932792421383e-06,8.96831073024158e-07,1.2001060334388415e-06,5.904133486354628e-07,1.802450232182785e-06,4.583781104319756e-06,1.0546665276588996e-06,1.1972668407509978e-06,7.118924082398112e-05,8.169345247968951e-07,1.0746307808374334e-06,8.576200023995846e-07,1.7513961158831621e-06
305,3.2021218446103663e-06,2.5636542902335114e-06,1.4692848731974054e-06,8.448023960283884e-06,8.95087965121706e-07,1.168571183449584e-06,5.735943940538283e-07,1.796121069955526e-06,4.35130283503184e-06,1.0653600364535136e-06,1.1861583247351077e-06,6.607681646424877e-05,8.204438894933299e-07,1.0660759396374955e-06,8.289963370866818e-07,1.7377829803198782e-06
306,3.337441964675265e-06,2.587099535086167e-06,1.4671383036799517e-06,8.215911287950208e-06,8.948325763345976e-07,1.136805034943088e-06,5.573813025136928e-07,1.7891167041183085e-06,4.140439511448204e-06,1.0785203937101578e-06,1.1734257568496974e-06,6.109299821868313e-05,8.239084430800641e-07,1.0562371550962873e-06,8.015253896020079e-07,1.723607900853034e-06
307,3.496438188334037e-06,2.605862238991462e-06,1.4648984682381993e-06,8.020808558780012e-06,8.959790877435797e-07,1.1053973718271899e-06,5.416064800836377e-07,1.7803771603023142e-06,3.951290372052705e-06,1.0939737955741921e-06,1.1595931875537665e-06,5.627815729256327e-05,8.271928988933235e-07,1.0455142400885727e-06,7.759074995597653e-07,1.7090279270173498e-06
308,3.6813020364959594e-06,2.6194973153767393e-06,1.4632340709179452e-06,7.863285164208823e-06,8.98339541931305e-07,1.0748684195142568e-06,5.26080201922522e-07,1.7691519605533746e-06,3.783253725037341e-06,1.1114548633129415e-06,1.1450624803725684e-06,5.1664508140798914e-05,8.301797294829808e-07,1.0344949259338019e-06,7.527318917094614e-07,1.6941928278922056e-06
309,3.8939942766711655e-06,2.627759269974907e-06,1.4625833861582377e-06,7.742392623557953e-06,9.015792010525272e-07,1.0456617063893914e-06,5.107156158310173e-07,1.755183050544643e-06,3.635107937422402e-06,1.1306345349227407e-06,1.1300557989424954e-06,4.7276955774554166e-05,8.327128692487489e-07,1.023740422275406e-06,7.324780674708822e-07,1.679140487093123e-06
310,4.135982569317974e-06,2.6305968479604133e-06,1.4631600005941525e-06,7.655761932809093e-06,9.05212969736294e-07,1.018070112710322e-06,4.956058411345194e-07,1.7385660494330712e-06,3.505076858220681e-06,1.1511410340503047e-06,1.1146431849538377e-06,4.3133980160278904e-05,8.3456356190973e-07,1.0136528715445413e-06,7.155451898760033e-07,1.6637323879504981e-06
311,4.4080182760386685e-06,2.628102414239394e-06,1.4650148549029922e-06,7.599645981756245e-06,9.086681770850709e-07,9.92174564874336e-07,4.809718997108005e-07,1.7194405744035564e-06,3.3909937398107347e-06,1.1726457712623288e-06,1.0987655205226922e-06,3.924873539790718e-05,8.354883420330652e-07,1.0044276566491644e-06,7.02278005567817e-07,1.6477027819978895e-06
312,4.7100354601735936e-06,2.620344961755236e-06,1.4681138100938967e-06,7.569003264614964e-06,9.114109585231984e-07,9.678444035705668e-07,4.6705303769347746e-07,1.6978174172086355e-06,3.2905602377755704e-06,1.1950189500493353e-06,1.0822695627388468e-06,3.5630194449970925e-05,8.353765233414759e-07,9.960544562124166e-07,6.929567153613222e-07,1.6307407068809905e-06
313,5.041122665704194e-06,2.6071317050748156e-06,1.472409087513066e-06,7.557786780984827e-06,9.130754525302193e-07,9.447990403745311e-07,4.540490666422416e-07,1.6736665731931656e-06,3.201501804012871e-06,1.218408490490277e-06,1.0650323454805865e-06,3.228401991163088e-05,8.343719341501344e-07,9.883618129022808e-07,6.877819471723109e-07,1.6125194118463664e-06
314,5.399446750916371e-06,2.587876252448316e-06,1.4778792847692312e-06,7.55950224817702e-06,9.135045876981652e-07,9.226916768422058e-07,4.421211811321152e-07,1.6471122671108482e-06,3.1214685954682006e-06,1.2431363192142084e-06,1.0471200821709439e-06,2.9213022478447475e-05,8.328467220249962e-07,9.810774429100172e-07,6.868839002318983e-07,1.592702414077276e-06
315,5.782099889216358e-06,2.5616745693352492e-06,1.4845116310558808e-06,7.5678953801601356e-06,9.126697136107874e-07,9.011466258213288e-07,4.314042894571122e-07,1.6185412121108265e-06,3.0477917497436647e-06,1.2695170880944154e-06,1.0288313176245847e-06,2.6417397326158477e-05,8.312627081473864e-07,9.73863798334851e-07,6.903264261537147e-07,1.5710101188616173e-06
316,6.1849620388436006e-06,2.527523718068118e-06,1.4922234218547304e-06,7.57752362489879e-06,9.105527984649382e-07,8.797600093852703e-07,4.2200556428202116e-07,1.5885749430832565e-06,2.977403126279555e-06,1.2977414937866998e-06,1.0105841905762881e-06,2.3895058053138073e-05,8.300571311908177e-07,9.663978020288536e-07,6.980789276230149e-07,1.547384755924797e-06
317,6.602653437496562e-06,2.48459259277184e-06,1.5007950546473925e-06,7.584060651539874e-06,9.071201680187981e-07,8.581313028735855e-07,4.139993770460051e-07,1.5579712641137194e-06,2.9071049296043737e-06,1.3278158857483303e-06,9.92800645959616e-07,2.1642194369696903e-05,8.296011586568426e-07,9.5855860244528e-07,7.099797554989865e-07,1.52215199038829e-06
318,7.028531254863135e-06,2.4324698626681685e-06,1.5098886682848728e-06,7.58434732628834e-06,9.0241208935481e-07,8.359042330438967e-07,4.074305828953715e-07,1.5275512433015779e-06,2.834013231822513e-06,1.3595125799661487e-06,9.75891971861219e-07,1.965393920472414e-05,8.301725576218148e-07,9.505642200231738e-07,7.257235519870706e-07,1.4960159550856993e-06
319,7.454628211711413e-06,2.3712793594314475e-06,1.519113393382338e-06,7.576273031855142e-06,8.966549877575269e-07,8.127911701752839e-07,4.023071486257124e-07,1.4981987756410847e-06,2.7558823378290538e-06,1.3923356694521522e-06,9.602493571404263e-07,1.79249456883189e-05,8.319413340298827e-07,9.428876831003373e-07,7.448816978741914e-07,1.469880066239036e-06
320,7.871570287031267e-06,2.3016157106022478e-06,1.5280862441564215e-06,7.558522187123757e-06,8.902954058683405e-07,7.886608158859614e-07,3.985856816571299e-07,1.4708864328626299e-06,2.6713196281762775e-06,1.4255173145591648e-06,9.462062429091238e-07,1.6449646867359226e-05,8.350104553168772e-07,9.360599375908779e-07,7.669550749880553e-07,1.4446357123822197e-06
321,8.268748335609716e-06,2.2244205314949682e-06,1.5365036495232538e-06,7.530163807029044e-06,8.839180069778566e-07,7.636765749522955e-07,3.9619475085693913e-07,1.446645937969809e-06,2.5801098698773607e-06,1.4580851858401362e-06,9.340466152273989e-07,1.522210882808934e-05,8.394629307668684e-07,9.305401541123098e-07,7.914445560205145e-07,1.4210134016977627e-06
322,8.634968895126431e-06,2.140942309768153e-06,1.5442058783459993e-06,7.490077134413487e-06,8.78099841723763e-07,7.383143561733188e-07,3.950990566592875e-07,1.4264745758647931e-06,2.4835520617906353e-06,1.4890078289250246e-06,9.240300083267982e-07,1.4235753692119456e-05,8.453631231870553e-07,9.266660351772218e-07,8.17894816120304e-07,1.3995110566546972e-06
323,8.959432140925093e-06,2.0527351621516063e-06,1.5511717361958599e-06,7.4363526793410684e-06,8.733003207083024e-07,7.132105785442137e-07,3.9533752685963147e-07,1.4112483757279117e-06,2.384347469856551e-06,1.5173014664793104e-06,9.16386203705511e-07,1.3483282754879992e-05,8.527406211438751e-07,9.246388482886745e-07,8.458844659176163e-07,1.3803991488515483e-06
324,9.232688019033831e-06,1.961540633531587e-06,1.5574281883528511e-06,7.3660664702907206e-06,8.698210990428733e-07,6.88995219620187e-07,3.969909130502812e-07,1.4016791320174008e-06,2.285912864146967e-06,1.5420520614882163e-06,9.113113357688291e-07,1.2956672299350616e-05,8.615851960855355e-07,9.245274507680176e-07,8.750124150590754e-07,1.3638039454648673e-06
325,9.447375096045163e-06,1.8690489506364645e-06,1.5629396534494465e-06,7.2757660305814395e-06,8.678018876106904e-07,6.662147673757132e-07,4.0012430391661067e-07,1.3982759853180344e-06,2.1916402195125703e-06,1.5625035867441823e-06,9.08979005246902e-07,1.2646852207377658e-05,8.718577207827604e-07,9.262694899600679e-07,9.049382485504311e-07,1.349856164599945e-06
326,9.598695323610313e-06,1.7767304534273263e-06,1.5675600445810813e-06,7.162476470972796e-06,8.67255512443905e-07,6.453059193997433e-07,4.0475723990783644e-07,1.401285899767559e-06,2.1045714436651263e-06,1.5782274603606557e-06,9.09541956428221e-07,1.2543009370127868e-05,8.835048920458469e-07,9.296682874350481e-07,9.354423671563365e-07,1.3387972425348837e-06
327,9.684479956980911e-06,1.6858398271816487e-06,1.57103549764832e-06,7.0246776072281335e-06,8.681547761007577e-07,6.265819897495765e-07,4.1086023609046304e-07,1.4106466897211337e-06,2.0274286288013126e-06,1.5891511331576384e-06,9.131155780367456e-07,1.2631873711891415e-05,8.964595096982176e-07,9.344078114901962e-07,9.664289000389987e-07,1.330916835681647e-06
328,9.704539214009037e-06,1.5974634612458355e-06,1.5729779577223626e-06,6.86280534542325e-06,8.704974018720644e-07,6.10236383860224e-07,4.1837751092432183e-07,1.425984092010347e-06,1.9627806065768445e-06,1.5953969590444136e-06,9.19775316184131e-07,1.2897306148534923e-05,9.106407604557725e-07,9.400743285177487e-07,9.978500723036456e-07,1.3263939807768235e-06
329,9.65936067854202e-06,1.5125079743948178e-06,1.5728418925025264e-06,6.679119878254196e-06,8.742800332177525e-07,5.963635509796527e-07,4.272618324820912e-07,1.4466374306278662e-06,1.9131953375239603e-06,1.5971567612783965e-06,9.295734566329557e-07,1.3320232465212208e-05,9.25992907173363e-07,9.461707390922529e-07,1.02959253147559e-06,1.3252047118616655e-06
330,9.549146231829908e-06,1.4316762207538622e-06,1.5699859438768281e-06,6.477084463529706e-06,8.79439794596441e-07,5.850035679526104e-07,4.374797739299664e-07,1.471675475116493e-06,1.8812470989967541e-06,1.5947721913507491e-06,9.425094101160592e-07,1.3878885404180703e-05,9.425522224764515e-07,9.52199433212151e-07,1.0613919240531662e-06,1.327113698116038e-06
