,EMG1,EMG2,EMG3,EMG4,EMG5,EMG6,EMG7,EMG8,EMG9,EMG10,EMG11,EMG12,EMG13,EMG14,EMG15,EMG16
0,5.530770687215238e-07,-1.451925264659689e-09,3.258614325889671e-07,-5.4196243451769065e-08,3.3702457070287504e-09,6.449446245563021e-08,4.056903332229935e-07,1.5098276839930808e-06,2.2625244292950296e-06,-4.5479283424809933e-08,1.2567760514725108e-07,1.9400572785465765e-06,-2.826665749942662e-08,6.718092913357236e-08,3.349042259686762e-07,5.501900115587352e-08
1,5.768968697561246e-07,8.509161818764355e-08,4.368997697319997e-07,4.372467472237999e-08,6.52786334028816e-08,1.0250499576447444e-07,5.278531817666022e-07,2.0402022684690226e-06,2.63269640721593e-06,4.8723228760082016e-08,1.8114715084593534e-07,2.3259587295933046e-06,7.400448563003979e-08,1.2953837718337498e-07,3.8844836199131537e-07,2.5209151459842006e-07
2,6.042324634119223e-07,1.687835743144975e-07,5.448420430932346e-07,1.392612649731955e-07,1.2660331923476638e-07,1.4136336576458117e-07,6.50286442751356e-07,2.565705635894709e-06,3.002885480817727e-06,1.4122318296055976e-07,2.3753785183992892e-07,2.752783119826068e-06,1.7336645750148515e-07,1.9190019696154893e-07,4.423414317735893e-07,4.4277609202258466e-07
3,6.348659769503734e-07,2.486652800814069e-07,6.48440570656755e-07,2.3151430038027679e-07,1.866107419631419e-07,1.8035890053850897e-07,7.720009034528274e-07,3.0809686411671813e-06,3.367925014479964e-06,2.3170964683263743e-07,2.9429922708730616e-07,3.2221446089217964e-06,2.6865728853507784e-07,2.5297446667271634e-07,4.956570955172994e-07,6.246896831750348e-07
4,6.685881646754881e-07,3.2399349294626825e-07,7.465790757246002e-07,3.1978043463095046e-07,2.447958466488675e-07,2.1893644367899422e-07,8.919278697632805e-07,3.5806025028617434e-06,3.7230837120230962e-06,3.199242968701029e-07,3.508917036432937e-07,3.7352940495117294e-06,3.5886691133947154e-07,3.1156130453089827e-07,5.476018146051436e-07,7.957069572409417e-07
5,7.051967808337874e-07,3.942090961197367e-07,8.383593347827415e-07,4.03613292457139e-07,3.008849998035699e-07,2.5677227411341526e-07,1.0088879095823945e-06,4.059166839071094e-06,4.064429857536413e-06,4.056632051633538e-07,4.0680381352648363e-07,4.293032724657833e-06,4.4309485751289007e-07,3.6668725247605464e-07,5.975248070762075e-07,9.541829470933974e-07
6,7.445299252955704e-07,4.588609783284729e-07,9.231306435314923e-07,4.828194912971459e-07,3.547602016505526e-07,2.938169615929687e-07,1.121627317214239e-06,4.5114741339533525e-06,4.389099634751351e-06,4.887477838485516e-07,4.616110158811455e-07,4.895626962459698e-06,5.205676006014164e-07,4.177433690453207e-07,6.44910114315492e-07,1.0990583049743417e-06
7,7.864634150839378e-07,5.176004255210702e-07,1.0004281761622796e-06,5.57412818506473e-07,4.063832282083243e-07,3.30217240520678e-07,1.2289264863013704e-06,4.932924187375117e-06,4.69533664758975e-06,5.689711208030902e-07,5.150134947956901e-07,5.5427342490024474e-06,5.906979696964296e-07,4.64497738045341e-07,6.893931833088172e-07,1.2297446012746625e-06
8,8.308371788965503e-07,5.702597171512045e-07,1.0698724687409825e-06,6.275523128663166e-07,4.557574092150827e-07,3.6616999355731817e-07,1.3297106531226778e-06,5.319477692623393e-06,4.982340832265162e-06,6.46068712312851e-07,5.667886763238598e-07,6.2333155034369615e-06,6.53108088009362e-07,5.069760785337311e-07,7.307921347664949e-07,1.3459243738767175e-06
9,8.77375068214322e-07,6.169278178116814e-07,1.1311207237740591e-06,6.935032339908104e-07,5.029062002490326e-07,4.0182711980350945e-07,1.4230799052512772e-06,5.667397563601954e-06,5.2500202250135006e-06,7.197327761206659e-07,6.166977667381463e-07,6.965506239675139e-06,7.076104418687843e-07,5.453384317795273e-07,7.690954622229142e-07,1.447482187495608e-06
10,9.256446197469459e-07,6.579554414284506e-07,1.1839121699297296e-06,7.556670839304127e-07,5.478708231997565e-07,4.372742916399832e-07,1.5082610438554858e-06,5.973108517662759e-06,5.498611177231346e-06,7.896837791487154e-07,6.644418333462312e-07,7.736464307568317e-06,7.541921402012811e-07,5.797943994497609e-07,8.043816209928129e-07,1.534578452674086e-06
11,9.750436644048502e-07,6.938935884938897e-07,1.228163862610604e-06,8.146520469181933e-07,5.907198722354574e-07,4.725556935526432e-07,1.5845823748715129e-06,6.233304895608764e-06,5.728142092785071e-06,8.557571847363187e-07,7.096950552884386e-07,8.542237986153178e-06,7.930223377140508e-07,6.105269476783678e-07,8.367274437144558e-07,1.6076996028872462e-06
12,1.0247926843246752e-06,7.254163631404044e-07,1.264013404721722e-06,8.712853607540854e-07,6.315318640443955e-07,5.077163690461539e-07,1.6515078246223835e-06,6.445230389087067e-06,5.938019101997234e-06,9.178778123066138e-07,7.521409016670509e-07,9.377672260203441e-06,8.244630896666517e-07,6.376564059873445e-07,8.661491100343563e-07,1.667597520973512e-06
13,1.0739443816314226e-06,7.532573389039894e-07,1.2917360286435283e-06,9.265166753787456e-07,6.703682201773844e-07,5.428180549557598e-07,1.7086241676041752e-06,6.607048527927665e-06,6.127078035511154e-06,9.759294500767053e-07,7.914615145156417e-07,1.0236296970809614e-05,8.490675221524167e-07,6.612714371164796e-07,8.92553401507211e-07,1.7151501140213836e-06
14,1.1214721963841054e-06,7.781424686437022e-07,1.3116011166048763e-06,9.8128232027151e-07,7.072829373060594e-07,5.779179712828813e-07,1.755551388783154e-06,6.718250463254657e-06,6.2940464679259335e-06,1.029686976773834e-06,8.273235786785569e-07,1.111011951397531e-05,8.675747312176213e-07,6.814820745979517e-07,9.156956449194964e-07,1.7512188913519785e-06
15,1.1664698017904145e-06,8.007216515624449e-07,1.3238178306322775e-06,1.0364593212038392e-06,7.423366583890578e-07,6.130544167336324e-07,1.7919245896833096e-06,6.779984692625295e-06,6.438119681053313e-06,1.0789122779277138e-06,8.593728723319321e-07,1.198929386422295e-05,8.808873655548419e-07,6.984509826244791e-07,9.352021230436105e-07,1.7766159055743259e-06
16,1.2083858460017485e-06,8.215334133913893e-07,1.3285943221608895e-06,1.0929461404182647e-06,7.755771025337884e-07,6.482521881014114e-07,1.8174969367841944e-06,6.795109632101405e-06,6.559442783938941e-06,1.1235571594100216e-06,8.872158616631728e-07,1.2861703012571604e-05,8.89987760845004e-07,7.12411467112705e-07,9.507197088152137e-07,1.7921987961726067e-06
17,1.2471806388433733e-06,8.409952436100418e-07,1.3261847305376243e-06,1.1517520397689832e-06,8.070277810966465e-07,6.835278188206e-07,1.8322310870651091e-06,6.767772963097244e-06,6.659347573754555e-06,1.1638739904380275e-06,9.1046499837805e-07,1.371262584523608e-05,8.958129122378818e-07,7.236715859495233e-07,9.621514939512614e-07,1.7989664093500392e-06
18,1.2833200323250011e-06,8.593800334535607e-07,1.3168638814519353e-06,1.2139784386347947e-06,8.366917350239822e-07,7.189125674627287e-07,1.8363364268041234e-06,6.7025308953532514e-06,6.740218942352651e-06,1.2002957230638369e-06,9.288995993353198e-07,1.4524717085859798e-05,8.991840058547063e-07,7.325868724588562e-07,9.698087460238003e-07,1.7980529090719734e-06
19,1.317576955424152e-06,8.767827530507029e-07,1.3009125573290696e-06,1.2807656963340763e-06,8.645127633166217e-07,7.544793526946306e-07,1.8303335223832984e-06,6.603413248184508e-06,6.804936598851655e-06,1.2332063012074697e-06,9.426002470124744e-07,1.5278400490638823e-05,9.008280438985263e-07,7.395338736669077e-07,9.743443851868568e-07,1.7906109341941145e-06
20,1.350744699468385e-06,8.931111407910185e-07,1.2786859564845988e-06,1.3533437666586077e-06,8.903277027433483e-07,7.903115246329575e-07,1.8151328127226064e-06,6.4734953567113895e-06,6.856011072543357e-06,1.2627998583416307e-06,9.519213602629473e-07,1.5952735166318625e-05,9.014115289258678e-07,7.449187118608768e-07,9.765263194738437e-07,1.7776363149711497e-06
21,1.3834531125025056e-06,9.081083266563657e-07,1.2507198512385506e-06,1.4331042587381472e-06,9.13914857070317e-07,8.264342845062483e-07,1.7919873249959718e-06,6.3151322399105795e-06,6.894854067257429e-06,1.2890983086293593e-06,9.57370093389548e-07,1.6526911817666677e-05,9.015108508896077e-07,7.491973149934381e-07,9.77038282429521e-07,1.7598392259405892e-06
22,1.4161682718184425e-06,9.213994893344651e-07,1.217777000249135e-06,1.5215160412284914e-06,9.351293152090984e-07,8.627775241463077e-07,1.762265153907465e-06,6.1305138515753534e-06,6.9216924176083705e-06,1.3120697287367706e-06,9.594940331054763e-07,1.6982405870450534e-05,9.01560075536944e-07,7.52874076913381e-07,9.764248419082521e-07,1.7376470255548135e-06
23,1.4492761977979645e-06,9.325794731538786e-07,1.1807928666482294e-06,1.6199520603306231e-06,9.540005279037022e-07,8.991913084072484e-07,1.7272142673496337e-06,5.922163095318338e-06,6.936169805338109e-06,1.331702369551171e-06,9.587867567797786e-07,1.730525870144388e-05,9.01848044476415e-07,7.564849529254324e-07,9.751400044296986e-07,1.711332397362713e-06
24,1.4830992865464324e-06,9.413581896510997e-07,1.1407510760676037e-06,1.7296030459368939e-06,9.707048873020536e-07,9.355183608309487e-07,1.687908578483424e-06,5.693210195778108e-06,6.938099759031615e-06,1.3479805030860028e-06,9.556207537658288e-07,1.7487311391952412e-05,9.025513959571627e-07,7.605863073582621e-07,9.73590848121001e-07,1.6811744032238019e-06
25,1.5178142243324556e-06,9.477003250259922e-07,1.098550129158089e-06,1.8514677754385071e-06,9.85441660765247e-07,9.716850431013983e-07,1.6453476979501891e-06,5.447406616544826e-06,6.927676691080654e-06,1.3608855392130164e-06,9.50232851971049e-07,1.7525209233255097e-05,9.03747731443267e-07,7.657310246742711e-07,9.721252949338753e-07,1.6475790149815399e-06
26,1.5533923100680492e-06,9.51837998792905e-07,1.054929513696424e-06,1.986326211539222e-06,9.98317226823263e-07,1.007716392478646e-06,1.6005745957422745e-06,5.188940665500565e-06,6.904982291787835e-06,1.3704864490508975e-06,9.42766364198881e-07,1.741781193345329e-05,9.053935102608171e-07,7.724096702430128e-07,9.710039334267581e-07,1.611179576060611e-06
27,1.5896586711666983e-06,9.5412949862278e-07,1.0104837186898399e-06,2.1346807976603865e-06,1.00931182428359e-06,1.0436421776495623e-06,1.5547241884314563e-06,4.922202511325653e-06,6.869445322199115e-06,1.3770255825816973e-06,9.333637842679319e-07,1.716525782739979e-05,9.072983448052257e-07,7.80991075392121e-07,9.704071268062084e-07,1.5729014312830136e-06
28,1.6264139767874815e-06,9.548803664761563e-07,9.657194611267529e-07,2.296697592093092e-06,1.0183310016428963e-06,1.0793695934917728e-06,1.508981257932334e-06,4.651596641395928e-06,6.819966247609865e-06,1.380905039557882e-06,9.222711256531517e-07,1.677151584226772e-05,9.091239589486305e-07,7.917003295544846e-07,9.704495114382517e-07,1.5338812845890974e-06
29,1.663508868564452e-06,9.542481587005802e-07,9.211064375798561e-07,2.472161421093422e-06,1.025283852507852e-06,1.114617387843335e-06,1.4644872969063892e-06,4.381368810838482e-06,6.755617630497549e-06,1.3825852485155555e-06,9.098864141856443e-07,1.6247528818062872e-05,9.104154178549012e-07,8.046373228003006e-07,9.711401037369777e-07,1.4952436864124237e-06
30,1.700827336579892e-06,9.52270827673588e-07,8.771110541417251e-07,2.6604567985049083e-06,1.0300912206406354e-06,1.148948269194469e-06,1.4222584014609836e-06,4.115391020733675e-06,6.676309830410057e-06,1.382499273160371e-06,8.96721015264433e-07,1.5611377187518978e-05,9.106798215037295e-07,8.198300998219123e-07,9.723192497550884e-07,1.4579055185435084e-06
31,1.7382190898397311e-06,9.489975337416827e-07,8.341938803774726e-07,2.8606389117916272e-06,1.032622788006706e-06,1.1818672761766328e-06,1.3831399945215093e-06,3.856948520917603e-06,6.583008467854212e-06,1.3810376181993702e-06,8.83303337170503e-07,1.4885492916318497e-05,9.094861801193019e-07,8.372980010177798e-07,9.736739092451716e-07,1.4225122042218288e-06
32,1.7754701039049809e-06,9.446199630581405e-07,7.927638994638531e-07,3.0716490221059762e-06,1.0326765044109526e-06,1.2129259891954645e-06,1.3477804131082837e-06,3.608643863921583e-06,6.477579570685514e-06,1.3785306917300266e-06,8.700790535730928e-07,1.4093154751042178e-05,9.065112347938418e-07,8.570846809688344e-07,9.748612395636984e-07,1.389447963756197e-06
33,1.8123543036646256e-06,9.394757107623255e-07,7.531301270139664e-07,3.292602825963846e-06,1.0300394983664872e-06,1.24181067194679e-06,1.3166003819657514e-06,3.3724677357921163e-06,6.362684275816689e-06,1.3751933081354616e-06,8.573560030751522e-07,1.325596991331848e-05,9.015160050084261e-07,8.792374682222337e-07,9.756465973577846e-07,1.3588711782547675e-06
34,1.848696358044071e-06,9.339362005761918e-07,7.154791327878602e-07,3.522962453839137e-06,1.0245639409693123e-06,1.2684175379416543e-06,1.2897646512896274e-06,3.1499344913076944e-06,6.2418821384293065e-06,1.371121947629358e-06,8.45302992951386e-07,1.239272187897051e-05,8.943086998104498e-07,9.037357339618801e-07,9.759285530458797e-07,1.3308036059007152e-06
35,1.8843527515637321e-06,9.28315853083722e-07,6.798745648371205e-07,3.762420634210371e-06,1.0162173793369323e-06,1.292874029547638e-06,1.2671722470612878e-06,2.9421279818175163e-06,6.1195675538854715e-06,1.3663695354220808e-06,8.339561222208132e-07,1.1519171753622105e-05,8.847501330766073e-07,9.304157920286019e-07,9.756406180783164e-07,1.3052732634191182e-06
36,1.919127424415298e-06,9.228598938162909e-07,6.462779277340205e-07,4.010517820177527e-06,1.0051193515713927e-06,1.315449362203142e-06,1.2484574357056943e-06,2.7496584036476373e-06,6.00073644230747e-06,1.3609975750827636e-06,8.232217372374444e-07,1.0648313203629031e-05,8.728009923161918e-07,9.589565416569277e-07,9.746619744934747e-07,1.2824208732729382e-06
37,1.952704871511264e-06,9.17755032377567e-07,6.145988618174005e-07,4.2662252607736135e-06,9.915558384839034e-07,1.3363775008870723e-06,1.2330015652179443e-06,2.572680493900128e-06,5.891259584325879e-06,1.3550739624169583e-06,8.129411668932263e-07,9.790807788297298e-06,8.585357910263992e-07,9.889190218340096e-07,9.728315202697163e-07,1.2624634556913115e-06
38,1.9846078421685484e-06,9.131206535563646e-07,5.847702308271812e-07,4.527761013519233e-06,9.759379244574513e-07,1.3556916420598172e-06,1.2200096699915643e-06,2.4110097032876973e-06,5.798613608371482e-06,1.3486533844503877e-06,8.030040241636505e-07,8.955478597524458e-06,8.421061572881071e-07,1.019791789777878e-06,9.700051779312537e-07,1.2455433085917298e-06
39,2.0141373900996532e-06,9.089957428842272e-07,5.567966255059618e-07,4.792754369793047e-06,9.587096651310341e-07,1.3731436235733341e-06,1.208696823117583e-06,2.26419754730902e-06,5.7320440366072985e-06,1.341727867412296e-06,7.933841128695054e-07,8.149719065644028e-06,8.237590228125091e-07,1.0510465521892658e-06,9.660613351381921e-07,1.2316001670534519e-06
40,2.0403597021737867e-06,9.053638056551602e-07,5.307319012771381e-07,5.0586537716819594e-06,9.402603186640233e-07,1.388226213643117e-06,1.1985103936763894e-06,2.1315253937516494e-06,5.701763808596975e-06,1.334172868032078e-06,7.84062416080399e-07,7.379690121042753e-06,8.039322879034522e-07,1.0821993715166125e-06,9.608520436967155e-07,1.2203535944870946e-06
41,2.062254548704065e-06,9.02217850660787e-07,5.066458803275447e-07,5.323145162446552e-06,9.209104882629108e-07,1.4003188647650683e-06,1.1892249123168877e-06,2.0120450592428465e-06,5.7178390767384946e-06,1.3257721775052402e-06,7.749557031193326e-07,6.650315033261445e-06,7.832922746148513e-07,1.1128260515391654e-06,9.541983906390715e-07,1.2114202768396346e-06
42,2.078966862568042e-06,8.996131057481121e-07,4.846386562027543e-07,5.584418408374439e-06,9.009714040214521e-07,1.40895194528237e-06,1.1808283960986415e-06,1.9046744508442636e-06,5.7894394098397876e-06,1.316330152658436e-06,7.659541930841608e-07,5.965194542397209e-06,7.626425420967326e-07,1.1425341613480605e-06,9.460053172178543e-07,1.2045154215675097e-06
43,2.0899712606107644e-06,8.976801611364022e-07,4.648440983858045e-07,5.841287581050496e-06,8.807745698867183e-07,1.4140762385202118e-06,1.1733007126207715e-06,1.8082092763542638e-06,5.9245614913583485e-06,1.3058045534384634e-06,7.570389193015537e-07,5.326563518544939e-06,7.427869319070487e-07,1.1709347874745286e-06,9.363842410672264e-07,1.1995783873327857e-06
44,2.0950782903405435e-06,8.965927049150698e-07,4.4738789978747747e-07,6.0932298338704336e-06,8.606326367063848e-07,1.4161646345573334e-06,1.1664579592300563e-06,1.7212811047461121e-06,6.129967848227756e-06,1.294394591386186e-06,7.483687533728486e-07,4.7353595969154935e-06,7.244356335276196e-07,1.197604404204443e-06,9.256190164076815e-07,1.1967202307732858e-06
45,2.0943666946941303e-06,8.964894902880636e-07,4.3234937023003823e-07,6.340325026265926e-06,8.407998491050672e-07,1.4160658148215417e-06,1.1599291712390822e-06,1.6424066037615219e-06,6.411158529977775e-06,1.2825339487737287e-06,7.402534736650567e-07,4.191455411635952e-06,7.081708067448256e-07,1.2220070676749165e-06,9.140250796670183e-07,1.1960849782362667e-06
46,2.088098227321226e-06,8.974034117805792e-07,4.19744673527387e-07,6.5830118373716916e-06,8.214533428050788e-07,1.4147243287569158e-06,1.1532176731656607e-06,1.5701066731901434e-06,6.772343499709254e-06,1.2707754466848522e-06,7.330293977051102e-07,3.6940605380626365e-06,6.944532178099143e-07,1.243433607091066e-06,9.018652161876508e-07,1.1977601251770228e-06
47,2.0765868074573807e-06,8.992355100029475e-07,4.0952422014319276e-07,6.821634352228252e-06,8.026958854333324e-07,1.4129688180012873e-06,1.1458140079498073e-06,1.5030358945575897e-06,7.216398449838339e-06,1.259656960002544e-06,7.269380060892385e-07,3.242143118481219e-06,6.836412128960804e-07,1.2610787712683276e-06,8.893806142321282e-07,1.2017474783963256e-06
48,2.060079765797566e-06,9.017427404281423e-07,4.0161042881135637e-07,7.055874613588652e-06,7.846089545824577e-07,1.4114212807088409e-06,1.137346860747779e-06,1.4401538745373242e-06,7.744835811126235e-06,1.249664545394718e-06,7.220767720247749e-07,2.83464406388498e-06,6.760034823158651e-07,1.2742147331375639e-06,8.768991540812056e-07,1.2079591434065608e-06
49,2.038792128644308e-06,9.045280818220388e-07,3.959775319152875e-07,7.284233399854531e-06,7.673199150663794e-07,1.4104531177425243e-06,1.127705854584097e-06,1.380866405438524e-06,8.357764524529123e-06,1.2412583587863723e-06,7.184106554184092e-07,2.4704747186890294e-06,6.717250120609014e-07,1.2822581487649068e-06,8.649159928056488e-07,1.216227657064578e-06
50,2.013053967910722e-06,9.070556838445528e-07,3.9270100126257e-07,7.503709659532697e-06,7.51007508972417e-07,1.4101926528720688e-06,1.1170673294064338e-06,1.3249771584638693e-06,9.05373595563437e-06,1.2348529992530533e-06,7.158169650240726e-07,2.148499082136117e-06,6.709044974998202e-07,1.2847513377700598e-06,8.54041404086828e-07,1.2263002093585347e-06
51,1.983380003759233e-06,9.087172099384359e-07,3.919299685476236e-07,7.709783121251003e-06,7.358383394120577e-07,1.4106230747699626e-06,1.1058264949032582e-06,1.2724613911510568e-06,9.829519328356196e-06,1.2307543006327412e-06,7.141364122906133e-07,1.8675565174632504e-06,6.735503188863881e-07,1.2814481200717987e-06,8.448628564561313e-07,1.2378341900988896e-06
52,1.9504134359652137e-06,9.089683677147753e-07,3.938495193149309e-07,7.896781352748565e-06,7.218990587842044e-07,1.4117061247558153e-06,1.0944746103360869e-06,1.2232343241718998e-06,1.0679975991112248e-05,1.2291200558609853e-06,7.13200931353053e-07,1.6264006587084643e-06,6.795855365305699e-07,1.2724318669981026e-06,8.378555088987878e-07,1.2504308076569621e-06
53,1.914848871428901e-06,9.074745699619002e-07,3.9868751775247683e-07,8.058707239173958e-06,7.091776495496361e-07,1.4134442885957139e-06,1.0834597424064845e-06,1.1770331341481088e-06,1.159827550775874e-05,1.229945926131645e-06,7.128729347978813e-07,1.4235533063306065e-06,6.888599313598517e-07,1.2580750664804448e-06,8.333633066296007e-07,1.2636528586913474e-06
54,1.8774001230637866e-06,9.041671604779217e-07,4.067276993346486e-07,8.190457029159138e-06,6.975911087152334e-07,1.4158655400381186e-06,1.0730944413655443e-06,1.1334200913297761e-06,1.2576510104263115e-05,1.2330492275279415e-06,7.131285865081183e-07,1.2572141548332292e-06,7.011795620948091e-07,1.2388747928419153e-06,8.316037629093553e-07,1.2770314193174878e-06
55,1.838792604544371e-06,8.991972695848373e-07,4.183188103834185e-07,8.289040916634794e-06,6.870348462070928e-07,1.4189455283291988e-06,1.0635398948307502e-06,1.0918685489342989e-06,1.360618892911438e-05,1.2381105380745111e-06,7.140946822350169e-07,1.1252877988868747e-06,7.163485383223942e-07,1.2153008138889961e-06,8.326884426200981e-07,1.2901344130008815e-06
56,1.799745712386109e-06,8.928373436084639e-07,4.3388758354977234e-07,8.354263178113977e-06,6.77432849944161e-07,1.4224990151268276e-06,1.054816233310964e-06,1.0518626830012717e-06,1.467814501121563e-05,1.2448233121557897e-06,7.159662652658201e-07,1.0254664554076837e-06,7.341699407425513e-07,1.1877250567380765e-06,8.366420079556962e-07,1.3026266935154498e-06
57,1.7609181929263759e-06,8.854036832578294e-07,4.5391772937849704e-07,8.388583732140089e-06,6.68769906263763e-07,1.4261129554694376e-06,1.0468294436025602e-06,1.0129249881957462e-06,1.5782199138234903e-05,1.2530416763208835e-06,7.18886068765145e-07,9.552897624433465e-07,7.543873807778499e-07,1.1564774843679805e-06,8.433999635313537e-07,1.3142124477485357e-06
58,1.7228239050221387e-06,8.772605092374112e-07,4.789042447505454e-07,8.396293749003277e-06,6.61082801520541e-07,1.4292164875055008e-06,1.039455423388248e-06,9.745724717723474e-07,1.6907230006047353e-05,1.2627799241705315e-06,7.228880032259771e-07,9.121719054564561e-07,7.766290257170287e-07,1.1220145176676736e-06,8.528043121841292e-07,1.324518108555119e-06
59,1.6858258260816164e-06,8.688500532737117e-07,5.093397736226481e-07,8.382336977631961e-06,6.544117391953412e-07,1.431313389406998e-06,1.0326349384519454e-06,9.363249874606691e-07,1.8041803043846758e-05,1.2740621889298906e-06,7.279035932626665e-07,8.934529662799933e-07,8.003965405148356e-07,1.0850596799676159e-06,8.646178668134112e-07,1.3330966238676784e-06
60,1.6502634428301391e-06,8.606532615232159e-07,5.457456899584644e-07,8.351272123311677e-06,6.487694883622205e-07,1.4322324362362002e-06,1.0263927860085795e-06,8.978349985853066e-07,1.9174969521832964e-05,1.2867587496307154e-06,7.337866014809054e-07,8.965222942094076e-07,8.250777923774189e-07,1.046595557468041e-06,8.785674752240525e-07,1.3396140665411908e-06
61,1.616556186972677e-06,8.531304840366332e-07,5.886966242445747e-07,8.306980858186053e-06,6.441630218514962e-07,1.4321928203711527e-06,1.0207753794526114e-06,8.590368272523321e-07,2.029677532106257e-05,1.300543025330712e-06,7.403648840620547e-07,9.1899827800182e-07,8.500122758930068e-07,1.0077332874894028e-06,8.944086298543291e-07,1.344015389045264e-06
62,1.5851538780281497e-06,8.467462274156372e-07,6.387814766728371e-07,8.253208537773552e-06,6.406242629679103e-07,1.4316425859562733e-06,1.0157849995893678e-06,8.201656774240955e-07,2.1398271164281246e-05,1.3149521627140613e-06,7.475216663778699e-07,9.588695285664364e-07,8.746634495247143e-07,9.695526504816074e-07,9.119558491194194e-07,1.3465340600634411e-06
63,1.5564306559032204e-06,8.420370124815529e-07,6.9654032471755e-07,8.194303426944174e-06,6.382110238541936e-07,1.4310029634854348e-06,1.0114083482652318e-06,7.816142712101534e-07,2.247093403093222e-05,1.3294264170620396e-06,7.552241522400853e-07,1.014467872712294e-06,8.987700481608912e-07,9.329831426648801e-07,9.310299967001925e-07,1.3477007499161312e-06
64,1.530659490665329e-06,8.396018983362868e-07,7.624802515412991e-07,8.135569638677505e-06,6.369802639869449e-07,1.4304803133550552e-06,1.0077303686666663e-06,7.437650076410795e-07,2.3505454758841e-05,1.3432834893296873e-06,7.634602583801494e-07,1.0842878447486838e-06,9.222895499382392e-07,8.987522618407818e-07,9.513631540914516e-07,1.3483886985691659e-06
65,1.5080617279572512e-06,8.400119759755974e-07,8.371885431435198e-07,8.083131884646999e-06,6.369522185672915e-07,1.430022344176838e-06,1.0049916468404344e-06,7.06954920048515e-07,2.449067037980143e-05,1.3556848929721762e-06,7.721661044365226e-07,1.16690142622922e-06,9.452229764915596e-07,8.673840100969553e-07,9.725471072262473e-07,1.349719727665771e-06
66,1.488836738650043e-06,8.43752446143475e-07,9.214296759267445e-07,8.043467740591155e-06,6.381010301593436e-07,1.4293778628589011e-06,1.0035075324204922e-06,6.715577949360092e-07,2.5414463879008435e-05,1.3656375435199656e-06,7.81246486692307e-07,1.2611587669470934e-06,9.675458440688232e-07,8.392119621520111e-07,9.940591980688343e-07,1.3528596575111766e-06
67,1.473134301895664e-06,8.512512751045355e-07,1.0161102879076522e-06,8.022838308276157e-06,6.403752478683298e-07,1.4281543299962016e-06,1.0035445157248112e-06,6.38044595491858e-07,2.6267222932144768e-05,1.3720776373772065e-06,7.906982322185532e-07,1.3665165508761235e-06,9.892756131400371e-07,8.143845455920877e-07,1.0153266567295118e-06,1.3588804316391313e-06
68,1.4610162911370181e-06,8.629248513816501e-07,1.1221678674560206e-06,8.026837265085151e-06,6.437178704457466e-07,1.4258438094308016e-06,1.0052694637325387e-06,6.06945895543728e-07,2.7045636295117825e-05,1.3740934331813878e-06,8.00708259818828e-07,1.483202488182421e-06,1.0105356254563255e-06,7.928719259107182e-07,1.0357587796578475e-06,1.3686969659051555e-06
69,1.452431281635882e-06,8.791732397360786e-07,1.2405044612326156e-06,8.060201975412468e-06,6.48099452414025e-07,1.4219103492051641e-06,1.0087514281718187e-06,5.787850620942518e-07,2.775396061868002e-05,1.3711820645515881e-06,8.116101403484641e-07,1.6121411844391032e-06,1.0315087080440532e-06,7.745025244323007e-07,1.0547208475015815e-06,1.3830013773387062e-06
70,1.4471684671395247e-06,9.003402908413585e-07,1.3719374049188155e-06,8.126930055648329e-06,6.535625273074523e-07,1.4159688434772294e-06,1.0139468791549467e-06,5.540741538535359e-07,2.8401834428878175e-05,1.3633176919316901e-06,8.237733460195983e-07,1.7547490819249078e-06,1.0523430839901508e-06,7.590482781831578e-07,1.0715199332383824e-06,1.4021977185195032e-06
71,1.4447954529335116e-06,9.266788533090152e-07,1.5171094304740644e-06,8.230639123419658e-06,6.60212296542254e-07,1.4079259298786828e-06,1.0206805319224204e-06,5.333404439387547e-07,2.900004445491323e-05,1.3508152282965776e-06,8.375363501070226e-07,1.9126758540651184e-06,1.0731209863316522e-06,7.463427167257765e-07,1.085496879558565e-06,1.426381996366016e-06
72,1.444652724875422e-06,9.583326432197849e-07,1.6764266119332578e-06,8.3750301962101e-06,6.681548926386124e-07,1.3979548281782497e-06,1.0286803532177273e-06,5.171152836992238e-07,2.95567703934202e-05,1.3342033845731206e-06,8.531615420920773e-07,2.0875388122130746e-06,1.0938642302616013e-06,7.363643050974393e-07,1.096219345157496e-06,1.4553687949162073e-06
73,1.445943225192567e-06,9.953357737582534e-07,1.8500829529176438e-06,8.56428991190258e-06,6.774635326936447e-07,1.3863184760291698e-06,1.0376684781580164e-06,5.059090030279238e-07,3.007598400948989e-05,1.3142148281942525e-06,8.707888821996858e-07,2.2807939512180127e-06,1.1145152840324778e-06,7.292174636066301e-07,1.1036338793682436e-06,1.4887138404043818e-06
74,1.4478724399246832e-06,1.0376402953437035e-06,2.038099500006501e-06,8.803301354257492e-06,6.881882795834374e-07,1.3731830221888353e-06,1.047425858033757e-06,5.002028836403472e-07,3.055792957490302e-05,1.2917664962491957e-06,8.904277381959702e-07,2.493843614451404e-06,1.1348955270290948e-06,7.250330521011296e-07,1.1080283756379333e-06,1.5257008158318433e-06
75,1.4497781196684786e-06,1.0851589266025817e-06,2.2402747194906534e-06,9.097562196804445e-06,7.00351723748815e-07,1.358528245305718e-06,1.0577562769230241e-06,5.004277886238805e-07,3.100065463403297e-05,1.2678301179702716e-06,9.119737354832134e-07,2.7282133754627022e-06,1.1546684676953003e-06,7.238786050830104e-07,1.1098728176027801e-06,1.565323816109513e-06
76,1.4512147000569633e-06,1.1377670325468614e-06,2.4560486474117383e-06,9.452681896536299e-06,7.139079679312758e-07,1.342129765961012e-06,1.068397535950972e-06,5.069271388986761e-07,3.140137168893644e-05,1.2432916107794544e-06,9.352018363115004e-07,2.985573200544221e-06,1.1733724200882153e-06,7.257317663083822e-07,1.1097206419383869e-06,1.6063241984795323e-06
77,1.4519806520650682e-06,1.1952321628679506e-06,2.684371729234253e-06,9.87360163897226e-06,7.287088719055281e-07,1.3236038965438624e-06,1.0790075471606833e-06,5.19939594845251e-07,3.175638701746659e-05,1.218892011524588e-06,9.597665415812556e-07,3.2676179526072703e-06,1.1905168207636736e-06,7.305210651474906e-07,1.1081536913880579e-06,1.6473095608021375e-06
78,1.4521117159097226e-06,1.2571204672640736e-06,2.9236309590795e-06,1.0364253322983725e-05,7.445145475265151e-07,1.3025508142517375e-06,1.0892624607132147e-06,5.396008304153291e-07,3.205938203360402e-05,1.1952092052830602e-06,9.852731425159173e-07,3.5759432278955863e-06,1.2056225289704115e-06,7.381958123184013e-07,1.105673157747974e-06,1.6869310826074804e-06
79,1.4518760817285692e-06,1.322742544571819e-06,3.171603052950205e-06,1.0928092866358374e-05,7.610213631468686e-07,1.2787253036422838e-06,1.0989567298016962e-06,5.659492135428635e-07,3.230011274394669e-05,1.1726477421228746e-06,1.0113879836006659e-06,3.911933854949101e-06,1.2182355117842195e-06,7.487422540132017e-07,1.102602893774114e-06,1.724083198123605e-06
80,1.451758910589747e-06,1.3911418125892715e-06,3.4254260657940005e-06,1.1568820470309082e-05,7.778840186473041e-07,1.2521011936131263e-06,1.1079862487569564e-06,5.989403907835889e-07,3.246541006951912e-05,1.151460284776746e-06,1.037882769928781e-06,4.276598758119734e-06,1.2280361861175007e-06,7.621316563509349e-07,1.0990900008581574e-06,1.7580797126858344e-06
81,1.4523824230200073e-06,1.4611188506198234e-06,3.6817070758765366e-06,1.2290376815689162e-05,7.947483439541482e-07,1.2228024332573638e-06,1.1162399070071727e-06,6.384615058600477e-07,3.254130689119342e-05,1.131799586459123e-06,1.0645676431789168e-06,4.670356967236381e-06,1.2349264803943402e-06,7.78263724344158e-07,1.0951582008851006e-06,1.788713609802814e-06
82,1.4543521090739602e-06,1.5313301792175921e-06,3.936900135343957e-06,1.3096167724577213e-05,8.112782146570966e-07,1.1910166921797113e-06,1.1235265462782165e-06,6.843238390309776e-07,3.2514479367429887e-05,1.1137536675938918e-06,1.0911862775403563e-06,5.092829751129238e-06,1.2389340899865317e-06,7.969355253212001e-07,1.0907348302898573e-06,1.81613723234325e-06
83,1.4580904509214526e-06,1.600466211492951e-06,4.187840038297844e-06,1.3988152574421275e-05,8.271796377618324e-07,1.1570160840029564e-06,1.1295886937783616e-06,7.362416594218773e-07,3.237333804117142e-05,1.0973286900950053e-06,1.1173699978152806e-06,5.5426842151776596e-06,1.2400576945719715e-06,8.178536680724326e-07,1.0856372648360021e-06,1.8406372520747208e-06
84,1.4637240561558715e-06,1.6674107479307097e-06,4.432073170711149e-06,1.496641502709469e-05,8.422900632318711e-07,1.1212614418736168e-06,1.1341526612320023e-06,7.938198802399316e-07,3.210981433348971e-05,1.0824128663904984e-06,1.1426649093064397e-06,6.0175853772313285e-06,1.2382536535213972e-06,8.407091042088782e-07,1.0795806918088345e-06,1.8624382033079985e-06
85,1.4710418537161999e-06,1.7312926733246813e-06,4.667750410306713e-06,1.6029311476564273e-05,8.567009299442431e-07,1.0844471941309628e-06,1.136960380052532e-06,8.565682211791866e-07,3.172154427102844e-05,1.0687852407635636e-06,1.1666106050774082e-06,6.514247292520377e-06,1.233566073158878e-06,8.652606186131666e-07,1.0722580047224598e-06,1.8815929406070437e-06
86,1.4795207070511058e-06,1.7914475697727691e-06,4.893189573915225e-06,1.717374672810925e-05,8.707723138498604e-07,1.047403802119999e-06,1.1377517169795257e-06,9.239363251689151e-07,3.121282657435399e-05,1.0561781633107502e-06,1.1888628173724102e-06,7.0284552179526234e-06,1.2262748187396816e-06,8.913325147568841e-07,1.0634318803008577e-06,1.8979476760797505e-06
87,1.4884467299914038e-06,1.8473490803681311e-06,5.106362877478865e-06,1.8395008840022118e-05,8.850001047082151e-07,1.01092211249332e-06,1.1362311570289855e-06,9.953195561738281e-07,3.059276060339515e-05,1.0443254812369144e-06,1.2092717730349115e-06,7.5549350301615585e-06,1.2169322377496757e-06,9.187321452626371e-07,1.0529455315259475e-06,1.9111301162769342e-06
88,1.4971416670212613e-06,1.8985459510143505e-06,5.304521021000981e-06,1.968599853884685e-05,8.998397061008809e-07,9.756195974722123e-07,1.1321117820838805e-06,1.070013922944421e-06,2.9871211928008443e-05,1.0329514115602449e-06,1.2278235816130761e-06,8.087119796490198e-06,1.206244932008357e-06,9.471817645897932e-07,1.0406607665518558e-06,1.920525890441232e-06
89,1.5051834719098282e-06,1.944614871756662e-06,5.484175087509661e-06,2.1036365546286447e-05,9.155921660351568e-07,9.419041810053703e-07,1.125229964297925e-06,1.1471750130681558e-06,2.905633960301233e-05,1.0217858029862755e-06,1.2445703908453612e-06,8.617154461046173e-06,1.194923834704748e-06,9.763013330635473e-07,1.0264373865150222e-06,1.9253153455160227e-06
90,1.5124536353631221e-06,1.9850931780491638e-06,5.64153789142708e-06,2.2432328332382334e-05,9.323655279505628e-07,9.100199943794834e-07,1.1156010534835633e-06,1.2258106877541764e-06,2.8155729198639768e-05,1.0106743786537397e-06,1.2596796139671783e-06,9.136484773659663e-06,1.1836166022402044e-06,1.0056114013576695e-06,1.0102456444117671e-06,1.9246589996161487e-06
91,1.5189776158528904e-06,2.019374297191216e-06,5.7731622758679975e-06,2.3857388066306156e-05,9.500652307077918e-07,8.801351074098435e-07,1.1033443018403289e-06,1.3047758920791525e-06,2.7178025419379807e-05,9.996781873380442e-07,1.2734545388226977e-06,9.636864229544518e-06,1.172872685438016e-06,1.034541866019241e-06,9.923228423089996e-07,1.917976539336694e-06
92,1.5247166862781745e-06,2.0467009120707753e-06,5.876370086694029e-06,2.5293479374041188e-05,9.683865776593402e-07,8.524185383615587e-07,1.0885587441795427e-06,1.3827951212872366e-06,2.6132866431286953e-05,9.890550011225313e-07,1.286195913480016e-06,1.0111186091572384e-05,1.1630970186074792e-06,1.0624868867065642e-06,9.731826589647778e-07,1.905176625771797e-06
93,1.5294598966931482e-06,2.0663660638462258e-06,5.949343372965909e-06,2.6722005885144564e-05,9.868192484707658e-07,8.270657976536176e-07,1.071303288468356e-06,1.458588255737103e-06,2.5030736083246875e-05,9.791494802662311e-07,1.2980357195265203e-06,1.0553629453370557e-05,1.1545266147539895e-06,1.08891074565579e-06,9.534504174448959e-07,1.886733781532496e-06
94,1.5328007543823847e-06,2.0779678612693087e-06,5.991097211546707e-06,2.8124327746411998e-05,1.004703386951254e-06,8.042916843862417e-07,1.0517255356462328e-06,1.5310940158142778e-06,2.3882864024818194e-05,9.702675410333654e-07,1.308877351478094e-06,1.0958954808727141e-05,1.147235612163931e-06,1.1133996599023109e-06,9.336839958726918e-07,1.863569406653009e-06
95,1.5341865606773373e-06,2.0815252091181795e-06,6.001604719929519e-06,2.9481289659233473e-05,1.0213725998395783e-06,7.843379430338499e-07,1.0301865306050684e-06,1.5997258724501954e-06,2.27005649178042e-05,9.625902924146684e-07,1.3184147143534605e-06,1.1321456023214108e-05,1.141138521301132e-06,1.1356169829535043e-06,9.142941595702448e-07,1.8367919216803025e-06
96,1.5330799763094334e-06,2.0774571329464585e-06,5.982030373723157e-06,3.0771696463689354e-05,1.0363387764461583e-06,7.674845876856482e-07,1.0072171410303707e-06,1.6645948103138557e-06,2.1495438758777943e-05,9.561428155902522e-07,1.3261751761918952e-06,1.163491927418055e-05,1.135993560870381e-06,1.15523739521978e-06,8.955376828361011e-07,1.8074493502087156e-06
97,1.529135568412958e-06,2.066502514690392e-06,5.934700095744251e-06,3.197092644571702e-05,1.049420306418662e-06,7.540102705878913e-07,9.833513686680582e-07,1.7266023711311077e-06,2.0280258206580668e-05,9.50807052992611e-07,1.3315685454351494e-06,1.1894452010942054e-05,1.1314689236872935e-06,1.17190714890607e-06,8.775446492760279e-07,1.7763923861629526e-06
98,1.5222427750822258e-06,2.0496175785424643e-06,5.862577081249291e-06,3.3052154635573695e-05,1.0607717921151692e-06,7.441131970941772e-07,9.590019921254755e-07,1.7873120608606799e-06,1.906871585971458e-05,9.46379131391768e-07,1.3339877065422385e-06,1.2099043337318039e-05,1.1272537223415775e-06,1.1852870466800914e-06,8.603871064586791e-07,1.7442430789986518e-06
99,1.5124358479921024e-06,2.0278585791422527e-06,5.768607929514324e-06,3.3991058288808486e-05,1.0708251011935232e-06,7.37875147318431e-07,9.344431526254954e-07,1.8486160162646853e-06,1.787409175054577e-05,9.426733105866406e-07,1.333007455605688e-06,1.2252693709533387e-05,1.1230723453765223e-06,1.1952090924080134e-06,8.441503662663013e-07,1.7114642244564824e-06
100,1.499768359138723e-06,2.0022503512586117e-06,5.655515589343494e-06,3.4771265923929676e-05,1.080149189061203e-06,7.352983082820025e-07,9.098478609055512e-07,1.9123636234746294e-06,1.6708054696736926e-05,9.396247039821088e-07,1.328563116254653e-06,1.2363200036439146e-05,1.1186127005210209e-06,1.2017875622071939e-06,8.28933931099175e-07,1.6784710194351682e-06
101,1.484226093094592e-06,1.973657618335629e-06,5.526002521160163e-06,3.5387166566087486e-05,1.0892743896308676e-06,7.363438621583866e-07,8.853146951494947e-07,1.9801538845166208e-06,1.558013986533706e-05,9.372961435635457e-07,1.3209645071475892e-06,1.2439995050161275e-05,1.1135006100731052e-06,1.205329565189796e-06,8.147996504757495e-07,1.6456550811770587e-06
102,1.4656957969011052e-06,1.942695489141639e-06,5.382894027043436e-06,3.5843258436831027e-05,1.0985701111494397e-06,7.409099811827319e-07,8.608556985234566e-07,2.053345312317929e-06,1.4497779534203954e-05,9.35775269385919e-07,1.3107609354248521e-06,1.2493259245906494e-05,1.1073161900102542e-06,1.2061355326748033e-06,8.017479260027655e-07,1.613317450532098e-06
103,1.4439518612983348e-06,1.909686140709486e-06,5.229078070874283e-06,3.6150822008399416e-05,1.1082151404838637e-06,7.487824484790684e-07,8.363828929985589e-07,2.133182462241743e-06,1.3466496756094683e-05,9.350668814482939e-07,1.298565268004455e-06,1.2534341201957973e-05,1.0996379330940383e-06,1.2043622594868477e-06,7.897436573159173e-07,1.5816073452161237e-06
104,1.4186402239212872e-06,1.8746416849440282e-06,5.067410434498178e-06,3.632289854777038e-05,1.1182401995481103e-06,7.596213672920238e-07,8.117725103425272e-07,2.2209230656404474e-06,1.2490003291954893e-05,9.350459140551129e-07,1.2849503936262023e-06,1.2575518503946458e-05,1.0901330829999998e-06,1.2000157321095604e-06,7.787602178202206e-07,1.5504716139138599e-06
105,1.3893671421345055e-06,1.8373352986935359e-06,4.900668046097321e-06,3.636949049997981e-05,1.128616844317965e-06,7.72987990118563e-07,7.870255682762896e-07,2.3178807037651976e-06,1.1570272784314784e-05,9.354473292549587e-07,1.270444092095811e-06,1.2628486973230388e-05,1.0786008079676295e-06,1.1930512715254613e-06,7.687976673799791e-07,1.5196090605033954e-06
106,1.3559676758740605e-06,1.7975356092254925e-06,4.731482967744422e-06,3.629551931363851e-05,1.1393373732070042e-06,7.88374712283769e-07,7.62423568234179e-07,2.425319340191516e-06,1.070776963593644e-05,9.358806635036752e-07,1.2555601656956435e-06,1.2702936997181228e-05,1.0649476890997858e-06,1.1835170389303619e-06,7.598706517707437e-07,1.488507607116786e-06
107,1.3187602655143082e-06,1.7552930924739409e-06,4.562204842177425e-06,3.610209509818061e-05,1.1504084209257264e-06,8.052328472177629e-07,7.385388523190964e-07,2.544234501193707e-06,9.901888165661758e-06,9.359183244478911e-07,1.2408244116279582e-06,1.280608719046184e-05,1.0492233903805094e-06,1.171671527017776e-06,7.520239930255047e-07,1.4566156578757858e-06
108,1.2785516232894778e-06,1.7110738242526015e-06,4.3947849263065145e-06,3.578915152956612e-05,1.161760874362755e-06,8.230231010061964e-07,7.160847112058482e-07,2.67517137087242e-06,9.151508548504082e-06,9.352887216713635e-07,1.226768565360615e-06,1.294268430429768e-05,1.031686590430161e-06,1.158002320868085e-06,7.4539459419586e-07,1.4235901711589515e-06
109,1.2364304736708791e-06,1.665669661329986e-06,4.230822847687531e-06,3.535765956180022e-05,1.1731666002576382e-06,8.412696573488691e-07,6.957474295426694e-07,2.8181757323193785e-06,8.455325758059102e-06,9.340483464103765e-07,1.2138712219862238e-06,1.3114922373517712e-05,1.0127501182985634e-06,1.1431044527545608e-06,7.402591932131962e-07,1.3894955153838926e-06
110,1.193545532368169e-06,1.6199873370970427e-06,4.071777123828478e-06,3.481101911522214e-05,1.1842334953811626e-06,8.595635217905899e-07,6.781091856682473e-07,2.972816440432202e-06,7.8116901058882e-06,9.325592536475108e-07,1.2025005316265518e-06,1.332249603092899e-05,9.928679667320282e-07,1.1275052096378117e-06,7.369966703335737e-07,1.3548566807690554e-06
111,1.1509652465262194e-06,1.5748890569079705e-06,3.9191860207158735e-06,3.4155701097872514e-05,1.194489702623282e-06,8.775210812489704e-07,6.636367475083809e-07,3.1381854563676263e-06,7.218536175290669e-06,9.312952352532285e-07,1.1929204350587923e-06,1.3563193485049145e-05,9.724940089882173e-07,1.1115761782562976e-06,7.35973385040201e-07,1.320538757101235e-06
112,1.109595840633358e-06,1.5311658888638057e-06,3.7747015202541955e-06,3.3401339126722575e-05,1.2035081021483972e-06,8.94770315051789e-07,6.526920453442994e-07,3.312871718120105e-06,6.67396734100422e-06,9.306444435599801e-07,1.1853091571333602e-06,1.3833922553174778e-05,9.520673878706818e-07,1.09555128158825e-06,7.374427774273675e-07,1.2875117130859929e-06
113,1.07012748299047e-06,1.4895656505591066e-06,3.6398780694196426e-06,3.2560626959166766e-05,1.2109864966300465e-06,9.110120585947783e-07,6.455513072443939e-07,3.49495875381138e-06,6.176805685153647e-06,9.308124280225564e-07,1.1797225970377726e-06,1.4131691781724924e-05,9.319861761313606e-07,1.0795640751564352e-06,7.415143386389099e-07,1.2566668175217475e-06
114,1.0330137408687201e-06,1.4507651399900737e-06,3.515953076641691e-06,3.164915393036725e-05,1.2167601695166138e-06,9.261153096208806e-07,6.424134111717827e-07,3.682046883216901e-06,5.726369313430855e-06,9.318098516211712e-07,1.1760447170813407e-06,1.4454096184862574e-05,9.125890050469862e-07,1.0636640874527236e-06,7.481852608296474e-07,1.2287789728778463e-06
115,9.984969990314502e-07,1.4152914510301908e-06,3.4038756376191376e-06,3.068493968139652e-05,1.2207808791033556e-06,9.401366087774017e-07,6.433983351430201e-07,3.871231316803225e-06,5.321870889776151e-06,9.334706467471066e-07,1.1739784326702002e-06,1.4799073156839881e-05,8.941277595399053e-07,1.0478876784478781e-06,7.574039145612588e-07,1.204513620014735e-06
116,9.666610305648866e-07,1.3834808921199616e-06,3.304449791882167e-06,2.9687371959284945e-05,1.2230541080967553e-06,9.532100680771389e-07,6.485517061224394e-07,4.058986338120167e-06,4.962052644690598e-06,9.355052542438292e-07,1.1730650082465585e-06,1.5164068145764447e-05,8.767531035198878e-07,1.0324145310270993e-06,7.691043343624134e-07,1.184398227942116e-06
117,9.374672566782664e-07,1.3555069219089155e-06,3.2183086759361035e-06,2.8675515648432264e-05,1.223531605200743e-06,9.654079500107223e-07,6.57840942813826e-07,4.241007001445016e-06,4.645133928280151e-06,9.376191278020766e-07,1.172759467416232e-06,1.5545008949659862e-05,8.605360678333805e-07,1.0176625159536523e-06,7.831875618540855e-07,1.16880144548933e-06
118,9.107695853062097e-07,1.3314084737218618e-06,3.145767737363219e-06,2.766610993464117e-05,1.2220431120616981e-06,9.76691488049587e-07,6.711434157053345e-07,4.4121548448938865e-06,4.36892065484499e-06,9.396405446133298e-07,1.172600208041585e-06,1.593562317211535e-05,8.454837163722359e-07,1.0042057769917888e-06,7.995204896949156e-07,1.1579456479006953e-06
119,8.863243767536153e-07,1.311057139794388e-06,3.086824911350153e-06,2.6671734185453087e-05,1.2183336185357854e-06,9.869519013848155e-07,6.882691534744056e-07,4.566672092355609e-06,4.131001825640764e-06,9.415687539260295e-07,1.1723551811619708e-06,1.6327765798575003e-05,8.315468766149672e-07,9.926134746412065e-07,8.179882507489031e-07,1.1519541290911652e-06
120,8.638075177112883e-07,1.2941019635865863e-06,3.0413343867448617e-06,2.5699542904280054e-05,1.2121708571033159e-06,9.96093513701126e-07,7.090257644488395e-07,4.698766421702634e-06,3.928899024404599e-06,9.435563690116407e-07,1.1719976423213936e-06,1.67129410392065e-05,8.186475719662359e-07,9.833468336052208e-07,8.385085180039483e-07,1.1509259867729803e-06
121,8.428688760604404e-07,1.2799770159914042e-06,3.009109355311694e-06,2.4750878303233177e-05,1.2034578190034252e-06,1.0041012432880067e-06,7.332752746232896e-07,4.803518421123428e-06,3.7600132938277653e-06,9.459114187973448e-07,1.171579597285307e-06,1.7084215240265818e-05,8.067080772828139e-07,9.767310290695642e-07,8.609564979974914e-07,1.1549621481593918e-06
122,8.232030357581265e-07,1.268005332423642e-06,2.9898381303253273e-06,2.3821915885027112e-05,1.1922881880568348e-06,1.0110243852001772e-06,7.609404840371373e-07,4.877811355976088e-06,3.6215688778112613e-06,9.491405244849127e-07,1.1711633835196917e-06,1.7437386549612336e-05,7.95693188848909e-07,9.72968759012084e-07,8.85089770131447e-07,1.1640900785415556e-06
123,8.04555272472789e-07,1.2575682968532214e-06,2.9829447981582227e-06,2.2905133507209565e-05,1.178903273425647e-06,1.0169089406360377e-06,7.919660379028526e-07,4.920820685272767e-06,3.5108816130301483e-06,9.53992503503012e-07,1.1708279725383e-06,1.7770788521096624e-05,7.856702611560959e-07,9.721836964564611e-07,9.105527393138813e-07,1.1781636631955583e-06
124,7.86658412655411e-07,1.2482737202685644e-06,2.987533810478344e-06,2.1991174861869837e-05,1.1635942425641439e-06,1.0217849682513939e-06,8.262595097246812e-07,4.933772729956062e-06,3.425787390589273e-06,9.614970150342376e-07,1.170659057007045e-06,1.8083758134535896e-05,7.768000974732615e-07,9.744699835696153e-07,9.369217723512366e-07,1.1968286758605201e-06
125,7.69187285920725e-07,1.2400481175820367e-06,3.0024327094486338e-06,2.107082945823441e-05,1.1466407691011797e-06,1.0256995285545797e-06,8.636308446767727e-07,4.919083277138589e-06,3.3648135761098755e-06,9.729950881313397e-07,1.170678630714877e-06,1.8374506781923135e-05,7.69248783098164e-07,9.799162398195114e-07,9.637188289919326e-07,1.219541648651711e-06
126,7.517595548743245e-07,1.233105932860879e-06,3.026250184682275e-06,2.013695050927303e-05,1.128311822681484e-06,1.0286979896500374e-06,9.037581441281144e-07,4.879367058238579e-06,3.3269843289733217e-06,9.901337785632735e-07,1.1707718447811118e-06,1.8638783806635116e-05,7.631327770200514e-07,9.885948449553779e-07,9.904366132064914e-07,1.2456259019412436e-06
127,7.339338767319096e-07,1.2278037666858108e-06,3.0573465177617935e-06,1.9185928981133254e-05,1.1088719658861146e-06,1.0307710773255217e-06,9.462032390290669e-07,4.816894824479041e-06,3.311446377054545e-06,1.0148095462762565e-06,1.170689073219797e-06,1.8870043862210268e-05,7.585107469279275e-07,1.0005257797381736e-06,1.0166682942900426e-06,1.2744197998064204e-06
128,7.152300725655948e-07,1.2244630963769888e-06,3.0937003892529026e-06,1.821832236279308e-05,1.0885419438276164e-06,1.0318700875767204e-06,9.904640285748864e-07,4.7336365512078695e-06,3.3172415519087552e-06,1.0490392125429284e-06,1.1701254993760929e-06,1.906000526481203e-05,7.553644379448774e-07,1.0156575250008778e-06,1.0422784908403406e-06,1.305469602541783e-06
129,6.952538948129534e-07,1.2232726291522244e-06,3.132761475114948e-06,1.7238607144909503e-05,1.0674476972573138e-06,1.03196468281061e-06,1.036041008030315e-06,4.631540719960397e-06,3.343347921710632e-06,1.0948019660811593e-06,1.1688205343527e-06,1.9198534495398138e-05,7.535855341749045e-07,1.0338707888739755e-06,1.0674435402636927e-06,1.3385808827101167e-06
130,6.738933681167167e-07,1.22429227032627e-06,3.171366619660809e-06,1.6254236747290782e-05,1.0456418972191427e-06,1.0310379067082807e-06,1.0825011874978188e-06,4.512715604141875e-06,3.388718194915926e-06,1.1539866961816709e-06,1.1666074333854302e-06,1.927396910771103e-05,7.529759100342319e-07,1.0549407167601618e-06,1.0925316593119532e-06,1.3736781553954163e-06
131,6.514382777155335e-07,1.2274957796193119e-06,3.205753992569068e-06,1.5274171457327096e-05,1.0231906492646695e-06,1.0290638176255368e-06,1.1295114506767179e-06,4.379404337523728e-06,3.452218220862863e-06,1.2284909355085182e-06,1.163376717029662e-06,1.927499713782425e-05,7.532499775614176e-07,1.0784674300061003e-06,1.117986484712776e-06,1.410644675912461e-06
132,6.285175201515302e-07,1.2328118566191056e-06,3.231760562852148e-06,1.4307148365950282e-05,1.000213605908065e-06,1.0260450571624055e-06,1.17681265712889e-06,4.23381489468356e-06,3.532658367578988e-06,1.3203164195008083e-06,1.158994093585594e-06,1.9192528325608968e-05,7.540670848859954e-07,1.1038516530998084e-06,1.1442994351515085e-06,1.4493192772258389e-06
133,6.059081028038058e-07,1.2401342978470025e-06,3.2452784250105643e-06,1.3360187192658509e-05,9.768416629056945e-07,1.022017864370318e-06,1.2241322087526091e-06,4.077992511921508e-06,3.6290101302205013e-06,1.4314963239931634e-06,1.1532633708795894e-06,1.90195278569335e-05,7.550760798890453e-07,1.1303135569924645e-06,1.171976452279011e-06,1.4896227200733917e-06
134,5.843812458290869e-07,1.2492841240419718e-06,3.2428840259227457e-06,1.2438036479942922e-05,9.531798584717747e-07,1.01696270960559e-06,1.271092463863903e-06,3.913858071926341e-06,3.740780648493941e-06,1.5639268498460017e-06,1.1459814822652736e-06,1.8749834959589952e-05,7.559359095154543e-07,1.1569284673825528e-06,1.2014877827137673e-06,1.53160238840423e-06
135,5.646681028845814e-07,1.2600252754321097e-06,3.222424923069459e-06,1.1543880971093292e-05,9.293310396096979e-07,1.0107286408160138e-06,1.317205750418481e-06,3.743351956413397e-06,3.868201563465035e-06,1.7192656007589385e-06,1.137035192405665e-06,1.8378924173580897e-05,7.563673909244589e-07,1.1827102262068344e-06,1.233263154929765e-06,1.5752944988092762e-06
136,5.474750764874153e-07,1.2722198349379467e-06,3.183345208757774e-06,1.0680724078463059e-05,9.054238078753006e-07,1.0030607684078696e-06,1.3619651467750788e-06,3.5685665401255898e-06,4.011895437253572e-06,1.8989017424996926e-06,1.1264560404545178e-06,1.790692429365305e-05,7.562452426389685e-07,1.2067399226265234e-06,1.2676725076106308e-06,1.6205669174805567e-06
137,5.334801358244827e-07,1.2859705004292144e-06,3.1266298641498615e-06,9.852560154675743e-06,8.81584562291633e-07,9.937067098367542e-07,1.4049353368553167e-06,3.3918379695015416e-06,4.17240027469133e-06,2.1039204882863264e-06,1.1143930055236163e-06,1.7340770983092114e-05,7.555996640757999e-07,1.2282868701585095e-06,1.3049643859551523e-06,1.6670988384297232e-06
138,5.23326785538004e-07,1.3015743315112482e-06,3.0544078006218025e-06,9.064805052195243e-06,8.579148635650771e-07,9.825504044888742e-07,1.4457834985846946e-06,3.215832665993197e-06,4.3499589828598735e-06,2.3350313970403573e-06,1.1010155878946955e-06,1.66933967964709e-05,7.544946466682162e-07,1.2468914724370964e-06,1.345229687348967e-06,1.7144495216380591e-06
139,5.176303801989689e-07,1.3193887035611615e-06,2.969364140722767e-06,8.32381870521063e-06,8.345423923888053e-07,9.69730663381081e-07,1.484303662017094e-06,3.0435969491787013e-06,4.544335481057783e-06,2.5924921750866725e-06,1.0864297438662552e-06,1.5981079863486018e-05,7.529258258559632e-07,1.2623771650912562e-06,1.3883856094092377e-06,1.7621284090411962e-06
140,5.16971816112582e-07,1.3397737653993139e-06,2.8741886728744844e-06,7.635850266495502e-06,8.116691437693527e-07,9.556853585942002e-07,1.5204780355791579e-06,2.8784363617508662e-06,4.754505816232764e-06,2.8760766189534804e-06,1.0707110588923592e-06,1.5220877696605917e-05,7.508236808631126e-07,1.2747418651286996e-06,1.434157717237022e-06,1.8096407364771974e-06
141,5.218748591875543e-07,1.363058368201479e-06,2.7713247605487224e-06,7.006182501079618e-06,7.895415653458542e-07,9.410769086925079e-07,1.5544946335230477e-06,2.7236092312822405e-06,4.978431938166683e-06,3.1850669526526276e-06,1.0540159838112973e-06,1.4428834750081849e-05,7.481032743611494e-07,1.2839652911115514e-06,1.48207809772639e-06,1.856481256041584e-06
142,5.327956119172508e-07,1.3894598007511527e-06,2.6630598301530742e-06,6.4388833234201614e-06,7.683907426763468e-07,9.266380920618324e-07,1.5866349327849338e-06,2.5820820586308606e-06,5.213012611938622e-06,3.5182247052037718e-06,1.0365938332986752e-06,1.3618907168422532e-05,7.446995836809347e-07,1.289886806373947e-06,1.5314826357860424e-06,1.9021249479979784e-06
143,5.501532213636687e-07,1.419024033042481e-06,2.551681915418083e-06,5.936878791874133e-06,7.483957474307916e-07,9.130357810669523e-07,1.617119566618318e-06,2.4564876365145104e-06,5.454181310538976e-06,3.8737962144092974e-06,1.0186779821689444e-06,1.2802676784953101e-05,7.405971491658984e-07,1.2922531625874104e-06,1.5815225413138144e-06,1.9461710544501768e-06
144,5.744004510190264e-07,1.451615331363012e-06,2.439467892867396e-06,5.502152823742425e-06,7.296839577157633e-07,9.008017930971884e-07,1.6460839990815708e-06,2.349109015615327e-06,5.697134450142219e-06,4.249627330831803e-06,1.0004618863948885e-06,1.198968040163714e-05,7.358443195198837e-07,1.2908693950986902e-06,1.6312628438108248e-06,1.9886121728615257e-06
145,6.060681070700642e-07,1.486909486284771e-06,2.3285287066457406e-06,5.136125638312357e-06,7.123871705753506e-07,8.903136555529651e-07,1.6736617750581332e-06,2.2618090395672922e-06,5.936668656170365e-06,4.643295555768074e-06,9.822401449068164e-07,1.1187745876209752e-05,7.305531621224959e-07,1.2857521298575579e-06,1.6798839779013123e-06,2.0299350028435414e-06
146,6.457295276610916e-07,1.5243743225681166e-06,2.2206483439026323e-06,4.840057726681615e-06,6.967229949560313e-07,8.818012868759545e-07,1.699975399969105e-06,2.1960116126405327e-06,6.167633521785121e-06,5.0520600027965115e-06,9.645213303540635e-07,1.040305285335958e-05,7.249227461779188e-07,1.2772359386157169e-06,1.7268951224529604e-06,2.0709082398588993e-06
147,6.939417498688437e-07,1.5632974149802302e-06,2.1172028177105723e-06,4.615352947644083e-06,6.830127281103039e-07,8.753570839385071e-07,1.724989935440353e-06,2.15274430209315e-06,6.385456511271918e-06,5.472605716885116e-06,9.47954444912203e-07,9.640150443017354e-06,7.192332861102357e-07,1.2659626117771545e-06,1.7721932359566349e-06,2.1122517820733123e-06
148,7.51231740840177e-07,1.602926434815924e-06,2.0191437134680953e-06,4.463841100063539e-06,6.716096844677211e-07,8.709413109269145e-07,1.7484069025295969e-06,2.1327054791723322e-06,6.586471847371558e-06,5.9008281315672715e-06,9.33153976602421e-07,8.902163290995645e-06,7.137626913891369e-07,1.2527106080098902e-06,1.8158868002806218e-06,2.1544310252567012e-06
149,8.181019439345973e-07,1.6426594483262687e-06,1.9269904965351776e-06,4.388039197252124e-06,6.628080758181102e-07,8.684079986364675e-07,1.7697321437778545e-06,2.136355927797019e-06,6.76767532594825e-06,6.3317785009757655e-06,9.205880129358169e-07,8.191179077055292e-06,7.086967179563146e-07,1.2381801640082102e-06,1.8580447565572037e-06,2.1976121480887576e-06
150,8.950260335353757e-07,1.6821586615744103e-06,1.8408414129884668e-06,4.391255806696346e-06,6.567951383184641e-07,8.675573491737716e-07,1.7884599424667927e-06,2.164014050081636e-06,6.925984235603743e-06,6.7596442447537725e-06,9.105875189668933e-07,7.508668473938926e-06,7.040998563948143e-07,1.2228775977403478e-06,1.8985924896564534e-06,2.241646219572788e-06
151,9.824459341019585e-07,1.7213409701420033e-06,1.7604582313024798e-06,4.477416839794332e-06,6.536503930588785e-07,8.681690519546945e-07,1.8042169978261809e-06,2.2159374842092085e-06,7.057697974506071e-06,7.177923490916882e-06,9.034275655054891e-07,6.8558191490945776e-06,6.999728507534296e-07,1.2070844916266437e-06,1.937362974944856e-06,2.286019250181857e-06
152,1.0807577172936072e-06,1.7602622145978586e-06,1.6854165250580013e-06,4.650628676693179e-06,6.533656271721941e-07,8.699901946795087e-07,1.816781901637724e-06,2.292381828968497e-06,7.158546152538982e-06,7.580061565375625e-06,8.993811020829953e-07,6.2337459364192626e-06,6.963832868412099e-07,1.1908417982974105e-06,1.9741562855105553e-06,2.32989395377432e-06
153,1.1903061645694545e-06,1.7989556819263609e-06,1.6152490371136633e-06,4.9147571198174934e-06,6.558646272644479e-07,8.727325686135176e-07,1.8260319848130262e-06,2.3935890191485394e-06,7.223942992891299e-06,7.960197080515234e-06,8.986869744903586e-07,5.643564754462129e-06,6.935534781476957e-07,1.1739614296265931e-06,2.008707564683844e-06,2.3723378902150013e-06
154,1.3114460831156573e-06,1.8373239985875404e-06,1.5495370740327194e-06,5.27331110447841e-06,6.610190676607148e-07,8.7611296197433e-07,1.831893250098599e-06,2.5196664016195116e-06,7.249180367938532e-06,8.313464906117125e-06,9.014941995346971e-07,5.086376850117367e-06,6.91807610787189e-07,1.1561364227157657e-06,2.0406072555786266e-06,2.41256525581628e-06
155,1.4446339439573873e-06,1.8751104722605968e-06,1.4879648596398615e-06,5.72950092458293e-06,6.68645187702443e-07,8.798649475522157e-07,1.8342804369475695e-06,2.670423309772617e-06,7.229870793747422e-06,8.635892784601951e-06,9.078715183256783e-07,4.563273495971725e-06,6.914541076713217e-07,1.1371534822950842e-06,2.0693044435458737e-06,2.4499414855734537e-06
156,1.590453546317252e-06,1.9119196330702316e-06,1.430369153026369e-06,6.286127426550638e-06,6.784813332565311e-07,8.836913067574664e-07,1.8330220988028654e-06,2.8452624857106605e-06,7.1629037248893744e-06,8.924224769792528e-06,9.178686819208545e-07,4.07536214641998e-06,6.927202922663881e-07,1.11707251868433e-06,2.094226059160821e-06,2.483795172544346e-06
157,1.7495625346054915e-06,1.947339640807575e-06,1.3767788622652542e-06,6.9452344700689975e-06,6.90203864968891e-07,8.872562792170852e-07,1.8278772695906131e-06,3.043129098451534e-06,7.047499717863567e-06,9.175685214302802e-06,9.315492026371535e-07,3.6236540357172895e-06,6.957506811024607e-07,1.0962325116444598e-06,2.114919472793389e-06,2.5133207798983973e-06
158,1.9226299930279723e-06,1.9811482802092457e-06,1.3273989408116312e-06,7.707771636809146e-06,7.035061336611659e-07,8.902780968709869e-07,1.8186706841165708e-06,3.26250110901281e-06,6.885382095614281e-06,9.387444018412287e-06,9.489525216070235e-07,3.2087767694796764e-06,7.006333174346908e-07,1.0750923547359756e-06,2.131151787209247e-06,2.5376984164241077e-06
159,2.110315938403579e-06,2.01338528075239e-06,1.2825178297721357e-06,8.573451319398382e-06,7.1816406819037e-07,8.926237372898517e-07,1.8053911005166317e-06,3.5013890908211104e-06,6.679772128811284e-06,9.555894259295525e-06,9.700167348183632e-07,2.830737514029305e-06,7.074121531557399e-07,1.0540580573749148e-06,2.1429647087518704e-06,2.556313052460541e-06
160,2.3132454710546595e-06,2.0441875805538364e-06,1.2423835446029468e-06,9.540665547431506e-06,7.340118697133831e-07,8.942947736899824e-07,1.7881692961103035e-06,3.7572711545429263e-06,6.434526996038984e-06,9.676474293534899e-06,9.945160514554262e-07,2.4889248239368828e-06,7.160664961678701e-07,1.0334348232015084e-06,2.1506824888373632e-06,2.568918048213846e-06
161,2.531892657975727e-06,2.073565282066932e-06,1.2071107330896183e-06,1.0606295461396968e-05,7.508593231354605e-07,8.953272932752983e-07,1.767221282733368e-06,4.027035239060211e-06,6.1544549522850725e-06,9.744571352635607e-06,1.0220325574754453e-06,2.1822950189075837e-06,7.264825883400529e-07,1.0134929504059303e-06,2.154834286612321e-06,2.5756094450028513e-06
162,2.7663915171928473e-06,2.1013136476558442e-06,1.1766315903031477e-06,1.1765488998702477e-05,7.684365487557508e-07,8.95712911616948e-07,1.7428317924594455e-06,4.307036832586189e-06,5.845805856377723e-06,9.757043749459545e-06,1.0519518313029042e-06,1.9095886084110194e-06,7.384487779916027e-07,9.945624588594724e-07,2.1559630945658345e-06,2.5765708801759057e-06
163,3.016382050044086e-06,2.1270803168776376e-06,1.1506656679748995e-06,1.301153620801252e-05,7.863863049542938e-07,8.954139569730369e-07,1.7153681563340294e-06,4.5931340369991485e-06,5.5158551365421924e-06,9.7134182953892e-06,1.0834781125977978e-06,1.6694563764638458e-06,7.517106412762205e-07,9.770960339107712e-07,2.1543833084186868e-06,2.571772427358144e-06
164,3.2809754744500983e-06,2.1505028614217763e-06,1.12871860730312e-06,1.4335829153136481e-05,8.042709234626625e-07,8.944223713829289e-07,1.6852744634147772e-06,4.880596856699314e-06,5.172000171414183e-06,9.61617156879746e-06,1.115678247026412e-06,1.460448637337281e-06,7.66053063031915e-07,9.616479386305983e-07,2.150004727218465e-06,2.560829148945349e-06
165,3.5588619068562648e-06,2.1713381749342846e-06,1.1101616593660886e-06,1.5727829535194676e-05,8.216041735512805e-07,8.927452457680877e-07,1.652995810721754e-06,5.164071336918151e-06,4.8210863353987945e-06,9.470073469399563e-06,1.1475385180964438e-06,1.2809344465458438e-06,7.812950651626259e-07,9.487696315357401e-07,2.1422800364592835e-06,2.5430492335525385e-06
166,3.848497246394393e-06,2.1895197722508684e-06,1.0943935825103088e-06,1.7175048379402363e-05,8.379471607699268e-07,8.90309654237751e-07,1.6188527871833716e-06,5.437657673806034e-06,4.469097256383978e-06,9.280943436718716e-06,1.1779902308294493e-06,1.1290632184702588e-06,7.972129196064306e-07,9.389157064190378e-07,2.130284277861937e-06,2.5176902745606373e-06
167,4.148230060997988e-06,2.2050910807884743e-06,1.0809983958220903e-06,1.8663080250892473e-05,8.530353589098333e-07,8.868861858623529e-07,1.5829650962888198e-06,5.6948970645290405e-06,4.121066183054773e-06,9.054372232688735e-06,1.2059363541975547e-06,1.0027940219377305e-06,8.135433092452602e-07,9.32416404429156e-07,2.1129611458171627e-06,2.48442004240673e-06
168,4.456254782100771e-06,2.2180229985660467e-06,1.06980478585882e-06,2.0175613839314633e-05,8.668239330272423e-07,8.821044512948381e-07,1.5452634723550643e-06,5.928769405725163e-06,3.7810960053908014e-06,8.795232500566601e-06,1.230395607617798e-06,8.999457992557899e-07,8.301033773378183e-07,9.294730936797665e-07,2.0895048047585715e-06,2.4437346961353182e-06
169,4.770398196881312e-06,2.2280077596540513e-06,1.0608129435693414e-06,2.1694258905330327e-05,8.793878402482017e-07,8.75582981096767e-07,1.5055523696563977e-06,6.13223333653546e-06,3.4524251741767176e-06,8.508321939285427e-06,1.2507550625832243e-06,8.182595518824086e-07,8.468829110209119e-07,9.301631637999982e-07,2.059694244100986e-06,2.3970099561496027e-06
170,5.087933254565685e-06,2.2343682607598934e-06,1.0540396650896322e-06,2.319812800838649e-05,8.907625394451948e-07,8.671270595012332e-07,1.4636468871662044e-06,6.299485182015161e-06,3.137506074613656e-06,8.199239882387362e-06,1.266933994746726e-06,7.554879982706213e-07,8.639936001272151e-07,9.344683174490143e-07,2.0240039684267623e-06,2.3461603569263197e-06
171,5.405597500572317e-06,2.2361722357478065e-06,1.049414960602933e-06,2.4663156026269284e-05,9.008728370667054e-07,8.568556102191055e-07,1.4195946499120714e-06,6.427308711073527e-06,2.8381157186021282e-06,7.874530982204163e-06,1.27929630816954e-06,7.094579751424058e-07,8.815630416721199e-07,9.422732885834166e-07,1.9834913024065484e-06,2.2931752395807842e-06
172,5.719660387983637e-06,2.2325173936240453e-06,1.0468128112106995e-06,2.606147948598558e-05,9.09587879082146e-07,8.451599222451219e-07,1.3738273334900217e-06,6.515637370376576e-06,2.555517739375517e-06,7.541205798428368e-06,1.2883631010181393e-06,6.78048189229083e-07,8.996848769795119e-07,9.533116496135875e-07,1.939575782874853e-06,2.23980239442135e-06
173,6.025903270088107e-06,2.222869591742291e-06,1.0461433720325464e-06,2.7362263308746568e-05,9.168086595018507e-07,8.325715294892107e-07,1.3270796548514952e-06,6.5669627224987195e-06,2.290628787389875e-06,7.206140518225327e-06,1.294557863541539e-06,6.591744723010655e-07,9.183863958505877e-07,9.671309112141016e-07,1.8938003666765714e-06,2.1874905553492723e-06
174,6.319792812578422e-06,2.2073141817719597e-06,1.047396096062742e-06,2.853525439101742e-05,9.224962653661776e-07,8.196698010668847e-07,1.2801630828405762e-06,6.584949545320248e-06,2.0440996462441346e-06,6.8755184197741115e-06,1.2981745873595773e-06,6.509091620171703e-07,9.375870357185581e-07,9.83129612853604e-07,1.8476211989780852e-06,2.137494254663829e-06
175,6.596969317633438e-06,2.1866126963414697e-06,1.0505974347216521e-06,2.955596316359169e-05,9.266284584679873e-07,8.070396924437741e-07,1.2338187701194984e-06,6.573024692749925e-06,1.816293354580208e-06,6.5543625074155755e-06,1.2994964906654272e-06,6.516522904498798e-07,9.571008748542104e-07,1.0006405077360423e-06,1.8022860797337045e-06,2.09091559325438e-06
176,6.853598514139456e-06,2.1620614278070606e-06,1.0557075477144906e-06,3.040965612257073e-05,9.291323991907884e-07,7.952372634137265e-07,1.1886980158452966e-06,6.533555626115119e-06,1.6072786710901547e-06,6.246318827169596e-06,1.2988353054989518e-06,6.601488437974215e-07,9.766966586637698e-07,1.0189882780475966e-06,1.7588457321104485e-06,2.048618817951078e-06
177,7.0861493814583135e-06,2.1352453487966337e-06,1.0625154518678276e-06,3.109220023982e-05,9.298848182036657e-07,7.847629906760043e-07,1.145351731986256e-06,6.467671800574778e-06,1.4169125807525047e-06,5.953766502040272e-06,1.2964389253649207e-06,6.753354468221506e-07,9.961816040873554e-07,1.0374815214385242e-06,1.7182232492069993e-06,2.0111898665555056e-06
178,7.290854252517102e-06,2.107783202513604e-06,1.0705822915935865e-06,3.160749631338892e-05,9.28824052014335e-07,7.76034132221648e-07,1.104173462079448e-06,6.375448016671888e-06,1.2449138656000592e-06,5.67821272820262e-06,1.2924460321351107e-06,6.961987732527183e-07,1.0154502926324178e-06,1.0554167400170896e-06,1.6812208384259867e-06,1.9790379353804145e-06
179,7.463759610466718e-06,2.081109566825753e-06,1.0792444432283884e-06,3.1962803779229945e-05,9.260842295615086e-07,7.693466334580288e-07,1.0653474305465005e-06,6.256368647963562e-06,1.0908632781380547e-06,5.4209262899918925e-06,1.286984975044226e-06,7.217239993340446e-07,1.0344616586625787e-06,1.0721618621692425e-06,1.6484848042217034e-06,1.9524973950807827e-06
180,7.601814264506849e-06,2.056325748294688e-06,1.087698107817593e-06,3.216515659017321e-05,9.220433784056009e-07,7.648544034076235e-07,1.0288560160062368e-06,6.110074812774227e-06,9.542283384455986e-07,5.183611149601351e-06,1.2803071992060753e-06,7.508532115012759e-07,1.0532232151881158e-06,1.0872212605095974e-06,1.6204866868505695e-06,1.9317875802289625e-06
181,7.704171820401471e-06,2.0341624173506105e-06,1.0952002394876917e-06,3.222156366510483e-05,9.17285583139042e-07,7.625908765324521e-07,9.945295594351095e-07,5.937079940457735e-06,8.344777098362936e-07,4.968720326289251e-06,1.2728567189642333e-06,7.824347127120098e-07,1.0718195215584993e-06,1.1002007320377535e-06,1.597475603759518e-06,1.9169369946696964e-06
182,7.772676955814031e-06,2.015059807614061e-06,1.1013272433797096e-06,3.214161174693922e-05,9.125357148139498e-07,7.625178159767699e-07,9.620820578460488e-07,5.739081752887043e-06,7.311858827270956e-07,4.779208631632317e-06,1.2652967281571218e-06,8.152356095779028e-07,1.0903695143051537e-06,1.1107653299743851e-06,1.5793971115411415e-06,1.9078474923919146e-06
183,7.811416928969848e-06,1.999304395130233e-06,1.1061198211616292e-06,3.193887699228842e-05,9.085928408260197e-07,7.64551356779687e-07,9.311533513568116e-07,5.518877930454354e-06,6.440176115582411e-07,4.618004040688545e-06,1.2585154738936109e-06,8.480581774282852e-07,1.1088996520970582e-06,1.118680700415801e-06,1.5658440935291848e-06,1.9044308831887308e-06
184,7.825713458600843e-06,1.9871342501163437e-06,1.1099994804788938e-06,3.162936891150207e-05,9.062504525812109e-07,7.685593416211073e-07,9.01418906929685e-07,5.280109643671123e-06,5.72629122707725e-07,4.4875858368486515e-06,1.2535735314762995e-06,8.799426578608738e-07,1.1272585350745317e-06,1.1238994752784499e-06,1.5560736678065671e-06,1.906623867510918e-06
185,7.820903390089684e-06,1.97876070751281e-06,1.1135323038457804e-06,3.1228210906852136e-05,9.062130562548996e-07,7.743769289212198e-07,8.727028677254784e-07,5.0269474544193335e-06,5.166124094655897e-07,4.389790212154806e-06,1.2515775760271821e-06,9.103842337566226e-07,1.1451244723820977e-06,1.1266184766102521e-06,1.5490817370248202e-06,1.914249720192553e-06
186,7.801344449437049e-06,1.9743305133460578e-06,1.1172159234858625e-06,3.0747756712099315e-05,9.090467492834735e-07,7.818261942713272e-07,8.449742115349953e-07,4.7637646143939844e-06,4.755209191250816e-07,4.32584715771249e-06,1.253550322322218e-06,9.394252190731127e-07,1.1620688334544264e-06,1.1272419711931676e-06,1.543696392036219e-06,1.926879842749432e-06
187,7.770028053655317e-06,1.9739022781561224e-06,1.1213826303510779e-06,3.01985265046828e-05,9.151644259963934e-07,7.906922431274366e-07,8.18261341109259e-07,4.494864161859434e-06,4.489023098408248e-07,4.296549955427472e-06,1.2603840348102896e-06,9.675272118205117e-07,1.177632318904579e-06,1.1262243621798446e-06,1.5386954250874307e-06,1.9438031222075396e-06
188,7.728747758570012e-06,1.9774823045995434e-06,1.1261807810087579e-06,2.9590413363818116e-05,9.248118805929445e-07,8.006847958166552e-07,7.926160332130455e-07,4.224269798661937e-06,4.363199074042109e-07,4.302352496969856e-06,1.2728990495544633e-06,9.95307967922874e-07,1.191396751464085e-06,1.1238846723712082e-06,1.533030479100788e-06,1.9640589457591347e-06
189,7.678446607819447e-06,1.985086130986126e-06,1.131586593826534e-06,2.8931861702451545e-05,9.380594507790757e-07,8.114533684367657e-07,7.681371646767684e-07,3.955523758902064e-06,4.37410380822394e-07,4.343477950377168e-06,1.2919637619834294e-06,1.023319586620517e-06,1.2030486188217756e-06,1.1203212192060044e-06,1.526141713162112e-06,1.986552918716804e-06
190,7.619436480796874e-06,1.996735511586444e-06,1.1374695479607277e-06,2.8228545629608838e-05,9.548298580149053e-07,8.226668489417799e-07,7.449683925814357e-07,3.691493161354336e-06,4.519395034317976e-07,4.4202423333319765e-06,1.3185753125508977e-06,1.051959653388421e-06,1.2124163997687278e-06,1.115468528034797e-06,1.518149095988516e-06,2.010306947033988e-06
191,7.55136913452247e-06,2.012341562971853e-06,1.1437044624218673e-06,2.748415115675261e-05,9.74935202324129e-07,8.340878928368534e-07,7.232460453612603e-07,3.4343082684523806e-06,4.798122736127166e-07,4.533330419532237e-06,1.3538097089499692e-06,1.0815094630023667e-06,1.2194714638654642e-06,1.1092625949388072e-06,1.5097436707706716e-06,2.0346419639498067e-06
192,7.472982403557889e-06,2.0315545333493925e-06,1.1502203632986766e-06,2.670298490218437e-05,9.980648245604265e-07,8.455624261447366e-07,7.030475500318444e-07,3.1855258111744536e-06,5.211181058509856e-07,4.683607156050881e-06,1.3987017464128267e-06,1.1122387338655693e-06,1.2242986297924214e-06,1.1018080528981607e-06,1.501866949522656e-06,2.0590894873928196e-06
193,7.381877872710631e-06,2.0537315700862016e-06,1.1569340563282828e-06,2.5892048069703517e-05,1.0237369248014991e-06,8.569364938155477e-07,6.844023709392755e-07,2.9464215556032427e-06,5.762398348497929e-07,4.871571686081693e-06,1.4541722038075246e-06,1.1444650049322357e-06,1.2270223307867096e-06,1.0934295197059944e-06,1.4954094185576117e-06,2.0832458788422193e-06
194,7.274730126503267e-06,2.0780698283171544e-06,1.1636820804542032e-06,2.506124417985705e-05,1.0512635886834167e-06,8.680112585438879e-07,6.673765488965386e-07,2.718229255041251e-06,6.45889144229782e-07,5.096884257757802e-06,1.5209982994224846e-06,1.178505402435465e-06,1.2277164440640796e-06,1.0846051156157322e-06,1.4910566110402477e-06,2.1068605733076035e-06
195,7.1480291620455345e-06,2.103784483730082e-06,1.1702403582255402e-06,2.4222120586558652e-05,1.0797479634283836e-06,8.785950567082561e-07,6.521564891111641e-07,2.502229453913872e-06,7.309906256767272e-07,5.358128084101244e-06,1.5997974411321253e-06,1.2145865392935695e-06,1.2263779316613823e-06,1.0758598992877388e-06,1.4892462871150533e-06,2.13003422809568e-06
196,6.999018942186603e-06,2.1301868698324645e-06,1.1763741510914349e-06,2.338615078292179e-05,1.1081587145181076e-06,8.885710446023814e-07,6.390450618009523e-07,2.2997076244118095e-06,8.325362782765572e-07,5.652696050166278e-06,1.691010511876562e-06,1.2527854875336833e-06,1.2229527287752903e-06,1.0676595136803692e-06,1.4901399217590315e-06,2.153264402541485e-06
197,6.826428306108221e-06,2.1566297803395233e-06,1.1818598397818863e-06,2.256331295979146e-05,1.135518933467554e-06,8.979086263779736e-07,6.283728746380794e-07,2.111862113105986e-06,9.515435586951175e-07,5.9767603472229776e-06,1.7948420461084973e-06,1.2930232610753575e-06,1.2173669455638483e-06,1.0603176614707492e-06,1.4935759072091076e-06,2.1773079373307572e-06
198,6.630788122004777e-06,2.182376353485198e-06,1.1865002603485455e-06,2.1761279434485686e-05,1.1611028855948371e-06,9.066539720423641e-07,6.204155152078087e-07,1.939724522763733e-06,1.0890799070989817e-06,6.32551621914588e-06,1.9111860893972087e-06,1.3351243847935221e-06,1.2095951081312375e-06,1.0539536925892378e-06,1.4990458209072931e-06,2.2029487774429033e-06
199,6.4143205199582155e-06,2.2065113163085575e-06,1.1901711490604916e-06,2.0985253716044942e-05,1.1844607002479249e-06,9.14937632203069e-07,6.153741768213677e-07,1.784090676174426e-06,1.246246340040068e-06,6.693925614677569e-06,2.039597326243382e-06,1.3788913337333495e-06,1.1997257586830952e-06,1.0485289890992706e-06,1.5057202211842947e-06,2.2307952174120004e-06
200,6.1805332234894625e-06,2.2280303528685286e-06,1.1929084610550437e-06,2.0238247794290785e-05,1.2052667857279857e-06,9.229852856638527e-07,6.133821641394123e-07,1.6454425584540833e-06,1.4241169780985515e-06,7.077752343641077e-06,2.179281013620314e-06,1.4241111823260943e-06,1.1879374483660518e-06,1.0439281711502078e-06,1.5124964298235536e-06,2.2612115201528957e-06
201,5.933711329716617e-06,2.2460688641495624e-06,1.1949944073511885e-06,1.9521278820837412e-05,1.2232028448158377e-06,9.311118052685852e-07,6.144997357862933e-07,1.5238934925894774e-06,1.6236913789240578e-06,7.4742517572852705e-06,2.3290654068624e-06,1.4705073725222515e-06,1.1744316081626212e-06,1.0400128592163722e-06,1.518057900364204e-06,2.294349560061782e-06
202,5.678436501700006e-06,2.2600565800476247e-06,1.1969512156526172e-06,1.8833043087986915e-05,1.237993372825056e-06,9.396829838547862e-07,6.187062223016459e-07,1.4192057660004308e-06,1.8458401712615787e-06,7.882088592908776e-06,2.4873762463441145e-06,1.5177009519753464e-06,1.1593645622648438e-06,1.0366139033040502e-06,1.521012447269962e-06,2.330234429483591e-06
203,5.419176302165111e-06,2.269706988791906e-06,1.1994043397885098e-06,1.8169478184561014e-05,1.2494700033805581e-06,9.490457978325657e-07,6.25891405382432e-07,1.3308577290572399e-06,2.0912335004036095e-06,8.300610845441027e-06,2.6522528677797025e-06,1.5651863236428585e-06,1.1427648045296176e-06,1.0334826068050438e-06,1.5201478687061918e-06,2.3689106995934265e-06
204,5.1599782897197e-06,2.274950821346171e-06,1.2029197282535027e-06,1.7524213823267503e-05,1.2575682558803222e-06,9.594679039015986e-07,6.358365256603137e-07,1.258089470632551e-06,2.360414164153036e-06,8.728889080902113e-06,2.8214133462965836e-06,1.6123128608756147e-06,1.1245344562154888e-06,1.0302802417374014e-06,1.5147121059040798e-06,2.4105216634787925e-06
205,4.904324238006575e-06,2.2759274858348642e-06,1.2079430898533781e-06,1.6890110071816058e-05,1.2623209420362737e-06,9.711050886679672e-07,6.482019509778951e-07,1.1999114765766993e-06,2.6541585803077347e-06,9.164959429847158e-06,2.992290384931292e-06,1.6583569735930325e-06,1.104636512649342e-06,1.0266829197174532e-06,1.5045780485672645e-06,2.4551655166507196e-06
206,4.655138489075618e-06,2.2730455305023933e-06,1.2148293997979222e-06,1.6261072427577505e-05,1.2638818895430292e-06,9.839803915115187e-07,6.625474399307945e-07,1.1551200924830792e-06,2.973952695361795e-06,9.60566673145266e-06,3.1619489418862283e-06,1.7027583253486753e-06,1.0833395570705569e-06,1.0225440192260833e-06,1.4901962284248014e-06,2.502641179061189e-06
207,4.414827431949992e-06,2.2670060938339578e-06,1.2238634046268335e-06,1.5633404374087733e-05,1.2625076433442086e-06,9.979842457436548e-07,6.783765885586221e-07,1.1223515644680409e-06,3.322266728197194e-06,1.0047122728919808e-05,3.326935304040872e-06,1.7454045137400874e-06,1.0612545171868146e-06,1.017990023218554e-06,1.4723385762678486e-06,2.5522981872829446e-06
208,4.185220062266407e-06,2.2586613982738983e-06,1.2352190024165756e-06,1.5006372309431992e-05,1.258487866896747e-06,1.0128897569979003e-06,6.952026236340671e-07,1.1001467338201207e-06,3.7025346358050757e-06,1.0485203555853587e-05,3.4831814949066797e-06,1.7867545655235706e-06,1.0391213239360808e-06,1.0134079825130665e-06,1.451801308374073e-06,2.603014750244403e-06
209,3.967458490847493e-06,2.2487839228827365e-06,1.248892793947069e-06,1.4381881504856912e-05,1.2521240757733468e-06,1.0283548613938015e-06,7.12633457580109e-07,1.086989907707234e-06,4.1189530406417424e-06,1.0915443096814898e-05,3.626024254336073e-06,1.8277012906569299e-06,1.0175820349327616e-06,1.0093459112034177e-06,1.4292817554773994e-06,2.6532895462282996e-06
210,3.7620056318489616e-06,2.237971831722643e-06,1.26466946867122e-06,1.3763389169891405e-05,1.243766556085304e-06,1.0439450492778212e-06,7.303993749132475e-07,1.0813817499832084e-06,4.576187254988266e-06,1.1332307704467823e-05,3.7504561823330347e-06,1.8692582044079455e-06,9.971010465704908e-07,1.0063710946066448e-06,1.4054376941489523e-06,2.7015004529814e-06
211,3.568776311817125e-06,2.226729740151692e-06,1.2821434663702168e-06,1.315438167573738e-05,1.2338141745574568e-06,1.0592181341493705e-06,7.482749135559238e-07,1.0819895717838387e-06,5.078991027178863e-06,1.172850790369283e-05,3.851780104828643e-06,1.912284657174405e-06,9.779762449532272e-07,1.0049417672269963e-06,1.3809274917314789e-06,2.746258401645872e-06
212,3.3872359445976456e-06,2.215555380308211e-06,1.300803230960669e-06,1.2557088392616967e-05,1.222663679854912e-06,1.0737949524603858e-06,7.659708741311794e-07,1.0877595107293712e-06,5.631773446362887e-06,1.2095088654070566e-05,3.926467387595987e-06,1.9574060196624234e-06,9.60349641711481e-07,1.0053251518997775e-06,1.356322438671695e-06,2.786666874605787e-06
213,3.2164133421608314e-06,2.2049252768558413e-06,1.3201361000815286e-06,1.1972174159037606e-05,1.2106606523688857e-06,1.0873179451318436e-06,7.830756698683471e-07,1.0978883203643556e-06,6.238210703682409e-06,1.24226928248398e-05,3.972620315900827e-06,2.005084441672773e-06,9.44219791818728e-07,1.0075694930268474e-06,1.3320076232906455e-06,2.8223687741604876e-06
214,3.0549341126561183e-06,2.1952291782943075e-06,1.3396692535723832e-06,1.1399343193293578e-05,1.1980726363343034e-06,1.0993729925436375e-06,7.990696643094124e-07,1.111718780820506e-06,6.900964761379969e-06,1.2703742797934687e-05,3.989660128758438e-06,2.0556649266852354e-06,9.294852150925961e-07,1.0115271392798593e-06,1.3081877384316705e-06,2.8533756157563185e-06
215,2.901194303798093e-06,2.1867358246968473e-06,1.3589311400757806e-06,1.0838096849873287e-05,1.1851062934509721e-06,1.109531216157855e-06,8.134154469693193e-07,1.1286605130589866e-06,7.621495982576124e-06,1.2934429850709462e-05,3.977563203593867e-06,2.109313597740336e-06,9.159774786122296e-07,1.016922741471258e-06,1.284968903428686e-06,2.879783227328639e-06
216,2.7537015623563492e-06,2.1795819871411752e-06,1.3773979616801599e-06,1.0288177832620725e-05,1.171979656057363e-06,1.1175213270040847e-06,8.256814195326199e-07,1.1481404569988694e-06,8.40002470830023e-06,1.311527692946157e-05,3.93646130417906e-06,2.165923933935721e-06,9.034562357300193e-07,1.0234316724279352e-06,1.2624485357480016e-06,2.901538426368425e-06
217,2.6114797679781383e-06,2.1737190783404183e-06,1.3944551231983687e-06,9.749737359790004e-06,1.158987320013335e-06,1.1234083183087389e-06,8.356283122065093e-07,1.1695366811885768e-06,9.235689495772686e-06,1.3249858167724958e-05,3.867016290456311e-06,2.225051058643846e-06,8.916411228348427e-07,1.0306996655244664e-06,1.2407726446844593e-06,2.918324354975128e-06
218,2.4743354683942753e-06,2.1688434199093483e-06,1.4093539061848917e-06,9.22335338794826e-06,1.1464923792068793e-06,1.127648403764323e-06,8.432299376077376e-07,1.192110144308367e-06,1.0126655773434193e-05,1.3342507695461294e-05,3.771087170899452e-06,2.2858824280151956e-06,8.80328283123576e-07,1.038285422952108e-06,1.2201217034760154e-06,2.9296078170238628e-06
219,2.3428326557254433e-06,2.1644367162888833e-06,1.4212138036531376e-06,8.709899577166709e-06,1.1348671641175614e-06,1.130970953768386e-06,8.486513480002065e-07,1.2150283771510755e-06,1.1069960341161901e-05,1.3396972574361108e-05,3.6519846920281887e-06,2.3472970734002856e-06,8.695100917882117e-07,1.0456170137705535e-06,1.2006471938055328e-06,2.9349828874362416e-06
220,2.2180111862648184e-06,2.159943156768408e-06,1.4291742232923356e-06,8.210183800915566e-06,1.1244301729790375e-06,1.1341806239698739e-06,8.52212582038452e-07,1.237523756964569e-06,1.2061485440902227e-05,1.3417148812374367e-05,3.5140961145859897e-06,2.40800010659384e-06,8.593976573509255e-07,1.0520704193053916e-06,1.1824679024080288e-06,2.9346953306667986e-06
221,2.1010188183463308e-06,2.154958069675699e-06,1.4326721724348844e-06,7.724385689087975e-06,1.1153991605699694e-06,1.1380182199401465e-06,8.543272254389154e-07,1.2590740113577207e-06,1.3096524133718528e-05,1.3408677687020778e-05,3.362174289758508e-06,2.466600593176e-06,8.503366756359281e-07,1.0571102388307332e-06,1.1657532764909143e-06,2.929858848010566e-06
222,1.9928164259489712e-06,2.1493430356543696e-06,1.4316780587118876e-06,7.251611391968444e-06,1.1078900995182637e-06,1.143101387277086e-06,8.55407525340138e-07,1.2794599490527762e-06,1.4170346193532527e-05,1.3379637021272566e-05,3.2007298967987836e-06,2.5216076226077847e-06,8.427021579018617e-07,1.0603235479482407e-06,1.1507671558496514e-06,2.922120146691741e-06
223,1.8940635293215726e-06,2.143265661877771e-06,1.4267409513554115e-06,6.79000214249181e-06,1.1019439679439548e-06,1.1499117603261397e-06,8.558000713142491e-07,1.2986889499614093e-06,1.5277863786527548e-05,1.3339959359592197e-05,3.0337202594772905e-06,2.5714956452491078e-06,8.368468840245633e-07,1.0613868331893694e-06,1.137796993809745e-06,2.9131393550361135e-06
224,1.805175899604944e-06,2.137127441314637e-06,1.418823631548167e-06,6.337448260478556e-06,1.0975101175944541e-06,1.158814973974128e-06,8.557895889674668e-07,1.3168972692802442e-06,1.6413119832970068e-05,1.3300210524876191e-05,2.864479872847301e-06,2.6149042210404815e-06,8.330726866366725e-07,1.0601259318260678e-06,1.1270473502223256e-06,2.9043374963055815e-06
225,1.7264037347593912e-06,2.131355613873915e-06,1.409038911643417e-06,5.892470081457822e-06,1.094399544167611e-06,1.1700608656077362e-06,8.555959497379453e-07,1.3343332793587816e-06,1.7569842939331895e-05,1.3270416512047832e-05,2.6958036435020575e-06,2.6508227079694927e-06,8.31588467657484e-07,1.0566044363643808e-06,1.1185750175966387e-06,2.8968851489200354e-06
226,1.6578606650031986e-06,2.126172154642693e-06,1.3984427665322585e-06,5.454809935104111e-06,1.0922697994912257e-06,1.1837406041727633e-06,8.55326233057733e-07,1.3513839532654042e-06,1.8742369419146902e-05,1.3259148909300106e-05,2.530079288089427e-06,2.678620464634993e-06,8.324843491866992e-07,1.0510954392958509e-06,1.1122655234044446e-06,2.8916627612924234e-06
227,1.599620163265362e-06,2.121485143390745e-06,1.3879465446632386e-06,5.025567184302862e-06,1.0906555633999648e-06,1.199754006425639e-06,8.54944298679788e-07,1.3685216084174546e-06,1.992539215065929e-05,1.327278102565211e-05,2.36934786104923e-06,2.6979532680878404e-06,8.357552648015211e-07,1.0439710131519093e-06,1.1078420359247045e-06,2.8892047833383315e-06
228,1.5518949694361874e-06,2.1169073953714238e-06,1.378284443667043e-06,4.606905925585484e-06,1.0890489603250894e-06,1.2178106425894607e-06,8.543014737235688e-07,1.386169103072906e-06,2.111247690837953e-05,1.3315107888983999e-05,2.2152799158599386e-06,2.70859916098216e-06,8.413605109882732e-07,1.0356118878038342e-06,1.1049309558155036e-06,2.8898000190400096e-06
229,1.5151113081555303e-06,2.1118486539396645e-06,1.3699779576656205e-06,4.2014619069436904e-06,1.0869994806053973e-06,1.2374624872792403e-06,8.532078612282801e-07,1.4046058359306514e-06,2.2294865322922695e-05,1.338757490350171e-05,2.0691524121311594e-06,2.7102485852091132e-06,8.492503180833495e-07,1.0263523105767393e-06,1.103199540255581e-06,2.8936618965851106e-06
230,1.4897965763294475e-06,2.105682358087117e-06,1.3633276568377707e-06,3.811741145522373e-06,1.0841655305328513e-06,1.2582071447916435e-06,8.514909362680732e-07,1.4239501133783218e-06,2.3461998200628743e-05,1.3489861217173753e-05,1.9318520217769338e-06,2.702394015424102e-06,8.593309825086123e-07,1.0164340291690398e-06,1.1024837979238425e-06,2.9009339274372752e-06
231,1.4764172105473372e-06,2.097961452645435e-06,1.3584758816933001e-06,3.439911406401213e-06,1.0802964306967246e-06,1.2796483467704972e-06,8.490000955905142e-07,1.4441439490800507e-06,2.460337664382645e-05,1.3620229227139391e-05,1.803873831479762e-06,2.6844027649880677e-06,8.714262383942821e-07,1.00599735220402e-06,1.1028050960338236e-06,2.9115087797115858e-06
232,1.475289897499434e-06,2.0886050719570186e-06,1.3555403546896746e-06,3.0880402382641743e-06,1.075184677394191e-06,1.3016002072891325e-06,8.455629493918405e-07,1.464910303573145e-06,2.571005924446362e-05,1.3775224868402427e-05,1.6853272776410296e-06,2.6555982457114907e-06,8.8529455117989e-07,9.951277113548452e-07,1.1043082383812036e-06,2.924845675706501e-06
233,1.4865498760430974e-06,2.078023750833438e-06,1.3547833749532464e-06,2.7583403202065245e-06,1.0686547169101971e-06,1.3240749781171722e-06,8.409382320507973e-07,1.4857421576988536e-06,2.6774868095324406e-05,1.3949148891925773e-05,1.576005690202089e-06,2.6152645433674204e-06,9.006813979611759e-07,9.838866901963583e-07,1.107195726319865e-06,2.939920675337961e-06
234,1.510114081176365e-06,2.0671781458415646e-06,1.3567377904326572e-06,2.453118050275182e-06,1.0606212091256792e-06,1.3471841662519169e-06,8.348234603782722e-07,1.50599731026435e-06,2.7791894921209738e-05,1.4134562869573832e-05,1.475566003353867e-06,2.5627347719523285e-06,9.173296095002169e-07,9.722896495245942e-07,1.1116550017506097e-06,2.9553489181203135e-06
235,1.5456397351251346e-06,2.057507441717879e-06,1.3622089817527257e-06,2.1746237700090924e-06,1.0511558343436606e-06,1.37098211023643e-06,8.269559101506013e-07,1.5250781193730856e-06,2.8756191965243693e-05,1.4324256389582366e-05,1.3837495091146386e-06,2.497588295754152e-06,9.349607766158785e-07,9.602758687352062e-07,1.1177808700226954e-06,2.9696795099402123e-06
236,1.5925101592434782e-06,2.050686589301333e-06,1.3721662720497033e-06,1.9250721352489267e-06,1.040459553544746e-06,1.3953220549499851e-06,8.172753339186858e-07,1.542572948969534e-06,2.966362939873862e-05,1.451302919174082e-05,1.3004612483856294e-06,2.4197257038221777e-06,9.532829280656212e-07,9.477023738883205e-07,1.125536132354141e-06,2.981727665618432e-06
237,1.649832929331906e-06,2.048313630336949e-06,1.387614637912579e-06,1.7067947979814797e-06,1.0287354598515e-06,1.4198390612957037e-06,8.060218127597501e-07,1.558284603799667e-06,3.051046046867531e-05,1.4697381164200368e-05,1.2256642556517116e-06,2.3292691795171733e-06,9.719958456654658e-07,9.344036719162622e-07,1.1347666003053356e-06,2.9907470703252343e-06
238,1.716440664775199e-06,2.051679654174451e-06,1.409495168691169e-06,1.5223615445542978e-06,1.0160846534797413e-06,1.4440730226025577e-06,7.936663247627868e-07,1.5721872341833759e-06,3.1292662892172006e-05,1.4873461916382199e-05,1.1592619670557403e-06,2.2265883224329954e-06,9.907900564657953e-07,9.203333692066156e-07,1.1452854697491841e-06,2.996397800475184e-06
239,1.7909408051845327e-06,2.061670628826089e-06,1.4386115582902948e-06,1.3746323624262137e-06,1.0025004658128567e-06,1.4676066507828741e-06,7.807558203731989e-07,1.5843554232835578e-06,3.200527702179085e-05,1.5035289166423842e-05,1.1010766919916892e-06,2.1125210063415418e-06,1.009388438089731e-06,9.056824297455638e-07,1.1570364047360767e-06,2.998554492542584e-06
240,1.8718270063819159e-06,2.0787790038304502e-06,1.4755965548897972e-06,1.2667775297509233e-06,9.878980318994006e-07,1.4900992568982062e-06,7.678183521326317e-07,1.5948638230949754e-06,3.264132695115869e-05,1.517459618211501e-05,1.0508573366590367e-06,1.988424772098377e-06,1.0276190128517158e-06,8.908895978122751e-07,1.1702089598016534e-06,2.9970075348717975e-06
241,1.957580863916677e-06,2.1032235415538734e-06,1.5209080188764982e-06,1.2022765379082815e-06,9.72133973076318e-07,1.5112242083188842e-06,7.553281522056292e-07,1.6036825383836786e-06,3.3190324446037425e-05,1.5282232283932696e-05,1.0082576147208646e-06,1.855922605650546e-06,1.0454459099490868e-06,8.765729803138667e-07,1.1851570275097857e-06,2.991244006602418e-06
242,2.0467066672749e-06,2.1351194898727548e-06,1.5748039915882124e-06,1.1849061154683179e-06,9.550605291761067e-07,1.530592088484054e-06,7.436772619855685e-07,1.6106028074863487e-06,3.363783957603523e-05,1.5350072429570978e-05,9.728196458133173e-07,1.7166305174915729e-06,1.0629142747114528e-06,8.634226583275141e-07,1.202215459745534e-06,2.980530003477569e-06
243,2.137713093413548e-06,2.1745392577023755e-06,1.637314817316731e-06,1.2187289499683115e-06,9.36627160971436e-07,1.5476914778584972e-06,7.33162560967971e-07,1.6151842028971012e-06,3.3967144158750104e-05,1.5372160979943037e-05,9.44015454155072e-07,1.5720495944419846e-06,1.0800483551698843e-06,8.520909083509427e-07,1.2216062664554032e-06,2.9642550752427333e-06
244,2.229040603591128e-06,2.221395081655477e-06,1.7082757801498181e-06,1.3080463728120053e-06,9.169607276564516e-07,1.561857583796532e-06,7.239812385481264e-07,1.6167441701053106e-06,3.4162337084456216e-05,1.5344572849259233e-05,9.213294316342223e-07,1.4235331324364525e-06,1.0967746886165975e-06,8.431277017923519e-07,1.2434367734385317e-06,2.9422606612760833e-06
245,2.3189291553288486e-06,2.275278544617865e-06,1.7874033903075147e-06,1.4572695389363378e-06,8.963551901969971e-07,1.5723485469418544e-06,7.162084249731062e-07,1.6144539194345004e-06,3.421266644787697e-05,1.5264622247216137e-05,9.043154422523732e-07,1.2722730608010511e-06,1.1129220239321417e-06,8.369561488776497e-07,1.2677026986798776e-06,2.9149002194283127e-06
246,2.4053516526374785e-06,2.3354167847289307e-06,1.8743475595888345e-06,1.6707639091840213e-06,8.751777263779217e-07,1.5785586602524761e-06,7.09771081744384e-07,1.607532340237836e-06,3.4117485254812216e-05,1.5130386974422537e-05,8.925936544142849e-07,1.119353597065481e-06,1.1283273640695302e-06,8.338543406366444e-07,1.2943189712371918e-06,2.882790961113916e-06
247,2.486140776385529e-06,2.400761102379412e-06,1.968677949031399e-06,1.9527647043376807e-06,8.537645801175183e-07,1.5802205661477725e-06,7.044482603449236e-07,1.5954502653747336e-06,3.3888789905745303e-05,1.494091155162434e-05,8.857924776818919e-07,9.65871369887687e-07,1.1429850858624095e-06,8.339661149956715e-07,1.3232538328558998e-06,2.8464424707182747e-06
248,2.5592484249095447e-06,2.4701278652068103e-06,2.0698591505891382e-06,2.307344922945923e-06,8.323831727111447e-07,1.577433966991886e-06,6.999225982994537e-07,1.5780649707306216e-06,3.35481982536319e-05,1.4696759614432842e-05,8.834633840383542e-07,8.131057911929524e-07,1.157083472831613e-06,8.37372487872256e-07,1.3546900283390107e-06,2.8060054101314475e-06
249,2.623040198029984e-06,2.542325731442801e-06,2.1773876165413676e-06,2.7383577553215897e-06,8.112724509946269e-07,1.5705323932455135e-06,6.958860356120934e-07,1.5556497892159585e-06,3.3119761682629464e-05,1.4400301288973016e-05,8.850166492376704e-07,6.627250836874562e-07,1.170894118388253e-06,8.441597287917188e-07,1.3890146520136702e-06,2.7612655969128464e-06
250,2.6765793954402143e-06,2.616241731152008e-06,2.2911255431761545e-06,3.249343229748382e-06,7.906864858611773e-07,1.5599326514384732e-06,6.921471540216525e-07,1.5288310736819056e-06,3.262384800378049e-05,1.4055146456168004e-05,8.89703547368964e-07,5.169229303809385e-07,1.184652501140491e-06,8.543953367898523e-07,1.426612426722641e-06,2.7118393146153124e-06
251,2.7197891557550193e-06,2.6908947041131757e-06,2.4115412570781923e-06,3.843416798517158e-06,7.708812307264644e-07,1.5460799347646812e-06,6.886701327083317e-07,1.4984531680853524e-06,3.207545429690781e-05,1.3664785082184555e-05,8.966253864470097e-07,3.7838000254331397e-07,1.1985095729501023e-06,8.680512574736104e-07,1.4676483397067578e-06,2.6574005769233067e-06
252,2.7533688076789505e-06,2.7654768281288153e-06,2.539585964036753e-06,4.523157107093817e-06,7.520929452595486e-07,1.529468450039956e-06,6.855361656264387e-07,1.4653935258979933e-06,3.148557725606336e-05,1.3231687124140932e-05,9.047795352974889e-07,2.50108642236605e-07,1.212526996852073e-06,8.849712720355195e-07,1.5119640204738656e-06,2.597781516724632e-06
253,2.7784638654803874e-06,2.8393159250553686e-06,2.676378219790969e-06,5.290556962476929e-06,7.345443257397258e-07,1.5106535339356547e-06,6.828917931484291e-07,1.4304135508647784e-06,3.086230520644656e-05,1.2757852069226194e-05,9.13198094853121e-07,1.353727000553402e-07,1.2267086245466587e-06,9.048845463799889e-07,1.5590603500592919e-06,2.532914427850099e-06
254,2.7962260372960214e-06,2.9116825089897966e-06,2.8230801759141716e-06,6.147097881093055e-06,7.184307028896372e-07,1.4902165467453581e-06,6.809425287149775e-07,1.3941106593964048e-06,3.0210591883685347e-05,1.224596136030222e-05,9.211496521073047e-07,3.779271194120935e-08,1.2410527751617045e-06,9.274082671944146e-07,1.608120582049298e-06,2.4626906139013403e-06
255,2.8074724792062716e-06,2.9816133104186776e-06,2.9809730668029854e-06,7.093899640047031e-06,7.038917217327199e-07,1.468686183031197e-06,6.799652492067922e-07,1.3569336730735165e-06,2.9532679034265232e-05,1.1699933821381652e-05,9.282710203462105e-07,-3.8498294851933773e-08,1.2555636411197502e-06,9.520184646958134e-07,1.6580619846404207e-06,2.3868996114336465e-06
256,2.8125810810481473e-06,3.0479823019207654e-06,3.151405130026204e-06,8.131819379760685e-06,6.910092066289963e-07,1.4464511908923016e-06,6.802829153919865e-07,1.319261762231827e-06,2.8830274425596434e-05,1.1124961507019153e-05,9.345511810473347e-07,-8.886864412050137e-08,1.2701883483030284e-06,9.780312430072522e-07,1.7076122410603672e-06,2.3054281861453512e-06
257,2.8115806061379987e-06,3.109724121409318e-06,3.335539740269435e-06,9.261432930257397e-06,6.798141595948995e-07,1.4237200529812346e-06,6.822088435212777e-07,1.281567179914702e-06,2.8106864178991772e-05,1.0527489097083461e-05,9.401974481224972e-07,-1.0837156788665849e-07,1.2847157992755527e-06,1.0046834009003511e-06,1.7554373682718154e-06,2.218649028108797e-06
258,2.8043140051305132e-06,3.165973066259139e-06,3.5341613238983313e-06,1.048290818161411e-05,6.703000084422525e-07,1.400521094561384e-06,6.859988657838101e-07,1.2445574277278312e-06,2.7368619106450313e-05,9.915063439980897e-06,9.454682946258815e-07,-9.190490542583032e-08,1.2987220429791888e-06,1.0313355688850216e-06,1.8003397181275653e-06,2.127685103138524e-06
259,2.790590230416608e-06,3.2160660192106517e-06,3.7476562942685914e-06,1.1795727617228482e-05,6.624533626336126e-07,1.3767033739572793e-06,6.918267710989525e-07,1.2091872188806024e-06,2.6624050451750414e-05,9.295896119514476e-06,9.505760762232726e-07,-3.425349348266208e-08,1.3116474997397707e-06,1.0576327298929234e-06,1.8414209517797581e-06,2.034359911285862e-06
260,2.7702880696254705e-06,3.259500847215643e-06,3.97602845366285e-06,1.319816275713789e-05,6.562745552631893e-07,1.3519400672854286e-06,6.997843112272713e-07,1.1765443534830154e-06,2.5883221870618164e-05,8.67830293525233e-06,9.55687980043364e-07,6.991087860088949e-08,1.3230039126447135e-06,1.083441107391299e-06,1.8780630420068591e-06,1.94089517506222e-06
261,2.7434364922957823e-06,3.295922945953575e-06,4.218846616386446e-06,1.468666369481689e-05,6.517689032098148e-07,1.3257385596637702e-06,7.09895140548445e-07,1.1476839243001954e-06,2.515691182542671e-05,8.070240495485225e-06,9.609456229357606e-07,2.2602470481361318e-07,1.3325324120630546e-06,1.1086400952638708e-06,1.9098111164276784e-06,1.8495539909247262e-06
262,2.7103180846915195e-06,3.325127353394791e-06,4.475171962731902e-06,1.6255746570625354e-05,6.489167801029829e-07,1.2975147632443535e-06,7.221391233195192e-07,1.12352935415485e-06,2.4455432941782995e-05,7.479011604178325e-06,9.66437386659585e-07,4.3968476097066173e-07,1.3401380306009876e-06,1.1329814960302609e-06,1.936372090483779e-06,1.7624206695585869e-06
263,2.6715498006685055e-06,3.347046771290686e-06,4.743569127310412e-06,1.7898806634921954e-05,6.476433976497422e-07,1.2668083003720733e-06,7.364984849232152e-07,1.104916536768748e-06,2.378732445502031e-05,6.911129017787735e-06,9.721592184206635e-07,7.167873400264848e-07,1.3457246134802274e-06,1.1560977153550715e-06,1.9577017342067227e-06,1.6813206665061967e-06
264,2.6280025085591864e-06,3.3617507803349968e-06,5.022265095343796e-06,1.9609427700086025e-05,6.47823976391139e-07,1.2335282748692337e-06,7.529915734462541e-07,1.0927051013668429e-06,2.315930073570084e-05,6.3722606951595965e-06,9.780387263319862e-07,1.063654540384154e-06,1.3491252800957426e-06,1.1776083444202263e-06,1.974045679090365e-06,1.6077763650005588e-06
265,2.58054198722053e-06,3.3694555977001027e-06,5.30936355928551e-06,2.138211476494969e-05,6.493319770166838e-07,1.1980228112289395e-06,7.716429358476826e-07,1.0878152796286274e-06,2.2577600192080983e-05,5.867129220320138e-06,9.839919602472858e-07,1.4870245492456359e-06,1.3500892046664862e-06,1.197222042273329e-06,1.9859754219431324e-06,1.5429958178072686e-06
266,2.5298371524669997e-06,3.3704427329748455e-06,5.602856139076169e-06,2.3211572950535742e-05,6.520717029201791e-07,1.1609265479017704e-06,7.924333405313451e-07,1.0911695089891392e-06,2.204866406868036e-05,5.399340217860755e-06,9.899198158865382e-07,1.993902145116984e-06,1.3482643473503538e-06,1.2147589481902054e-06,1.994451158300703e-06,1.4879258436288225e-06
267,2.4764288470218787e-06,3.3649028524825914e-06,5.900320279979671e-06,2.509076483199786e-05,6.559414814079173e-07,1.1229148645238113e-06,8.152889176172985e-07,1.1036318099910478e-06,2.1577984707389366e-05,4.971286882288419e-06,9.956841566797964e-07,2.591378927177276e-06,1.3432433797839356e-06,1.2301119345639162e-06,2.0007817647164436e-06,1.4433239696365032e-06
268,2.420890507507183e-06,3.353004852014601e-06,6.1986448729421916e-06,2.7009381170336924e-05,6.607689032308219e-07,1.0845302373939896e-06,8.400690541431852e-07,1.1260116612662031e-06,2.116847742119146e-05,4.584263837148718e-06,1.0011467384890035e-06,3.2865434831633855e-06,1.3347101562885628e-06,1.243198293972695e-06,2.006406288615096e-06,1.4097753298743652e-06
269,2.3638443574523275e-06,3.335300398770303e-06,6.4941490011186545e-06,2.895403272083634e-05,6.663027996176648e-07,1.046145259642497e-06,8.665206156922017e-07,1.1591481524742487e-06,2.0820179829141538e-05,4.238735598999962e-06,1.0062164694636363e-06,4.086502368727817e-06,1.3225600059599466e-06,1.2539062490430973e-06,2.0126350187690045e-06,1.387647407360369e-06
270,2.3058387192972586e-06,3.313042873536656e-06,6.782974374778127e-06,3.090952985886311e-05,6.722871113440942e-07,1.0080010301887705e-06,8.942470295299852e-07,1.2040007170013635e-06,2.0531421866856753e-05,3.934578703583355e-06,1.0108276816978843e-06,4.998421782320592e-06,1.3068542164679612e-06,1.26202969684975e-06,2.020530400642949e-06,1.3770471740982657e-06
271,2.2472038774787293e-06,3.2880284144910886e-06,7.0615315073313425e-06,3.286004288627266e-05,6.785575766254308e-07,9.702368318465496e-07,9.227439450165997e-07,1.2616117785113996e-06,2.0300231460356617e-05,3.6711556801783926e-06,1.0148701676674663e-06,6.0294950492878825e-06,1.2877507146234481e-06,1.2672642013738528e-06,2.0309459887120937e-06,1.3778115618580199e-06
272,2.1880060604426522e-06,3.262097193572287e-06,7.3270246294102475e-06,3.47898821378371e-05,6.850650774613903e-07,9.328860503377045e-07,9.514727058018199e-07,1.3329821701516122e-06,2.0125225912180274e-05,3.4472348705685415e-06,1.0181273937236946e-06,7.186774284890766e-06,1.2655828463192442e-06,1.269342286710823e-06,2.0446209870145388e-06,1.3895105414537162e-06
273,2.1282193808031166e-06,3.2367226249264188e-06,7.578010788604483e-06,3.66841304916084e-05,6.918006997061595e-07,8.958955623542611e-07,9.798785095015083e-07,1.4189920808206315e-06,2.0006333972085326e-05,3.260921235926765e-06,1.020260679027636e-06,8.476804907516794e-06,1.2409134917156096e-06,1.2682389762689047e-06,2.0622287700429076e-06,1.4114628267713226e-06
274,2.068083620122669e-06,3.2128943830883767e-06,7.814720970761674e-06,3.8529245736603324e-05,6.986958400537622e-07,8.592248318114256e-07,1.0073464613186326e-06,1.520343568860582e-06,1.9945424314257016e-05,3.1097432554466565e-06,1.0208733651978945e-06,9.9050610259276e-06,1.2144039180716564e-06,1.264295496947344e-06,2.0843274563621864e-06,1.4427853062422205e-06
275,2.00841344935043e-06,3.1911267828295237e-06,8.03888278259295e-06,4.0313534487923815e-05,7.055716139138834e-07,8.229610224456298e-07,1.0331923514213733e-06,1.6374811613338398e-06,1.99460591932304e-05,2.990858255418806e-06,1.0196351327582015e-06,1.1475307501105585e-05,1.1866611127292991e-06,1.2581819503467838e-06,2.1112661401170557e-06,1.4824518604615132e-06
276,1.950666427006888e-06,3.1714382526378007e-06,8.253042389838076e-06,4.202712958094816e-05,7.121713066403784e-07,7.873379786880375e-07,1.0567342183273842e-06,1.7705256655188024e-06,2.0012675923102e-05,2.901242819855273e-06,1.016356179554536e-06,1.3189046292438819e-05,1.1582193284116195e-06,1.2507408693147997e-06,2.1431937265156474e-06,1.5292985717182542e-06
277,1.8967774641865279e-06,3.1534159070729337e-06,8.45967114251887e-06,4.366077761698189e-05,7.182705736671973e-07,7.526511487683947e-07,1.0774188988200912e-06,1.919230525458073e-06,2.015086996521247e-05,2.8378169826626217e-06,1.0109689695228198e-06,1.5045082072709796e-05,1.129564735165301e-06,1.2428177649476688e-06,2.1801891674811305e-06,1.5819901451132561e-06
278,1.8488726600557897e-06,3.136477733880825e-06,8.660391140428432e-06,4.520316465294915e-05,7.237999370963467e-07,7.191730141277226e-07,1.094945252914597e-06,2.0829420198854875e-06,2.036835423706874e-05,2.7975160729843257e-06,1.0035153457612743e-06,1.7039173964973622e-05,1.1010881254881865e-06,1.2351473390668408e-06,2.2223184911476782e-06,1.639020588982802e-06
279,1.808986660565732e-06,3.1202361181768056e-06,8.855442272687128e-06,4.663866318551973e-05,7.28894225454116e-07,6.871464204932643e-07,1.109275514974855e-06,2.2605578860982985e-06,2.0674225814005585e-05,2.7773080995641327e-06,9.941745623179181e-07,1.9163823377867324e-05,1.07300664789299e-06,1.2283079864292605e-06,2.269504178217399e-06,1.6987835072519753e-06
280,1.778909714653757e-06,3.104787148043003e-06,9.043375532900823e-06,4.794871503283307e-05,7.338354718947623e-07,6.568134075000435e-07,1.1205016960022124e-06,2.4505109347584428e-06,2.1076572206168525e-05,2.7741771225954827e-06,9.832330853447797e-07,2.1408249201961783e-05,1.0453395517577711e-06,1.2227327542082204e-06,2.3213456355904435e-06,1.7597627246981402e-06
281,1.7602416806742953e-06,3.090802944159528e-06,9.220996719908338e-06,4.911727463165727e-05,7.389349358719204e-07,6.284164560661082e-07,1.1287510171797279e-06,2.650812611608285e-06,2.1580596180637955e-05,2.785115525575515e-06,9.70972359156481e-07,2.3758475431405564e-05,1.017967074940568e-06,1.2187279246514627e-06,2.3770394628431638e-06,1.820804702723188e-06
282,1.7545790486992025e-06,3.079401000693804e-06,9.383506247212889e-06,5.013703583067244e-05,7.444393064304776e-07,6.021779743091134e-07,1.1342883019380935e-06,2.859134208578529e-06,2.2188065780315943e-05,2.807092745034377e-06,9.57599925650071e-07,2.619742907281358e-05,9.90735935780623e-07,1.2164493610556004e-06,2.4353723765272015e-06,1.8812112251575463e-06
283,1.7636214315605392e-06,3.0718851878528223e-06,9.52470295592906e-06,5.101302285028029e-05,7.504902308815072e-07,5.782895765404416e-07,1.1376729071877578e-06,3.072857559746305e-06,2.2897359915723406e-05,2.836942281208662e-06,9.432992622569479e-07,2.8704992814140434e-05,9.635213194999516e-07,1.2158577433802788e-06,2.494735724062118e-06,1.9405239987837074e-06
284,1.7890704764007055e-06,3.069495425813492e-06,9.6373440814438e-06,5.1762176464243334e-05,7.571098153951464e-07,5.569207907773221e-07,1.1397529885500518e-06,3.2890695298905085e-06,2.3703671396903124e-05,2.8712853222813736e-06,9.283114610943921e-07,3.125790443603754e-05,9.36221017195547e-07,1.2166937271324903e-06,2.553153673970391e-06,1.998262606362516e-06
285,1.8324477677749091e-06,3.073215879367972e-06,9.713909039141233e-06,5.240932626395759e-05,7.642114609819299e-07,5.382241007393597e-07,1.1414918239619356e-06,3.5045367476972e-06,2.459950469600744e-05,2.9067190996349033e-06,9.12926621673727e-07,3.3829283666628196e-05,9.087630059816683e-07,1.2184943458643958e-06,2.6083193518964947e-06,2.053815599488249e-06
286,1.894993706547328e-06,3.083611789355704e-06,9.74779043578637e-06,5.2980940182351586e-05,7.716340349135773e-07,5.223138340198574e-07,1.1437674014423218e-06,3.7156695139898936e-06,2.557534907607081e-05,2.9402617957879474e-06,8.973823306758085e-07,3.638759999380916e-05,8.81143776186677e-07,1.2206896703905032e-06,2.6577271868727354e-06,2.106406045871239e-06
287,1.977620557371516e-06,3.100709378139377e-06,9.734636754352816e-06,5.3498920001656503e-05,7.791718567204735e-07,5.092355763947195e-07,1.1472669140100313e-06,3.918427633342949e-06,2.6620042966895246e-05,2.96977514687653e-06,8.817881678866506e-07,3.889514882449627e-05,8.534457649401131e-07,1.2227712688006186e-06,2.698969996433794e-06,2.1551692237317975e-06
288,2.0808682481025256e-06,3.1239678383478553e-06,9.67332352955297e-06,5.3977414847511596e-05,7.866049236308067e-07,4.989570733208238e-07,1.1524974906910376e-06,4.108216902280023e-06,2.772058211860113e-05,2.994134511506399e-06,8.661846215877696e-07,4.130678603639889e-05,8.258492201457219e-07,1.224476084383313e-06,2.7300712924723996e-06,2.199408421561926e-06
289,2.204918359689066e-06,3.1522965111191267e-06,9.565872604891647e-06,5.4423403252304064e-05,7.937280437984696e-07,4.913932662352374e-07,1.1598366515926797e-06,4.2800007299679885e-06,2.8861542247475427e-05,3.0131279276694412e-06,8.506850024890179e-07,4.357105261620454e-05,7.986369806479819e-07,1.2259326457867415e-06,2.749688184953282e-06,2.238796905099253e-06
290,2.3496975260223145e-06,3.184054169064423e-06,9.41613554122227e-06,5.483848400553934e-05,8.0036857302591e-07,4.864448450326606e-07,1.1695554610686614e-06,4.428801575841021e-06,3.002438637548596e-05,3.027209145630022e-06,8.355280378068204e-07,4.563599849011351e-05,7.721443588592132e-07,1.2276663430469156e-06,2.7571542081533112e-06,2.2732994408996595e-06
291,2.515018900701756e-06,3.217140819092875e-06,9.228242986966935e-06,5.5220227578551954e-05,8.064209937521538e-07,4.840204934726203e-07,1.1818485661469389e-06,4.550481256323932e-06,3.118671335893972e-05,3.0372569122160918e-06,8.210193953817096e-07,4.745852412314955e-05,7.466825410612862e-07,1.2304180257766163e-06,2.7523617756410727e-06,2.3029104840432316e-06
292,2.7007173483960024e-06,3.249340756010238e-06,9.006185961526878e-06,5.556357584966601e-05,8.118755162125761e-07,4.84052155460462e-07,1.1968955504344539e-06,4.642441357640395e-06,3.232140140220365e-05,3.0443592663689018e-06,8.074957834900537e-07,4.901181586848164e-05,7.225035537927512e-07,1.2349117096198816e-06,2.735480731125627e-06,2.327491729328352e-06
293,2.906757546799523e-06,3.278842330349395e-06,8.754520515612483e-06,5.5862301011653816e-05,8.167815988089212e-07,4.865139035965651e-07,1.2148832069713573e-06,4.703853418344796e-06,3.33963318609198e-05,3.0495402415734036e-06,7.953152427618591e-07,5.0285923091490145e-05,6.998141456489377e-07,1.241716883882413e-06,2.70672491753876e-06,2.346874063273161e-06
294,3.133250719934754e-06,3.304657666265983e-06,8.478915044576322e-06,5.6110123311431795e-05,8.211803212766701e-07,4.914170973500885e-07,1.2359606346652722e-06,4.735254968114194e-06,3.4376179574261986e-05,3.053525736999169e-06,7.848050897220215e-07,5.128119184827717e-05,6.787885207270055e-07,1.2512063522402625e-06,2.6664599678164935e-06,2.3611098607439583e-06
295,3.380295935047822e-06,3.326734446454354e-06,8.185812689882911e-06,5.630159308433604e-05,8.250742351422625e-07,4.987715832508807e-07,1.2601931112831791e-06,4.737725803749997e-06,3.522670207413905e-05,3.0567016414380145e-06,7.762033517357997e-07,5.199894192289887e-05,6.595667682473452e-07,1.2635450800951295e-06,2.615552131193355e-06,2.3706340674664147e-06
296,3.647679037004669e-06,3.3457510603389895e-06,7.881630364465082e-06,5.643284174386355e-05,8.284332323156335e-07,5.085536192357017e-07,1.2875684043256252e-06,4.712165481256536e-06,3.591991011431536e-05,3.0591592219380963e-06,7.696412257044642e-07,5.243589094198536e-05,6.42284506942191e-07,1.2786719244059847e-06,2.5555622663841695e-06,2.3761826131085288e-06
297,3.934624493584887e-06,3.362706538559658e-06,7.572109385084164e-06,5.650209874662446e-05,8.312039474672156e-07,5.207037514176579e-07,1.3180414764456706e-06,4.6591545000550655e-06,3.6437784016534376e-05,3.060707385807263e-06,7.651600272328038e-07,5.258563988485031e-05,6.271126093465044e-07,1.296272462219947e-06,2.488581030314531e-06,2.3785291776099087e-06
298,4.239749088986328e-06,3.3784827409947945e-06,7.262017787158696e-06,5.650979736234729e-05,8.333150914133575e-07,5.351188593576174e-07,1.35154705942476e-06,4.579404298598846e-06,3.677276261607341e-05,3.0609460672347816e-06,7.62736608143887e-07,5.2444381385860164e-05,6.142380688499346e-07,1.315774940111736e-06,2.4168347205569873e-06,2.378300925818978e-06
299,4.561168765603182e-06,3.3936500411034678e-06,6.955145076949787e-06,5.645788271645174e-05,8.346733320796485e-07,5.516272500919852e-07,1.387927110450012e-06,4.474343989200829e-06,3.6924493060781095e-05,3.0594811296891246e-06,7.622976818742807e-07,5.201650355452789e-05,6.038107254378999e-07,1.3363908926904356e-06,2.3423452698952827e-06,2.376013063020239e-06
300,4.896671295912989e-06,3.4086783994892985e-06,6.6544736735985915e-06,5.634787578400714e-05,8.351535410328109e-07,5.699868200793649e-07,1.4268130777338026e-06,4.346428945885268e-06,3.689424075878139e-05,3.056203582606232e-06,7.637227933565201e-07,5.1318324767919106e-05,5.959183200611999e-07,1.3571710837051123e-06,2.266819389740277e-06,2.3721844915025566e-06
301,5.2439337253923805e-06,3.424308042301526e-06,6.362372384830493e-06,5.6177653127067025e-05,8.346322173191439e-07,5.899100177415407e-07,1.467538278400866e-06,4.199087818599351e-06,3.667998234996851e-05,3.051530398888394e-06,7.668427574639728e-07,5.0379164496952253e-05,5.905867703368006e-07,1.377067081739746e-06,2.191705036803476e-06,2.3674122930868997e-06
302,5.60075179657668e-06,3.441649541743155e-06,6.080662555902323e-06,5.59377868867659e-05,8.330647567898055e-07,6.110781222156792e-07,1.509102667894895e-06,4.036451924929509e-06,3.627526278591407e-05,3.0465811007367364e-06,7.714579859925113e-07,4.9238554894920355e-05,5.877804270011229e-07,1.395045883605352e-06,2.1182327256997084e-06,2.3624167067762255e-06
303,5.9652360783477e-06,3.46190660022011e-06,5.8104909600096315e-06,5.560960986241719e-05,8.305022562481653e-07,6.331462066169931e-07,1.5501883145803545e-06,3.863031591113825e-06,3.5672903679615134e-05,3.0432556894417207e-06,7.774207419088128e-07,4.7939881603302964e-05,5.87399143957865e-07,1.4102632956710074e-06,2.0473522283916735e-06,2.3580419949945617e-06
304,6.335961963029947e-06,3.485976937299425e-06,5.552104239105809e-06,5.516735688870813e-05,8.27008015135776e-07,6.557553121799592e-07,1.5892496615478078e-06,3.68340893786609e-06,3.487186397040059e-05,3.044119939985114e-06,7.847570787782194e-07,4.652423729066926e-05,5.892808607621256e-07,1.4222220142002061e-06,1.9796511790028417e-06,2.3551528424676593e-06
305,6.712063744336395e-06,3.5141754587942677e-06,5.304832175129165e-06,5.458432251432619e-05,8.225833920025812e-07,6.785283071579694e-07,1.6247019495037985e-06,3.501955176393493e-06,3.388357093162087e-05,3.052082096487927e-06,7.9370236441195e-07,4.502836919563097e-05,5.93225238428438e-07,1.4308202913940727e-06,1.915352529337583e-06,2.3544579383244748e-06
306,7.093235667294176e-06,3.546139022733636e-06,5.067462386449277e-06,5.3840225823409735e-05,8.171764015230737e-07,7.010545442688033e-07,1.655184939261294e-06,3.3225935528004555e-06,3.273354234177006e-05,3.069991537430035e-06,8.045986719338528e-07,4.3485446760976054e-05,5.990474279744624e-07,1.436227198489998e-06,1.8543731447637207e-06,2.3563792244776093e-06
307,7.479609320619103e-06,3.5809431634430472e-06,4.838709585897925e-06,5.2926737176592306e-05,8.107022223780736e-07,7.228944368834076e-07,1.6798245553339394e-06,3.1486483005203625e-06,3.1456710410926e-05,3.100307491429997e-06,8.177736184061552e-07,4.192470361730788e-05,6.066186499006327e-07,1.438635581660633e-06,1.7964306874044988e-06,2.3610013360531874e-06
308,7.871518725109033e-06,3.617437617923907e-06,4.617415569254545e-06,5.184981452330872e-05,8.030165291347938e-07,7.435920270598854e-07,1.6983920041597086e-06,2.982837117201517e-06,3.0089986533345168e-05,3.1448962933521977e-06,8.334947609433035e-07,4.0369395811540694e-05,6.158401297480168e-07,1.4380702952766714e-06,1.7412149162588792e-06,2.368061656518997e-06
309,8.26918482771394e-06,3.6546105424180565e-06,4.402567954057536e-06,5.0628988151458754e-05,7.939033800696709e-07,7.62706111051337e-07,1.711289128615206e-06,2.8274331540279466e-06,2.8667306995296865e-05,3.2049429291996675e-06,8.519588385787968e-07,3.8835571086003076e-05,6.265915517653844e-07,1.4343852277868998e-06,1.6885514482949962e-06,2.3769701326434447e-06
310,8.67234563252885e-06,3.691719662530245e-06,4.193463268190299e-06,4.929407534865494e-05,7.831434984424389e-07,7.799046190406554e-07,1.7193510117504638e-06,2.68450182387605e-06,2.7218267249860492e-05,3.2809453790272742e-06,8.732623158103879e-07,3.7332416646649e-05,6.387104698018566e-07,1.4274123202135771e-06,1.638444265764145e-06,2.386886493992813e-06
311,9.079873677965146e-06,3.7281434903481135e-06,3.990074076250354e-06,4.7879792795283564e-05,7.706309356835017e-07,7.950905254088384e-07,1.7235400184594497e-06,2.5560721573020287e-06,2.5768060180830884e-05,3.372750743931225e-06,8.973603749939693e-07,3.5862536381386975e-05,6.51981625884581e-07,1.4170852186511256e-06,1.5909764139616894e-06,2.396888848331965e-06
312,9.48943653862482e-06,3.7631379166539534e-06,3.79331046626099e-06,4.641941763869931e-05,7.564602437791463e-07,8.084517462412363e-07,1.724685777148166e-06,2.444194051305827e-06,2.4337473246568524e-05,3.479574263116381e-06,9.240580251203277e-07,3.4421932021554675e-05,6.661300368417742e-07,1.4033938629049854e-06,1.5461883847937257e-06,2.4062121624826265e-06
313,9.897207231559536e-06,3.795734969654403e-06,3.6048526556330257e-06,4.4939608796615264e-05,7.409300503077259e-07,8.203790946557981e-07,1.7233774627029025e-06,2.3508857783618276e-06,2.2943112541910704e-05,3.6000058314058634e-06,9.530457975337622e-07,3.300113050730718e-05,6.808514572639361e-07,1.3862758255977978e-06,1.5040980673525184e-06,2.414512734722837e-06
314,1.0297694913296106e-05,3.824904084719255e-06,3.4266006497206222e-06,4.3458208568117654e-05,7.244625785846783e-07,8.313117580380215e-07,1.7199615217766101e-06,2.277988707045349e-06,2.159782463032752e-05,3.7320804799401636e-06,9.839300624850013e-07,3.158760809615025e-05,6.958613908726148e-07,1.3656369029406173e-06,1.4648479037386768e-06,2.422060359518935e-06
315,1.0683986705826932e-05,3.849853753969269e-06,3.2601260248010944e-06,4.198479305952975e-05,7.075043443418939e-07,8.416086033573754e-07,1.71457240531609e-06,2.227026820945427e-06,2.031114421777805e-05,3.873382506395706e-06,1.0162136247855235e-06,3.0168683521214726e-05,7.109124718127926e-07,1.3414808579816086e-06,1.428783649402834e-06,2.4296759748715157e-06
316,1.1048510338062e-05,3.870141248670781e-06,3.1063960120077444e-06,4.052206190459417e-05,6.904810461067634e-07,8.515027424941499e-07,1.707199993517136e-06,2.1991609092384267e-06,1.908984915497896e-05,4.02104626416564e-06,1.0492414249044245e-06,2.8734378955213048e-05,7.258226234045709e-07,1.314021015240303e-06,1.396364739953964e-06,2.438401203474261e-06
317,1.1383934824825386e-05,3.885418637878545e-06,2.965731981444524e-06,3.9066883204681714e-05,6.7379747641787e-07,8.611519740108879e-07,1.6977763549890597e-06,2.1951899880725203e-06,1.793871078512802e-05,4.1716692503068905e-06,1.0821564243513953e-06,2.7279489337196496e-05,7.405506819914223e-07,1.283682376650194e-06,1.3679847344754745e-06,2.4491496802661058e-06
318,1.1683907915672971e-05,3.895141752305502e-06,2.837949216802806e-06,3.761141998216386e-05,6.578284147600968e-07,8.707345445417247e-07,1.686217274934041e-06,2.2155321341897478e-06,1.686121518761347e-05,4.321382508716001e-06,1.1138901267106026e-06,2.58036743908108e-05,7.552062481128016e-07,1.2509753058914321e-06,1.3438247202338351e-06,2.4625594325349777e-06
319,1.1943713939576963e-05,3.898699622662691e-06,2.7226456890609174e-06,3.614501445270987e-05,6.429035949348531e-07,8.804815504196703e-07,1.6724135245296455e-06,2.260209100466524e-06,1.5859769806836994e-05,4.466307795864496e-06,1.1432069515165449e-06,2.4309241875485946e-05,7.699560815313893e-07,1.2163851343116054e-06,1.323813788432498e-06,2.4789945696882854e-06
320,1.2160803463134345e-05,3.895901109288745e-06,2.619458580489055e-06,3.46568135068315e-05,6.293030784320284e-07,8.905982980428838e-07,1.6562335535215137e-06,2.328894060011787e-06,1.4935247275206011e-05,4.6033062429003164e-06,1.1688435916389862e-06,2.2798677017021083e-05,7.849389809594828e-07,1.1804093104381393e-06,1.3076692884656256e-06,2.4985131941910636e-06
321,1.2334817695577467e-05,3.887329274614062e-06,2.5281246286636808e-06,3.3138707823320146e-05,6.172356057652406e-07,9.011634004610604e-07,1.6375640019889438e-06,2.421023427123355e-06,1.4086599689895224e-05,4.730580969349984e-06,1.1897369904839336e-06,2.1275011267246625e-05,8.002265779404602e-07,1.1436288034924903e-06,1.2949301806845543e-06,2.52076660920836e-06
322,1.2466834039162298e-05,3.874238629167977e-06,2.448375256681261e-06,3.158800118013869e-05,6.068028073260249e-07,9.121188894632624e-07,1.616362970608594e-06,2.5358947201147616e-06,1.3311089524088143e-05,4.8477339154442574e-06,1.2052450341461356e-06,1.9744955866659976e-05,8.158305616043417e-07,1.1066668532732756e-06,1.2849780280572858e-06,2.5449305410964535e-06
323,1.2557996331536839e-05,3.858066310628763e-06,2.379791961610605e-06,3.000904881308912e-05,5.979936169747538e-07,9.23344497963364e-07,1.5927209675358118e-06,2.6726798813873507e-06,1.2604616736463602e-05,4.955252727837527e-06,1.2152506662907504e-06,1.8221219362210017e-05,8.317636648565998e-07,1.0700970880100784e-06,1.2771093305585828e-06,2.5697376748119613e-06
324,1.2608166556081537e-05,3.8398833746054984e-06,2.3217107568295843e-06,2.841322524947846e-05,5.907116657182636e-07,9.347123849354147e-07,1.566933396482967e-06,2.830335679229957e-06,1.1962184921313967e-05,5.05375542753713e-06,1.2201100843998954e-06,1.6721573181498465e-05,8.480688243506385e-07,1.0343983466376944e-06,1.2706405313169861e-06,2.5935982940154338e-06
325,1.2615507004412815e-05,3.820148145410345e-06,2.273195491701783e-06,2.6817019257876934e-05,5.847963884648943e-07,9.460687367045087e-07,1.5395211683170285e-06,3.0074495950337964e-06,1.1378980848121133e-05,5.143481685856742e-06,1.2204922336674762e-06,1.526566853271948e-05,8.647690054167852e-07,9.999380019157638e-07,1.264970806305426e-06,2.614754462665174e-06
326,1.2577445580725994e-05,3.7989293268427055e-06,2.233064549687464e-06,2.523874669864139e-05,5.800356482375288e-07,9.571995774035171e-07,1.5111166617134868e-06,3.202165455793044e-06,1.0850965634123395e-05,5.224351064707735e-06,1.2171840929597051e-06,1.387195466630411e-05,8.818396251035857e-07,9.669882824141357e-07,1.2595703608622753e-06,2.6314539671258684e-06
327,1.2492504670872848e-05,3.7764158425190313e-06,2.1999712010702967e-06,2.3695584328018344e-05,5.762038982428696e-07,9.678582286282456e-07,1.4822566472017558e-06,3.41234734255233e-06,1.0374000092400896e-05,5.296394041774517e-06,1.2109153494511268e-06,1.2556028195375098e-05,8.992670017851118e-07,9.358025030558423e-07,1.2539001016438838e-06,2.642172577740118e-06
328,1.236203638881416e-05,3.753289615081209e-06,2.1725377239646677e-06,2.2202790949694756e-05,5.73114101817164e-07,9.778509897320715e-07,1.453238497444645e-06,3.6359526865945385e-06,9.942659258837465e-06,5.360065489804618e-06,1.2022596164617983e-06,1.1330319509327685e-05,9.170963388125213e-07,9.06680360367692e-07,1.2473419542704676e-06,2.6458673829372483e-06
329,1.2191114330720403e-05,3.7306665727382993e-06,2.1495023139152116e-06,2.0774630014857996e-05,5.706291085500337e-07,9.870950640405722e-07,1.4241174260540472e-06,3.87139684940185e-06,9.54997643036752e-06,5.416213132958282e-06,1.1916435972970714e-06,1.0204492606760644e-05,9.353826569722717e-07,8.799647871245553e-07,1.2392573207028092e-06,2.6421431854293474e-06
330,1.1988181290405906e-05,3.709688451623007e-06,2.1298223840291665e-06,1.942468664589117e-05,5.686151577907953e-07,9.955790648438779e-07,1.394757267373243e-06,4.117691924870886e-06,9.1878843761039e-06,5.465782488642144e-06,1.179388932717272e-06,9.186097913229689e-06,9.541097473575159e-07,8.560090418194132e-07,1.2291655510703549e-06,2.6311500141178317e-06
