,EMG1,EMG2,EMG3,EMG4,EMG5,EMG6,EMG7,EMG8,EMG9,EMG10,EMG11,EMG12,EMG13,EMG14,EMG15,EMG16
0,2.3566216369475492e-07,1.2668712775849366e-07,3.411037703832578e-08,-5.509139641806163e-07,1.3759837034366194e-07,3.467747911986255e-08,7.642846651080776e-08,2.2150700570544993e-07,1.2798499602113425e-06,-1.7922532529577397e-08,1.595210836315025e-07,2.657743756329913e-06,1.641175863259872e-07,7.356198383725371e-08,9.781362302269417e-08,5.3608867030251485e-08
1,3.3153511669167883e-07,1.9034974095895932e-07,1.642119641689791e-07,9.636862081909972e-07,2.1275561236703086e-07,1.2973444653963415e-07,2.0679628943617396e-07,4.104578447856382e-07,1.7558640357180447e-06,1.7676770226879181e-07,2.351181483018277e-07,7.912144089683315e-06,2.241468662525312e-07,1.9748928993949135e-07,1.9552665674801707e-07,1.7894371100744267e-07
2,4.2382729866710943e-07,2.5538304536857366e-07,2.923887287201658e-07,2.434802599515185e-06,2.862385721423377e-07,2.2177057967567574e-07,3.3361721143286463e-07,5.937767407776835e-07,2.2471651729985126e-06,3.6126580700608756e-07,3.106845321984815e-07,1.2914503532587188e-05,2.850807043213099e-07,3.179290482607062e-07,2.9338458567046327e-07,3.0184276648725203e-07
3,5.111775837778194e-07,3.2114824138917586e-07,4.174372144874657e-07,3.849257108755354e-06,3.5682638218972337e-07,3.0965848747651194e-07,4.554508121097517e-07,7.704071599210227e-07,2.746796115055311e-06,5.32430281051006e-07,3.8519087793130153e-07,1.7573220154385346e-05,3.459907398810355e-07,4.3337396402275004e-07,3.8967605717648066e-07,4.2015824020382825e-07
4,5.922944535934018e-07,3.870307895763268e-07,5.381488112415943e-07,5.196451214744728e-06,4.236987036953615e-07,3.923857161381601e-07,5.708904221717383e-07,9.393253795635997e-07,3.2485487643021004e-06,6.876082045940724e-07,4.577581369808605e-07,2.1804456063748893e-05,4.0611828032539617e-07,5.425688031922235e-07,4.828695434765167e-07,5.320501178277919e-07
5,6.660128883612273e-07,4.525068205780082e-07,6.533128017557838e-07,6.467866428656579e-06,4.864802663797202e-07,4.691144962222464e-07,6.785665736714895e-07,1.0994772259764444e-06,3.748121208010426e-06,8.248874801494099e-07,5.277459845212503e-07,2.5541692894134655e-05,4.6484475265674033e-07,6.445495265493185e-07,5.716583736296413e-07,6.361982928272446e-07
6,7.313718066869747e-07,5.171856595217584e-07,7.617494362206454e-07,7.65579201945749e-06,5.451434695769417e-07,5.391998816223638e-07,7.772065947572728e-07,1.2497338149926484e-06,4.243906853471162e-06,9.432286381653057e-07,5.947526763462129e-07,2.8744073256588324e-05,5.216369585066825e-07,7.386211497549052e-07,6.550403988296167e-07,7.318942728781272e-07
7,7.877046534050989e-07,5.807801212666843e-07,8.624451480266097e-07,8.75237668888238e-06,5.998271330468998e-07,6.022181703326258e-07,8.658340957363266e-07,1.3889411555303924e-06,4.736481824788106e-06,1.0424373939943267e-06,6.585688734068233e-07,3.139746897866575e-05,5.760553941907337e-07,8.243637952882295e-07,7.324193595846786e-07,8.189598533982825e-07
8,8.346627589425243e-07,6.430769695008192e-07,9.547708421994854e-07,9.749770803221761e-06,6.506751081118408e-07,6.580540912706328e-07,9.440100703844137e-07,1.5160900277559414e-06,5.2276873457256515e-06,1.123058988824555e-06,7.191750173619259e-07,3.350684572137671e-05,6.277633461290028e-07,9.016917890995558e-07,8.036314610462889e-07,8.975927903261716e-07
9,8.721355933716206e-07,7.039725367859671e-07,1.038610182124093e-06,1.0641153138254338e-05,6.977800689612786e-07,7.069813328445651e-07,1.0119254168778923e-06,1.6305411740098374e-06,5.720312812027451e-06,1.1862846562587277e-06,7.766933843622662e-07,3.508608896626929e-05,6.764610787478539e-07,9.708875298047227e-07,8.688197024674103e-07,9.68242041209765e-07
10,9.001769751252215e-07,7.634814197921238e-07,1.1142691143789283e-06,1.1421945401780981e-05,7.412270842733213e-07,7.496319659277144e-07,1.0702741959094458e-06,1.7321704317227208e-06,6.2177706987471426e-06,1.233882771551265e-06,8.312669831179566e-07,3.615421596322298e-05,7.218039462807079e-07,1.0325518263161161e-06,9.282334611656842e-07,1.0315086238128554e-06
11,9.190445086405406e-07,8.216734251061749e-07,1.1822301640989098e-06,1.2090760979335643e-05,7.811604847242369e-07,7.868507899428647e-07,1.1199878295232176e-06,1.8213591956507514e-06,6.723449010807071e-06,1.2680593179401448e-06,8.829644931940671e-07,3.6739214252769194e-05,7.633915564033074e-07,1.0874728501216351e-06,9.821239123555537e-07,1.0880518275606533e-06
12,9.292997763948844e-07,8.786230181212849e-07,1.2429104252827853e-06,1.2649888138239854e-05,8.178247689511672e-07,8.195253343801727e-07,1.161985445624724e-06,1.8988867248922864e-06,7.240643822287618e-06,1.29119356968296e-06,9.317332127934853e-07,3.6881379206090344e-05,8.008429512449581e-07,1.1364584965727074e-06,1.030793943286509e-06,1.1385457076251155e-06
13,9.318440311913273e-07,9.343767965825655e-07,1.296530522960622e-06,1.3105200076960285e-05,8.515738038195637e-07,8.484774679425678e-07,1.1970416935656292e-06,1.9657919175814522e-06,7.77347072194066e-06,1.3055748513379185e-06,9.774179170339963e-07,3.662994179181105e-05,8.339223646752441e-07,1.1802019153992295e-06,1.0746866218421878e-06,1.1836839229759115e-06
14,9.278441910554552e-07,9.888929129675673e-07,1.343124736625098e-06,1.3465531768523711e-05,8.828320702768184e-07,8.744474300845087e-07,1.2257590268204677e-06,2.0232012045467056e-06,8.327822309146282e-06,1.3132685039927774e-06,1.0198708845867184e-06,3.6036115264082653e-05,8.626418820316081e-07,1.2192212206561204e-06,1.1143660501923815e-06,1.2241323009884924e-06
15,9.185951674855109e-07,1.042001561959892e-06,1.3826470041473532e-06,1.374172584296494e-05,9.120087085347501e-07,8.98130411022127e-07,1.2486107076502701e-06,2.072124239715931e-06,8.911220693468573e-06,1.3160771952415807e-06,1.0590656625365176e-06,3.514885613614932e-05,8.872513830919048e-07,1.2538715725755381e-06,1.1503968067243136e-06,1.2604331217836203e-06
16,9.053931396410517e-07,1.0934519044362177e-06,1.4150561257625187e-06,1.3945651802986702e-05,9.394191550799996e-07,9.201832930016849e-07,1.2660119237277823e-06,2.1132810142731466e-06,9.531890458429425e-06,1.3155331955598701e-06,1.0950999354097414e-06,3.401442599423352e-05,9.081352481035742e-07,1.2843985409376967e-06,1.1832369411541164e-06,1.2930009192704477e-06
17,8.894673199212368e-07,1.1430192300474707e-06,1.4403666340374874e-06,1.4089450622860553e-05,9.652439747325115e-07,9.41179929477856e-07,1.2783279798395855e-06,2.1470350401905566e-06,1.0198413414818925e-05,1.3129243044268004e-06,1.128080080694836e-06,3.2676899950094396e-05,9.257445626388111e-07,1.3109711262781748e-06,1.213177925803903e-06,1.322215894289784e-06
18,8.719578061324499e-07,1.1905892283868111e-06,1.4587804791359242e-06,1.4184999739448368e-05,9.895050916193977e-07,9.615805543485435e-07,1.2858214441495825e-06,2.1734331006094377e-06,1.0920068888149287e-05,1.309334467775694e-06,1.1579833492861248e-06,3.1178249238457406e-05,9.405924156570832e-07,1.333658268714679e-06,1.2403029707281364e-06,1.348500814876649e-06
19,8.539122445636896e-07,1.2361527825350802e-06,1.4708161432498012e-06,1.4243338128175686e-05,1.0120730521836777e-06,9.81745688767592e-07,1.288674089823957e-06,2.1922912512175827e-06,1.170666508444702e-05,1.3056478114633994e-06,1.1845916325885174e-06,2.9558237548425436e-05,9.532322222681643e-07,1.3524125643740705e-06,1.264476921410216e-06,1.372412250551994e-06
20,8.363119388919915e-07,1.279703473083778e-06,1.4772216081783138e-06,1.4273906769597966e-05,1.0327323339220898e-06,1.0019374141880045e-06,1.2871382865927336e-06,2.203303603337718e-06,1.256743771229544e-05,1.3025330562951625e-06,1.207523226972344e-06,2.785388303750219e-05,9.642290848891682e-07,1.3671609221909277e-06,1.2853997898237846e-06,1.3947583668413203e-06
21,8.201086378234034e-07,1.3211011947024339e-06,1.478776814972977e-06,1.4283994553163753e-05,1.051272148438536e-06,1.0222730175890765e-06,1.2816985873935834e-06,2.2061830903361438e-06,1.3509816740418846e-05,1.3004483217060108e-06,1.2263585901355843e-06,2.6098551111578207e-05,9.741911771241947e-07,1.3779747719873736e-06,1.3027376214595817e-06,1.4165605779142562e-06
22,8.062053011221028e-07,1.3600056483203509e-06,1.4762324364165897e-06,1.4278914256899577e-05,1.0675401211824243e-06,1.0426743948649787e-06,1.2731018151165162e-06,2.2008010863096114e-06,1.453879429099654e-05,1.2996448094170289e-06,1.240817027972746e-06,2.4322235340588948e-05,9.838129608249224e-07,1.385183361457261e-06,1.3163003971557603e-06,1.4388333140549011e-06
23,7.953874911560601e-07,1.3959345620601017e-06,1.4703530300042305e-06,1.4262689854699524e-05,1.0814258596498397e-06,1.0628661564098384e-06,1.2622378161224985e-06,2.187262947063479e-06,1.5656916547609744e-05,1.3001517495942515e-06,1.250875021859496e-06,2.2554014553355175e-05,9.938442450776924e-07,1.3893658688603693e-06,1.3261620060568456e-06,1.4623940504987357e-06
24,7.882826689750076e-07,1.4283815125726961e-06,1.4619365923178443e-06,1.4238520322611347e-05,1.092790752041804e-06,1.0824315742838414e-06,1.249970526488172e-06,2.1658963461836477e-06,1.6864673581222e-05,1.3017709061424897e-06,1.256741634105992e-06,2.082498947865625e-05,1.0050356982205881e-06,1.3912660559643164e-06,1.3326066626390192e-06,1.4878223784126652e-06
25,7.853707841077714e-07,1.4568861656717485e-06,1.4518060188688197e-06,1.4208749662888312e-05,1.1014086162276974e-06,1.1008812970290688e-06,1.2370188090045226e-06,2.137202292253275e-06,1.816109472560724e-05,1.3041477068506654e-06,1.2587269396749486e-06,1.9169267971390394e-05,1.0181177198441762e-06,1.3916711143975282e-06,1.3359372589016236e-06,1.5155180931943486e-06
26,7.870074904532237e-07,1.4810470799066601e-06,1.4407824177197723e-06,1.41747049892854e-05,1.1069844036436002e-06,1.1176652934703382e-06,1.2239005445169428e-06,2.1018461667456985e-06,1.9544231628002082e-05,1.3069624128798141e-06,1.257124653808511e-06,1.7622529608848748e-05,1.033745635408471e-06,1.3912738206516424e-06,1.3363122946623443e-06,1.5457637023493625e-06
27,7.934444601659147e-07,1.5005434993537883e-06,1.429623240113959e-06,1.413685346276718e-05,1.1092416811078508e-06,1.132129270778155e-06,1.2109185069925794e-06,2.060695567012482e-06,2.1011244525568284e-05,1.3101219055786424e-06,1.252201247810865e-06,1.6219586241805445e-05,1.0524019011368984e-06,1.3905698441548357e-06,1.3336871469578657e-06,1.5787600007372136e-06
28,8.048724288685041e-07,1.5151725764811905e-06,1.4189343656777828e-06,1.4095470252537539e-05,1.1080066946770167e-06,1.1435105004559702e-06,1.1982125315284184e-06,2.0147985782193056e-06,2.255819282122178e-05,1.3137720664222103e-06,1.2442764268212924e-06,1.499255243337696e-05,1.0743413477676778e-06,1.389809777722386e-06,1.3278314117040448e-06,1.6146561092133461e-06
29,8.214732382298869e-07,1.524820060887723e-06,1.4091045704053782e-06,1.4051754589868167e-05,1.1032559826653155e-06,1.1510490601831168e-06,1.1859015439725793e-06,1.9652244890600665e-06,2.4179867049874183e-05,1.3181732869393337e-06,1.2337776853129857e-06,1.3970127174061858e-05,1.0995929897758397e-06,1.3889933443477303e-06,1.318440578784141e-06,1.6535321772184522e-06
30,8.434175743736042e-07,1.5293456824713734e-06,1.4003246586604282e-06,1.400902545575603e-05,1.0951355061487048e-06,1.1542043836238489e-06,1.1742411165769512e-06,1.9128860635249663e-06,2.5869731388023325e-05,1.3236305795833063e-06,1.2211818307755254e-06,1.3177559492191196e-05,1.1279656481532496e-06,1.387977391231769e-06,1.305331257803614e-06,1.6952858127993813e-06
31,8.708063955599215e-07,1.5285343406655615e-06,1.39269293060138e-06,1.3973312091293067e-05,1.0839221056516495e-06,1.1528912014836592e-06,1.1636577601255081e-06,1.8584878872614207e-06,2.761970806838882e-05,1.3304993543686573e-06,1.2069336077607214e-06,1.263688340428319e-05,1.159036613342204e-06,1.3866868642204846e-06,1.288570607517167e-06,1.739494005219832e-06
32,9.036227985614469e-07,1.5222278786923195e-06,1.3863157708697826e-06,1.3952875377939521e-05,1.069923966463315e-06,1.1475885113068031e-06,1.1546219423076937e-06,1.802570541566452e-06,2.9419545754283254e-05,1.3391376274913257e-06,1.1914800192781095e-06,1.2367293408234385e-05,1.1921446357998428e-06,1.3852250866461445e-06,1.2684198221381535e-06,1.785353370021228e-06
33,9.417238912570376e-07,1.5105138277320398e-06,1.3813088753632758e-06,1.3956891631017025e-05,1.0534268445233255e-06,1.1392208074549192e-06,1.1474941928537966e-06,1.7455993760041476e-06,3.125566371645991e-05,1.3497973700706988e-06,1.1753836735306015e-06,1.2385544417255854e-05,1.2264252149483686e-06,1.3838039554725513e-06,1.2451790516545058e-06,1.831727722603734e-06
34,9.848513823797254e-07,1.4937822739357933e-06,1.3777011955751916e-06,1.3993883179830682e-05,1.034741846215676e-06,1.1288835224741797e-06,1.142480120965324e-06,1.6880807885495435e-06,3.3109604485770044e-05,1.3625700692479285e-06,1.1593692776744497e-06,1.2706215112437615e-05,1.260921048985824e-06,1.3826305080636393e-06,1.2191271707466648e-06,1.8772910289100756e-06
35,1.032637104695602e-06,1.472608881407613e-06,1.3753517981417533e-06,1.4070455588142286e-05,1.0142439662972704e-06,1.1175911206318509e-06,1.1396741533572552e-06,1.6306406834179824e-06,3.4956735253134406e-05,1.377411625849313e-06,1.1442438067575717e-06,1.3341774348052088e-05,1.2947413050495297e-06,1.381848147342515e-06,1.190601241884411e-06,1.920706295066525e-06
36,1.08460881601302e-06,1.4475657885020433e-06,1.3739985327608159e-06,1.4190808609183993e-05,9.923115509140614e-07,1.1061470135889834e-06,1.1390886893562847e-06,1.5740550823843096e-06,3.6766130265071746e-05,1.3941984393166096e-06,1.1307807925753618e-06,1.4302524512933457e-05,1.3271681565574731e-06,1.381533095059289e-06,1.1600840431666156e-06,1.9607462119663047e-06
37,1.1402352502088248e-06,1.4191124154613828e-06,1.3733994341469226e-06,1.4357072857695496e-05,9.69224498161474e-07,1.0951038673600932e-06,1.1406244024487313e-06,1.5192872832210165e-06,3.8502099720127214e-05,1.4127924425319133e-06,1.1196677078453703e-06,1.5596444813384007e-05,1.357646630254958e-06,1.381699617805847e-06,1.1281963331844755e-06,1.9963386538016707e-06
38,1.1989917716636107e-06,1.3876451486469482e-06,1.3733989657598695e-06,1.4570060218931981e-05,9.451286143016708e-07,1.0847535742725872e-06,1.1440494308685988e-06,1.4675089076712918e-06,4.012716646693846e-05,1.4330484810424784e-06,1.1114829009175958e-06,1.7228865906952754e-05,1.3857070023252485e-06,1.382272540260312e-06,1.0955896577074997e-06,2.026606436361515e-06
39,1.2603599347459632e-06,1.353656288715274e-06,1.373900510627658e-06,1.4830034425558817e-05,9.2011357792226e-07,1.0751251870480281e-06,1.149060483697055e-06,1.4200504705060337e-06,4.160595697759152e-05,1.4547304584822868e-06,1.1066613315047121e-06,1.9202175850835717e-05,1.410873860590274e-06,1.3830752756744309e-06,1.0628028218304156e-06,2.0509422290492807e-06
40,1.3237808384635958e-06,1.3178899249192277e-06,1.3748884353208246e-06,1.5137303045420749e-05,8.943495776991316e-07,1.065994881847975e-06,1.155366135247535e-06,1.378320851948913e-06,4.290901029536754e-05,1.4774827765027804e-06,1.105486809094269e-06,2.1515801186456445e-05,1.4325639707651346e-06,1.3838614759052577e-06,1.0301884530380045e-06,2.0690811781646225e-06
41,1.38868853978934e-06,1.2813968891076994e-06,1.3765004025897402e-06,1.549247832920759e-05,8.681649776582253e-07,1.0569334196469263e-06,1.1626878485569645e-06,1.343739837022965e-06,4.401512719925272e-05,1.5009826096002838e-06,1.1081134346478371e-06,2.416607964779964e-05,1.4500361330371811e-06,1.384333766088943e-06,9.979791487398977e-07,2.081064141342463e-06
42,1.4546401738996269e-06,1.2454517584777112e-06,1.3790170072031336e-06,1.5896295272819245e-05,8.420007554271712e-07,1.0474289674048282e-06,1.1707120114734215e-06,1.3176553200541112e-06,4.4911413940270825e-05,1.525142891950601e-06,1.1145678057148415e-06,2.7145709201032917e-05,1.4625066527237028e-06,1.3841766768179985e-06,9.66452167345262e-07,2.087062063417555e-06
43,1.5214136946743003e-06,1.2113841571606298e-06,1.3827477377844279e-06,1.6348978554476975e-05,8.162982315606511e-07,1.0370694616811041e-06,1.1791188141698912e-06,1.3012651177334625e-06,4.559116136955959e-05,1.5501409768823891e-06,1.1247112264797252e-06,3.044323576360011e-05,1.469416619332821e-06,1.3831722280726127e-06,9.360517477322152e-07,2.0873015006775055e-06
44,1.5889671570604916e-06,1.1804225479677444e-06,1.3879048322135754e-06,1.6849236186905148e-05,7.914169076849967e-07,1.0256915519177502e-06,1.1876811359519756e-06,1.295590939335769e-06,4.605009761924815e-05,1.5762364787534932e-06,1.138203830455652e-06,3.4042573007625185e-05,1.4706362757992126e-06,1.3813270237047089e-06,9.073582955335013e-07,2.082235260697243e-06
45,1.6572760791291598e-06,1.1536156531581453e-06,1.3945399699299024e-06,1.739316370656314e-05,7.676044290429672e-07,1.0134177110900526e-06,1.19628536899849e-06,1.3014800791574018e-06,4.628180598292091e-05,1.6035602642005942e-06,1.1545370649838153e-06,3.792197943545741e-05,1.4663944463555779e-06,1.378885265190766e-06,8.809499044234014e-07,2.072648932491454e-06
46,1.726142600140442e-06,1.1318328670403537e-06,1.402536010438922e-06,1.79737266821508e-05,7.449926347376625e-07,1.0005924992696267e-06,1.2048544645695362e-06,1.3196089497491037e-06,4.6274277801352144e-05,1.6320513077915248e-06,1.1731283009782839e-06,4.205327327070066e-05,1.4570386688796554e-06,1.376204431627221e-06,8.572892088104282e-07,2.0594856201170607e-06
47,1.795065399489897e-06,1.1157839847027963e-06,1.4116152491683862e-06,1.8581389739519812e-05,7.236321096662532e-07,9.87677546488403e-07,1.2133181588145368e-06,1.3504862251308456e-06,4.6010277031314225e-05,1.6615052432545831e-06,1.1933759516144707e-06,4.640278535001283e-05,1.4429336739478263e-06,1.3735729350607713e-06,8.366872435089502e-07,2.0436213875970002e-06
48,1.8632139698400987e-06,1.1059969837626204e-06,1.4214134527601188e-06,1.920571867154026e-05,7.0357387263543e-07,9.75149462618252e-07,1.2216578818640556e-06,1.3944625976044301e-06,4.547247885499346e-05,1.6915803930864975e-06,1.2146155185248156e-06,5.0933828257712187e-05,1.4245795410929956e-06,1.3710923104641344e-06,8.192954418317615e-07,2.025785900841939e-06
49,1.929497042807095e-06,1.102774826779105e-06,1.4316502643600707e-06,1.9837270907594365e-05,6.849265197304268e-07,9.634256319775068e-07,1.2298935912545124e-06,1.4517598301778066e-06,4.4651730901447096e-05,1.721742511742998e-06,1.2360725862119742e-06,5.5608862853431615e-05,1.4027461225818108e-06,1.3686763149167156e-06,8.050981168853824e-07,2.0065508932954765e-06
50,1.9926852251061778e-06,1.1061918696818655e-06,1.4422537208969767e-06,2.0469017004625352e-05,6.678304030457183e-07,9.528225555876684e-07,1.2379703188635174e-06,1.5224813138734023e-06,4.355479002147805e-05,1.7512526780956806e-06,1.2569303632357578e-06,6.038963048221265e-05,1.3784249049829423e-06,1.366086343176042e-06,7.939444320214134e-07,1.9863699047348267e-06
51,2.0515640779947546e-06,1.1161190268308887e-06,1.45332432356705e-06,2.1096648998026225e-05,6.524159722379566e-07,9.435224678766774e-07,1.245655725185148e-06,1.6065962977353373e-06,4.220679805715393e-05,1.7792040134252125e-06,1.2764726173511325e-06,6.52347419276104e-05,1.3526433554455853e-06,1.3629579939967122e-06,7.856327602777174e-07,1.965747472639328e-06
52,2.1050995464046977e-06,1.1322212995322884e-06,1.465045772040046e-06,2.1717523146166966e-05,6.388048885840359e-07,9.35542560909632e-07,1.2525307909023355e-06,1.7040094477842062e-06,4.064631390997273e-05,1.8045476860285772e-06,1.294175034572446e-06,7.00957919136059e-05,1.3263343844151278e-06,1.3588834907357358e-06,7.799721486172046e-07,1.9453972578720388e-06
53,2.152560401504485e-06,1.153938704900318e-06,1.4776923449442277e-06,2.232857505951221e-05,6.270989319627689e-07,9.287497356390672e-07,1.2580357556145828e-06,1.8147773838582313e-06,3.891632539096831e-05,1.826149561346282e-06,1.309676476145038e-06,7.49148331164312e-05,1.3003162722807084e-06,1.3535539068938465e-06,7.767727398375123e-07,1.926165489241783e-06
54,2.193544375835811e-06,1.180516748063302e-06,1.4917003913835089e-06,2.292423705715063e-05,6.17339864218398e-07,9.229497630736707e-07,1.2615107771908155e-06,1.9393537488707816e-06,3.705682429290355e-05,1.8429108117415243e-06,1.3226992002685858e-06,7.962700417077938e-05,1.2753126619273822e-06,1.3468686213121377e-06,7.758213842170927e-07,1.9088023834876713e-06
55,2.227935730095015e-06,1.211092449227801e-06,1.5076510458500579e-06,2.349575427430942e-05,6.094872559513405e-07,9.179865372377372e-07,1.2622385599431707e-06,2.078722080253787e-06,3.510166610209576e-05,1.8539196294311797e-06,1.333089246876045e-06,8.416806415163802e-05,1.251982794245057e-06,1.3389191084344414e-06,7.768745691170848e-07,1.893854822910268e-06
56,2.255876647372728e-06,1.2447652352224843e-06,1.5261413800742482e-06,2.403246439889106e-05,6.034173787799909e-07,9.137485467685984e-07,1.2595433992005598e-06,2.2343999522692667e-06,3.3079066210506214e-05,1.8586406872035293e-06,1.340959372754037e-06,8.84798978567897e-05,1.2309535473073689e-06,1.329856885335769e-06,7.796383380486543e-07,1.8817409721447777e-06
57,2.2777645261226354e-06,1.2806117304557154e-06,1.5476859774350055e-06,2.452412473713033e-05,5.989346588004196e-07,9.101021494135798e-07,1.25296287375613e-06,2.408358800696695e-06,3.1013570931034365e-05,1.8570771106871366e-06,1.346679137036376e-06,9.250869742041325e-05,1.2128099458690984e-06,1.3198002142821344e-06,7.837533671998565e-07,1.8728156294350742e-06
58,2.2941818880583237e-06,1.3176925619653822e-06,1.572693514117974e-06,2.4962874762298282e-05,5.957875106968369e-07,9.068514438026708e-07,1.2424018171595809e-06,2.6028777043257398e-06,2.8927735397531935e-05,1.8497532905206119e-06,1.3506642685241178e-06,9.620023078413588e-05,1.1980269405981352e-06,1.3088409229865158e-06,7.888538029507639e-07,1.867336864973367e-06
59,2.3056950891498923e-06,1.3551131851491397e-06,1.6014291220909828e-06,2.5344151051867656e-05,5.936703166789613e-07,9.03750859831086e-07,1.2281327857548637e-06,2.820350552535309e-06,2.684305103454675e-05,1.837522365999288e-06,1.3532029967430292e-06,9.950097784703772e-05,1.1868986517589446e-06,1.2970126745582174e-06,7.946884111380181e-07,1.865461840485012e-06
60,2.312608722442332e-06,1.392120156900957e-06,1.6339459998103814e-06,2.56667468524084e-05,5.922443889308273e-07,9.005666714407155e-07,1.2106204049680121e-06,3.0631066152589785e-06,2.4780198772219767e-05,1.8213504802171083e-06,1.3544785704699465e-06,0.00010236669106224743,1.1795252300364228e-06,1.2841863768032353e-06,8.011769601287104e-07,1.8672845710017482e-06
61,2.3148486275534536e-06,1.428161809590134e-06,1.6700227122314036e-06,2.5932354988878376e-05,5.912118229207609e-07,8.971810119593614e-07,1.1903101267928435e-06,3.3332941985978763e-06,2.2758596554022602e-05,1.8021614255607144e-06,1.354729815291303e-06,0.00010476961116126054,1.1758541069275563e-06,1.2700340660376835e-06,8.083347003297013e-07,1.8727678195523018e-06
62,2.312045690668131e-06,1.4628880392253183e-06,1.7091224058681744e-06,2.614465900825497e-05,5.903823379593434e-07,8.936741980031435e-07,1.1675367581676763e-06,3.6328094926664712e-06,2.0795498870242533e-05,1.7807152868959973e-06,1.354352667047219e-06,0.00010669462458467079,1.1757323963494337e-06,1.2541296753207667e-06,8.161489094956179e-07,1.881606145683115e-06
63,2.303728243994328e-06,1.4961150331391044e-06,1.7503956233245054e-06,2.6308083975151505e-05,5.896560678672514e-07,8.903212246688586e-07,1.142558097638881e-06,3.963226420482059e-06,1.8905340748821804e-05,1.7575018572496758e-06,1.3538183767436503e-06,0.00010812628665732216,1.1789608257781206e-06,1.2361015345115414e-06,8.245218088791776e-07,1.8932180944829627e-06
64,2.2894997354221145e-06,1.5277630925192602e-06,1.7927397956568542e-06,2.642638371708054e-05,5.889522311978503e-07,8.875013725456646e-07,1.1156207236467332e-06,4.325727090833624e-06,1.7099799249165332e-05,1.7326742650754013e-06,1.3534997488067351e-06,0.0001090404267697752,1.1853538536290108e-06,1.2157201939086624e-06,8.333190604721067e-07,1.9069015457976623e-06
65,2.2691446053687866e-06,1.5577557882269731e-06,1.8349598930041618e-06,2.650103828151547e-05,5.881865080963239e-07,8.855726670289459e-07,1.0870311229999331e-06,4.721049319484326e-06,1.538826737618654e-05,1.7060361652645863e-06,1.353550189595647e-06,0.0001094089920088579,1.1947557827789009e-06,1.1929032579689402e-06,8.424583568114949e-07,1.9220220719313323e-06
66,2.242660315735433e-06,1.5858991232508687e-06,1.8760938261643561e-06,2.652978764258601e-05,5.873098582838795e-07,8.847797400091825e-07,1.0572591000764245e-06,5.149406915143787e-06,1.3778087322664586e-05,1.6771082816795335e-06,1.3538742857378098e-06,0.00010921233351190879,1.206991092830377e-06,1.167673082579223e-06,8.519293270124848e-07,1.938152935865608e-06
67,2.210250038468147e-06,1.6118085265200473e-06,1.915817553082663e-06,2.6506385973684644e-05,5.863223499982403e-07,8.852200873812423e-07,1.027023093812994e-06,5.610302679699022e-06,1.227441762703054e-05,1.6453074201643671e-06,1.3541439832343385e-06,0.00010845038243441959,1.2218075791765256e-06,1.1400790843581861e-06,8.617241966887506e-07,1.955130792762621e-06
68,2.172291041881189e-06,1.6349455764506871e-06,1.954647429405759e-06,2.6422074334056064e-05,5.852700140645966e-07,8.868352613738539e-07,9.972507289033822e-07,6.102236120251704e-06,1.0880169657811433e-05,1.610175406404208e-06,1.353799624896252e-06,0.00010714948290901761,1.2388493796497526e-06,1.1101627775383843e-06,8.717530923862134e-07,1.972965631165974e-06
69,2.1292309130448518e-06,1.654720702173774e-06,1.993736355970999e-06,2.626782271904187e-05,5.842824834221218e-07,8.893953435686143e-07,9.689119382485367e-07,6.622416544970453e-06,9.596294463994245e-06,1.5715348479936173e-06,1.352051969054379e-06,0.00010536314715390386,1.2576339592440322e-06,1.0780551440430416e-06,8.817900805505355e-07,1.99162371964451e-06
70,2.081426333792557e-06,1.6705481926025818e-06,2.0344473756691196e-06,2.6036376520077177e-05,5.835851308041226e-07,8.924887337998765e-07,9.428550454318334e-07,7.1665739003013175e-06,8.422304616727155e-06,1.529505108035371e-06,1.3480002629730816e-06,0.00010316559067394866,1.277518346112952e-06,1.0441185694401852e-06,8.914539388748816e-07,2.010845952415465e-06
71,2.029092073906525e-06,1.6818392462768027e-06,2.0780655586545573e-06,2.5723982225647382e-05,5.83441559403363e-07,8.95566996865341e-07,9.197371697432851e-07,7.728840508081765e-06,7.356876321754142e-06,1.484393567766242e-06,1.3409004075346807e-06,0.00010063961120498285,1.2977169392287211e-06,1.0089891972517334e-06,9.002516621958504e-07,2.030132558834701e-06
72,1.97243894394958e-06,1.6880388592517566e-06,2.125705932025278e-06,2.5331713919485048e-05,5.841000769390581e-07,8.980938703495511e-07,9.000161258879083e-07,8.301649878381187e-06,6.398451288235797e-06,1.4365639234681592e-06,1.3303988174542367e-06,9.786310056328587e-05,1.3174248028665692e-06,9.735092551788884e-07,9.076935528242224e-07,2.048848241802355e-06
73,1.911836462382565e-06,1.68877269838791e-06,2.1782373600430515e-06,2.4866032176291364e-05,5.857761068028121e-07,8.997444315624886e-07,8.839519269316396e-07,8.875753530158605e-06,5.5456564732013136e-06,1.3864017436859657e-06,1.3165187467726182e-06,9.489979514101571e-05,1.3359816395589985e-06,9.386015088289925e-07,9.134364806831424e-07,2.0663513633468533e-06
74,1.847860295491812e-06,1.684036092779943e-06,2.2361943554932144e-06,2.4338310987843082e-05,5.886528208453855e-07,9.004784979468921e-07,8.716082284340964e-07,9.440611606861326e-06,4.797340695976214e-06,1.3343684330150503e-06,1.2994366523792151e-06,9.179820427306677e-05,1.3529760136092023e-06,9.051307455494737e-07,9.17400503124952e-07,2.082087972799745e-06
75,1.7812710061283287e-06,1.6742824269716213e-06,2.299750207877079e-06,2.376334592003001e-05,5.928958793232491e-07,9.004226821922585e-07,8.628573439714944e-07,9.98531572075236e-06,4.152279459513339e-06,1.2810419585131307e-06,1.279320322891736e-06,8.85976323197904e-05,1.3682527922406448e-06,8.738101720976239e-07,9.197872826494905e-07,2.0955907099583788e-06
76,1.71299851256457e-06,1.6603095736424778e-06,2.368718246871589e-06,2.3156998680170157e-05,5.986509941957356e-07,8.997342821661099e-07,8.574006133572238e-07,1.0499843726179125e-05,3.6088139199197802e-06,1.227097902611481e-06,1.2563944146115578e-06,8.533594462493252e-05,1.381837741178604e-06,8.451792960946151e-07,9.209636955143767e-07,2.1064654116425436e-06
77,1.644109602621113e-06,1.6430070343563113e-06,2.4425769434557266e-06,2.2533549058562202e-05,6.060124166492281e-07,8.985783151378813e-07,8.548196615265727e-07,1.0976153041768807e-05,3.1646323908927458e-06,1.173232440970766e-06,1.2310714393813112e-06,8.205412873315548e-05,1.3938384987234752e-06,8.196179829890173e-07,9.213063275717704e-07,2.1145370839970092e-06
78,1.5757040314080926e-06,1.623183728101546e-06,2.5206085729197632e-06,2.1904087934885314e-05,6.15008099984788e-07,8.971259732144095e-07,8.54645841484447e-07,1.1408723557677325e-05,2.8167614369044014e-06,1.120056280003689e-06,1.2039148779645318e-06,7.879625476700489e-05,1.4044085059599385e-06,7.973681518862897e-07,9.211448709530966e-07,2.1200172582543743e-06
79,1.5087979613494193e-06,1.6015863512085514e-06,2.6021495229783213e-06,2.1276777744327932e-05,6.256098725442731e-07,8.954943572646763e-07,8.564080243535406e-07,1.1794480654865978e-05,2.5616867926829164e-06,1.0680223203643983e-06,1.1754666561795983e-06,7.560650359395935e-05,1.413806817247426e-06,7.785669118834972e-07,9.207977626135436e-07,2.123386389161028e-06
80,1.444317253488129e-06,1.5789872704916919e-06,2.68684631569107e-06,2.065805846659002e-05,6.377271521453707e-07,8.936902958795538e-07,8.59631642859e-07,1.21321583147894e-05,2.39542207395518e-06,1.017423131947261e-06,1.1461431623341613e-06,7.252555155671706e-05,1.4224633194538004e-06,7.632716261577427e-07,9.205775962032089e-07,2.1250476642691986e-06
81,1.3831799759741123e-06,1.5562332218471798e-06,2.7748050138796327e-06,2.005349339269867e-05,6.511882380102293e-07,8.916027314015661e-07,8.638209564734338e-07,1.2421147409504295e-05,2.313474647366208e-06,9.684700563900071e-07,1.1162525203818276e-06,6.95871376319459e-05,1.4309193397033002e-06,7.514555132442272e-07,9.207226381506131e-07,2.1250474920816916e-06
82,1.3263223129395704e-06,1.5342453068810655e-06,2.8665127996899333e-06,1.946805235117861e-05,6.657606494015679e-07,8.8902525805559e-07,8.685194894136392e-07,1.2660147783377731e-05,2.3108052178880913e-06,9.21404020499718e-07,1.086002941333277e-06,6.681476029605485e-05,1.439665428609417e-06,7.429943685385154e-07,9.213317300488091e-07,2.122981502451288e-06
83,1.2746166778714926e-06,1.513944717794532e-06,2.962534095892609e-06,1.8906298357557083e-05,6.812205389843414e-07,8.857199908920317e-07,8.734703938170509e-07,1.2846494129064043e-05,2.3818508260240042e-06,8.765179315259211e-07,1.0554678582686244e-06,6.421986300311636e-05,1.4490370467932302e-06,7.376565422777406e-07,9.223776034262506e-07,2.1180742652873036e-06
84,1.2287918959167161e-06,1.4961123593924558e-06,3.0632543522326e-06,1.837277640190798e-05,6.974103624320088e-07,8.815294021332464e-07,8.787230169962442e-07,1.2976797390926137e-05,2.520668527254829e-06,8.340978564259463e-07,1.0246198280743674e-06,6.180339433541177e-05,1.459239204292308e-06,7.350913341852684e-07,9.237757384730749e-07,2.1094213377840026e-06
85,1.1894265057589378e-06,1.4812743971842965e-06,3.1688731674760008e-06,1.7872446604488557e-05,7.142263629952956e-07,8.764863096030912e-07,8.845515814497773e-07,1.3048312482621914e-05,2.721171205918685e-06,7.943953272911003e-07,9.934334613231007e-07,5.955998330802978e-05,1.47042424253966e-06,7.348368671571905e-07,9.254319383187801e-07,2.0963025523175375e-06
86,1.1569374549930733e-06,1.469686253394804e-06,3.279473118307336e-06,1.7410834800059105e-05,7.315638081473823e-07,8.708618025851414e-07,8.912762042862353e-07,1.3059947495838097e-05,2.97725870472423e-06,7.576295769747668e-07,9.619740489846095e-07,5.7481700700705636e-05,1.4827409749955206e-06,7.363664965504461e-07,9.272434461554639e-07,2.078416989651122e-06
87,1.131521166999733e-06,1.4613928573563444e-06,3.3949995029494513e-06,1.69938770364643e-05,7.492857442602703e-07,8.651131161796796e-07,8.991418650207966e-07,1.30125988237975e-05,3.2827719117683974e-06,7.239734210562164e-07,9.305033007465367e-07,5.555861951306698e-05,1.4963202178031163e-06,7.391433989547172e-07,9.290733619667031e-07,2.0559615138543233e-06
88,1.1131052647850098e-06,1.4562967190714235e-06,3.5152456636980047e-06,1.6627700233825756e-05,7.672120932000828e-07,8.597536733350639e-07,9.082660589424295e-07,1.2909063299798413e-05,3.631474422680321e-06,6.935586116190863e-07,8.995657760630869e-07,5.3776334678488416e-05,1.5111981345556384e-06,7.4262574486346e-07,9.307451516062671e-07,2.0295352944065124e-06
89,1.101340672735234e-06,1.4542059562765675e-06,3.639918037652602e-06,1.6318462090401034e-05,7.85109520724236e-07,8.552406426214768e-07,9.186109683620777e-07,1.2753694866089482e-05,4.017195248930011e-06,6.665204919461265e-07,8.699079630964262e-07,5.211532732250561e-05,1.5272286699948636e-06,7.462380407286002e-07,9.320997462791109e-07,1.9998959855902005e-06
90,1.0956291785738143e-06,1.4548668972117302e-06,3.768695043882586e-06,1.6072177477728614e-05,8.027046340470163e-07,8.519346336851945e-07,9.299831849789106e-07,1.2551842908855389e-05,4.4339971771765094e-06,6.430194634040042e-07,8.422913420036366e-07,5.055585801015107e-05,1.5440551877114144e-06,7.494036638926541e-07,9.330445186188622e-07,1.96773061406275e-06
91,1.0952015250548583e-06,1.457954713046573e-06,3.9011469007545066e-06,1.589449946576095e-05,8.196966574149324e-07,8.501043741373093e-07,9.420544547795374e-07,1.23089826514952e-05,4.876226521698072e-06,6.232081226329494e-07,8.173744063509019e-07,4.90845296053552e-05,1.5611555752789551e-06,7.516362836041447e-07,9.33518619137011e-07,1.9336373255544574e-06
92,1.099244980072207e-06,1.463010868141687e-06,4.036486319890167e-06,1.5790564866195935e-05,8.35719710633462e-07,8.499453985332099e-07,9.544028659184582e-07,1.202963387142617e-05,5.3384884196960386e-06,6.071891088047339e-07,7.956696808206999e-07,4.769642345775424e-05,1.577897572081234e-06,7.525660115679691e-07,9.334722441652795e-07,1.898280655837303e-06
93,1.1070249709747557e-06,1.4694221692043502e-06,4.1733152304962375e-06,1.576499054052353e-05,8.502960640790839e-07,8.515762040580719e-07,9.666025242241097e-07,1.171689716835779e-05,5.8156695483681825e-06,5.949990512209122e-07,7.775253214612869e-07,4.639164058735465e-05,1.593565281416136e-06,7.518842379676688e-07,9.329332912427901e-07,1.8624855854244305e-06
94,1.1179481852131888e-06,1.4765323551279144e-06,4.3095924037959195e-06,1.5821886680053084e-05,8.628553262133265e-07,8.549952503697543e-07,9.78315861072022e-07,1.1373248947698767e-05,6.30306256462319e-06,5.866394653679449e-07,7.631369434695606e-07,4.5170736128895195e-05,1.6074202001351308e-06,7.493302938579198e-07,9.320446216216286e-07,1.8271359806347348e-06
95,1.1315991918861314e-06,1.4838222732066742e-06,4.442888607233769e-06,1.5964566303838924e-05,8.728280898918921e-07,8.600546370990784e-07,9.89287366779869e-07,1.1001862682616181e-05,6.796564729455931e-06,5.821398334828234e-07,7.525832167465422e-07,4.403524932177656e-05,1.6188578672468885e-06,7.447363642381594e-07,9.310217402668071e-07,1.7929860353429114e-06
96,1.1478391140614174e-06,1.4910258330288533e-06,4.570817861820885e-06,1.6194753187197433e-05,8.797809520985598e-07,8.664986876708342e-07,9.99261911873981e-07,1.060731216726571e-05,7.292910345978299e-06,5.815664853819298e-07,7.458624367433478e-07,4.2993641274144985e-05,1.6275930178786216e-06,7.380249244019413e-07,9.301246629954319e-07,1.7605800522657216e-06
97,1.16698505755403e-06,1.4981015805361516e-06,4.69143154289754e-06,1.6511567550072374e-05,8.835230892616539e-07,8.74033330310597e-07,1.0079674316799104e-06,1.0195297409779406e-05,7.789932248369788e-06,5.849540686082062e-07,7.429340947397374e-07,4.206587813575042e-05,1.6337225453747664e-06,7.291712487611875e-07,9.296561975382348e-07,1.7302962816634275e-06
98,1.1899518116642136e-06,1.5051097818408003e-06,4.803370249888396e-06,1.691094024465953e-05,8.840920297597165e-07,8.823607543385102e-07,1.0151991190916347e-06,9.771663643994373e-06,8.286814836192648e-06,5.922470542167624e-07,7.437537496332839e-07,4.1281528716152246e-05,1.637579942290729e-06,7.182333269541611e-07,9.299590741633476e-07,1.702390504038703e-06
99,1.2182069132266832e-06,1.5121745839285907e-06,4.905756727143889e-06,1.738579780648708e-05,8.816358806205948e-07,8.911540709781801e-07,1.020880377584188e-06,9.341366549881432e-06,8.784041170935248e-06,6.032986308006445e-07,7.482545426504341e-07,4.067295740377303e-05,1.6394732221550407e-06,7.054042768650359e-07,9.314200496351077e-07,1.6770485944225336e-06
100,1.253538727342552e-06,1.5195650800621157e-06,4.998017599840203e-06,1.792675755527411e-05,8.763280236042899e-07,9.000100145363594e-07,1.025006678073103e-06,8.908138601578948e-06,9.28286490184503e-06,6.17884983153386e-07,7.562983037529243e-07,4.0268394846583145e-05,1.6395293958548413e-06,6.909802717029452e-07,9.344369608830371e-07,1.6545066819670393e-06
101,1.2977976166166875e-06,1.5276933819310135e-06,5.079809046586033e-06,1.852292519751867e-05,8.683748981063181e-07,9.084793048760932e-07,1.0275425356868638e-06,8.474990466740785e-06,9.785261043429191e-06,6.356945294419333e-07,7.676718649278536e-07,4.008811396689862e-05,1.6377607160092191e-06,6.753090205097459e-07,9.39346896269615e-07,1.6351363080222024e-06
102,1.3527463093171174e-06,1.5369554331414302e-06,5.1510333572020725e-06,1.916251397306301e-05,8.580645119809939e-07,9.162292689548141e-07,1.0283791658797923e-06,8.044943336036668e-06,1.0295260267382879e-05,6.563155531770047e-07,7.821194305263956e-07,4.0143681022978684e-05,1.6342245639153392e-06,6.588006185932724e-07,9.463727582219845e-07,1.6193955124072445e-06
103,1.4200010077715931e-06,1.5475664884624116e-06,5.211772321571474e-06,1.9833105182596826e-05,8.458141365777508e-07,9.232152058633573e-07,1.0273331275444574e-06,7.621434457717981e-06,1.0820339404285548e-05,6.792799275831206e-07,7.993508103567838e-07,4.043842144557319e-05,1.629091767632936e-06,6.419174267772656e-07,9.55583992742515e-07,1.6077070341635222e-06
104,1.5009851042439994e-06,1.5594767172165217e-06,5.261981640486067e-06,2.052156202642091e-05,8.321793393477349e-07,9.296765565176912e-07,1.0241203125484323e-06,7.208318676992514e-06,1.1370931281879674e-05,7.041539394552407e-07,8.190190348606614e-07,4.0967739196747116e-05,1.6225915637530802e-06,6.251020155525658e-07,9.668842886922e-07,1.600361950680622e-06
105,1.5969197902179445e-06,1.5723417363693974e-06,5.301042885448301e-06,2.121377741196955e-05,8.177844406456814e-07,9.35951868136928e-07,1.0183430682378107e-06,6.809625694537331e-06,1.1958307129542572e-05,7.305845238660458e-07,8.406870302001003e-07,4.1718942132840366e-05,1.6149057661483264e-06,6.087197910927196e-07,9.800579873868881e-07,1.5974612883610227e-06
106,1.7089272404210577e-06,1.5855598981781623e-06,5.3275427736985644e-06,2.1894489671966855e-05,8.032185730984462e-07,9.422970738207587e-07,1.0095692969897782e-06,6.429214638662052e-06,1.2592494089676591e-05,7.582727255560693e-07,8.637983543524774e-07,4.2670662652252104e-05,1.6060885026368646e-06,5.930456412713122e-07,9.94820343179285e-07,1.5988694290710748e-06
107,1.8381949089027262e-06,1.5984131249932012e-06,5.339516746476922e-06,2.2547508670361264e-05,7.889751260009912e-07,9.488610565519639e-07,9.97496651580486e-07,6.0703841161642676e-06,1.3281189388459434e-05,7.869456439703071e-07,8.876883671899385e-07,4.3792341850237804e-05,1.59608134508799e-06,5.782756817921226e-07,1.0108247264286739e-06,1.6041831537846937e-06
108,1.9860377493874207e-06,1.6102991462650492e-06,5.3349741048448246e-06,2.3156779679426893e-05,7.75444921956532e-07,9.55762138011367e-07,9.821169794560323e-07,5.7354921184359255e-06,1.4029480734400868e-05,8.163808571566948e-07,9.116602754538283e-07,4.504443737430263e-05,1.584783906275685e-06,5.645431020939806e-07,1.0276531372581228e-06,1.6127214521328653e-06
109,2.15377542530323e-06,1.620928734470312e-06,5.312405799195873e-06,2.370844362646629e-05,7.629524014690433e-07,9.63106501609062e-07,9.637686547143446e-07,5.4257227716459915e-06,1.4839801004904396e-05,8.464565437518863e-07,9.350947946866755e-07,4.6379621592214466e-05,1.572050317115151e-06,5.519198011735554e-07,1.0448101006192719e-06,1.62357296584776e-06
110,2.3425214038059076e-06,1.6303196253314133e-06,5.271157788481928e-06,2.419337699962593e-05,7.518221401708867e-07,9.709166444038157e-07,9.430271877093651e-07,5.141095768363807e-06,1.5711846749062996e-05,8.771332698290393e-07,9.575341074872933e-07,4.7745087520222255e-05,1.5576582613792472e-06,5.404229539280424e-07,1.0617684290747141e-06,1.6357594786702458e-06
111,2.553038254387265e-06,1.6386428929774517e-06,5.211614838835055e-06,2.460889238651533e-05,7.424155753829454e-07,9.790627196253137e-07,9.205589747682246e-07,4.880642443676304e-06,1.6642468051144816e-05,9.083510376677201e-07,9.786952378182212e-07,4.908668100872459e-05,1.5413980644713846e-06,5.300377334628144e-07,1.0781197248318847e-06,1.6484172636103552e-06
112,2.785685919905784e-06,1.646142082806198e-06,5.135085469253921e-06,2.49580825709294e-05,7.350943221228556e-07,9.87259324550404e-07,8.970580999540962e-07,4.642631507493527e-06,1.7625557604528792e-05,9.399399260935026e-07,9.984033285489168e-07,5.035492748682267e-05,1.5232282602113511e-06,5.207369008238446e-07,1.0937201432923823e-06,1.6608046998052673e-06
113,3.040367520340692e-06,1.653148447323251e-06,5.043389397322169e-06,2.5246573960160712e-05,7.301448065244573e-07,9.951058939131982e-07,8.732000516195786e-07,4.424821057930858e-06,1.865198030054739e-05,9.715985357330194e-07,1.0164901213787984e-06,5.150968630915406e-05,1.5033287651573657e-06,5.125138120399509e-07,1.1086683492759838e-06,1.6721770231793334e-06
114,3.31641250832433e-06,1.6600750503057013e-06,4.938390871384265e-06,2.5478645421894866e-05,7.277220312899347e-07,1.0021371876191284e-06,8.495757740956343e-07,4.224746761674572e-06,1.970953671445788e-05,1.0029609281435608e-06,1.032728686497913e-06,5.251901581067801e-05,1.4820222307217599e-06,5.054303046386185e-07,1.123166415795248e-06,1.681775161357527e-06
115,3.612441686857983e-06,1.6673949274086187e-06,4.821754460449421e-06,2.5655439328288793e-05,7.278310462001546e-07,1.0078954705888215e-06,8.266635034542512e-07,4.040005179604797e-06,2.0782782544863573e-05,1.033737061753685e-06,1.0468227382187572e-06,5.335431595839615e-05,1.4597034816343777e-06,4.996222280271584e-07,1.1374500351042437e-06,1.68900374959372e-06
116,3.926282056457686e-06,1.675665362614569e-06,4.694972808330308e-06,2.5776002542799588e-05,7.303285425775588e-07,1.012003146893023e-06,8.048290713460689e-07,3.868451132850749e-06,2.185283130873745e-05,1.0637967073797089e-06,1.0584124969146487e-06,5.398965312123365e-05,1.436833212220614e-06,4.952513460916813e-07,1.1517953388930073e-06,1.6936068260971718e-06
117,4.254950073884811e-06,1.6855841903554083e-06,4.559514474856602e-06,2.583944426378998e-05,7.349332866700858e-07,1.0141797313721082e-06,7.843318017714313e-07,3.708263830247577e-06,2.289803375928236e-05,1.0931283069988813e-06,1.0670942140201732e-06,5.440689624999006e-05,1.4138912217410104e-06,4.924510339771727e-07,1.1664582496606216e-06,1.695664959584866e-06
118,4.594710730633778e-06,1.698005306285637e-06,4.4168996002416e-06,2.5846470940432037e-05,7.412681322962852e-07,1.0142357572196974e-06,7.653395783024415e-07,3.5579147881400583e-06,2.3896114771391338e-05,1.1217786274716858e-06,1.0725321449386193e-06,5.459874285951294e-05,1.3913108655103503e-06,4.91299815612403e-07,1.1815608858481635e-06,1.6954295214226677e-06
119,4.941253720367278e-06,1.7138555252607487e-06,4.26856832030343e-06,2.5799969051311076e-05,7.489548992795408e-07,1.012110312492775e-06,7.479290757600399e-07,3.4161142195011557e-06,2.4826841833557703e-05,1.1498488351136483e-06,1.074665428529345e-06,5.4564709375924234e-05,1.369475748033468e-06,4.918331869051017e-07,1.197055524687758e-06,1.693114158389771e-06
120,5.290010021799772e-06,1.7339903801821687e-06,4.115586002874076e-06,2.5704987836505717e-05,7.577196872455907e-07,1.0079307289668106e-06,7.320780819588451e-07,3.2818018842678523e-06,2.567365215372403e-05,1.1774788602412675e-06,1.0738061666891914e-06,5.430643662644973e-05,1.3486975268918126e-06,4.940749190002969e-07,1.2127616302915358e-06,1.688775926681579e-06
121,5.636544672958987e-06,1.7591123177190856e-06,3.958488251190834e-06,2.5568422042013553e-05,7.674234876451214e-07,1.0020346638253658e-06,7.176957120738232e-07,3.1542020142089212e-06,2.6423399790408753e-05,1.2047710621960277e-06,1.0704879512149996e-06,5.382957809157046e-05,1.3291381760566194e-06,4.980526709339136e-07,1.2283857285421626e-06,1.6823535387376247e-06
122,5.976902110365348e-06,1.7898356591142936e-06,3.797511496359813e-06,2.5398552276433268e-05,7.779902794691819e-07,9.949213439117317e-07,7.046767673511865e-07,3.032896254927931e-06,2.7064276892203834e-05,1.2317162776695908e-06,1.0652233702732558e-06,5.31476729458114e-05,1.310749838182716e-06,5.037819308542515e-07,1.243533199426532e-06,1.673753296916008e-06
123,6.307796276724567e-06,1.8268556212337977e-06,3.633039887932913e-06,2.520453400363048e-05,7.893099760591254e-07,9.871312869059822e-07,6.929214067852399e-07,2.917810708563521e-06,2.7582909821024107e-05,1.2581696932019934e-06,1.0583742856768216e-06,5.227996617555818e-05,1.2932491833688445e-06,5.112306943425189e-07,1.2577918431575056e-06,1.6628219663997503e-06
124,6.6265662625341746e-06,1.8710984043716087e-06,3.4659126118745224e-06,2.4995929305117356e-05,8.012108836471182e-07,9.791155101012505e-07,6.823221705969151e-07,2.809027237574771e-06,2.796283103026776e-05,1.283882500156769e-06,1.0501615424270524e-06,5.124659294063341e-05,1.2761604513246471e-06,5.203024857522766e-07,1.2708360049330387e-06,1.6492633965908567e-06
125,6.930827475055065e-06,1.9237511442984105e-06,3.297425549709153e-06,2.4782336810906636e-05,8.134871616380595e-07,9.711799789997957e-07,6.727786615689291e-07,2.706495735332486e-06,2.8186094668204124e-05,1.3086074045693663e-06,1.0407767581561143e-06,5.006903239620938e-05,1.258997990429501e-06,5.308608209115186e-07,1.2824174954661856e-06,1.6327073664017728e-06
126,7.217898491500202e-06,1.986143794199045e-06,3.1290937057916838e-06,2.4573060708482214e-05,8.259085944299552e-07,9.635225818439926e-07,6.642507245786445e-07,2.6099016730910347e-06,2.8237336963430968e-05,1.3322123397018332e-06,1.0305261443373972e-06,4.877426950146135e-05,1.2415078784177925e-06,5.427566016637907e-07,1.292320098833474e-06,1.612944912821899e-06
127,7.48446855452502e-06,2.0595363025674766e-06,2.962379477025077e-06,2.4376737106630587e-05,8.382190391993037e-07,9.563116701096641e-07,6.567778900055255e-07,2.518805687375255e-06,2.8108073804642193e-05,1.3546912431485946e-06,1.0198696367267368e-06,4.73959848725342e-05,1.2237807249081872e-06,5.558199810212893e-07,1.3004286127454209e-06,1.5900644348326967e-06
128,7.727033118356091e-06,2.1449352601256302e-06,2.798578225324521e-06,2.4200936219823755e-05,8.501462738328252e-07,9.49747786943352e-07,6.504154158730059e-07,2.432872388051095e-06,2.779922317014082e-05,1.376096959090599e-06,1.0093033654864335e-06,4.59710017268607e-05,1.206173783387856e-06,5.698653428206918e-07,1.306806261960559e-06,1.5643364292138444e-06
129,7.942931604834015e-06,2.2430462686352083e-06,2.6388796749846233e-06,2.4051761869740375e-05,8.613947750801639e-07,9.440752741771981e-07,6.451423956443712e-07,2.3519920639206767e-06,2.732034627755039e-05,1.396492476553829e-06,9.992082274886203e-07,4.4533772367030286e-05,1.1891268768838116e-06,5.847466247408628e-07,1.3116287235728359e-06,1.5360807668421855e-06
130,8.13118101344055e-06,2.354342990457462e-06,2.484477756681535e-06,2.393330030396781e-05,8.716513977062796e-07,9.39540841157866e-07,6.408249889360357e-07,2.2762738752419866e-06,2.668568483885503e-05,1.4159219942268035e-06,9.898012994296865e-07,4.311182427541551e-05,1.172978978680824e-06,6.003790613350081e-07,1.3150389894038602e-06,1.5056907341951406e-06
131,8.292521342776927e-06,2.4791425883224714e-06,2.3366202514146613e-06,2.3846761874108508e-05,8.806597427453956e-07,9.363347021017358e-07,6.37245856714956e-07,2.2059575193756463e-06,2.59098788937641e-05,1.434350875932532e-06,9.811683145817512e-07,4.1723281950399084e-05,1.1578596060921559e-06,6.166869820636291e-07,1.3170503579242954e-06,1.4736283768230727e-06
132,8.428742303435587e-06,2.617589612570075e-06,2.1965841335756506e-06,2.378981832630778e-05,8.882871940703763e-07,9.345606731411013e-07,6.341692366748392e-07,2.141287078686669e-06,2.500658306314836e-05,1.4515822769011635e-06,9.732678194049899e-07,4.037614850052442e-05,1.1436856902564076e-06,6.335858826291302e-07,1.3175602869051646e-06,1.4403404367122087e-06
133,8.541679103790099e-06,2.769525516679414e-06,2.065606977186626e-06,2.375734745532575e-05,8.944868343824322e-07,9.342235182207986e-07,6.314080128640886e-07,2.0824090154367725e-06,2.3989628365645476e-05,1.4672171813987614e-06,9.659048549283288e-07,3.906877090218477e-05,1.130248453639397e-06,6.510316941713375e-07,1.3164880790620298e-06,1.406291686740079e-06
134,8.632266992614542e-06,2.9343171494622147e-06,1.9448019280311587e-06,2.3743943900581746e-05,8.992442385955534e-07,9.352007079573557e-07,6.288505992637282e-07,2.0293595381902927e-06,2.2874105878485536e-05,1.4807065566549453e-06,9.587756653895201e-07,3.779113176959138e-05,1.1173370764865367e-06,6.69033176857233e-07,1.3139495599159824e-06,1.3721030924026513e-06
135,8.700099299850469e-06,3.1107424216684455e-06,1.8350797995639864e-06,2.374676307859654e-05,9.026099811078388e-07,9.372211174189901e-07,6.264680552839481e-07,1.982142969062742e-06,2.1676455582214102e-05,1.491472555124092e-06,9.51601536443602e-07,3.6526793944059384e-05,1.1048149108127875e-06,6.876059356697037e-07,1.3102949911422864e-06,1.338591779163915e-06
136,8.743720318471185e-06,3.296984267774266e-06,1.737090096297582e-06,2.3766934253077806e-05,9.047165696586494e-07,9.398747893015174e-07,6.243718276376645e-07,1.9408426513009516e-06,2.0414265199151828e-05,1.4990700525804314e-06,9.442416663995215e-07,3.525569477420307e-05,1.092604476790325e-06,7.067472894382625e-07,1.3059573683762268e-06,1.3066374503873946e-06
137,8.761340313978328e-06,3.490716153027803e-06,1.6511764915396243e-06,2.3808969984309758e-05,9.057165774190084e-07,9.426426574728771e-07,6.228680749480728e-07,1.9057225798238372e-06,1.9105788410733628e-05,1.5033838021367107e-06,9.36711599741304e-07,3.395821778794967e-05,1.0806574519020977e-06,7.264608128802593e-07,1.301266008092063e-06,1.276988517058974e-06
138,8.751506507590972e-06,3.689171099049007e-06,1.577362388301548e-06,2.387875630037293e-05,9.05755875071446e-07,9.44955292641774e-07,6.223955937452061e-07,1.8772807243790036e-06,1.7768790558022874e-05,1.5047666498119247e-06,9.291339885371144e-07,3.2620012014904184e-05,1.0689682824676808e-06,7.467734126621853e-07,1.2963669296146696e-06,1.250153814681391e-06
139,8.713491346880913e-06,3.8891017371298235e-06,1.5153961641108849e-06,2.3981208358249958e-05,9.050146541931875e-07,9.463075688365997e-07,6.234089358591438e-07,1.8561774057768211e-06,1.641968203258411e-05,1.5039796949803629e-06,9.216613008716429e-07,3.1235328072460496e-05,1.0576002803661757e-06,7.676988119577467e-07,1.2912532597126958e-06,1.2264100999152362e-06
140,8.64734763414342e-06,4.086715895343405e-06,1.4648374067474353e-06,2.4118370196599773e-05,9.037081035921308e-07,9.464136699054836e-07,6.263225254692193e-07,1.8430277982731415e-06,1.5073971364184424e-05,1.5019576576602137e-06,9.144225182936129e-07,2.980636714125915e-05,1.046733845848872e-06,7.891922111781841e-07,1.2858687066476395e-06,1.2058816075137817e-06
141,8.55372606371351e-06,4.2777877333982506e-06,1.4251259276352991e-06,2.4288139699936547e-05,9.020358114325979e-07,9.453306613670642e-07,6.314880647139081e-07,1.8381906925214044e-06,1.3746918716876941e-05,1.4995801213979344e-06,9.075222306838517e-07,2.833899168817637e-05,1.0366975930865414e-06,8.111416042889024e-07,1.2802155203818331e-06,1.1886696169204494e-06
142,8.433557278830477e-06,4.45801956309895e-06,1.3955926493707261e-06,2.4483910350221796e-05,9.001791753059201e-07,9.434752831481388e-07,6.391567131835476e-07,1.8417004037564622e-06,1.2453006128332977e-05,1.4975544564172031e-06,9.010256775691487e-07,2.683915482232423e-05,1.0278771395644398e-06,8.333768158433622e-07,1.2743695551766418e-06,1.174991145979391e-06
143,8.287556465862739e-06,4.623494599183441e-06,1.3754137441133636e-06,2.469552233219128e-05,8.98343687256808e-07,9.415186398792589e-07,6.494504775365476e-07,1.853361219910194e-06,1.1204850463600522e-05,1.4963664814048619e-06,8.948956210291247e-07,2.5313333610077124e-05,1.0205686361811543e-06,8.556869173330784e-07,1.2684158933392157e-06,1.1652237514401238e-06
144,8.115629409382631e-06,4.771003147698158e-06,1.3635654159908002e-06,2.4911122218730114e-05,8.967471673552418e-07,9.402139479603239e-07,6.623692337248381e-07,1.8729074888356987e-06,1.0012736861514719e-05,1.496291152941962e-06,8.889523851639171e-07,2.3770641593864308e-05,1.0149305393325222e-06,8.778606189733295e-07,1.26242481599833e-06,1.1598142818692558e-06
145,7.916735462658919e-06,4.898186767686419e-06,1.3588442148615893e-06,2.511893816325057e-05,8.955348813160181e-07,9.402433227855379e-07,6.77826887824121e-07,1.900101985439826e-06,8.884838633844665e-06,1.4975020967082176e-06,8.829162352851118e-07,2.222313721075699e-05,1.011012903849537e-06,8.997287081054234e-07,1.25649209018387e-06,1.1591691429179693e-06
146,7.689689803683199e-06,5.003573060267344e-06,1.3599170109914385e-06,2.530805438664959e-05,8.946955281799445e-07,9.421466048161244e-07,6.956762640084076e-07,1.934697325641031e-06,7.827597062111264e-06,1.5001918207732168e-06,8.765231841611243e-07,2.068458271635162e-05,1.008761938507802e-06,9.211507520795786e-07,1.2507433535791037e-06,1.1636459611102396e-06
147,7.434497254884914e-06,5.086501416295848e-06,1.365325779365212e-06,2.5467578285412156e-05,8.940410746872311e-07,9.463233796617601e-07,7.156954464492467e-07,1.9762921014964063e-06,6.845995866726545e-06,1.5045708534124453e-06,8.696609559997608e-07,1.9169519876450912e-05,1.0080036548199711e-06,9.419471646775836e-07,1.2452733351463257e-06,1.1736102984775724e-06
148,7.1533281768992546e-06,5.146798506662136e-06,1.3735091889829014e-06,2.558486860708136e-05,8.93261220329822e-07,9.530423540769779e-07,7.375816681999481e-07,2.024204426573322e-06,5.943727803624563e-06,1.5107566588537253e-06,8.624458551668033e-07,1.769314668583464e-05,1.0084391853434796e-06,9.618492010082077e-07,1.2401107418241231e-06,1.1894435564258164e-06
149,6.850634560680591e-06,5.184213065847157e-06,1.3829285646515962e-06,2.5645119933266246e-05,8.920101772530806e-07,9.624252585017965e-07,7.610028318562287e-07,2.0774649175617308e-06,5.123269301532031e-06,1.5186780175124521e-06,8.551753831898387e-07,1.6271306115491954e-05,1.0096473643428687e-06,9.805070108453008e-07,1.2352542654765488e-06,1.2114559885179805e-06
150,6.532480713680009e-06,5.19805446834533e-06,1.3922249467795997e-06,2.563355146370382e-05,8.899543267913917e-07,9.744360936069255e-07,7.856666325406005e-07,2.134906812159631e-06,4.38589833924315e-06,1.5280904274933932e-06,8.481767290885744e-07,1.4920006383739089e-05,1.0111419539543188e-06,9.97547179632471e-07,1.230717154472101e-06,1.239777521964836e-06
151,6.20552652886532e-06,5.187420827500963e-06,1.4003215531442028e-06,2.553857913205887e-05,8.867849891541954e-07,9.888883057762896e-07,8.113359992177813e-07,2.1952575585538752e-06,3.7317723118948247e-06,1.5386861440411928e-06,8.41663932650005e-07,1.3654473765291753e-05,1.012517513054605e-06,1.0126398037179516e-06,1.2265352519297484e-06,1.2743211404221706e-06
152,5.87612882928444e-06,5.151781988026039e-06,1.4064952945995372e-06,2.5353966256647695e-05,8.822872621857702e-07,1.0054464803276567e-06,8.3778198836351e-07,2.2571816425237013e-06,3.1601622380264857e-06,1.5502324298225715e-06,8.35689667780323e-07,1.248810441245252e-05,1.0135838687894163e-06,1.0255204215269147e-06,1.2227590168280223e-06,1.314806214633218e-06
153,5.549774889949168e-06,5.0914835869722226e-06,1.4104169715446097e-06,2.5079520380808558e-05,8.764575359761334e-07,1.0236441158277346e-06,8.647261171075461e-07,2.319287098284587e-06,2.669762095264711e-06,1.5626951437267305e-06,8.301745830102083e-07,1.1431759999735036e-05,1.0143674406006599e-06,1.0359785153496508e-06,1.2194276734168188e-06,1.36078271027477e-06
154,5.230811919645267e-06,5.0080014576615495e-06,1.412084046648831e-06,2.472037357656585e-05,8.695289390865442e-07,1.0429468000914532e-06,8.918315348943892e-07,2.380125207243441e-06,2.258900377141256e-06,1.576298969487004e-06,8.249717979687224e-07,1.0493604660055637e-05,1.0149806743477502e-06,1.0438770000425563e-06,1.2165173004451723e-06,1.4116832609938183e-06
155,4.922371752847736e-06,4.903904843334781e-06,1.411621358880674e-06,2.428462890619836e-05,8.618637532554351e-07,1.0628073416875733e-06,9.187458800527495e-07,2.4382157316598562e-06,1.9256172601395086e-06,1.5914647074536487e-06,8.19938583662781e-07,9.679345789600397e-06,1.0154625885006446e-06,1.0491922318842602e-06,1.213894607860553e-06,1.4669164379157043e-06
156,4.626469860405104e-06,4.782545534755149e-06,1.4090574658415035e-06,2.3779998603792092e-05,8.538642215846411e-07,1.0826569962155473e-06,9.451482176986712e-07,2.4921284018412526e-06,1.6676819205008717e-06,1.6086228578645167e-06,8.14964972911008e-07,8.992632956392616e-06,1.015693746622878e-06,1.0519904712077985e-06,1.2112871649228047e-06,1.5258847858854894e-06
157,4.3442621768666656e-06,4.647603521686616e-06,1.404217361390179e-06,2.3211553803544583e-05,8.460043311162896e-07,1.1018854582147076e-06,9.707706072825612e-07,2.540610240666096e-06,1.482586712207842e-06,1.628008185904054e-06,8.099525886112577e-07,8.43533848666346e-06,1.0154097315578382e-06,1.0523273281688616e-06,1.208278435161171e-06,1.5878725263983244e-06
158,4.076314134875722e-06,4.502661648769956e-06,1.3967835476424957e-06,2.258209706815797e-05,8.388699944742428e-07,1.1199057815225185e-06,9.953786347962385e-07,2.5826849340737233e-06,1.3675638081574393e-06,1.649568599522263e-06,8.04816360530209e-07,8.007581317462803e-06,1.0142840689329464e-06,1.0501826059820274e-06,1.2043476972651937e-06,1.6519353545163212e-06
159,3.822734371803001e-06,4.350932248527433e-06,1.3864920671640456e-06,2.1894175970025014e-05,8.330927312946386e-07,1.1362990305179542e-06,1.0187081044053212e-06,2.617662627739657e-06,1.3196828172501046e-06,1.6729834302491515e-06,7.99527650304524e-07,7.707733163837569e-06,1.0120445455828302e-06,1.045555020132358e-06,1.1989572221357297e-06,1.7169155841377714e-06
160,3.5832062192041104e-06,4.195175496684402e-06,1.3733510519725129e-06,2.115191559592398e-05,8.29242685250819e-07,1.1509248382598377e-06,1.040434142837586e-06,2.645109002676697e-06,1.3359787208260794e-06,1.697679087107345e-06,7.941201350459745e-07,7.532703172064319e-06,1.00854511288032e-06,1.0386698518865724e-06,1.1917033123289939e-06,1.7815235888983958e-06
161,3.3570497969706134e-06,4.037760176323314e-06,1.3577160407199732e-06,2.036191551020449e-05,8.277905638016343e-07,1.163914355152397e-06,1.0602509448869722e-06,2.6648813742837303e-06,1.4135005945043053e-06,1.7228480932293246e-06,7.88631348407515e-07,7.478439554721166e-06,1.003728416876221e-06,1.0300706472057005e-06,1.1824790632728707e-06,1.8443679828831407e-06
162,3.1433620589400897e-06,3.880764524179071e-06,1.3401706533970444e-06,1.9533330474668675e-05,8.291452105211545e-07,1.175570812856122e-06,1.0779967582026185e-06,2.677233324954202e-06,1.5492566977426123e-06,1.7475686666003861e-06,7.830681330778487e-07,7.540379721417784e-06,9.97548745299295e-07,1.0204784317972766e-06,1.171509277373133e-06,1.90402005092556e-06
163,2.941157391767304e-06,3.726030612186504e-06,1.3213547609778353e-06,1.8677526417864287e-05,8.336901343242914e-07,1.1862505783752132e-06,1.0936946463799646e-06,2.6828511306141647e-06,1.740153486186478e-06,1.7710168778188113e-06,7.774473792714252e-07,7.713619721485274e-06,9.899480480876703e-07,1.0105812712652234e-06,1.1592192032320273e-06,1.9592895071856084e-06
164,2.74942706497137e-06,3.575129657659304e-06,1.3018917179308152e-06,1.7807610184042458e-05,8.41759318235928e-07,1.196265930592987e-06,1.1074722405808622e-06,2.6827087174960576e-06,1.983031312689662e-06,1.792673978909163e-06,7.718387285272174e-07,7.992663552510692e-06,9.808510523558374e-07,1.0009522017497908e-06,1.1460557281980793e-06,2.0095897234113576e-06
165,2.567148966951019e-06,3.4292352916541055e-06,1.282401924163893e-06,1.693786900674147e-05,8.535825736223034e-07,1.20583514860618e-06,1.1194376847270483e-06,2.6777916674372612e-06,2.2747163103430535e-06,1.8124300871912945e-06,7.66340893942976e-07,8.370871828695772e-06,9.70166898430723e-07,9.921068224413736e-07,1.132378660719278e-06,2.0550627912949456e-06
166,2.393345801598861e-06,3.288992877254413e-06,1.2634860268125729e-06,1.6083085719732377e-05,8.692531949420821e-07,1.215123365397958e-06,1.1296352184025994e-06,2.6688395042285667e-06,2.6119384982477864e-06,1.8305262787481255e-06,7.610218887020066e-07,8.839987004780899e-06,9.578523565727388e-07,9.84564237308463e-07,1.1184217612832961e-06,2.096349036280085e-06
167,2.2272190776797686e-06,3.1545676421873095e-06,1.245636752272038e-06,1.5257820561352974e-05,8.887138813245689e-07,1.2243418302740965e-06,1.1381167460870107e-06,2.656192199539102e-06,2.991232581082359e-06,1.8473642636567213e-06,7.559174144696565e-07,9.389968013752968e-06,9.439912761182681e-07,9.788024459692114e-07,1.1042969859535545e-06,2.134168626510825e-06
168,2.0683064223240045e-06,3.025927924958162e-06,1.2291800540042727e-06,1.4475773505300394e-05,9.117404407506045e-07,1.2337742999236178e-06,1.1450327301483364e-06,2.639759613140935e-06,3.4090847208155303e-06,1.8632711624372628e-06,7.511266732015189e-07,1.0009033107864466e-05,9.2881591515186e-07,9.751757721186096e-07,1.0900673275719398e-06,2.168958278339764e-06
169,1.9166139316146425e-06,2.9031509273537108e-06,1.2143311684349581e-06,1.3749192871927258e-05,9.379244464031829e-07,1.2436888196491943e-06,1.1506499339069857e-06,2.619122078950395e-06,3.862332251420233e-06,1.8783093057203582e-06,7.468911729565674e-07,1.0683732932114994e-05,9.126768106393009e-07,9.739204651161828e-07,1.0758493530788337e-06,2.200701427304731e-06
170,1.7726617815585578e-06,2.786507142083531e-06,1.2012914123274676e-06,1.3088255365816298e-05,9.66679323251402e-07,1.254256116428689e-06,1.155297641994939e-06,2.5937099041558763e-06,4.348639122615232e-06,1.892210194367537e-06,7.435548621536865e-07,1.1399076770358051e-05,8.959817629025292e-07,9.75227196434225e-07,1.0618305857549717e-06,2.228962448525454e-06
171,1.6373523429614613e-06,2.676291843093577e-06,1.190261243352856e-06,1.250054538143172e-05,9.973053224037656e-07,1.2655909141689584e-06,1.1592928670092387e-06,2.5629679377871726e-06,4.86693160244677e-06,1.9044546299328482e-06,7.414871923138644e-07,1.2138875965198699e-05,8.791334446663714e-07,9.792672697639154e-07,1.0481947903779613e-06,2.253081554313656e-06
172,1.5116846010905588e-06,2.572562118047713e-06,1.1813646456339648e-06,1.1990823181343935e-05,1.0291237624588285e-06,1.2778705228094644e-06,1.162883727825423e-06,2.526447378227681e-06,5.417633858177049e-06,1.9144433354273997e-06,7.41056036744911e-07,1.288628288160003e-05,8.624907040489363e-07,9.86139752691117e-07,1.0350816351932616e-06,2.2724191849170218e-06
173,1.3965054208677197e-06,2.4749611359815657e-06,1.1745900059831694e-06,1.1561035793238389e-05,1.0616309461378804e-06,1.2913745087894177e-06,1.1662148880941024e-06,2.4838151052905136e-06,6.0024751736000095e-06,1.9216942075212086e-06,7.426083253738644e-07,1.3624196564793953e-05,8.463320862578384e-07,9.958018092716595e-07,1.0226416753948946e-06,2.286522903608244e-06
174,1.2924228706040546e-06,2.382688749550822e-06,1.1698242355873586e-06,1.121049125359617e-05,1.0945571529407807e-06,1.306386504303025e-06,1.1693132194368182e-06,2.4348512874117844e-06,6.623838043590037e-06,1.926006040628709e-06,7.464254482083643e-07,1.4335072846180842e-05,8.308243767671737e-07,1.0080306541465447e-06,1.0111146825948344e-06,2.295218913733722e-06
175,1.199808843550994e-06,2.2946427839480542e-06,1.1669349441775541e-06,1.0936219077849024e-05,1.1277638740487097e-06,1.3230710665492915e-06,1.172100307175192e-06,2.379560933558651e-06,7.283892273473911e-06,1.927522118073886e-06,7.526760691402874e-07,1.5000189358341699e-05,8.160368627264406e-07,1.0224161351372813e-06,1.0008600377825297e-06,2.2987049473284264e-06
176,1.1187991043380798e-06,2.2097515095465867e-06,1.1657928185966366e-06,1.0733310241978546e-05,1.1610818708922684e-06,1.3414334954604912e-06,1.1744090756766552e-06,2.318406788830789e-06,7.983819632149354e-06,1.9266959588231924e-06,7.613804814614859e-07,1.5599641214253875e-05,8.019786805702593e-07,1.0383699110193967e-06,9.92329561060809e-07,2.297626766947179e-06
177,1.0492892732085075e-06,2.127317581650199e-06,1.1662001039415432e-06,1.0594985398679257e-05,1.194229307339741e-06,1.3613324602720905e-06,1.175991455374903e-06,2.252475596209218e-06,8.723316392929877e-06,1.924224834082592e-06,7.724005061152575e-07,1.6114276662687912e-05,7.885986503007823e-07,1.0551313688660333e-06,9.859979663752426e-07,2.2930309103683255e-06
178,9.909419466408783e-07,2.047117837633051e-06,1.167808746097357e-06,1.051271676810543e-05,1.2268167445561921e-06,1.3824864282802485e-06,1.1765588126559823e-06,2.183391740394093e-06,9.500467655028062e-06,1.920972486195583e-06,7.854596600550518e-07,1.652879721219984e-05,7.75776194844913e-07,1.0717774906863266e-06,9.822906208151186e-07,2.286159708611704e-06
179,9.432119739725527e-07,1.9692549848319296e-06,1.170129497702641e-06,1.0477019229708662e-05,1.2584000562530713e-06,1.404488527097808e-06,1.1758713876643539e-06,2.1130283549704406e-06,1.031203063165169e-05,1.917844433042561e-06,8.001787136459636e-07,1.6834175629968788e-05,7.633831967990588e-07,1.0873059322453106e-06,9.815597149761782e-07,2.2781902350630323e-06
180,9.054010436939687e-07,1.8939691566020263e-06,1.1726491087995007e-06,1.0478904937416413e-05,1.2885735009886012e-06,1.4268629793471938e-06,1.1738382070101094e-06,2.043267222998824e-06,1.1153983155107896e-05,1.9156214453986786e-06,8.161057746604047e-07,1.702824734454637e-05,7.51396985928523e-07,1.1008405139048245e-06,9.840928950846942e-07,2.2700289824500745e-06
181,8.767149164279225e-07,1.821550809740438e-06,1.1749963551884432e-06,1.0511315715894945e-05,1.3170673273950899e-06,1.4491627152036345e-06,1.1705653096745312e-06,1.976002786924755e-06,1.2021928831092915e-05,1.9148574950817795e-06,8.327075744255087e-07,1.7114268565844266e-05,7.399513209897392e-07,1.111875908474408e-06,9.900881861242885e-07,2.2622082786995585e-06
182,8.562850658030014e-07,1.7523098429501555e-06,1.1770627915921154e-06,1.0569882617916877e-05,1.3437847108880634e-06,1.4710527331999436e-06,1.1662967507774397e-06,1.913337805698422e-06,1.2910951316667535e-05,1.9159147931450327e-06,8.493528077546959e-07,1.709802419804405e-05,7.292684350970789e-07,1.1203980748787377e-06,9.99602171985763e-07,2.254905608092321e-06
183,8.432010065772961e-07,1.686496207266102e-06,1.1789909593581088e-06,1.0652832440045256e-05,1.3687356991961586e-06,1.492292088646712e-06,1.1613113666288959e-06,1.8577307171740112e-06,1.3814921736300973e-05,1.9190411751300777e-06,8.65412179376712e-07,1.698491761117189e-05,7.195441644644795e-07,1.1268118538569069e-06,1.0125291607188616e-06,2.248062316651554e-06
184,8.366086911806039e-07,1.6241736781529518e-06,1.1810297861275721e-06,1.0760215396961972e-05,1.3918911222186621e-06,1.512646141794658e-06,1.155877388014198e-06,1.8119069593970049e-06,1.4725625396220068e-05,1.924377293548973e-06,8.804689586082063e-07,1.6778898907541848e-05,7.108942440956901e-07,1.131757588074292e-06,1.0286159352393568e-06,2.241511172783858e-06
185,8.358138956013884e-07,1.5651644547503885e-06,1.183372687427252e-06,1.0892689797412873e-05,1.4130544672317982e-06,1.5318900332724114e-06,1.1502142462095947e-06,1.778589379095373e-06,1.5632017332266948e-05,1.9319108027542325e-06,8.944291142382828e-07,1.648384395273584e-05,7.033706821424091e-07,1.1359355474115488e-06,1.047513868734685e-06,2.2350219347496105e-06
186,8.403013634609949e-07,1.509137113479358e-06,1.186097798384402e-06,1.105019293016515e-05,1.4318524119040527e-06,1.5499292856366228e-06,1.1444032617552066e-06,1.7602692310822816e-06,1.6519805439888524e-05,1.941449419011409e-06,9.074587688834435e-07,1.6105881417296486e-05,6.969710933627398e-07,1.1399923636064275e-06,1.0688822183284137e-06,2.2282357440426313e-06
187,8.496604279947099e-07,1.4557383313357881e-06,1.1891940642412232e-06,1.123108738421325e-05,1.4478440102164331e-06,1.5668562861513426e-06,1.1383073973511841e-06,1.759118961451479e-06,1.737172669736464e-05,1.952672607239773e-06,9.19903362996172e-07,1.5654809992243718e-05,6.916073469046591e-07,1.1444543092217176e-06,1.0924728718493876e-06,2.2205839105041416e-06
188,8.634643574847996e-07,1.4046237407471758e-06,1.1925675455221555e-06,1.1432176560047744e-05,1.4606474834134963e-06,1.5828237258054406e-06,1.1315520813872175e-06,1.7769635771084164e-06,1.8168940218766676e-05,1.965269733456197e-06,9.32227806616565e-07,1.5143867995881551e-05,6.87081696746194e-07,1.1496821787247954e-06,1.1181238230627154e-06,2.211357284897872e-06
189,8.811627408894819e-07,1.355414495070573e-06,1.1960193397387557e-06,1.1649263013831471e-05,1.4699975092843143e-06,1.5978316623213853e-06,1.1235982369449024e-06,1.815252449867128e-06,1.8893484888798364e-05,1.9790619016531107e-06,9.449026766356006e-07,1.4588083856815302e-05,6.831240134908156e-07,1.1558610393567699e-06,1.1456889565631156e-06,2.1998962471384293e-06
190,9.020306044738744e-07,1.3077287539318625e-06,1.1992733535366253e-06,1.18776028637179e-05,1.475737141547511e-06,1.611593829674997e-06,1.1139256612170158e-06,1.8750416737172623e-06,1.9530991170325263e-05,1.9939612169605237e-06,9.582971622512074e-07,1.4002127151662118e-05,6.794601334510105e-07,1.1630269695857064e-06,1.1749594272359995e-06,2.1856690858452593e-06
191,9.25190837478256e-07,1.2612928099601298e-06,1.2020361616452262e-06,1.2111839164017791e-05,1.4777877011355054e-06,1.6235601280043724e-06,1.1022441328118248e-06,1.9569817992653917e-06,2.0072374728028372e-05,2.0097707195316178e-06,9.726707554321957e-07,1.3398672861342426e-05,6.758365278236577e-07,1.1710900185765272e-06,1.2056150281143882e-06,2.168225000469479e-06
192,9.496855396503831e-07,1.215966766721083e-06,1.2039970473389811e-06,1.2345457513762877e-05,1.47609643411328e-06,1.6330816395797503e-06,1.0885823485796602e-06,2.0613112750675746e-06,2.051349481085175e-05,2.0260407636140315e-06,9.882079852677854e-07,1.2787662589634973e-05,6.720372870418917e-07,1.1798353870314557e-06,1.2372079084821492e-06,2.1472372318491882e-06
193,9.745218730646824e-07,1.1716264453663863e-06,1.2047740368032546e-06,1.2570536912380243e-05,1.4705460961740772e-06,1.6396371263584793e-06,1.0731918531582924e-06,2.187871688473977e-06,2.085277950026287e-05,2.0421519009186734e-06,1.0050075965784154e-06,1.2176366445027429e-05,6.679490719064257e-07,1.1889265434500165e-06,1.2691297270165106e-06,2.122570823645217e-06
194,9.98664423407149e-07,1.1280481198745232e-06,1.203877116816818e-06,1.2778630615017298e-05,1.4608896700975406e-06,1.6429995041857106e-06,1.0563815815672522e-06,2.3361720896225125e-06,2.108838502150165e-05,2.0574990197914737e-06,1.0230564764188623e-06,1.1570024466314602e-05,6.635797669572806e-07,1.197943113087223e-06,1.300545149034241e-06,2.0941464875569853e-06
195,1.0210865762174038e-06,1.0849394239509899e-06,1.200702638619708e-06,1.2962483354908132e-05,1.446793650367734e-06,1.6432603115110867e-06,1.038440731337788e-06,2.505545695757508e-06,2.1217618891998888e-05,2.0715234781309774e-06,1.0422437306467139e-06,1.0972659430866667e-05,6.58975835496881e-07,1.2064731026637056e-06,1.3303526768229294e-06,2.061756822070979e-06
196,1.0409673038808064e-06,1.0420956483411548e-06,1.1945968439216314e-06,1.3117478990028008e-05,1.4279544948687983e-06,1.6407265129246134e-06,1.019652389825529e-06,2.695363248674721e-06,2.1239926171644756e-05,2.0835559464328177e-06,1.062407721710245e-06,1.0387593590905621e-05,6.541542349297148e-07,1.2142300592472219e-06,1.3572546984949736e-06,2.025107549250994e-06
197,1.0578948477264444e-06,9.99557888716124e-07,1.1850315539881993e-06,1.3241992557691969e-05,1.4042022723889715e-06,1.6357902146797282e-06,1.0003114794843809e-06,2.9051388708361987e-06,2.1161163079222546e-05,2.092698338090432e-06,1.0834198726938601e-06,9.81742809725735e-06,6.491275951092052e-07,1.2211096037328667e-06,1.3799439586857508e-06,1.983993324994505e-06
198,1.0718748829630955e-06,9.576716211189575e-07,1.1717709027994969e-06,1.3336428408494104e-05,1.3755698226854377e-06,1.6288590897079359e-06,9.807131772769364e-07,3.134416699320573e-06,2.09955141141248e-05,2.097930373200229e-06,1.105268684712167e-06,9.263608149386223e-06,6.439478401216213e-07,1.227131681864797e-06,1.3972825624857253e-06,1.9384448966954803e-06
199,1.0831446655398634e-06,9.170220537397376e-07,1.1548923605275283e-06,1.3401432572332613e-05,1.3423237590020347e-06,1.6203153102597977e-06,9.611132476532016e-07,3.3825182265785977e-06,2.076380509516441e-05,2.0983638594580186e-06,1.1280371237935252e-06,8.7261208905906e-06,6.387003981564463e-07,1.2323404303688369e-06,1.4083626905283206e-06,1.8888679213430191e-06
200,1.0919690565549218e-06,8.782901418223765e-07,1.1347022276641459e-06,1.3436502968853823e-05,1.304957768230885e-06,1.6104242984971307e-06,9.416828524848028e-07,3.6483020002796017e-06,2.0489980244326078e-05,2.093467374337664e-06,1.1517702648348482e-06,8.203891253778208e-06,6.33480055512719e-07,1.236758792203459e-06,1.4125223609197978e-06,1.8361281728135711e-06
201,1.0985541606114228e-06,8.421012242410564e-07,1.1116447360093628e-06,1.3439989759365047e-05,1.264186574488147e-06,1.5992243286781628e-06,9.224994396117904e-07,3.930042912695609e-06,2.019817579761198e-05,2.083177297979407e-06,1.1763673114477187e-06,7.695855822454188e-06,6.283801165535081e-07,1.2403682930735291e-06,1.409429840193244e-06,1.7814523466507514e-06
202,1.103074009740081e-06,8.08930957024895e-07,1.0862397025809328e-06,1.341017532035628e-05,1.2209507451820968e-06,1.5865083147118442e-06,9.035725838937322e-07,4.225442099261868e-06,1.9911249196489886e-05,2.0678990267010678e-06,1.2015896720984475e-06,7.20212028518335e-06,6.235143916211105e-07,1.2430688344736962e-06,1.3991519216557092e-06,1.726185182282436e-06
203,1.1057321728771431e-06,7.790908925771682e-07,1.0590299152125387e-06,1.3346421436329997e-05,1.1763786124345777e-06,1.571935164278934e-06,8.84877285936512e-07,4.531636980740995e-06,1.9650088500711347e-05,2.0484123648638e-06,1.2271355409952015e-06,6.7244516611538996e-06,6.190743694200216e-07,1.2446535829065701e-06,1.3820544741889873e-06,1.6715922895044989e-06
204,1.106795949465526e-06,7.527546215008934e-07,1.0305157727722384e-06,1.3249860568521401e-05,1.1316733081793036e-06,1.5551948505709545e-06,8.664117803114381e-07,4.845111848803061e-06,1.9432899020008116e-05,2.0256740086175896e-06,1.2526905414339367e-06,6.265757622581407e-06,6.153531120684335e-07,1.2448146753171845e-06,1.3586284516862974e-06,1.6188165146099559e-06
205,1.106573100705953e-06,7.299767382124648e-07,1.0010948382471697e-06,1.312366897796824e-05,1.0879658388431916e-06,1.5361261991246287e-06,8.48294290598819e-07,5.161604801582116e-06,1.9274437328996698e-05,2.0005944564327887e-06,1.2779569168435384e-06,5.82904067614846e-06,6.126882066747789e-07,1.2432090959440545e-06,1.3294386797972458e-06,1.5689253785087802e-06
206,1.1053387053426379e-06,7.10725585049304e-07,9.710358022247436e-07,1.2973050866969e-05,1.046201229514893e-06,1.5147449599474314e-06,8.308375412096239e-07,5.476112169207568e-06,1.918580378286464e-05,1.9739826884076824e-06,1.302714585104581e-06,5.416668961323523e-06,6.113700589686561e-07,1.2395704682376414e-06,1.295140314299335e-06,1.5229110492901999e-06
207,1.103288064867248e-06,6.949630320017444e-07,9.404800354698144e-07,1.2804996565430836e-05,1.0070954043888177e-06,1.491216257709276e-06,8.145293867387274e-07,5.782900992445198e-06,1.917510816539467e-05,1.9467016418323647e-06,1.3268851727071916e-06,5.030205635755319e-06,6.115874128379879e-07,1.2337332467440852e-06,1.2564154839401628e-06,1.481592730214804e-06
208,1.1005758596691347e-06,6.827124168930152e-07,9.094773708198312e-07,1.2627869990962529e-05,9.711546563885325e-07,1.4658286862090163e-06,7.999339102550413e-07,6.075406751927049e-06,1.924849561804989e-05,1.9197983979048783e-06,1.350515705812178e-06,4.67042032338247e-06,6.13441377402539e-07,1.2255998605339464e-06,1.21391207551643e-06,1.4455034832957106e-06
209,1.097373913061482e-06,6.74058762419967e-07,8.780914245238909e-07,1.2450856397887172e-05,9.38712092472106e-07,1.4389746604803694e-06,7.875879761579947e-07,6.34617001489454e-06,1.9410852539825366e-05,1.8944177668076346e-06,1.373688217751847e-06,4.33725715295526e-06,6.170009604622401e-07,1.2151911011272252e-06,1.1683230548093638e-06,1.4148447488792843e-06
210,1.0938598624031016e-06,6.691224330487892e-07,8.465315734552077e-07,1.2283220949644203e-05,9.099419790266425e-07,1.4110926335782584e-06,7.779412013144034e-07,6.587255520746469e-06,1.9665971677492552e-05,1.8715999216958592e-06,1.3964436186921863e-06,4.029924414167012e-06,6.223389562252549e-07,1.2026969090102479e-06,1.1205023481594429e-06,1.3895249824070764e-06
211,1.0901553017268232e-06,6.680307643705359e-07,8.152054068801383e-07,1.2133350616390033e-05,8.848789825785173e-07,1.3825660518297078e-06,7.713366180055871e-07,6.791383458799396e-06,2.001627918660328e-05,1.8521695999788833e-06,1.4187408928010198e-06,3.747236189855621e-06,6.295202988125484e-07,1.1884192897952228e-06,1.0714252063335486e-06,1.3692748300245334e-06
212,1.0862702921656158e-06,6.708734537625434e-07,7.846676220781032e-07,1.2007780927938427e-05,8.634906570118477e-07,1.3536509389436715e-06,7.680104916646538e-07,6.953324723036254e-06,2.0462260592418695e-05,1.8367594914295461e-06,1.4403970482773856e-06,3.4880861603717576e-06,6.385744559117476e-07,1.1726803348320115e-06,1.022028776369302e-06,1.353796940467036e-06
213,1.0820817828588746e-06,6.77670773917316e-07,7.555258440229037e-07,1.1910605407893396e-05,8.457724613233814e-07,1.3244984648728525e-06,7.680906057224176e-07,7.070714950139918e-06,2.1001734793302997e-05,1.825835993034169e-06,1.461022243511555e-06,3.251823451973207e-06,6.494801588857687e-07,1.1557637804691797e-06,9.7309280002136e-07,1.3428706442118767e-06
214,1.0773653135511556e-06,6.883710314678268e-07,7.283513842519601e-07,1.1843434867836832e-05,8.317839846749145e-07,1.2952419868845548e-06,7.715921523643415e-07,7.1437702125716965e-06,2.1629293207440653e-05,1.81962727001157e-06,1.4800178859045666e-06,3.0383998422486813e-06,6.621521453983651e-07,1.1378837407960583e-06,9.25207542653386e-07,1.3363590058562958e-06
215,1.0718860297568768e-06,7.028453627197009e-07,7.036173611512335e-07,1.1805654544524472e-05,8.215948519119355e-07,1.2660378443796453e-06,7.784369412775706e-07,7.174089746193393e-06,2.2336277100637033e-05,1.818011658593447e-06,1.496643063980865e-06,2.8484052433814183e-06,6.764247541629505e-07,1.1192028418196713e-06,8.788282054128786e-07,1.3341283439084467e-06
216,1.0655086243126783e-06,7.20875950839991e-07,6.816713994593269e-07,1.179469086363054e-05,8.151898272231911e-07,1.2370068882064547e-06,7.884968697777115e-07,7.163249890770187e-06,2.3111298469420636e-05,1.8204709424367713e-06,1.5101366126050867e-06,2.68314796967327e-06,6.920517769822466e-07,1.0999069201386703e-06,8.344101526181057e-07,1.3359484766356704e-06
217,1.0582651143308786e-06,7.42169403064717e-07,6.627262438108203e-07,1.180619107887049e-05,8.12423938591649e-07,1.2081924656699584e-06,8.016192267751284e-07,7.111980890990595e-06,2.3940841661546178e-05,1.8261314452846151e-06,1.5198570498643046e-06,2.5446447889403383e-06,7.087417462862574e-07,1.0802459875396994e-06,7.925295157358476e-07,1.3414541720388885e-06
218,1.0503544597902913e-06,7.663966002008968e-07,6.468532007319461e-07,1.1834113035845135e-05,8.130844868242507e-07,1.1796612303799026e-06,8.17611693751109e-07,7.0203334895974345e-06,2.4809528176712743e-05,1.8338621457364316e-06,1.5253557706853326e-06,2.4353098924818335e-06,7.262230965682073e-07,1.0604773817227364e-06,7.538836828142673e-07,1.3501581840250865e-06
219,1.0420739656079298e-06,7.932196064677825e-07,6.33987578085687e-07,1.1870824962713735e-05,8.170127393236644e-07,1.1516619911826874e-06,8.362042807563695e-07,6.888601251937006e-06,2.570007917520644e-05,1.8423680043738851e-06,1.5263982329497946e-06,2.357520035470189e-06,7.442838022980184e-07,1.040770139113877e-06,7.191927858950045e-07,1.3614487677038894e-06
220,1.0337018421929019e-06,8.222756837235967e-07,6.239585884458074e-07,1.1907427150902083e-05,8.241560204252623e-07,1.1246596913580444e-06,8.57007666056025e-07,6.718354722031584e-06,2.659302666991352e-05,1.8502152528654525e-06,1.5230007755848593e-06,2.313449559017499e-06,7.627338176815157e-07,1.0211570867851282e-06,6.891045945605911e-07,1.3745677785528607e-06
221,1.0254038480334164e-06,8.531356847413589e-07,6.165236406535359e-07,1.1934479126623187e-05,8.344948272427356e-07,1.099211097602245e-06,8.794891303479219e-07,6.513015609145581e-06,2.7465964134183198e-05,1.8558802257388114e-06,1.5154163862803061e-06,2.305226328803365e-06,7.813429368819238e-07,1.001572367113966e-06,6.641523720427903e-07,1.3886113638893394e-06
222,1.0172104479598493e-06,8.852949963763451e-07,6.113735122929468e-07,1.19431403891389e-05,8.479437136144853e-07,1.07582377760599e-06,9.029918084950506e-07,6.277803924790249e-06,2.8292933226703163e-05,1.858041971015961e-06,1.50398241781131e-06,2.3351009343284625e-06,7.998236335484626e-07,9.81940010125534e-07,6.447480548694709e-07,1.4026193300772602e-06
223,1.0090270952334136e-06,9.182414263679319e-07,6.081244132367309e-07,1.1926478636476443e-05,8.643174175021302e-07,1.0549176804827317e-06,9.267943943750578e-07,6.019243290174094e-06,2.9045764538062064e-05,1.856068963794252e-06,1.4889433036839021e-06,2.4053962132683214e-06,8.178258369709754e-07,9.622357631130894e-07,6.311937524187148e-07,1.4157302131302642e-06
224,1.0006759000025394e-06,9.515689934294259e-07,6.063597029007511e-07,1.1880462286685264e-05,8.833265894222766e-07,1.0368445601141394e-06,9.501757652562063e-07,5.744465096114662e-06,2.9698429012245744e-05,1.8502519587414953e-06,1.4704085151698833e-06,2.5183517977453833e-06,8.349368586556835e-07,9.424960543856077e-07,6.236930924126119e-07,1.4272278745477984e-06
225,9.9199430369205e-07,9.850477845659948e-07,6.057328568427436e-07,1.1804139537209486e-05,9.04555648879898e-07,1.0218924169130896e-06,9.72465430504737e-07,5.460480470186414e-06,3.0232783952655943e-05,1.841520020807927e-06,1.4484170800641501e-06,2.6761959297426135e-06,8.507475222955537e-07,9.227821302976478e-07,6.22338913317322e-07,1.4364793627446648e-06
226,9.829247709410494e-07,1.0185853609612226e-06,6.060475090477115e-07,1.169883523287859e-05,9.274619361273038e-07,1.010277280607479e-06,9.930992450872395e-07,5.173574161743468e-06,3.06418422018001e-05,1.8309645755300587e-06,1.423029928546147e-06,2.8815557872147558e-06,8.649263932735204e-07,9.03104298446972e-07,6.270925387240304e-07,1.4429770439819613e-06
227,9.73506470291499e-07,1.0521040301354127e-06,6.072521925306474e-07,1.1566637138669083e-05,9.514507473136475e-07,1.0021127634293258e-06,1.0116913659442117e-06,4.888958491732451e-06,3.092742788690601e-05,1.8195789881893137e-06,1.3944366565575297e-06,3.1379244931985435e-06,8.771838767203059e-07,8.83361315147252e-07,6.377814110811016e-07,1.4465047678415891e-06
228,9.637960696379941e-07,1.0854395198138757e-06,6.093762883689188e-07,1.1408843278005528e-05,9.760085940180694e-07,9.973575644984139e-07,1.028087133655764e-06,4.610715961599243e-06,3.1093616162191414e-05,1.8081970682048588e-06,1.3630361163599135e-06,3.4498138620239504e-06,8.871911401586611e-07,8.63338860160836e-07,6.541086430424643e-07,1.4472244979780534e-06
229,9.538427413811881e-07,1.118344908582268e-06,6.124530261686566e-07,1.1225282059318042e-05,1.0008244461841873e-06,9.957878445019966e-07,1.042347903195818e-06,4.3419501930740325e-06,3.114083274772215e-05,1.7974730453318932e-06,1.3294242100105895e-06,3.822435192458688e-06,8.946095564287213e-07,8.427580141761109e-07,6.756636381658198e-07,1.4455577561829947e-06
230,9.437553449815643e-07,1.1505772327816507e-06,6.164720416539997e-07,1.1014863737829264e-05,1.0258346294254218e-06,9.970235201997942e-07,1.054654711292373e-06,4.0850557436732406e-06,3.106354975709566e-05,1.7879538651146856e-06,1.2942753843341478e-06,4.261063336262266e-06,8.992161896931588e-07,8.213953461296608e-07,7.019343295056644e-07,1.4419356602166533e-06
231,9.337478122462292e-07,1.181995415930803e-06,6.213775609757831e-07,1.0776712451302538e-05,1.0511631329146102e-06,1.000583183323532e-06,1.0651648270201719e-06,3.841984605615642e-06,3.085159018973191e-05,1.780291039209655e-06,1.2582039298555355e-06,4.770446514370344e-06,9.009633435708651e-07,7.992480880961783e-07,7.323206430881895e-07,1.4365866503511324e-06
232,9.240894287000083e-07,1.2126132256145777e-06,6.270844724362832e-07,1.0511106033636916e-05,1.0769839905846757e-06,1.0059062002269616e-06,1.0738832953817248e-06,3.6143487036403014e-06,3.049448171971793e-05,1.775386032217502e-06,1.2216995106583564e-06,5.354505713080785e-06,8.998982858923873e-07,7.765933879924708e-07,7.66142455026347e-07,1.4294503584966946e-06
233,9.15012770342007e-07,1.2425583261902067e-06,6.335000030407696e-07,1.0220003057856686e-05,1.103375186196383e-06,1.0123414568917182e-06,1.0806087395796296e-06,3.40333317686233e-06,2.9986992362578502e-05,1.7742812295179688e-06,1.1851054320685342e-06,6.01624078906614e-06,8.960438131680271e-07,7.538654159821465e-07,8.026289381606019e-07,1.4202243977138369e-06
234,9.066388609051915e-07,1.2719401202225246e-06,6.405408683506623e-07,9.907168460719968e-06,1.1302267120813337e-06,1.0191528895150556e-06,1.0849867323620218e-06,3.209578757401922e-06,2.933273637629786e-05,1.7779540378975947e-06,1.1485823078829243e-06,6.7576189018640585e-06,8.89336305535332e-07,7.314828273487081e-07,8.409144610974832e-07,1.408581646026346e-06
235,8.989382277255538e-07,1.3007343076527572e-06,6.481202764025395e-07,9.577877932298908e-06,1.1572123594248886e-06,1.0255512194450791e-06,1.0866602591430845e-06,3.0331565959944906e-06,2.854438961122177e-05,1.787222885185026e-06,1.1121139472949335e-06,7.579393252187237e-06,8.796311345524783e-07,7.097902318626853e-07,8.800850933847854e-07,1.394481728199518e-06
236,8.917290440169928e-07,1.328801561070806e-06,6.561158162992031e-07,9.238255758005129e-06,1.1837976750161156e-06,1.0307759481739144e-06,1.0854405080424819e-06,2.87359429256779e-06,2.7641368507296088e-05,1.8027107835271975e-06,1.0756288552029017e-06,8.480966554023532e-06,8.66801686599491e-07,6.891008834915695e-07,9.192273282211646e-07,1.3783006155602716e-06
237,8.84716737091466e-07,1.3560078005512765e-06,6.643560073353426e-07,8.894499470118046e-06,1.2092997512202818e-06,1.034221976291602e-06,1.081376176117649e-06,2.7299215743631925e-06,2.6646364683230356e-05,1.824817222656322e-06,1.0391935210720696e-06,9.460304697727421e-06,8.509166529297423e-07,6.697221204303394e-07,9.57412778273482e-07,1.3606746573090936e-06
238,8.776096845483356e-07,1.3822862410298669e-06,6.726555760996264e-07,8.552298782102836e-06,1.2330325033600152e-06,1.035490648116628e-06,1.0746685079195113e-06,2.6008232396910072e-06,2.5581700822841313e-05,1.8537532408305935e-06,1.0031503960683603e-06,1.0513777965645681e-05,8.323510196746944e-07,6.519407601331665e-07,9.936907102447935e-07,1.34230451144832e-06
239,8.702986214417249e-07,1.407554027661638e-06,6.808853674016684e-07,8.216481011813434e-06,1.2544638140720597e-06,1.0342998062576966e-06,1.065543873869595e-06,2.484919785029911e-06,2.4466357107424343e-05,1.8896000310871399e-06,9.681157310837435e-07,1.1635887046242786e-05,8.117146567741465e-07,6.360079451228005e-07,1.0271805341694727e-06,1.3239068417313444e-06
240,8.629666798886069e-07,1.431566810348482e-06,6.890108993943417e-07,7.89072962720081e-06,1.2732624088778871e-06,1.0303611861583252e-06,1.054230288468308e-06,2.381044477537368e-06,2.331456008209485e-05,1.9323909481314478e-06,9.348584533224933e-07,1.2818910256672045e-05,7.896732899874977e-07,6.221137282323235e-07,1.0572262126154226e-06,1.3062105295567737e-06
241,8.56021415892482e-07,1.4538500263318058e-06,6.97071605345871e-07,7.57752787946259e-06,1.2892434632164126e-06,1.0233647370707354e-06,1.0410074611139168e-06,2.288394599075108e-06,2.2136169032666434e-05,1.982256428354346e-06,9.041617886580899e-07,1.4052588256799323e-05,7.668216337150301e-07,6.103482358037749e-07,1.0835206963279582e-06,1.2898849076024087e-06
242,8.49912405464183e-07,1.4737742779123476e-06,7.051492186969915e-07,7.278627463527231e-06,1.3023353568487604e-06,1.013076769801254e-06,1.0261952213909721e-06,2.2065120866734924e-06,2.0938201165823388e-05,2.0394571588224422e-06,8.767655453287919e-07,1.5324198829581994e-05,7.436538035482715e-07,6.006858732803352e-07,1.1061204800587204e-06,1.2754524425233763e-06
243,8.449816633976971e-07,1.4907303676356285e-06,7.133758202166734e-07,6.995849907481159e-06,1.3126255809866619e-06,9.99453614974105e-07,1.0100668710764495e-06,2.1350967908211016e-06,1.9726738979612343e-05,2.104176287095233e-06,8.533686326764065e-07,1.6619515169168153e-05,7.205778587803694e-07,5.930256955240833e-07,1.1253151459286023e-06,1.2632435420200186e-06
244,8.414227263669783e-07,1.5042787602115058e-06,7.219605736171333e-07,6.731703962787175e-06,1.3204049101544765e-06,9.826987878516265e-07,9.927881974466463e-07,2.0737770035510827e-06,1.8508747226956854e-05,2.1762634068227407e-06,8.346025571789258e-07,1.7924910294571915e-05,6.97947909522462e-07,5.872601814346404e-07,1.1414450254357533e-06,1.2533829034070212e-06
245,8.393249911659364e-07,1.5141815365956107e-06,7.311716526265918e-07,6.489566349057339e-06,1.3261022128983967e-06,9.632416997762755e-07,9.744169296786043e-07,2.0220674789993033e-06,1.7293413618991937e-05,2.255130210570806e-06,8.209790349435433e-07,1.9230247355974842e-05,6.761098009699416e-07,5.832947318784725e-07,1.1548048034136817e-06,1.2458371189583606e-06
246,8.387289443968727e-07,1.5203146652513888e-06,7.41284793688467e-07,6.273473563129062e-06,1.3301207319497072e-06,9.416427715982291e-07,9.5491837337388e-07,1.979588269387111e-06,1.6092631197507962e-05,2.339785455932963e-06,8.12863456739839e-07,2.0531314356188304e-05,6.554427665126177e-07,5.810243877629364e-07,1.1656685301020671e-06,1.240547304224091e-06
247,8.396457386919917e-07,1.522539513819869e-06,7.525530727357804e-07,6.087657814359593e-06,1.3326883028916115e-06,9.184678867783941e-07,9.342082579631371e-07,1.946346247316302e-06,1.4920369064352092e-05,2.428914881692584e-06,8.104812130592686e-07,2.1829966464331098e-05,6.363762083332055e-07,5.803516081350021e-07,1.1743852944653404e-06,1.2375119700197607e-06
248,8.420839799742267e-07,1.5206626615711214e-06,7.651760031882389e-07,5.935974301170676e-06,1.3337909935063867e-06,8.941875220869172e-07,9.122653882827665e-07,1.922857800003651e-06,1.3791154489138878e-05,2.5209449901938988e-06,8.139568214763973e-07,2.3131577450640347e-05,6.193672888819007e-07,5.812384228315222e-07,1.1814311458283246e-06,1.2367036879517818e-06
249,8.461051386511762e-07,1.5145224418407328e-06,7.792419599058576e-07,5.821416438059911e-06,1.3331888682565926e-06,8.691379823800021e-07,8.892465987975507e-07,1.9100702333390754e-06,1.2718403560165738e-05,2.6141195786244494e-06,8.233634823268933e-07,2.444286163567045e-05,6.048540265641119e-07,5.837077611746784e-07,1.1873395645942165e-06,1.237946382945807e-06
250,8.51827107321706e-07,1.5041142871774278e-06,7.946873615233395e-07,5.745964318246976e-06,1.3305134625642715e-06,8.435471933085455e-07,8.654835766479616e-07,1.9091442392643058e-06,1.1713331102434788e-05,2.7066299719092276e-06,8.387298081849972e-07,2.577296905609729e-05,5.932178434548881e-07,5.877812519338842e-07,1.1926063581661265e-06,1.2409012098784846e-06
251,8.593459149013852e-07,1.4896823965751978e-06,8.11312040953871e-07,5.7108494035184225e-06,1.3253810707729516e-06,8.17592664718805e-07,8.413923825164494e-07,1.9211891401832106e-06,1.0784683978449381e-05,2.796681518382469e-06,8.600132255576647e-07,2.71357464283163e-05,5.847671517829252e-07,5.934267521617992e-07,1.1976698506510214e-06,1.245131346428371e-06
252,8.686546287679817e-07,1.4717554179294228e-06,8.288398289479278e-07,5.71702547313424e-06,1.317406909156763e-06,7.91451256870343e-07,8.174199668313892e-07,1.9470872071893765e-06,9.93904469362519e-06,2.882401990871796e-06,8.870896148280645e-07,2.8549519477204722e-05,5.79729462182331e-07,6.005655354207896e-07,1.2029090987254358e-06,1.250189410174338e-06
253,8.796256017981028e-07,1.451124139595123e-06,8.46983538189968e-07,5.765588672314552e-06,1.3061869483321123e-06,7.652987721166863e-07,7.940251464986469e-07,1.987454279194822e-06,9.181281152632345e-06,2.9618282862021415e-06,9.197372638055705e-07,3.0034552342586833e-05,5.782502625917258e-07,6.091007007516015e-07,1.2085939533615257e-06,1.2557165752033682e-06
254,8.920407283930857e-07,1.4287940526212614e-06,8.654888503221755e-07,5.85805373474763e-06,1.2913925844289138e-06,7.392668718258766e-07,7.716380493079458e-07,2.0426470344624214e-06,8.514801019380346e-06,3.0331901486322634e-06,9.576016401923177e-07,3.1610594330070974e-05,5.804093939217982e-07,6.18918938433801e-07,1.214819848261819e-06,1.2614944080084688e-06
255,9.056227044997456e-07,1.4059228461737707e-06,8.841537633644349e-07,5.996490892781452e-06,1.2729128255547506e-06,7.134461473639513e-07,7.506237491465072e-07,2.112801069637537e-06,7.941551415458942e-06,3.0952646665883946e-06,1.0002197985589742e-06,3.329556623514322e-05,5.862346714000199e-07,6.299006083766454e-07,1.2214819070977578e-06,1.2673738672576065e-06
256,9.200534241385948e-07,1.3837117612749371e-06,9.028128325810153e-07,6.183544911961711e-06,1.2509136253447623e-06,6.879743841366893e-07,7.312807485843526e-07,2.1979136366288695e-06,7.462059712873945e-06,3.1475094468733538e-06,1.0471301484002667e-06,3.51047295522512e-05,5.956881912358001e-07,6.419733217738838e-07,1.2283169374599904e-06,1.2731261887512175e-06
257,9.349704229987409e-07,1.3633000715258045e-06,9.213161926123993e-07,6.422387260055586e-06,1.2257914899657833e-06,6.631229857188679e-07,7.138718726453158e-07,2.297853925999893e-06,7.075623331727768e-06,3.1900017268843194e-06,1.0979722638367387e-06,3.704962327114335e-05,6.08647852975219e-07,6.551484638039851e-07,1.235015480830083e-06,1.2783643332676063e-06
258,9.499561212558647e-07,1.3457562257388944e-06,9.39578206837593e-07,6.7166607820000125e-06,1.1980324490570511e-06,6.392927203959656e-07,6.986554074632204e-07,2.4122315456672963e-06,6.7803744037678675e-06,3.223325067464668e-06,1.1524960685259188e-06,3.913689296679874e-05,6.249188035557836e-07,6.694829542516075e-07,1.241349596961062e-06,1.2826149476715245e-06
259,9.645923808195155e-07,1.3321255568296646e-06,9.576584077965294e-07,7.070372038483997e-06,1.1680389503762708e-06,6.169339708992251e-07,6.858733395678451e-07,2.5402297348843963e-06,6.5732971723524594e-06,3.24841311558238e-06,1.2104805630236576e-06,4.136751287647047e-05,6.442646551721773e-07,6.850211392621863e-07,1.2472304209095367e-06,1.2854542263740677e-06
260,9.78593565810413e-07,1.3234206773740394e-06,9.757388554744014e-07,7.487566339579166e-06,1.1360380552518236e-06,5.964800497649242e-07,6.757240817536167e-07,2.6805440018305775e-06,6.450510664770928e-06,3.2662738961241756e-06,1.27160317673003e-06,4.3736671370655456e-05,6.664208319358973e-07,7.01777920683809e-07,1.2526620663108204e-06,1.2865808408561035e-06
261,9.919201434069082e-07,1.3205361750351552e-06,9.940039658917843e-07,7.971717814163707e-06,1.1021326983461993e-06,5.78343739993079e-07,6.683590385159544e-07,2.831469987099591e-06,6.40760974913286e-06,3.2776635141836244e-06,1.3353401244647318e-06,4.62342703107521e-05,6.911182995795594e-07,7.197435994081986e-07,1.2576678236662195e-06,1.2858461892788248e-06
262,1.0047644182444717e-06,1.324160799105318e-06,1.012562317625881e-06,8.525030625793861e-06,1.0664586144693652e-06,5.629298350781643e-07,6.638843948056174e-07,2.9910585958378324e-06,6.439669087568161e-06,3.2829031257562994e-06,1.400989200387322e-06,4.88456739868177e-05,7.181589557585577e-07,7.38900987159315e-07,1.2622863622270932e-06,1.2832845879546338e-06
263,1.0174035755315394e-06,1.3347463213391074e-06,1.0314661235667832e-06,9.147927858441478e-06,1.029317821407134e-06,5.506177936032696e-07,6.623730222746429e-07,3.1572066586780607e-06,6.540921606106262e-06,3.2818944064543532e-06,1.4678046223852105e-06,5.155202407413261e-05,7.474616016119079e-07,7.592475971425315e-07,1.2665890281015142e-06,1.2790716313521383e-06
264,1.0300516480541534e-06,1.3525192394844785e-06,1.0507742057892711e-06,9.838826634537654e-06,9.911708055169036e-07,5.417333982077418e-07,6.638982670749356e-07,3.3276454609366845e-06,6.704425259437109e-06,3.274278385173906e-06,1.5351143142838953e-06,5.432954511136817e-05,7.79002386719892e-07,7.807713740069001e-07,1.2706341161487515e-06,1.2734573377157694e-06
265,1.0428100992491775e-06,1.3774961102082246e-06,1.0705764871175198e-06,1.0594149456751692e-05,9.525279598208881e-07,5.365251310166067e-07,6.68551942023248e-07,3.4999120227034523e-06,6.921935189102584e-06,3.259684129137362e-06,1.6023173037459094e-06,5.714796284265256e-05,8.127171704773684e-07,8.033820799437358e-07,1.2744243967589606e-06,1.2667970724513884e-06
266,1.055660423161771e-06,1.4094951481700918e-06,1.0909408481855974e-06,1.1408506554674774e-05,9.138947670195835e-07,5.351515488589771e-07,6.764338602879485e-07,3.6713732142535044e-06,7.1839314785945705e-06,3.237955241388261e-06,1.6687860733972148e-06,5.9968725322441566e-05,8.484388685599122e-07,8.268663009432829e-07,1.2779410867835453e-06,1.2595693033203658e-06
267,1.0684498547095608e-06,1.4481575321798967e-06,1.1118498231529503e-06,1.2274959738652815e-05,8.758082746580778e-07,5.37699913608522e-07,6.876415909851664e-07,3.839237213689027e-06,7.479751427728219e-06,3.209263273821826e-06,1.7337697540914378e-06,6.274350331843709e-05,8.858654635543484e-07,8.508984039313014e-07,1.2812107047607611e-06,1.2522573412298214e-06
268,1.0809179959732682e-06,1.4929945199096004e-06,1.1332102590345232e-06,1.3185205331172726e-05,8.388472299323926e-07,5.442238983269099e-07,7.022558002270698e-07,4.000458862313979e-06,7.79792084579794e-06,3.1741450270898717e-06,1.7963432638151294e-06,6.54127550751703e-05,9.245584744452855e-07,8.75102426502919e-07,1.284329783220561e-06,1.2452366060255442e-06
269,1.0927734990876658e-06,1.5434611701313497e-06,1.154925277724701e-06,1.4129499509905796e-05,8.035765641964297e-07,5.547532898056846e-07,7.202998154110644e-07,4.151703922848874e-06,8.126717902301277e-06,3.1335188301021573e-06,1.8553872007831876e-06,6.790479793304878e-05,9.63983877894436e-07,8.991438474317471e-07,1.2874122249269503e-06,1.238781698928905e-06
270,1.1037555669283791e-06,1.5990107525881478e-06,1.1769697687548687e-06,1.5096245709428213e-05,7.705050717414724e-07,5.692617281915415e-07,7.417038276594784e-07,4.289719496054164e-06,8.454898508771584e-06,3.0886350018924654e-06,1.9096586438979317e-06,7.013924317498757e-05,1.0035886388447456e-06,9.227750026431199e-07,1.29051099683108e-06,1.2330978130367302e-06
271,1.1136314426561398e-06,1.6590594297609414e-06,1.1993984810271332e-06,1.607138212714748e-05,7.400717683556992e-07,5.876297384850838e-07,7.66306952964066e-07,4.412092694332712e-06,8.772510404030933e-06,3.040922974661834e-06,1.95801862239709e-06,7.20397030130029e-05,1.0428607638609197e-06,9.457744236989995e-07,1.2936174166679006e-06,1.2283526165149169e-06
272,1.1221373050769546e-06,1.7228539073270928e-06,1.2222551438592607e-06,1.7038034233171512e-05,7.126224837660264e-07,6.096348919119809e-07,7.938622807401379e-07,4.517876799013161e-06,9.071660714673824e-06,2.9918393052884474e-06,1.9996824017891824e-06,7.355301374177659e-05,1.081302643581183e-06,9.678441081411726e-07,1.29675101671856e-06,1.2247801664077531e-06
273,1.1289343886261252e-06,1.7893548126395274e-06,1.2454675880441538e-06,1.7976888636486135e-05,6.883859441752886e-07,6.349722142639784e-07,8.240102788673193e-07,4.607586691098266e-06,9.346968237453658e-06,2.9428017710002386e-06,2.0343089255574606e-06,7.466287154862739e-05,1.1183796947781524e-06,9.88568271390533e-07,1.3000474518228933e-06,1.222742767959763e-06
274,1.1336761002841774e-06,1.8573003938179592e-06,1.2688036389073778e-06,1.8867143022114616e-05,6.674690395771084e-07,6.63287586583715e-07,8.562609105731373e-07,4.682532014632928e-06,9.595417352007565e-06,2.895123764871684e-06,2.0619335882965805e-06,7.538759586754608e-05,1.1535795225114244e-06,1.0074868528618027e-06,1.3037640150320182e-06,1.2226209304090613e-06
275,1.136167121944744e-06,1.9254688330916735e-06,1.2918461233839115e-06,1.968758330847901e-05,6.498669745735551e-07,6.941948544567126e-07,8.900523897462758e-07,4.743950998777791e-06,9.815455431526627e-06,2.849876414308266e-06,2.0828535501475356e-06,7.576418474615964e-05,1.186543612097848e-06,1.0242697174309873e-06,1.3081823193663023e-06,1.2246575083388993e-06
276,1.1364605003597202e-06,1.992905007383534e-06,1.3139903336710432e-06,2.0417870685617678e-05,6.35475314743361e-07,7.27281496799572e-07,9.248795086649114e-07,4.7925530792769216e-06,1.000568632241358e-05,2.807747958665792e-06,2.0975372153939705e-06,7.583134191311533e-05,1.217107552170952e-06,1.0388615038038289e-06,1.3134680021848332e-06,1.2288876360750486e-06
277,1.134800405150375e-06,2.0588824050341103e-06,1.3345531567606712e-06,2.1040481173372995e-05,6.240980270881708e-07,7.621165459420523e-07,9.60375526098915e-07,4.8286702388878e-06,1.0164377996902546e-05,2.7690218735318568e-06,2.1065735945264623e-06,7.562140440540658e-05,1.2451957909236102e-06,1.051456927733166e-06,1.3195983299746073e-06,1.23512822030816e-06
278,1.1314793608210495e-06,2.122716788510046e-06,1.352988999934522e-06,2.1543179926412613e-05,6.154834167172353e-07,7.982479920289091e-07,9.962595526190791e-07,4.852674658073955e-06,1.029053809096926e-05,2.7337739687968513e-06,2.1106230701784137e-06,7.515906014438454e-05,1.2706933176591544e-06,1.0623357226339582e-06,1.3263731232314328e-06,1.2430419568918024e-06
279,1.1267131310584102e-06,2.183713981697337e-06,1.3690671958025538e-06,2.1921071443247313e-05,6.094151322550177e-07,8.352008489293001e-07,1.0322317737538119e-06,4.865244175762804e-06,1.0385464366262526e-05,2.702214889510561e-06,2.1103206717915096e-06,7.446011376446592e-05,1.293433344843747e-06,1.0717027953312364e-06,1.3334172322109847e-06,1.2523122234068448e-06
280,1.1205667911808115e-06,2.2412509202505476e-06,1.3828520322358205e-06,2.217704835201851e-05,6.058004723821172e-07,8.724739276060971e-07,1.0679253868884164e-06,4.8673750499000985e-06,1.0453310704683242e-05,2.674899611321291e-06,2.106144268561086e-06,7.352915548561784e-05,1.3132589887957302e-06,1.0796120289712904e-06,1.3401651533255372e-06,1.2628074554519883e-06
281,1.1129192306592422e-06,2.2947855082668124e-06,1.3944928164415042e-06,2.232006226489415e-05,6.046672626194104e-07,9.095156400795987e-07,1.102879405926012e-06,4.860282433910554e-06,1.0500569935227393e-05,2.6526731129590843e-06,2.0983304540505095e-06,7.235863331688511e-05,1.3300162268964414e-06,1.085963930035367e-06,1.3459561858379408e-06,1.274583409387973e-06
282,1.103468324664189e-06,2.343769465935753e-06,1.4040362502692597e-06,2.2361699192913377e-05,6.060749670221756e-07,9.457234231619824e-07,1.1364941758473485e-06,4.84529462984126e-06,1.0535209809073693e-05,2.636499270666231e-06,2.0869580393576533e-06,7.093068459820956e-05,1.3434812156193074e-06,1.090579700913352e-06,1.350284897330082e-06,1.2878027541277173e-06
283,1.091820536155486e-06,2.387600293764531e-06,1.411414589371059e-06,2.2312708792729342e-05,6.10035388138696e-07,9.80487677681717e-07,1.1680331265234227e-06,4.823716584133506e-06,1.0565981366245496e-05,2.627287272411996e-06,2.0722171034781413e-06,6.922238797063176e-05,1.3533618127900852e-06,1.0933113154273417e-06,1.3530313721652558e-06,1.3027468470849028e-06
284,1.077674130424459e-06,2.4256777740796334e-06,1.4165340061783437e-06,2.218148654254436e-05,6.165099136537005e-07,1.0132005818728266e-06,1.1967156817552384e-06,4.796626760550324e-06,1.0601903939904658e-05,2.6256978893416922e-06,2.0546630797203892e-06,6.721492351085999e-05,1.3594136041510375e-06,1.0940703902189671e-06,1.3544657020219975e-06,1.319856012324173e-06
285,1.0610056772290403e-06,2.4575298828232635e-06,1.4193538859312247e-06,2.1974862522148207e-05,6.254506414250106e-07,1.0432012174140211e-06,1.2218660989409278e-06,4.764634577379552e-06,1.0651679070071201e-05,2.631963216544604e-06,2.0352497182542316e-06,6.490473717075268e-05,1.3615250405371894e-06,1.092789894569347e-06,1.3550316710350972e-06,1.3396339130459949e-06
286,1.042166082218091e-06,2.482963584658172e-06,1.4199428091127413e-06,2.1699558370781957e-05,6.368037705445467e-07,1.0697742039220572e-06,1.2430187678380497e-06,4.727654346117226e-06,1.0722941267864106e-05,2.6457868817256725e-06,2.015174798157242e-06,6.231114450918472e-05,1.3596744315061447e-06,1.0894460268743724e-06,1.3551168101528824e-06,1.362458364090564e-06
287,1.0218688160174394e-06,2.502221261231629e-06,1.4184952976838572e-06,2.1362973639753368e-05,6.504612033379778e-07,1.0923136735606535e-06,1.2598792689213977e-06,4.684811527071875e-06,1.0821622364347182e-05,2.6663265144849226e-06,1.9956909264254326e-06,5.947409117339605e-05,1.3538920587684476e-06,1.0841096056670909e-06,1.3549552201058011e-06,1.388441179983509e-06
288,1.0010752036827898e-06,2.5161145494758378e-06,1.415270521365281e-06,2.0973382507529754e-05,6.662243542488291e-07,1.1105687698579545e-06,1.2721812665387298e-06,4.634645564936265e-06,1.0951876201967836e-05,2.6922915112450448e-06,1.977940109532129e-06,5.644291484841116e-05,1.3443439493904018e-06,1.076909162222587e-06,1.3546150846704302e-06,1.4173864915430629e-06
289,9.80810616886511e-07,2.5260709938132338e-06,1.4104758461696411e-06,2.053994569937483e-05,6.838095023984077e-07,1.1247260258636643e-06,1.2795967891712875e-06,4.575602544303124e-06,1.1116692581465609e-05,2.7222165998208204e-06,1.9628056313967763e-06,5.3266893545662274e-05,1.3314224950993297e-06,1.0679475199789366e-06,1.3540032580610654e-06,1.4488379666795365e-06
290,9.620210668127743e-07,2.534044625671236e-06,1.4041799320981085e-06,2.007254491907058e-05,7.028760171086984e-07,1.135228723941367e-06,1.281763487984989e-06,4.506555561440683e-06,1.1318882770611538e-05,2.754827154458338e-06,1.95081960915383e-06,4.999388162298691e-05,1.315698094746606e-06,1.057302727750433e-06,1.3528739465912279e-06,1.4822064141280836e-06
291,9.455309635809361e-07,2.5423139474650385e-06,1.396301238872351e-06,1.9581428205212737e-05,7.230896734458857e-07,1.1425564799155402e-06,1.2783728211590216e-06,4.427090354629229e-06,1.1562008117617386e-05,2.789264780230736e-06,1.942146259397566e-06,4.6670570897406306e-05,1.2977477890610555e-06,1.0450982566845102e-06,1.3508235140374467e-06,1.5169450402885851e-06
292,9.320432329503002e-07,2.553214208896141e-06,1.3866491218863634e-06,1.907701287591525e-05,7.442066577999416e-07,1.147185214937151e-06,1.26927420592245e-06,4.3375016792353585e-06,1.1850914634092675e-05,2.8250085524393235e-06,1.9365704310208245e-06,4.334045244197119e-05,1.278016249488044e-06,1.0315138741202458e-06,1.3472848941831447e-06,1.5526838869718337e-06
293,9.221421396364272e-07,2.5688443347312634e-06,1.3750009566586626e-06,1.857022167957987e-05,7.6608350675594e-07,1.1496512614757622e-06,1.254568926253837e-06,4.23859824997638e-06,1.2191659630752147e-05,2.861553868420903e-06,1.9334667742919813e-06,4.0043209726992815e-05,1.2568546946010495e-06,1.01672816359058e-06,1.3415897216209148e-06,1.5892413854299135e-06
294,9.162983593047548e-07,2.590843370808229e-06,1.361211094485951e-06,1.807322993282945e-05,7.885821326156835e-07,1.1505565448882156e-06,1.2346578965886305e-06,4.1314164032744915e-06,1.2590859570994428e-05,2.8980633354355913e-06,1.9318521405582673e-06,3.6815413925179105e-05,1.2346682878609227e-06,1.000870771675152e-06,1.3331495327188367e-06,1.6265649571833893e-06
295,9.148512803900564e-07,2.6203120954479107e-06,1.3452714519298636e-06,1.7600079276280393e-05,8.114630712811701e-07,1.1504865898208067e-06,1.210204921910761e-06,4.0168778285265784e-06,1.3054733778488808e-05,2.933183373446827e-06,1.930577583717193e-06,3.368952498366893e-05,1.2119583576951553e-06,9.839972854718196e-07,1.3216491761289005e-06,1.6647054246046747e-06
296,9.179776901481159e-07,2.6578344304595085e-06,1.3272389323025877e-06,1.7166690657856818e-05,8.343414401390451e-07,1.1499277483369843e-06,1.1820056378909832e-06,3.895476810010083e-06,1.3588108482295964e-05,2.965057458775633e-06,1.928510444208838e-06,3.0692540151541845e-05,1.1892075174856485e-06,9.661077776382439e-07,1.307065123827455e-06,1.7037745735578367e-06
297,9.256978455656376e-07,2.703588965756883e-06,1.3071279947579597e-06,1.6790165828068904e-05,8.566930900978485e-07,1.1492642042296795e-06,1.1508605723382044e-06,3.7672206344603258e-06,1.4193555616756245e-05,2.9913986558817056e-06,1.9245422890903877e-06,2.7846750677601684e-05,1.1667571446644058e-06,9.472394584115174e-07,1.2895716920134245e-06,1.7438069107433961e-06
298,9.379327443026087e-07,2.7576053320582576e-06,1.2849080554790078e-06,1.6487542529479136e-05,8.778759484926076e-07,1.1488138873428988e-06,1.1175692492625271e-06,3.6319339602277835e-06,1.487086808879713e-05,3.009576090401151e-06,1.917571470689986e-06,2.5171788013222922e-05,1.1448147249422537e-06,9.275648941685995e-07,1.2695414556653084e-06,1.784640161100927e-06
299,9.545640432039944e-07,2.8200543429586584e-06,1.2605589414863844e-06,1.627434529873776e-05,8.971759693562821e-07,1.1488192246431392e-06,1.0829894025218677e-06,3.489724251044809e-06,1.561695487559206e-05,3.0168640426613698e-06,1.9066958142421989e-06,2.2686297070148014e-05,1.1235541102740259e-06,9.074070454928093e-07,1.247577843675004e-06,1.825942790013226e-06
300,9.754432716499383e-07,2.8913365832259825e-06,1.2341216967588902e-06,1.6163440848134796e-05,9.13907453602457e-07,1.1494125686229597e-06,1.0480303546218841e-06,3.341312319139325e-06,1.6426294141153523e-05,3.0109057300565624e-06,1.8914889236527022e-06,2.040898357859476e-05,1.1031617087858669e-06,8.871782059933662e-07,1.2244028023070235e-06,1.867306842404293e-06
301,1.0003791260467283e-06,2.971889071189522e-06,1.2057824567350025e-06,1.6164490807288803e-05,9.275218845820836e-07,1.1506287605261893e-06,1.013577955700586e-06,3.1880646895865565e-06,1.729227893257851e-05,2.9902501417640536e-06,1.872074473892832e-06,1.8359211728004214e-05,1.083800208668185e-06,8.673315355037683e-07,1.2006741364140697e-06,1.9082924739513367e-06
302,1.029163922298101e-06,3.0618879052510215e-06,1.1759439259399434e-06,1.6283761312944293e-05,9.376458662583768e-07,1.1524512219574062e-06,9.804337405632877e-07,3.0317603097413934e-06,1.8209075889359068e-05,2.9547738407829935e-06,1.8489317465805754e-06,1.6557205095115063e-05,1.0655631516814489e-06,8.483720870352788e-07,1.176915405454146e-06,1.94847372030946e-06
303,1.0615991343217651e-06,3.16105166848876e-06,1.145171294949663e-06,1.6524138032675252e-05,9.4406159558201e-07,1.1548331381938057e-06,9.492914703960143e-07,2.8742974587289083e-06,1.917255917584449e-05,2.9057888619565377e-06,1.8225839484901385e-06,1.502393307720144e-05,1.048457306354789e-06,8.30849028975185e-07,1.1535494338220278e-06,1.987517247814365e-06
304,1.0974724610203631e-06,3.268547690535578e-06,1.114055076090366e-06,1.6885636861449917e-05,9.466879049362028e-07,1.157721201212291e-06,9.20715229696229e-07,2.7175008424847854e-06,2.017941978257271e-05,2.8457126589480714e-06,1.793386814558051e-06,1.378080410230998e-05,1.032423868132429e-06,8.152748537470551e-07,1.1309119235753507e-06,2.025178903587315e-06
305,1.1365688764300916e-06,3.3829761723098353e-06,1.0831264721949065e-06,1.7366416088317043e-05,9.455728999383016e-07,1.161134751841583e-06,8.951271522920257e-07,2.5629981706088157e-06,2.12256525651023e-05,2.7774172788764136e-06,1.7614837352553884e-06,1.2849355588523182e-05,1.0173530121100639e-06,8.020512116193119e-07,1.1092486934156452e-06,2.0611621798912464e-06
306,1.1787724655586585e-06,3.502479691521644e-06,1.0528310970651834e-06,1.7963744481261385e-05,9.408889307474234e-07,1.1652433966060516e-06,8.72835853240241e-07,2.41210567009184e-06,2.2306202143672985e-05,2.7036033028878038e-06,1.7268270682365122e-06,1.22510451796253e-05,1.0030446905638375e-06,7.91480922898715e-07,1.088741645690361e-06,2.0949709815639502e-06
307,1.22416542482145e-06,3.6249079172339162e-06,1.0235214395861603e-06,1.8674431681562222e-05,9.329139630576869e-07,1.1703366235616458e-06,8.540683352483367e-07,2.2657731194321486e-06,2.3415449250277274e-05,2.6264967008064165e-06,1.6892303871484146e-06,1.20069796273327e-05,9.891750999001762e-07,7.838292141886861e-07,1.0694962504089323e-06,2.1259099095592362e-06
308,1.2730253733156097e-06,3.7479183722456737e-06,9.95494618031323e-07,1.9494580916772707e-05,9.219683630747823e-07,1.1767010341721104e-06,8.389611310498161e-07,2.1246456815771873e-06,2.454730662120819e-05,2.5478586733172317e-06,1.6485145919037484e-06,1.2137391811430659e-05,9.753456660928959e-07,7.793407244866928e-07,1.051481340063939e-06,2.153208248618315e-06
309,1.3257385204145172e-06,3.869035795472275e-06,9.690462220603538e-07,2.041868483688946e-05,9.083196828349542e-07,1.184535273969499e-06,8.275517493025685e-07,1.9891630703736034e-06,2.569539666660253e-05,2.4691123100721238e-06,1.6047590638827467e-06,1.2660985855277033e-05,9.612129055032605e-07,7.782030694604141e-07,1.0345214188084571e-06,2.176145229706496e-06
310,1.3827226193141591e-06,3.9857682157398465e-06,9.444596264027343e-07,2.143831560988703e-05,8.921259323061091e-07,1.1939422171683942e-06,8.19825384288744e-07,1.8595790862667418e-06,2.6854503441815164e-05,2.391477623151611e-06,1.5585364008846335e-06,1.3594363978238185e-05,9.466382518140181e-07,7.805135624715835e-07,1.0183720673735153e-06,2.194140694240471e-06
311,1.444420308501006e-06,4.095828028383396e-06,9.21941764286726e-07,2.2541070404889092e-05,8.734572021156942e-07,1.2049084349944525e-06,8.15775504159131e-07,1.7359719348181362e-06,2.802285532581558e-05,2.3161000401545986e-06,1.5109403089666426e-06,1.4951568394223062e-05,9.317806931325393e-07,7.86262840823805e-07,1.0028307669588108e-06,2.2068103603272953e-06
312,1.5113156870802598e-06,4.197433954530151e-06,9.015991175682999e-07,2.371020254764147e-05,8.523648863282411e-07,1.217239992817788e-06,8.153949827815567e-07,1.6183775609851253e-06,2.9203200049406387e-05,2.2441552692179537e-06,1.4633568686288833e-06,1.674385801160459e-05,9.170842351724902e-07,7.953392257021692e-07,9.878414758904638e-07,2.2139256685883394e-06
313,1.583882109669518e-06,4.289605664638897e-06,8.834931991967747e-07,2.4924533735401386e-05,8.289419115020915e-07,1.2305337578504025e-06,8.186083919801638e-07,1.5069667644378695e-06,3.0401130446636067e-05,2.1769200937334795e-06,1.4171689324391634e-06,1.89798569842615e-05,9.031746476646271e-07,8.07566041598957e-07,9.735630853216801e-07,2.2152687950654487e-06
314,1.6624470995022408e-06,4.372326255125483e-06,8.677180133295146e-07,2.6158141149122368e-05,8.033474742032167e-07,1.2442571118564797e-06,8.252350169331435e-07,1.4021252191829312e-06,3.1621304867442293e-05,2.115782122137444e-06,1.373590429978906e-06,2.1665716716388976e-05,8.907307554067524e-07,8.227534531498933e-07,9.603659441808014e-07,2.2105379407498315e-06
315,1.747053491015325e-06,4.446485186969566e-06,8.544430234556972e-07,2.7380165300155043e-05,7.758279188827192e-07,1.2579176879331209e-06,8.350199157611749e-07,1.3044426238836145e-06,3.2863799691037504e-05,2.062139020371281e-06,1.3336194324650139e-06,2.4804695393544487e-05,8.803848960559745e-07,8.407251063996263e-07,9.487362034222188e-07,2.1994752678431997e-06
316,1.8374029892013928e-06,4.513610168452846e-06,8.439041860519901e-07,2.8555887436091118e-05,7.467612053155125e-07,1.271210932177796e-06,8.476802786547237e-07,1.2146504972463e-06,3.4122409693004846e-05,2.0172436411363873e-06,1.2980223917604993e-06,2.839612924303281e-05,8.726612598230379e-07,8.612888474269876e-07,9.391337066403459e-07,2.182131151039765e-06
317,1.9329071990372747e-06,4.575468154573483e-06,8.363399669230283e-07,2.9650104367706405e-05,7.166802795226943e-07,1.2840407009870781e-06,8.629060846530412e-07,1.1335039618709503e-06,3.538521633624741e-05,1.9821286326512783e-06,1.2673264716311835e-06,3.2434657017203793e-05,8.679430785048496e-07,8.841783323515265e-07,9.318851723502073e-07,2.158986158159904e-06
318,2.0328086002613526e-06,4.633618926687338e-06,8.31912440324632e-07,3.0632431771765017e-05,6.862258005213032e-07,1.2964101336654147e-06,8.803151860788389e-07,1.061639730209874e-06,3.6636127029132906e-05,1.957615346214599e-06,1.2418177572054312e-06,3.691059896917892e-05,8.66456382851533e-07,9.090079722596499e-07,9.271455558269132e-07,2.1308125764399136e-06
319,2.136298461855786e-06,4.689034068041509e-06,8.306665009729249e-07,3.148240533364811e-05,6.560543353149658e-07,1.3082608052676536e-06,8.994011796984333e-07,9.994790477256538e-07,3.785564675199753e-05,1.9443205245377893e-06,1.2215498769565174e-06,4.1811003234159654e-05,8.682606068411388e-07,9.352506749690093e-07,9.249091031024453e-07,2.098404228446882e-06
320,2.2425473934221998e-06,4.741978182988896e-06,8.32533119174576e-07,3.21918791585499e-05,6.267599321291789e-07,1.3193596250365135e-06,9.194954720047776e-07,9.472098348613195e-07,3.9021860050994294e-05,1.942632043148709e-06,1.2063869037111064e-06,4.71195259406246e-05,8.732442424615275e-07,9.622800583639501e-07,9.250343820995337e-07,2.062376064245057e-06
321,2.350605441206118e-06,4.792218714097918e-06,8.373770909762328e-07,3.276370142119414e-05,5.988333707147739e-07,1.3293003095352288e-06,9.397580373370782e-07,9.048485898774556e-07,4.0114368706495486e-05,1.9526749681815257e-06,1.196082735876765e-06,5.2814319974182525e-05,8.811194672842733e-07,9.89483895944827e-07,9.272586154534334e-07,2.0231381026208566e-06
322,2.45924713440113e-06,4.839326287221589e-06,8.450738759681063e-07,3.320748927606976e-05,5.726584330810066e-07,1.3376110092518093e-06,9.592360410335504e-07,8.723435826431137e-07,4.1119806788005886e-05,1.974285460961306e-06,1.1903449826495173e-06,5.88659809042462e-05,8.914331952828082e-07,1.0163239498822543e-06,9.311991502690909e-07,1.980991075757631e-06
323,2.566915062756121e-06,4.882827865573788e-06,8.555430028135929e-07,3.3534224295195394e-05,5.485364028583478e-07,1.3438924580267712e-06,9.770094025161075e-07,8.496259077802929e-07,4.203368578776552e-05,2.007000504824964e-06,1.18884026532668e-06,6.523766126730322e-05,9.036381326685373e-07,1.042265322971456e-06,9.363404727275566e-07,1.9362796259030444e-06
324,2.6718220179340894e-06,4.922235767391821e-06,8.687219315182155e-07,3.375170555614778e-05,5.267104666087158e-07,1.3478872794736688e-06,9.923599878923564e-07,8.365674294909023e-07,4.2856601404223884e-05,2.050110659034405e-06,1.1911967985880104e-06,7.18859751854254e-05,9.171993709193334e-07,1.0666989787685636e-06,9.420418852100343e-07,1.8895763219073915e-06
325,2.77212619795255e-06,4.957067622927424e-06,8.845436305614436e-07,3.386272703096258e-05,5.073697131052231e-07,1.3494326687226441e-06,1.0048533768023144e-06,8.329195174477758e-07,4.358908679815236e-05,2.10274774553824e-06,1.1970857294935292e-06,7.876020197218771e-05,9.316350760287481e-07,1.0889894556833036e-06,9.476245036096548e-07,1.8417692113483337e-06
326,2.8660676891370927e-06,4.986867305857049e-06,9.029340800812875e-07,3.3866311213988835e-05,4.906511874830241e-07,1.3483700769770175e-06,1.0142755615002188e-06,8.382990556487879e-07,4.422990508134143e-05,2.1638486898876997e-06,1.2063157111330751e-06,8.579969738220867e-05,9.464862785376651e-07,1.1085976456142527e-06,9.525019149665212e-07,1.7939572612302068e-06
327,2.9520130270821285e-06,5.011154180318411e-06,9.238097321508403e-07,3.376039419908217e-05,4.7665106740613486e-07,1.344539369129853e-06,1.020498922588922e-06,8.522033288667602e-07,4.4776604999213765e-05,2.2320306556216742e-06,1.2187863335640417e-06,9.293115406199852e-05,9.613195465412227e-07,1.1251518584531695e-06,9.562510252862463e-07,1.7472781052625678e-06
328,3.0284155733562914e-06,5.029270247552435e-06,9.470743826871108e-07,3.354403675220934e-05,4.6543108816791473e-07,1.3378726436002506e-06,1.0234409768728795e-06,8.740091744044218e-07,4.522434076959425e-05,2.3056230100708588e-06,1.2343180828793582e-06,0.0001000672918101322,9.75763904070784e-07,1.1384337625261636e-06,9.586079680765099e-07,1.7027968820928642e-06
329,3.0937467964988732e-06,5.04021877931994e-06,9.726425327408285e-07,3.321842390139756e-05,4.570298635419454e-07,1.3284648978825462e-06,1.0231669145577293e-06,9.029492056762075e-07,4.5563615159371105e-05,2.3828983502234967e-06,1.2525294063654543e-06,0.00010710729121946734,9.89508016026137e-07,1.148348281015625e-06,9.594562977652583e-07,1.661428996172687e-06
330,3.146475758804379e-06,5.042672890540758e-06,1.0004842644104068e-06,3.278714238333583e-05,4.514844790596258e-07,1.3165319839384097e-06,1.0199982270762783e-06,9.381125205923106e-07,4.5781568228578076e-05,2.4623063528779593e-06,1.2728173284940685e-06,0.00011393694851806032,1.002281507459883e-06,1.1549192760312993e-06,9.588286987326388e-07,1.623885083146376e-06
