,EMG1,EMG2,EMG3,EMG4,EMG5,EMG6,EMG7,EMG8,EMG9,EMG10,EMG11,EMG12,EMG13,EMG14,EMG15,EMG16
0,5.433495384022219e-07,2.295550691237292e-07,2.0527019988700773e-07,6.063647234303338e-07,6.265943473524365e-08,1.873432115892812e-07,1.6250617248479634e-07,5.340841799054672e-10,4.421745813432935e-07,2.627642865155262e-07,-5.037921353467046e-10,-8.181272046748574e-07,6.8545300627555e-08,2.737657636783163e-07,1.662009571763739e-07,-3.9762164250352064e-08
1,1.1792962359517972e-06,3.2228521409035503e-07,3.4880332904366005e-07,7.810119851841065e-07,8.005197481869997e-08,2.897422454990625e-07,2.08745926484313e-07,9.929141767155071e-08,5.094247033644399e-07,4.694503029341347e-07,7.653294541731643e-08,-6.995323885221964e-07,1.6677922573766592e-07,3.889250403410537e-07,2.880769242898857e-07,1.6518160383830548e-07
2,1.7840219040782729e-06,4.132685514244888e-07,4.868098192151615e-07,9.684853005590491e-07,9.755418845406109e-08,3.8908751546218833e-07,2.5423620895564257e-07,1.957290792767279e-07,5.791877005763166e-07,6.625909487560719e-07,1.529459925521309e-07,-5.425171237236654e-07,2.6414683958500856e-07,5.023271769341168e-07,4.0819074463227516e-07,3.638992572803185e-07
3,2.3368004710026338e-06,5.004786632222286e-07,6.170445113491794e-07,1.1692667271989325e-06,1.1505366657543244e-07,4.845700468001799e-07,2.9820050671547623e-07,2.879784426826963e-07,6.504715637886841e-07,8.411433866648142e-07,2.2788964044278221e-07,-3.422483449184169e-07,3.599778692806355e-07,6.133997075144149e-07,5.238494042967218e-07,5.523764803974806e-07
4,2.823147274599106e-06,5.82521760376678e-07,7.3755436831943e-07,1.3840496010018682e-06,1.324829722339246e-07,5.754557036993697e-07,3.4000290333907165e-07,3.7456970752274283e-07,7.224457007962079e-07,1.0041541146255466e-06,3.006575953341532e-07,-9.370134298529794e-08,4.5363887025769057e-07,7.215203504059141e-07,6.325996626156035e-07,7.272438567181444e-07
5,3.235323207096795e-06,6.585034677160339e-07,8.467241436752431e-07,1.6137582634292626e-06,1.4981192311279398e-07,6.610153173687417e-07,3.7917421612255706e-07,4.5453843390419774e-07,7.944034561075043e-07,1.1507686253324855e-06,3.70767615283141e-07,2.0828747317812948e-07,5.445336587476273e-07,8.260217476598823e-07,7.324483693787754e-07,8.859997512240751e-07
6,3.5713625814730225e-06,7.27805426758289e-07,9.433464686707269e-07,1.8594772510834443e-06,1.6704069335989188e-07,7.404921898152898e-07,4.1537457344066086e-07,5.27330121356323e-07,8.65790021969634e-07,1.2802803819292444e-06,4.3794976442826517e-07,5.689677516800412e-07,6.321177654267805e-07,9.261710255019209e-07,8.221235068740875e-07,1.0271458415617574e-06
7,3.833550724346532e-06,7.900054673921474e-07,1.0267085981130365e-06,2.122346219033245e-06,1.842066224365111e-07,8.131393656950517e-07,4.48332822807841e-07,5.926458526666e-07,9.362783416678238e-07,1.3921071501079455e-06,5.020745349450113e-07,9.936298136925919e-07,7.159518826690852e-07,1.021142304848903e-06,9.01209511222608e-07,1.1502016355173338e-06
8,4.027039856948428e-06,8.44861033975816e-07,1.0966512314602352e-06,2.403486285243175e-06,2.0139694619921064e-07,8.783268308230195e-07,4.778088721508253e-07,6.50421740911373e-07,1.005767473552747e-06,1.4857637119257448e-06,5.631133348118457e-07,1.4875613876243905e-06,7.957363204775728e-07,1.110038088362766e-06,9.700234803981329e-07,1.2555488595448533e-06
9,4.1587653940511866e-06,8.922217951454962e-07,1.1535595557069083e-06,2.7039838126096177e-06,2.187542727464945e-07,9.356554659295424e-07,5.035932954775211e-07,7.008844617522813e-07,1.0742609378849723e-06,1.5610421982145083e-06,6.211076490560217e-07,2.0559800121628194e-06,8.712956620362989e-07,1.1919729633855286e-06,1.0292901610823081e-06,1.3441526951615326e-06
10,4.236567550932703e-06,9.319349104165832e-07,1.1982446021602805e-06,3.0248821902279052e-06,2.3646579484945069e-07,9.850027598627838e-07,5.255277279742229e-07,7.445049368726838e-07,1.1417021439613337e-06,1.6183598049051986e-06,6.761218834203045e-07,2.7039074502145803e-06,9.425511604850695e-07,1.2661737733614822e-06,1.0798360061867974e-06,1.4173078564657507e-06
11,4.268458630575901e-06,9.638522103614214e-07,1.2317285786064859e-06,3.3670950316532447e-06,2.5473389579956204e-07,1.026523147753121e-06,5.435672147585067e-07,7.818463641311788e-07,1.2078733361308437e-06,1.6589294748674355e-06,7.282113868925655e-07,3.4360039902027853e-06,1.0094710653099573e-06,1.3320390587141472e-06,1.1224532147310336e-06,1.4765091909036461e-06
12,4.262060157292832e-06,9.879458826957225e-07,1.2550862498072546e-06,3.7312461443190164e-06,2.7374376661175633e-07,1.0606210890253407e-06,5.578835709809986e-07,8.134526007762817e-07,1.2724332415044901e-06,1.6845426995180031e-06,7.773845322638714e-07,4.2564156068590164e-06,1.0719729862370588e-06,1.3891417527929298e-06,1.1578603958081528e-06,1.523437934168212e-06
13,4.224292717080447e-06,1.0044405530599129e-06,1.2694581155615274e-06,4.117534135269127e-06,2.936486064766526e-07,1.087850496137101e-06,5.689063417196357e-07,8.39848239490433e-07,1.335125620752366e-06,1.6971816063062863e-06,8.23543521025819e-07,5.168632094304406e-06,1.1298599827131997e-06,1.4372122815269743e-06,1.1866330063292056e-06,1.5599618727209384e-06
14,4.161371276255978e-06,1.013839434107119e-06,1.27610471821758e-06,4.5256579132971364e-06,3.145733667727244e-07,1.1087866234159588e-06,5.772367965175878e-07,8.615655026155785e-07,1.3960406568975398e-06,1.6987726838397112e-06,8.66443772118007e-07,6.17535849617861e-06,1.182892333820105e-06,1.476133533202547e-06,1.2091130846694324e-06,1.5880193969025053e-06
15,4.079019967679326e-06,1.0168033691146074e-06,1.2763332782248002e-06,4.954720545088288e-06,3.366219467025573e-07,1.1239777187764794e-06,5.835082855772124e-07,8.791073149742852e-07,1.4556726985035962e-06,1.6910808647080126e-06,9.057248243614595e-07,7.278469967022546e-06,1.2309447642606474e-06,1.5059163280791277e-06,1.2253842871797106e-06,1.6094198004158663e-06
16,3.982758995231292e-06,1.013977327034692e-06,1.2713409374861977e-06,5.4030322151126175e-06,3.5988086350642064e-07,1.133950263963078e-06,5.882985285770598e-07,8.928871555879244e-07,1.5146936843224958e-06,1.6756366906249172e-06,9.410649557463537e-07,8.479049932865806e-06,1.2741030723457499e-06,1.5266095023437544e-06,1.2353894102223878e-06,1.6257173178663425e-06
17,3.878159634816238e-06,1.0059113933927778e-06,1.2621200807860993e-06,5.867865256002793e-06,3.8442027706705854e-07,1.1391941914444088e-06,5.921184477368287e-07,9.032483369273514e-07,1.573678120344006e-06,1.6537194977360823e-06,9.723955015975662e-07,9.77737822615265e-06,1.3126277435683135e-06,1.5382116956759741e-06,1.2391842703905458e-06,1.638194931828414e-06
18,3.7709658938908206e-06,9.93130409610856e-07,1.2494823510683904e-06,6.3453188043613545e-06,4.1028288115511795e-07,1.140177472907279e-06,5.954299134083037e-07,9.105957069096049e-07,1.632995946391672e-06,1.6263862246818365e-06,9.999832877690686e-07,1.1172722134755167e-05,1.3468290580648623e-06,1.5407292615128184e-06,1.2371615109042364e-06,1.6479319559387763e-06
19,3.6670071143194127e-06,9.762627477582359e-07,1.2341340163425659e-06,6.830419488018209e-06,4.374670032202388e-07,1.1374420547659473e-06,5.986533762907016e-07,9.15551719619119e-07,1.6928275958580376e-06,1.5945202464763448e-06,1.0243276693416302e-06,1.2662865865566383e-05,1.376981784148865e-06,1.5343442781280851e-06,1.2300785921680077e-06,1.6559390806664137e-06
20,3.5719785528971137e-06,9.560900600963216e-07,1.216702156216173e-06,7.317500971090226e-06,4.6592734389207513e-07,1.1316835059775667e-06,6.02161437057677e-07,9.189873183420358e-07,1.7532386278970395e-06,1.5589626859033393e-06,1.0460244392631543e-06,1.4243464968242847e-05,1.403335717297567e-06,1.5195045597381872e-06,1.218909934992858e-06,1.6632400088611467e-06
21,3.491299943991455e-06,9.334717252398146e-07,1.197707193902308e-06,7.80087604969319e-06,4.955843230559628e-07,1.1236938851105237e-06,6.062632423746282e-07,9.218891641540466e-07,1.814314854140302e-06,1.5206837316424076e-06,1.0656862057093732e-06,1.5907508396369625e-05,1.4260999412322752e-06,1.4969273936728887e-06,1.2046555762492688e-06,1.6708404681431028e-06
22,3.430181737025814e-06,9.092261067887405e-07,1.177555046182785e-06,8.275730707512941e-06,5.263151977081244e-07,1.1142131009734727e-06,6.111833011414691e-07,9.251991464468477e-07,1.8762110965488775e-06,1.4808277422867839e-06,1.0838618461019366e-06,1.7645218678628165e-05,1.445336440375873e-06,1.4676247848904345e-06,1.1882247800101966e-06,1.6797133034904595e-06
23,3.3938085144066743e-06,8.840609784671531e-07,1.1565571161432605e-06,8.738927987435454e-06,5.579276046078276e-07,1.1038216817165705e-06,6.170396927604494e-07,9.297385000753555e-07,1.939005612166978e-06,1.4406181148049897e-06,1.1009559620899787e-06,1.944446606557124e-05,1.4609054290117979e-06,1.4328967413495343e-06,1.1704120584951326e-06,1.690831136493601e-06
24,3.3874654294147074e-06,8.585732348790073e-07,1.134941779123407e-06,9.189279801994696e-06,5.901370992639792e-07,1.092912558873916e-06,6.23835878951431e-07,9.361855839385117e-07,2.0025209790763645e-06,1.4012631447293694e-06,1.1172410414128917e-06,2.1291455041922955e-05,1.4725854604066684e-06,1.3941987940289611e-06,1.151895638231731e-06,1.7051196701780567e-06
25,3.4165668185541346e-06,8.333157024607216e-07,1.1128838769386935e-06,9.627091509758983e-06,6.225584990459147e-07,1.0817151010527346e-06,6.314851414197824e-07,9.450648185858145e-07,2.0663132519890926e-06,1.3639091621994237e-06,1.1329397567804178e-06,2.3171353292961796e-05,1.480280714224018e-06,1.3529569615906903e-06,1.1332256667252952e-06,1.7233321177572496e-06
26,3.4866336200363815e-06,8.088904100734665e-07,1.0905688687420148e-06,1.0053172714121378e-05,6.547069976059114e-07,1.0703506414675221e-06,6.398708061052381e-07,9.567642771509396e-07,2.1298670948779014e-06,1.329599304424837e-06,1.1482435269989347e-06,2.5068524760646928e-05,1.4841553722659224e-06,1.3104592682882293e-06,1.1148080842601304e-06,1.7459724188248131e-06
27,3.603171136967277e-06,7.859733857241062e-07,1.0682147786360824e-06,1.046772284969143e-05,6.860230506199566e-07,1.0588678970802092e-06,6.489181549923819e-07,9.71582324737927e-07,2.1928722222233076e-06,1.2992665012284009e-06,1.1632571336145497e-06,2.6965991464431158e-05,1.4846647340328296e-06,1.2678302276113615e-06,1.096887308452788e-06,1.773297634325032e-06
28,3.771414943118273e-06,7.652591029888905e-07,1.0460068711231212e-06,1.0869619723828489e-05,7.159337345049112e-07,1.0472378468068852e-06,6.586244612162967e-07,9.897451434584926e-07,2.255361796302297e-06,1.2737666623672768e-06,1.1779942074246236e-06,2.8844088680182294e-05,1.4824871957427831e-06,1.2260139367071875e-06,1.0795548741943587e-06,1.805310889224862e-06
29,3.996094250968481e-06,7.474059015928188e-07,1.0240477345823652e-06,1.1256599535698587e-05,7.439198804512035e-07,1.035372951928199e-06,6.690151786503962e-07,1.0113581530013782e-06,2.3175964685826676e-06,1.2538618629835045e-06,1.192477293697323e-06,3.06793031772623e-05,1.4783411744279384e-06,1.1857412505340304e-06,1.0628064880743232e-06,1.8417037865887316e-06
30,4.28130479962135e-06,7.330126322906032e-07,1.0024149117957933e-06,1.1626297660070176e-05,7.695534280442964e-07,1.023192936562901e-06,6.800795130665402e-07,1.0363450021352827e-06,2.379791450832761e-06,1.2401421430199826e-06,1.2068503315049635e-06,3.244495252031152e-05,1.4727877583586432e-06,1.1475097233989557e-06,1.0466380668973906e-06,1.8818279436453315e-06
31,4.630394513288823e-06,7.226080385243183e-07,9.812482437692586e-07,1.1977521353389324e-05,7.925091140099269e-07,1.0106554146502458e-06,6.917456348873689e-07,1.0644424609571966e-06,2.4418681229603664e-06,1.2329789704470695e-06,1.221380231309386e-06,3.4114163060834284e-05,1.4661336218968234e-06,1.1116033176113104e-06,1.0311397362941835e-06,1.924745830860209e-06
32,5.045837833943887e-06,7.16648466665685e-07,9.607585477724537e-07,1.2311152597226033e-05,8.125731003858899e-07,9.977186715517933e-07,7.03885064426866e-07,1.095247603507999e-06,2.503367167661733e-06,1.2325339368488898e-06,1.2363733592255185e-06,3.56636754404582e-05,1.458436869205643e-06,1.0781457697884532e-06,1.0165280224650145e-06,1.9692992931367033e-06
33,5.529218104474171e-06,7.155321458145363e-07,9.411648850606037e-07,1.2630484520992388e-05,8.296519022923143e-07,9.843258121546099e-07,7.163245957836858e-07,1.1282624968725352e-06,2.563549146062896e-06,1.2387700343835133e-06,1.2521668975467254e-06,3.7076717892509e-05,1.4495959498795583e-06,1.0471357164426195e-06,1.0031006807089326e-06,2.0141682279700964e-06
34,6.081364132987746e-06,7.196347587480575e-07,9.226275625926063e-07,1.2940952414133697e-05,8.437471855629687e-07,9.704488120001528e-07,7.288487024572581e-07,1.1629019650592584e-06,2.6215572681886724e-06,1.2514551413287468e-06,1.2692093804238866e-06,3.834409208025569e-05,1.4394637303562903e-06,1.0184593764594655e-06,9.911519499240888e-07,2.058002457345088e-06
35,6.702499987748905e-06,7.293312699876059e-07,9.052127812859782e-07,1.3249153950993206e-05,8.548810281378531e-07,9.561175600233648e-07,7.411901571775229e-07,1.1984776413933082e-06,2.6764690131264246e-06,1.2701760538574989e-06,1.2880612238203902e-06,3.946300623882968e-05,1.4278827056676758e-06,9.919561179569068e-07,9.809050660160826e-07,2.0996608035212092e-06
36,7.39223483734363e-06,7.449731044877473e-07,8.888768302903077e-07,1.3561309402298982e-05,8.630286935811976e-07,9.414070285978169e-07,7.530587547912012e-07,1.2341735675011211e-06,2.727215531169662e-06,1.2943726092784347e-06,1.3092764475472738e-06,4.0433594019075855e-05,1.4146700291374015e-06,9.675284945730274e-07,9.725184903508493e-07,2.1383951560868987e-06
37,8.149342343084734e-06,7.668708573589495e-07,8.734692273463953e-07,1.3881882290111694e-05,8.681102609541512e-07,9.264310112705322e-07,7.64202199063854e-07,1.2690262166511187e-06,2.7725304433580405e-06,1.3234228849170594e-06,1.3332926798374194e-06,4.125533791370707e-05,1.3996895190563297e-06,9.452051991436255e-07,9.66155934095293e-07,2.173768081333882e-06
38,8.971380094362813e-06,7.953132060354655e-07,8.587859680177362e-07,1.4212926281813774e-05,8.700614121908154e-07,9.113692761842877e-07,7.744173424118859e-07,1.301942909105233e-06,2.8110438826718725e-06,1.3567573911203498e-06,1.3603786327772043e-06,4.192749658629432e-05,1.3829939007933275e-06,9.251421276219967e-07,9.620336467725325e-07,2.205350409816515e-06
39,9.85432419542311e-06,8.305548461735039e-07,8.446552439198126e-07,1.4553867074934868e-05,8.689678615075883e-07,8.965198001285208e-07,7.83543175908067e-07,1.3317592379159826e-06,2.8414553570592986e-06,1.3938873339865492e-06,1.3906083434881154e-06,4.245413395487304e-05,1.3648787510555147e-06,9.075823931693954e-07,9.60384076250888e-07,2.2325064077283635e-06
40,1.0792460855141058e-05,8.72751192733117e-07,8.30984609158316e-07,1.4901358444549063e-05,8.651307153770091e-07,8.823274491669769e-07,7.915094159855324e-07,1.3573151331344104e-06,2.8627009133686236e-06,1.4343031794804682e-06,1.4238426273733113e-06,4.284905515024739e-05,1.345784363311833e-06,8.927686924983207e-07,9.613620481909252e-07,2.254459232927592e-06
41,1.1778611225390129e-05,9.219124370020615e-07,8.177468542218583e-07,1.5249401998275072e-05,8.589806525003e-07,8.69326754429462e-07,7.983511179860848e-07,1.3775794660227424e-06,2.8741111095725537e-06,1.4773385167104552e-06,1.4597132186040476e-06,4.313665757522395e-05,1.3261217846175604e-06,8.80845819141076e-07,9.649735830857666e-07,2.2705258040669555e-06
42,1.2804595137860049e-05,9.77905888407739e-07,8.049335770587475e-07,1.5589707397476573e-05,8.509633518594741e-07,8.58031624113879e-07,8.041117225037841e-07,1.3918200893549204e-06,2.875484523461422e-06,1.5221044877109032e-06,1.4976849188545351e-06,4.334922877901017e-05,1.3061478292946904e-06,8.718061728170002e-07,9.710735728184138e-07,2.2803383944665497e-06
43,1.3861811454681821e-05,1.0404782490943932e-06,7.925115371369259e-07,1.5911819287965945e-05,8.414913245297303e-07,8.488770860999118e-07,8.087415074181613e-07,1.3997316347997496e-06,2.866927598811541e-06,1.5675507496264783e-06,1.5372737228677743e-06,4.352318119488908e-05,1.2859875823445034e-06,8.65478021505505e-07,9.794021348658218e-07,2.2839479494713366e-06
44,1.4941668311995749e-05,1.1092999398976857e-06,7.804485789349263e-07,1.620318005896381e-05,8.309249220242775e-07,8.422306307848114e-07,8.121033052754611e-07,1.4014787327909469e-06,2.8485321899887633e-06,1.6126188832773493e-06,1.578301290983349e-06,4.369560695324443e-05,1.2657904602464418e-06,8.615599805450482e-07,9.896252481194686e-07,2.281734660794016e-06
45,1.6035411257208774e-05,1.1840130655878e-06,7.688243357460169e-07,1.6450191841251252e-05,8.195726778640103e-07,8.384014450430868e-07,8.140590874537209e-07,1.3976909905893144e-06,2.820226693201625e-06,1.6563550037530852e-06,1.6209466900965495e-06,4.390100771099888e-05,1.2458603767667048e-06,8.59724212035918e-07,1.0013596548938214e-06,2.274223527108787e-06
46,1.7133217699092657e-05,1.2642096056692032e-06,7.578999422030772e-07,1.664067803089745e-05,8.07726357348449e-07,8.376152820993508e-07,8.145503989419817e-07,1.3894121079973004e-06,2.7820016099159997e-06,1.6979489138270738e-06,1.665543310957645e-06,4.4168125905330976e-05,1.2266148207261493e-06,8.597390684028969e-07,1.014146240827114e-06,2.262061827946968e-06
47,1.8223197921082835e-05,1.349338304298367e-06,7.480542132536028e-07,1.6766628243281442e-05,7.956896653834133e-07,8.399789887772649e-07,8.136295720787812e-07,1.3779539201062274e-06,2.7343245737082147e-06,1.7368143470750157e-06,1.7123405903340943e-06,4.4518300194960344e-05,1.208439927752675e-06,8.615206130528274e-07,1.0273929684731837e-06,2.2461178237696776e-06
48,1.9291230478726204e-05,1.438623807917638e-06,7.396660365021412e-07,1.6825719355052955e-05,7.837615993279406e-07,8.454588995234396e-07,8.114471287347658e-07,1.3646758318631394e-06,2.6783808431391244e-06,1.7727058556933322e-06,1.7614102846035989e-06,4.49666031102934e-05,1.1916114908325164e-06,8.651119917565482e-07,1.040360208322674e-06,2.2273789389689376e-06
49,2.0321863277457295e-05,1.5310359882372013e-06,7.330602941887543e-07,1.6820905746516486e-05,7.722002344234203e-07,8.538774327941464e-07,8.081991353419453e-07,1.3508159932090318e-06,2.6159505671930066e-06,1.805704743696532e-06,1.8126606955290405e-06,4.552431655923961e-05,1.1763265263443485e-06,8.706301408617472e-07,1.0522316782026903e-06,2.2066540589274676e-06
50,2.1299493183681127e-05,1.625300431121766e-06,7.285237073688288e-07,1.6758448310429132e-05,7.612182129934188e-07,8.649159277890331e-07,8.040380958910559e-07,1.3374326517917076e-06,2.5490261120013247e-06,1.8360798267995728e-06,1.8658979083605743e-06,4.619977487089536e-05,1.1627622036010238e-06,8.781868812250419e-07,1.0622859053504558e-06,2.184389879156302e-06
51,2.2208653114007302e-05,1.7199531507240647e-06,7.263139323416141e-07,1.664535993452874e-05,7.510181615337271e-07,8.781292688356564e-07,7.990025475272355e-07,1.3253956420632523e-06,2.4794155851379736e-06,1.864245437571666e-06,1.920870359981579e-06,4.6996607644778924e-05,1.1510588368826594e-06,8.87836776571724e-07,1.0701011842646497e-06,2.1606629988677846e-06
52,2.303293614183367e-05,1.813429383125022e-06,7.266254229718594e-07,1.6487215237126197e-05,7.418203553712726e-07,8.929997418233369e-07,7.930397702409488e-07,1.3154176494491008e-06,2.4085246449744215e-06,1.8908320049106733e-06,1.977216729156345e-06,4.7911764752088874e-05,1.1412187830851948e-06,8.995893619220402e-07,1.0756353149257212e-06,2.135203580560321e-06
53,2.375361050277717e-05,1.9041750158213145e-06,7.29547199106186e-07,1.6287211785130335e-05,7.338381705042287e-07,9.090151088406735e-07,7.860845269906076e-07,1.3081321530496085e-06,2.337326517350649e-06,1.9166754429177834e-06,2.0344215560244837e-06,4.893565772267724e-05,1.1330249536954392e-06,9.134096060361248e-07,1.0791158365966403e-06,2.107495994418076e-06
54,2.4349855278427203e-05,1.990811113673039e-06,7.35040499653699e-07,1.604680502343132e-05,7.272291356023143e-07,9.256988146281164e-07,7.780902502584407e-07,1.3041269046263403e-06,2.2664404613722737e-06,1.9427188247488103e-06,2.0919219289605537e-06,5.005322457235423e-05,1.1260539969375768e-06,9.291654425234147e-07,1.0808720566344884e-06,2.0770708448488127e-06
55,2.4801314325169383e-05,2.072353556712009e-06,7.429355830719006e-07,1.5767075995634305e-05,7.220978029657411e-07,9.425640616760713e-07,7.690446886132622e-07,1.3038834491537563e-06,2.196308229147755e-06,1.969941459268743e-06,2.1492269265342556e-06,5.12436648448801e-05,1.1197669967869554e-06,9.466015777404137e-07,1.0812595915039797e-06,2.043855357798999e-06
56,2.5091683187281098e-05,2.148380140120402e-06,7.529561252403667e-07,1.5449829603703948e-05,7.18561688923251e-07,9.590765239398488e-07,7.590375342184366e-07,1.307705879795211e-06,2.1274096730427557e-06,1.999304728379008e-06,2.205852077282056e-06,5.247875845362914e-05,1.113595769370455e-06,9.653835895470587e-07,1.080646627347963e-06,2.0083261388886503e-06
57,2.5211581154876592e-05,2.2190141803532606e-06,7.647625698633908e-07,1.5098132308983216e-05,7.16796359906693e-07,9.746777656401575e-07,7.482960922369399e-07,1.3156930946289492e-06,2.060326574290618e-06,2.0316597159369837e-06,2.261177072230195e-06,5.372157713769137e-05,1.1069453549050917e-06,9.851480701277088e-07,1.079365481763125e-06,1.9713854413437115e-06
58,2.5159537557551594e-05,2.2847208368021403e-06,7.779673534847141e-07,1.4716363105293079e-05,7.169962285266091e-07,9.88817580189789e-07,7.371495186786408e-07,1.327714523403535e-06,1.995588573137297e-06,2.0676592161472643e-06,2.3144462147944178e-06,5.492865188552174e-05,1.0991847047154512e-06,1.0054903902106525e-06,1.0776703481608228e-06,1.934083938424109e-06
59,2.4940324996708492e-05,2.3460358268362555e-06,7.921160920262652e-07,1.4309956012566755e-05,7.192856807946529e-07,1.001029202934064e-06,7.26020795255785e-07,1.3433832706372386e-06,1.933518241951232e-06,2.1077725257125696e-06,2.364874969849141e-06,5.6057239246646476e-05,1.0897579226164227e-06,1.0258941140094608e-06,1.075744357501442e-06,1.8973643491623915e-06
60,2.4561227203959196e-05,2.4033261071002047e-06,8.06704411784868e-07,1.3885054683820252e-05,7.236610468259988e-07,1.0110965382785232e-06,7.154436680766912e-07,1.3620570312969053e-06,1.8742754387217066e-06,2.152383947064298e-06,2.411682119490463e-06,5.7074553615015846e-05,1.0783554605211867e-06,1.045673048210328e-06,1.0736902435240757e-06,1.8619342778202367e-06
61,2.4029402584464646e-05,2.4566178234628335e-06,8.212617662994232e-07,1.3448224846242957e-05,7.300160307406695e-07,1.0191644696376003e-06,7.060091750743349e-07,1.382853579374896e-06,1.8180058552912196e-06,2.2018123591510923e-06,2.454045793772084e-06,5.7963686919555383e-05,1.0649943156520345e-06,1.064008663496885e-06,1.071509576498215e-06,1.8282321147395285e-06
62,2.335304862257578e-05,2.50556457801215e-06,8.354170168192184e-07,1.3006277892233683e-05,7.382307236464922e-07,1.0256429902672783e-06,6.982724653780058e-07,1.4046936103562773e-06,1.7648972588763323e-06,2.256186148417489e-06,2.491131708068133e-06,5.872368698287049e-05,1.0499636923377524e-06,1.0800659698289574e-06,1.0691455395801718e-06,1.7963906946520872e-06
63,2.2544656734037266e-05,2.549625348339616e-06,8.488788164330168e-07,1.25661812234848e-05,7.482347329943985e-07,1.0309814498994326e-06,6.927136100252675e-07,1.4264318038005462e-06,1.7150963443586992e-06,2.3153283737210774e-06,2.522220329824171e-06,5.9364595306499364e-05,1.0336783658960793e-06,1.093076316158958e-06,1.0665753579595066e-06,1.7662102334244216e-06
64,2.1622510492008614e-05,2.588358349032686e-06,8.614145256921378e-07,1.2134959222674333e-05,7.599808645917578e-07,1.0354990532859983e-06,6.897406641181365e-07,1.4470550008116262e-06,1.6685645888099878e-06,2.378824558744551e-06,2.5467983250366372e-06,5.9900033997361816e-05,1.0165431159437562e-06,1.1023641742708327e-06,1.0638857556952165e-06,1.7371736641905308e-06
65,2.0608852365771287e-05,2.6216408794847495e-06,8.728965528851027e-07,1.1719473606628718e-05,7.733787557417447e-07,1.0393745565450716e-06,6.896735428350991e-07,1.4658292402172711e-06,1.6249877744035322e-06,2.446236817451893e-06,2.5645551628139874e-06,6.034037258722507e-05,9.989135148893848e-07,1.1074088668090606e-06,1.0612802936537708e-06,1.7084763181951398e-06
66,1.952621721748502e-05,2.649713852806918e-06,8.833271641993213e-07,1.132605981651153e-05,7.882829004512152e-07,1.0427426315075578e-06,6.927047401336281e-07,1.4823105618401113e-06,1.5838539512571295e-06,2.517232064308544e-06,2.575357555881605e-06,6.06882354031887e-05,9.81112895137765e-07,1.107937920738788e-06,1.0590040113213431e-06,1.6791358556783316e-06
67,1.839478315194414e-05,2.6730689969278603e-06,8.927697511229694e-07,1.0960112574097856e-05,8.045357444537088e-07,1.045763917377573e-06,6.988708330690301e-07,1.496240839963734e-06,1.5447333456213306e-06,2.5914863693071258e-06,2.579190574039403e-06,6.093720974895999e-05,9.634256532628902e-07,1.1039219548774069e-06,1.057269198454163e-06,1.6482715667916592e-06
68,1.7232064159394022e-05,2.6922562964632532e-06,9.012504778631043e-07,1.062571082141376e-05,8.219783987382235e-07,1.0486026078372256e-06,7.080593904918993e-07,1.50741882758483e-06,1.5075956569084686e-06,2.6685741778373564e-06,2.5759806985673093e-06,6.107572832009952e-05,9.460563319519931e-07,1.095450627903025e-06,1.0562790316169333e-06,1.6154204714592596e-06
69,1.6053753597031278e-05,2.7077073910356293e-06,9.087195780816353e-07,1.0325260270677023e-05,8.40392385070766e-07,1.0513500210585258e-06,7.200548568221035e-07,1.5156223579698549e-06,1.4728904466864035e-06,2.7480614040050244e-06,2.565394532800173e-06,6.109648351256102e-05,9.291028190956484e-07,1.082621023520184e-06,1.0563024404808266e-06,1.580638431324775e-06
70,1.4874316782787212e-05,2.7196518020305693e-06,9.150675720029598e-07,1.0059158693744841e-05,8.594366984850308e-07,1.0539599711367799e-06,7.345860521855908e-07,1.52060251845668e-06,1.441329899406999e-06,2.8296334418236845e-06,2.546822222309704e-06,6.100655664298922e-05,9.126103354668859e-07,1.0655023312078836e-06,1.0576857236216212e-06,1.544330090691626e-06
71,1.3707115840569036e-05,2.728139670534345e-06,9.20146332010131e-07,9.825676078070062e-06,8.786567928347453e-07,1.0562541542051659e-06,7.513293395065508e-07,1.5221404422751232e-06,1.4136141622358318e-06,2.913031894947516e-06,2.5195977439114896e-06,6.083240508417914e-05,8.966818680703884e-07,1.0441715808249666e-06,1.0607743945112921e-06,1.5070561647212155e-06
72,1.256425007630674e-05,2.733114554195222e-06,9.238282041808586e-07,9.621190984108038e-06,8.975781130107867e-07,1.0580138674934036e-06,7.698999273265413e-07,1.5201518631202618e-06,1.3902960794129217e-06,2.9978492138652645e-06,2.483339987399136e-06,6.0617607297093526e-05,8.815127877914326e-07,1.0188404959631986e-06,1.0658275229257358e-06,1.4695007002245498e-06
73,1.1456193870637536e-05,2.7344634343909904e-06,9.261280402269818e-07,9.440710759038304e-06,9.158378130853605e-07,1.059083746122172e-06,7.898724575663003e-07,1.514811888838039e-06,1.3717543778975984e-06,3.083334656540516e-06,2.43825477047993e-06,6.0414835742780775e-05,8.673258322757083e-07,9.89975959178464e-07,1.072996938159903e-06,1.432437454061748e-06
74,1.039142734009694e-05,2.7320268588782026e-06,9.272747129382459e-07,9.278701386491816e-06,9.33289583918536e-07,1.0594107528523462e-06,8.108016890886249e-07,1.5066399868818474e-06,1.3582100337408674e-06,3.168339006510506e-06,2.385267148432485e-06,6.027707435515077e-05,8.543169295261385e-07,9.582429927757038e-07,1.0823454875000405e-06,1.3966027192055172e-06
75,9.37642169070084e-06,2.7256324676631492e-06,9.276327706999208e-07,9.13033821873512e-06,9.500300226971424e-07,1.0590429488634113e-06,8.322663783176521e-07,1.4964510733339204e-06,1.3497964637519077e-06,3.2514866409031353e-06,2.3259151470030506e-06,6.0253214943985056e-05,8.426418976921211e-07,9.243139449634989e-07,1.0938929340622686e-06,1.3626055542047462e-06
76,8.416017318824697e-06,2.715209426943075e-06,9.275441144009964e-07,8.992906213510846e-06,9.663269565485118e-07,1.058153134092631e-06,8.539630314760223e-07,1.485155928868388e-06,1.3466753611612268e-06,3.331488698711432e-06,2.262034383912958e-06,6.0387018085431545e-05,8.324156357559613e-07,8.887486911382078e-07,1.1076800895926587e-06,1.330926062277808e-06
77,7.513793658744564e-06,2.7009157051100698e-06,9.272351807551734e-07,8.866755280495621e-06,9.82482050602731e-07,1.0570837543495438e-06,8.757369768499354e-07,1.4735785078814395e-06,1.3491098743993686e-06,3.4073630584595186e-06,2.195416058753133e-06,6.071630189333511e-05,8.237552633171609e-07,8.520310870315472e-07,1.1237585187825356e-06,1.3019650434457775e-06
78,6.672266847827799e-06,2.6831435011929117e-06,9.268445409150533e-07,8.755453268657156e-06,9.987160457470978e-07,1.0563302260513074e-06,8.974974575572277e-07,1.4624356664795203e-06,1.3574201599443446e-06,3.4784618907439857e-06,2.1276313229832084e-06,6.12734346216172e-05,8.168435656024091e-07,8.146680157179634e-07,1.1421189965441676e-06,1.2760681615113567e-06
79,5.893085815557737e-06,2.6623768808619036e-06,9.264966734452377e-07,8.665191403669633e-06,1.0151554979571359e-06,1.05641873511513e-06,9.191535127317461e-07,1.4523929939699755e-06,1.3718517797055654e-06,3.5443448864807285e-06,2.0600147979354102e-06,6.208723577585076e-05,8.119005523555079e-07,7.772173178426604e-07,1.162667484212322e-06,1.2534638975725218e-06
80,5.1772379894584615e-06,2.638981333580243e-06,9.263206265128452e-07,8.603683268328644e-06,1.0318920535958583e-06,1.0577617771681108e-06,9.406532984675214e-07,1.4440611136922946e-06,1.3924514530974086e-06,3.6045076019285767e-06,1.9936966485596793e-06,6.31826214567474e-05,8.090796188894735e-07,7.402347048958427e-07,1.1852276570741465e-06,1.2342139122806498e-06
81,4.5251334095363316e-06,2.612994641465834e-06,9.263981709526038e-07,8.578865090337315e-06,1.049009194847262e-06,1.0605871603846693e-06,9.62030820059416e-07,1.43792053249655e-06,1.4190138832779015e-06,3.6580793908616233e-06,1.929620869567988e-06,6.457684450986188e-05,8.084212608722495e-07,7.042485776244462e-07,1.209506663710691e-06,1.2182923096356796e-06
82,3.9365455946759115e-06,2.583990288665779e-06,9.267179174205568e-07,8.597809680794184e-06,1.066553295859494e-06,1.0649394940694638e-06,9.833696038857868e-07,1.4342286325603553e-06,1.4510822147984766e-06,3.7037557521539936e-06,1.8685138583707974e-06,6.627535205832416e-05,8.098837229536155e-07,6.698029388266765e-07,1.235059455487367e-06,1.205704730784369e-06
83,3.410500249181188e-06,2.551119864607113e-06,9.272107484404455e-07,8.66627911342011e-06,1.0845092729308315e-06,1.0707062440858343e-06,1.0047327603665435e-06,1.4329763196938407e-06,1.4879546477744512e-06,3.7400310087709906e-06,1.8108318523745152e-06,6.826971682352635e-05,8.134008557761093e-07,6.374805171956555e-07,1.2613175327568372e-06,1.1964745110682858e-06
84,2.9452392636015806e-06,2.5133882974552503e-06,9.278547852303315e-07,8.788983544044817e-06,1.1027817690228683e-06,1.0776422297164292e-06,1.0261502160795032e-06,1.4339467296919973e-06,1.5287211512538528e-06,3.765465956949863e-06,1.7567673197125307e-06,7.053718210710584e-05,8.189270658531432e-07,6.0785338888216e-07,1.2876763395556858e-06,1.1905074858353268e-06
85,2.5383376054098837e-06,2.4700692969480047e-06,9.287696540824833e-07,8.970157947235076e-06,1.1211498169854799e-06,1.0854148227156965e-06,1.0476370790389367e-06,1.4368625238594704e-06,1.5724065140342605e-06,3.7788094550861456e-06,1.7062982835846324e-06,7.30403209310463e-05,8.264038948079385e-07,5.814188080302865e-07,1.3135475559108916e-06,1.1874928542486988e-06
86,2.1869081252676217e-06,2.4210502139828053e-06,9.302338406341632e-07,9.214050052466736e-06,1.139228011868518e-06,1.0936691271022273e-06,1.0691522415034649e-06,1.441537578508347e-06,1.618212305593104e-06,3.7791031943592647e-06,1.6592006500365221e-06,7.572625484950843e-05,8.356821221565632e-07,5.585684431325093e-07,1.338327861733102e-06,1.1869251758710467e-06
87,1.887739121275404e-06,2.3669307497377604e-06,9.326242647083857e-07,9.52514103267356e-06,1.1565016927893744e-06,1.1020574615705141e-06,1.0905077091674312e-06,1.4479448211074432e-06,1.6657305976265426e-06,3.765880618053587e-06,1.6150334644054135e-06,7.852613042982529e-05,8.465167777400092e-07,5.395784886438533e-07,1.3613873330738726e-06,1.1882198646553023e-06
88,1.6373137664724194e-06,2.308877681663637e-06,9.36335498319997e-07,9.908072287343406e-06,1.1724582150167968e-06,1.110253523607395e-06,1.111309176082556e-06,1.456180361597514e-06,1.7149784598940621e-06,3.739341588449483e-06,1.573189223626135e-06,8.13561446919293e-05,8.586243505105692e-07,5.246128117273133e-07,1.3821397117488458e-06,1.1908299612953367e-06
89,1.4318015275638077e-06,2.2483809631643083e-06,9.417222167193588e-07,1.036737640363311e-05,1.1867295553424115e-06,1.1180369760774832e-06,1.1309808325547778e-06,1.4663776494191347e-06,1.7662011380620503e-06,3.7003584207876527e-06,1.5330492815278626e-06,8.41200192749705e-05,8.71698216277735e-07,5.1373967863647e-07,1.4000780303199462e-06,1.1942806191002729e-06
90,1.2671041299651421e-06,2.1870411423428357e-06,9.49046257330207e-07,1.0907170734861249e-05,1.199110576523715e-06,1.1254255759432177e-06,1.1488990124813925e-06,1.4786434666353616e-06,1.819575028720174e-06,3.650294403459639e-06,1.4941537385675268e-06,8.671030431432557e-05,8.853674211034796e-07,5.069416046488264e-07,1.4147319696309375e-06,1.1981493279179996e-06
91,1.1390334906567696e-06,2.1264257700925157e-06,9.584138546864493e-07,1.1530926784992437e-05,1.2094542311669937e-06,1.1327323189486965e-06,1.1645752896836554e-06,1.493045207989846e-06,1.8750407291893363e-06,3.590682630042687e-06,1.4562484321757958e-06,8.900796301617017e-05,8.991695860863693e-07,5.041071609385437e-07,1.4256783354249709e-06,1.2020800102992913e-06
92,1.0436786418350866e-06,2.0679946983242116e-06,9.697333136140568e-07,1.2241359793186286e-05,1.2176224626876435e-06,1.1404834767801357e-06,1.177745366617589e-06,1.5096162338145277e-06,1.9323578325225925e-06,3.5229306180171597e-06,1.4191984304676519e-06,9.088731595321713e-05,9.12587139129089e-07,5.050300383101652e-07,1.4326515934221052e-06,1.2058588817642698e-06
93,9.777973596884367e-07,2.0130977985785456e-06,9.82705459891568e-07,1.3040420937853874e-05,1.2235800059070652e-06,1.1492493299064485e-06,1.188321477123279e-06,1.5283195246736611e-06,1.9912517827313893e-06,3.448328938140968e-06,1.3829121530971636e-06,9.223358301267282e-05,9.251212241144881e-07,5.094426986394713e-07,1.4356386597328159e-06,1.209502593757703e-06
94,9.389343800261043e-07,1.96300557312848e-06,9.968279161292561e-07,1.392931332909408e-05,1.2274741784758333e-06,1.1594988654717157e-06,1.1963288532027912e-06,1.5489548652582082e-06,2.051478920455179e-06,3.368355907462621e-06,1.347374451824749e-06,9.29667534088068e-05,9.363246121972535e-07,5.170627502894002e-07,1.4348866012415116e-06,1.2132602466972524e-06
95,9.251848394508607e-07,1.918885195163948e-06,1.0114183003949504e-06,1.4908448606334387e-05,1.2295584443702329e-06,1.1715504730246084e-06,1.2019191619017075e-06,1.571074057993168e-06,2.1127689920098773e-06,3.284878662585459e-06,1.3127202305737012e-06,9.305468953952294e-05,9.457755023001349e-07,5.275962408116006e-07,1.4308613268664726e-06,1.217481602110374e-06
96,9.348194200922891e-07,1.881692823243354e-06,1.02569838031345e-06,1.597734478941146e-05,1.2300214227859473e-06,1.1855834877131213e-06,1.2054075903982128e-06,1.5939831003645069e-06,2.1747979392422567e-06,3.2000072294457093e-06,1.2792561148754045e-06,9.250475049041087e-05,9.53081816599455e-07,5.40695999588983e-07,1.4241608985718771e-06,1.2224387200999348e-06
97,9.660298082924973e-07,1.8520578892103969e-06,1.0389261031342573e-06,1.713451443967e-05,1.228856391801239e-06,1.2016295735970285e-06,1.2072304521365874e-06,1.616832038737142e-06,2.23738976379485e-06,3.1157640321185637e-06,1.2474084556618514e-06,9.134315424166707e-05,9.579828486655606e-07,5.559313128845517e-07,1.4153713693946342e-06,1.2282062830251202e-06
98,1.0168449990180384e-06,1.8302448398259748e-06,1.0504653361897544e-06,1.837730924079405e-05,1.2258432913943574e-06,1.2195238280205107e-06,1.2078135913702188e-06,1.6387172677799913e-06,2.300868818387872e-06,3.033833370796629e-06,1.2176117952142999e-06,8.960353283966606e-05,9.604733120933527e-07,5.728020403805638e-07,1.4049334753552667e-06,1.2346155584081417e-06
99,1.0851067738739738e-06,1.8162100461959383e-06,1.0597844182882326e-06,1.9701610088908087e-05,1.2206402438204988e-06,1.238855803721887e-06,1.2074612631236082e-06,1.658728367460235e-06,2.36623705236369e-06,2.95551252056936e-06,1.1902226301348339e-06,8.733130482165659e-05,9.608081148600885e-07,5.907990402930678e-07,1.3930718826719272e-06,1.2412672448162298e-06
100,1.1684485029687426e-06,1.8097184115408104e-06,1.066522121191423e-06,2.1101319274487047e-05,1.2129286774013395e-06,1.2589495844392397e-06,1.2063511392345404e-06,1.6759562274101914e-06,2.4350105076383504e-06,2.8818070479091365e-06,1.1655406318256246e-06,8.459026187371697e-05,9.593819545782252e-07,6.094847366940887e-07,1.3797797514159673e-06,1.2476090095501387e-06
101,1.264331941067646e-06,1.8104668681830944e-06,1.0705939482978088e-06,2.256774865000278e-05,1.2025319206498874e-06,1.2788766687789656e-06,1.2045891493813419e-06,1.689551236448008e-06,2.508842613811653e-06,2.813506400380404e-06,1.1438829222255255e-06,8.146219057552788e-05,9.566310720767206e-07,6.28537281372014e-07,1.3648701698923737e-06,1.2530854624676218e-06
102,1.3701714786197271e-06,1.818178302611034e-06,1.0721639106776895e-06,2.4089108897432605e-05,1.1894695292965288e-06,1.2975260875170289e-06,1.202248404415793e-06,1.698851115799401e-06,2.589158796903834e-06,2.751146719988595e-06,1.125609203384386e-06,7.804285625598262e-05,9.530143350684452e-07,6.477382752739775e-07,1.348116568790464e-06,1.2573190239973382e-06
103,1.4834760850218446e-06,1.8326628251682315e-06,1.0715367096103445e-06,2.5650306288310883e-05,1.1739677732803537e-06,1.3137456402535493e-06,1.1993774956301342e-06,1.7034634586644187e-06,2.6769539437267533e-06,2.694942815910201e-06,1.1110588640691157e-06,7.443710818819631e-05,9.489885419621781e-07,6.669455330539388e-07,1.329418052336344e-06,1.2602408240084312e-06
104,1.6019307380750782e-06,1.8538477175673244e-06,1.069121566768059e-06,2.723297557442239e-05,1.1564137044728227e-06,1.3264928898082192e-06,1.1959734899968347e-06,1.703229634109532e-06,2.7727462853361275e-06,2.644753106478067e-06,1.1004424508237797e-06,7.075226817476278e-05,9.449569389728902e-07,6.860734055388246e-07,1.308858827466196e-06,1.2621335927747135e-06
105,1.7234032703585506e-06,1.881755759078674e-06,1.06541967188412e-06,2.8815250887124706e-05,1.1372307437259643e-06,1.334930985729322e-06,1.1919127788906002e-06,1.6981479262413757e-06,2.876577923995525e-06,2.600024785991661e-06,1.0937741698661463e-06,6.709073673936264e-05,9.41259282275529e-07,7.05047583190873e-07,1.2866612825368627e-06,1.2635612351827424e-06
106,1.8458739149063608e-06,1.916418863521906e-06,1.0610252743547347e-06,3.0370925387979805e-05,1.1167595561212018e-06,1.3384757467345714e-06,1.1868808618381945e-06,1.6883379890875172e-06,2.9880370143374353e-06,2.5597661699607637e-06,1.0908608501499196e-06,6.354448045386411e-05,9.382244886688877e-07,7.237361997552967e-07,1.263148776226153e-06,1.2651737933969977e-06
107,1.967282454184929e-06,1.957753307492514e-06,1.0566952438219995e-06,3.1868686583220847e-05,1.0952255068379552e-06,1.3368086669779132e-06,1.1803747084981497e-06,1.6740524279232813e-06,3.1063702984381003e-06,2.522713521471764e-06,1.0912985398117595e-06,6.0192513746002766e-05,9.362130028208174e-07,7.41906409843273e-07,1.238729072425582e-06,1.2675050583683307e-06
108,2.0853705623850456e-06,2.005435217303514e-06,1.0533755681828747e-06,3.327275305064372e-05,1.0727736563919758e-06,1.3298466819370209e-06,1.1718217854013592e-06,1.6557269903985791e-06,3.230666171391993e-06,2.4877212548537916e-06,1.094478775531992e-06,5.7100335331661146e-05,9.355805595615523e-07,7.592087862503395e-07,1.2138181441120314e-06,1.2708974632543856e-06
109,2.1976536075748864e-06,2.0588143145691936e-06,1.0521295595527426e-06,3.454543703798497e-05,1.0495496778135251e-06,1.3176885515229433e-06,1.1607584725847218e-06,1.6340318725634585e-06,3.3599664922747335e-06,2.454133245701919e-06,1.099637923717631e-06,5.4319936322496966e-05,9.366035371336778e-07,7.751730533803221e-07,1.1887200755910353e-06,1.2755336434834138e-06
110,2.3015666492776847e-06,2.1169466556341625e-06,1.0540833023876774e-06,3.5651130432488725e-05,1.0257636363869685e-06,1.300569332012472e-06,1.1469071411858392e-06,1.6098590853418205e-06,3.4931885729271114e-06,2.4218499590463644e-06,1.1059563124645618e-06,5.188985436670105e-05,9.394349897426663e-07,7.892524588422455e-07,1.1635908614334235e-06,1.2814863197934013e-06
111,2.394719235088444e-06,2.178803274866531e-06,1.0604059449970709e-06,3.656094957924226e-05,1.0016474869276474e-06,1.278809055967877e-06,1.130078407944529e-06,1.5842423323342024e-06,3.6289277211039786e-06,2.3910834347873143e-06,1.1127146996282715e-06,4.983535732342243e-05,9.440937044028946e-07,8.009710308994223e-07,1.1385406328293225e-06,1.288733317193656e-06
112,2.475167286620473e-06,2.243549675901856e-06,1.0722475251731816e-06,3.725694807363019e-05,9.77380365309677e-07,1.2527281548775705e-06,1.1100476875106345e-06,1.5582570782298082e-06,3.7654008148876424e-06,2.3620151639668793e-06,1.119473921111432e-06,4.8168835825727474e-05,9.504632961605716e-07,8.101331455752613e-07,1.113757654506128e-06,1.2971474860289763e-06
113,2.5416086574807106e-06,2.3106967964662967e-06,1.0906534489595728e-06,3.773424912498211e-05,9.531052258221709e-07,1.2225723621433996e-06,1.086596633455408e-06,1.5329119755539846e-06,3.900650890276598e-06,2.334551812593389e-06,1.1261430196597866e-06,4.689032566829687e-05,9.582811101859054e-07,8.169278218434494e-07,1.0895175258621235e-06,1.3065146308138575e-06
114,2.5934264703556896e-06,2.3800363564586453e-06,1.1165136626221642e-06,3.799977907350808e-05,9.289995769462604e-07,1.1885569699540357e-06,1.0597142350213857e-06,1.5090328498879376e-06,4.032794405782259e-06,2.308303851701562e-06,1.1328539464548205e-06,4.5988174027004695e-05,9.671151917459868e-07,8.218245671258679e-07,1.0660836209895432e-06,1.3165557071099243e-06
115,2.630576321242566e-06,2.451456003100085e-06,1.1505519925733735e-06,3.8067725082725435e-05,9.053225038562792e-07,1.1510381411445886e-06,1.0297762696796496e-06,1.4871978596883342e-06,4.160102536969044e-06,2.282799598009936e-06,1.1397717474125101e-06,4.544005428630946e-05,9.763729380219224e-07,8.253714347204025e-07,1.0436126744484475e-06,1.3268987494807318e-06
116,2.6533999565279367e-06,2.524789948084943e-06,1.1933342791138461e-06,3.7953481422839806e-05,8.824295930713372e-07,1.1106349809956714e-06,9.97541058475037e-07,1.4677655536263004e-06,4.28098375702639e-06,2.2577758183853504e-06,1.1470084055589747e-06,4.521421980162908e-05,9.85372168283174e-07,8.280548004909735e-07,1.0221684294121799e-06,1.3370556986734218e-06
117,2.662491278449419e-06,2.5997685163637988e-06,1.2452696658969792e-06,3.766893889961951e-05,8.607467013464879e-07,1.0681611571907305e-06,9.63972750954554e-07,1.4509452399776662e-06,4.393999279616997e-06,2.2333823119450016e-06,1.1546191977470854e-06,4.527025906058953e-05,9.934553800995184e-07,8.302435581662922e-07,1.0018143358676884e-06,1.3464732326110579e-06
118,2.6587032069608043e-06,2.6760410313760324e-06,1.3066526598887792e-06,3.7221349445700344e-05,8.406923853609402e-07,1.0244335415115252e-06,9.300700461751147e-07,1.4368450030082948e-06,4.4978699923927405e-06,2.210250436329697e-06,1.1625734199944454e-06,4.555925632620911e-05,1.000123114565003e-06,8.321780580450667e-07,9.826463859788719e-07,1.354631462590628e-06
119,2.6432588411525005e-06,2.753263506899614e-06,1.377828482975026e-06,3.6615388356710256e-05,8.225881593875792e-07,9.801263532191509e-07,8.968276028769608e-07,1.4254819653998007e-06,4.591323838686524e-06,2.189408771413073e-06,1.170692763158874e-06,4.6025080844466396e-05,1.0051454199996056e-06,8.339991563947004e-07,9.647435261028209e-07,1.3611003591082334e-06
120,2.617809132216273e-06,2.8312605672025574e-06,1.459426875813249e-06,3.585620575035196e-05,8.066118535712306e-07,9.357684252290674e-07,8.652464402830869e-07,1.416754343837405e-06,4.672860388412761e-06,2.1720939205372543e-06,1.1786264479306477e-06,4.6608171404899685e-05,1.0085610810497277e-06,8.357848082626183e-07,9.48126083440638e-07,1.365517087574921e-06
121,2.5843038069080456e-06,2.9101892551513887e-06,1.5525013222200305e-06,3.495184073417192e-05,7.927949619284556e-07,8.918395751153649e-07,8.362783629718112e-07,1.4103982814999297e-06,4.740810424904455e-06,2.1596001041568523e-06,1.1859044384345037e-06,4.7250492753389175e-05,1.0105234516624886e-06,8.375383869719218e-07,9.327451609869001e-07,1.3676169217529243e-06
122,2.5446981017700696e-06,2.9905667367891406e-06,1.6584722475502045e-06,3.391449200697554e-05,7.810296082564275e-07,8.488443896073118e-07,8.107407286959665e-07,1.4060160467884351e-06,4.793814335954804e-06,2.153211901321074e-06,1.192032078176307e-06,4.789978422009713e-05,1.0111254625652661e-06,8.391534658637788e-07,9.185089177766262e-07,1.3674034566871882e-06
123,2.500648462558062e-06,3.0731172222339796e-06,1.7789136539899699e-06,3.276063847385794e-05,7.710947229486057e-07,8.073062403946174e-07,7.89278200196439e-07,1.4032170071975193e-06,4.831359578191892e-06,2.154102884431295e-06,1.1965515134213264e-06,4.851288958420291e-05,1.010390945570002e-06,8.404215169568268e-07,9.053540132365181e-07,1.3652824418791889e-06
124,2.4533545552410233e-06,3.158544204479279e-06,1.9153092596807633e-06,3.1510316698898864e-05,7.627313400596433e-07,7.67733732440251e-07,7.723672602125813e-07,1.4017676182999396e-06,4.854056268327092e-06,2.1631773960444176e-06,1.1990624494709502e-06,4.9057928803825864e-05,1.0083981855843382e-06,8.410818277244438e-07,8.93290591021836e-07,1.361987371240776e-06
125,2.4035662841266304e-06,3.247371877790622e-06,2.068866184519968e-06,3.0186052795217852e-05,7.557424058001008e-07,7.306121778179945e-07,7.603233159345486e-07,1.4016454246169342e-06,4.863588248643008e-06,2.180990569807654e-06,1.199245928204054e-06,4.951392487967283e-05,1.0053340210659555e-06,8.409026743142252e-07,8.823651102934452e-07,1.358350028417522e-06
126,2.3516334504149844e-06,3.3399345356345336e-06,2.2404023884823263e-06,2.8811876630691058e-05,7.50059717534723e-07,6.963962973185932e-07,7.532961270241267e-07,1.4030024594594176e-06,4.862305969477026e-06,2.2077696443420004e-06,1.1968744203052555e-06,4.986753009704059e-05,1.001445785670829e-06,8.398333528556141e-07,8.725895868861439e-07,1.3550730539942519e-06
127,2.2975474364556785e-06,3.436475072312273e-06,2.4303451386742436e-06,2.7412487417276358e-05,7.457359837238557e-07,6.654738359447567e-07,7.512684514108728e-07,1.4060854674739025e-06,4.852538505498163e-06,2.2434145677266653e-06,1.1917734488537417e-06,5.010853745160365e-05,9.970017895393882e-07,8.381438636580008e-07,8.638916665093522e-07,1.3526013880049294e-06
128,2.2410930725014777e-06,3.5371679463412642e-06,2.6389137821380673e-06,2.6012158150315263e-05,7.428651270515627e-07,6.38128062975717e-07,7.540698014779678e-07,1.4111571363266393e-06,4.836011345022568e-06,2.287482996046252e-06,1.1837927903871526e-06,5.022552319998952e-05,9.922760470496218e-07,8.363664478127828e-07,8.561077660215124e-07,1.3510885645745743e-06
129,2.18215927170177e-06,3.6419573668652566e-06,2.8664266857727523e-06,2.4633053467898758e-05,7.415048334594706e-07,6.145414687305843e-07,7.614048680812434e-07,1.418443681969295e-06,4.813761876075338e-06,2.33924726678559e-06,1.1728272117502107e-06,5.0202418975426935e-05,9.875329900960024e-07,8.350941249053112e-07,8.490706936379047e-07,1.3504249778863438e-06
130,2.1210106215099947e-06,3.7504749252571252e-06,3.1134672484116543e-06,2.3293576323819338e-05,7.416610110255483e-07,5.948288870987774e-07,7.729135648168828e-07,1.4280844905255653e-06,4.786540273619796e-06,2.397780360402959e-06,1.158796920972553e-06,5.00189091287973e-05,9.83009550958532e-07,8.348582833635472e-07,8.427723334290233e-07,1.3502818151900145e-06
131,2.058323546952674e-06,3.862334313776866e-06,3.3807120731782705e-06,2.2007836503823225e-05,7.432929839770941e-07,5.79047584562687e-07,7.882445171206926e-07,1.4400569044457686e-06,4.755371799491722e-06,2.4620927529093467e-06,1.1415638777617352e-06,4.9656766450764144e-05,9.788739314949568e-07,8.361130384004009e-07,8.374335470602555e-07,1.3501320558579755e-06
132,1.995064609017109e-06,3.977629075122928e-06,3.6685819123107064e-06,2.0786398561118374e-05,7.462932949641531e-07,5.671772901296609e-07,8.070600913270565e-07,1.4541250877224698e-06,4.721925555030009e-06,2.531408156851047e-06,1.1208927479227812e-06,4.9108621847396186e-05,9.751824424512331e-07,8.392225216519101e-07,8.334184367300427e-07,1.349295973053394e-06
133,1.932408602988156e-06,4.097268804377629e-06,3.9770686592724044e-06,1.9637511696855513e-05,7.504727571110572e-07,5.591098448562472e-07,8.289675664245131e-07,1.469858534789852e-06,4.688482275356242e-06,2.6053502184393184e-06,1.0964888230140847e-06,4.8383372814689785e-05,9.718854704366586e-07,8.444305178961391e-07,8.311507388760291e-07,1.3470615184260162e-06
134,1.8717618994404897e-06,4.223019444688012e-06,4.305847351320251e-06,1.856813247691265e-05,7.555717509876059e-07,5.546558012912417e-07,8.534594903504375e-07,1.4866813407249943e-06,4.657572059045146e-06,2.68377871614213e-06,1.0681011206737398e-06,4.7505661770056695e-05,9.688644170646239e-07,8.518424111451746e-07,8.310977104073911e-07,1.3428485555412322e-06
135,1.8148213425057614e-06,4.3572930684258946e-06,4.6544690337589685e-06,1.758440157061228e-05,7.612686968335985e-07,5.535493760928855e-07,8.798962187753284e-07,1.5039356299572102e-06,4.631555318312083e-06,2.7665233935552684e-06,1.0356755628279414e-06,4.651059855640994e-05,9.659476053347679e-07,8.614193424832738e-07,8.337223424820228e-07,1.3363702837744851e-06
136,1.7635506092009827e-06,4.5028074393682864e-06,5.022449988916653e-06,1.6691381697319364e-05,7.672021574315102e-07,5.554644050655346e-07,9.075129557222211e-07,1.5209792572427177e-06,4.61233227738288e-06,2.8533529291073893e-06,9.994015180465007e-07,4.5436800608815914e-05,9.629165717803842e-07,8.729794592904352e-07,8.393973231435825e-07,1.3277476169037466e-06
137,1.720012317334343e-06,4.662275591092985e-06,5.409242154357261e-06,1.58921902001789e-05,7.730400877108173e-07,5.600713477639776e-07,9.354298396813598e-07,1.5372644248655681e-06,4.601159251932903e-06,2.9440249108819934e-06,9.595575778238713e-07,4.43204050380326e-05,9.595358605557973e-07,8.862084811363325e-07,8.483667999809523e-07,1.31753266314616e-06
138,1.6861537267229847e-06,4.838228538058535e-06,5.814151862903878e-06,1.5187117996804356e-05,7.785248492924764e-07,5.671162970824943e-07,9.626653496360645e-07,1.5523259003029863e-06,4.598572511693421e-06,3.038166147990462e-06,9.163203525546337e-07,4.319104303600794e-05,9.555864481514749e-07,9.006779350146821e-07,8.607759720327543e-07,1.3066258309945103e-06
139,1.6636819214396925e-06,5.0329252938674006e-06,6.23634222139247e-06,1.4573444054401483e-05,7.834254942809741e-07,5.764548607586462e-07,9.881868089889346e-07,1.5657126988111878e-06,4.604562295124917e-06,3.135127519317506e-06,8.696873260001002e-07,4.2070085355196925e-05,9.508694566156376e-07,9.158971331165313e-07,8.767264113065924e-07,1.2960921528692003e-06
140,1.6540194612964784e-06,5.248194507910355e-06,6.675055353394474e-06,1.4046134118643011e-05,7.874815051228498e-07,5.880113612207891e-07,1.0109994612008095e-06,1.5769579835224826e-06,4.618980027437195e-06,3.233977113857002e-06,8.19475038459349e-07,4.097147126960926e-05,9.451808299806677e-07,9.314122103231592e-07,8.963260807246904e-07,1.2869331412071285e-06
141,1.658283567268155e-06,5.485137455933741e-06,7.129992547517854e-06,1.359894879841347e-05,7.904367297421308e-07,6.017033819983986e-07,1.0302223169725441e-06,1.5856126548318112e-06,4.641824800252304e-06,3.333512445247395e-06,7.65318419945759e-07,3.990461028195341e-05,9.383143725444351e-07,9.468945083804899e-07,9.197156006876544e-07,1.2799222047107651e-06
142,1.6772856698371777e-06,5.743829088054331e-06,7.60157031982358e-06,1.3225445412453717e-05,7.921246262727351e-07,6.173846236667004e-07,1.0451024750358171e-06,1.591280250504049e-06,4.673101462643599e-06,3.4323603462112313e-06,7.066811281669941e-07,3.887784243881084e-05,9.301723189221824e-07,9.621644030961802e-07,9.470533723341135e-07,1.2755486300581392e-06
143,1.7115426686271536e-06,6.023180546049985e-06,8.09080615737727e-06,1.2919731958831395e-05,7.925237456106717e-07,6.348274846685744e-07,1.0549766380268959e-06,1.5935943728114944e-06,4.712406705377615e-06,3.529388893888602e-06,6.429388076889976e-07,3.790082839426156e-05,9.209095414571123e-07,9.771515780844598e-07,9.784754301790516e-07,1.2740168822170056e-06
144,1.7613479025527456e-06,6.3209725340512885e-06,8.598841929402402e-06,1.2676987294519714e-05,7.917491080466572e-07,6.537343042635688e-07,1.0592716995394093e-06,1.5921547822459424e-06,4.758630577614965e-06,3.6241688791147275e-06,5.735505098588346e-07,3.698468852306774e-05,9.109196604871193e-07,9.918224358720936e-07,1.014056983625908e-06,1.2752480530517732e-06
145,1.8270175533743344e-06,6.634012457965532e-06,9.126311693824787e-06,1.2493651535175994e-05,7.899765612912811e-07,6.737452300035306e-07,1.0576214887677503e-06,1.5865036118330883e-06,4.809873390314769e-06,3.716967296711427e-06,4.982283488879311e-07,3.6139904229644964e-05,9.006631749090489e-07,1.0061319619865943e-06,1.0537665057892989e-06,1.2788885234805427e-06
146,1.9092609759237895e-06,6.958388969915799e-06,9.672758476441244e-06,1.2367079549868171e-05,7.873495506218902e-07,6.944204237757434e-07,1.0500012571510447e-06,1.5762073232552956e-06,4.863518976200423e-06,3.808303595224965e-06,4.17003156323417e-07,3.537429200558832e-05,8.905094698693975e-07,1.020021977961307e-06,1.0974106419273302e-06,1.2843817496939816e-06
147,2.0093707107929554e-06,7.289771459752224e-06,1.0236167460079073e-05,1.2294610561046996e-05,7.839419414558603e-07,7.152138152644269e-07,1.0367060468041494e-06,1.561012270211769e-06,4.9166486293242076e-06,3.89867348675417e-06,3.301799075902665e-07,3.469375888520134e-05,8.806663634159542e-07,1.0334135288067852e-06,1.1445995751784763e-06,1.2911517782657018e-06
148,2.12904430605946e-06,7.623691707008298e-06,1.0812600800994039e-05,1.2272601611537763e-05,7.797870159122827e-07,7.354639765347128e-07,1.0182217240258666e-06,1.540969556432872e-06,4.9668597051260695e-06,3.988678610126196e-06,2.382406155792633e-07,3.41047050354167e-05,8.711610708490422e-07,1.046189766558602e-06,1.1947506228847534e-06,1.2988284768653307e-06
149,2.2701088810388733e-06,7.95576124955913e-06,1.1396044390047286e-05,1.2296350043771335e-05,7.749295770553192e-07,7.544121154622642e-07,9.951773563520223e-07,1.5164704784517808e-06,5.0129132584602094e-06,4.079059426218132e-06,1.4176631869314746e-07,3.3614134204066846e-05,8.618483873692376e-07,1.0582252642902094e-06,1.2471437954905702e-06,1.307327042663146e-06
150,2.434460424861255e-06,8.2817879109277e-06,1.1978668468273849e-05,1.2361019772067915e-05,7.694608258096516e-07,7.712805562787347e-07,9.683633765514596e-07,1.4882213392274696e-06,5.0545931054750065e-06,4.170357497943959e-06,4.142156095167989e-08,3.322664709849105e-05,8.524617502645024e-07,1.0694162308277188e-06,1.3010354839874418e-06,1.316720348520918e-06
151,2.624063787427584e-06,8.597802407070743e-06,1.255149774866675e-05,1.2462571375928584e-05,7.635044824952964e-07,7.854226207162048e-07,9.386820913768591e-07,1.4571781464693487e-06,5.0921148588788266e-06,4.262553398677395e-06,-6.20388112461293e-08,3.2941569132466526e-05,8.427087130350263e-07,1.079627444937477e-06,1.3557760215727808e-06,1.327117821047378e-06
152,2.840775751708133e-06,8.900073223749763e-06,1.310526608312414e-05,1.2597857631210739e-05,7.571582594520098e-07,7.964489054437831e-07,9.070423647415896e-07,1.4244065304181404e-06,5.125871504710332e-06,4.354957140503903e-06,-1.6776430793270379e-07,3.275234535546099e-05,8.323561968379375e-07,1.0886213339988814e-06,1.4108300791180906e-06,1.3386954173265138e-06
153,3.0861039429100176e-06,9.185162732604828e-06,1.363122352928948e-05,1.2763890688419825e-05,7.504570595136628e-07,8.042290952338669e-07,8.742755721205687e-07,1.3908842525873205e-06,5.156462277939022e-06,4.446350234854407e-06,-2.7472385079496573e-07,3.264695404753655e-05,8.212611293701223e-07,1.096088699386313e-06,1.4656659420984558e-06,1.3516987240028716e-06
154,3.3611156894775457e-06,9.449956773294717e-06,1.412171759640056e-05,1.2956729975284938e-05,7.43414198278101e-07,8.088047674017037e-07,8.410846082531618e-07,1.357369325949908e-06,5.184535746195381e-06,4.535319250395392e-06,-3.815300131155939e-07,3.260782754478555e-05,8.093552540130137e-07,1.1017538543620245e-06,1.5196522642727563e-06,1.366309507399289e-06
155,3.666497598354289e-06,9.691503805550042e-06,1.4570459853356982e-05,1.317060834559943e-05,7.360949022542023e-07,8.103332620501949e-07,8.080251162781494e-07,1.3244357411741078e-06,5.2105617425832e-06,4.620644190107794e-06,-4.863234989322729e-07,3.2611627127290226e-05,7.966022920627685e-07,1.105436180789297e-06,1.572130625703726e-06,1.3825333650375298e-06
156,4.002578416049796e-06,9.906509915563404e-06,1.497259772277338e-05,1.3397609438035408e-05,7.286322017837671e-07,8.091059136808895e-07,7.755254183187786e-07,1.2926298003700605e-06,5.23475033028598e-06,4.70153718636004e-06,-5.868199626688376e-07,3.263024150436593e-05,7.829856476048887e-07,1.107038736169159e-06,1.6226094606208213e-06,1.4001945382247316e-06
157,4.369196618184103e-06,1.0090660232429355e-05,1.532490696239688e-05,1.362768837248291e-05,7.212022971335069e-07,8.055517988540962e-07,7.439295592781155e-07,1.2625833328280735e-06,5.257192928385923e-06,4.777681090225331e-06,-6.804296359094869e-07,3.2633928354593046e-05,7.68559778053222e-07,1.106519587989819e-06,1.670873290769516e-06,1.4189907897117646e-06
158,4.765568154941737e-06,1.0238483302752015e-05,1.5626301332639917e-05,1.384919715986572e-05,7.140448581040242e-07,8.001542158056251e-07,7.135622155572865e-07,1.23496906434365e-06,5.278410031129237e-06,4.8492163895399e-06,-7.642911644202467e-07,3.259596873421734e-05,7.534837128795607e-07,1.1038630956871118e-06,1.7169182430121617e-06,1.438600956736937e-06
159,5.1903672429173696e-06,1.0344282762598891e-05,1.5878387452188544e-05,1.4050344561250792e-05,7.075035468819374e-07,7.933562476635559e-07,6.848094035948306e-07,1.2103542136884164e-06,5.3000096168448665e-06,4.9167365139422035e-06,-8.35167989522032e-07,3.249681517298179e-05,7.380112163135254e-07,1.0990449662653988e-06,1.7608122787312128e-06,1.458798543436527e-06
160,5.641972943007832e-06,1.0403677990573656e-05,1.6085474537643473e-05,1.4221130397055903e-05,7.020022971802479e-07,7.855443090005191e-07,6.58145771043553e-07,1.1890871858218955e-06,5.3248116785765e-06,4.981180161350189e-06,-8.893208809498761e-07,3.23254939346376e-05,7.224687180224833e-07,1.0920203746056731e-06,1.8025934344236133e-06,1.4794563274246084e-06
161,6.118708153963882e-06,1.041489442891781e-05,1.625373262182578e-05,1.435478764972375e-05,6.979808767273619e-07,7.770772326150975e-07,6.340655786904528e-07,1.1712685589913288e-06,5.356401294633578e-06,5.043557798541151e-06,-9.224738081714024e-07,3.207721396270645e-05,7.071930308686466e-07,1.082745457587411e-06,1.8421890938797094e-06,1.5004512588237297e-06
162,6.618984162621336e-06,1.0379353594417403e-05,1.6389777862647858e-05,1.4448215460497723e-05,6.958598582783041e-07,7.683112633918696e-07,6.129884078981497e-07,1.1567856510360582e-06,5.398601818760909e-06,5.104578616711176e-06,-9.298002742546285e-07,3.1749483683638535e-05,6.924734499789957e-07,1.0712204691877205e-06,1.879314324802901e-06,1.5216145261089934e-06
163,7.141285910844013e-06,1.0301504652012816e-05,1.649915433984902e-05,1.4501384612886514e-05,6.960229077703249e-07,7.596050189540621e-07,5.952155526033967e-07,1.1453682847690994e-06,5.45520311959653e-06,5.164290489400883e-06,-9.058469329442368e-07,3.134200229641105e-05,6.785682455476682e-07,1.0575163099936328e-06,1.913412731675022e-06,1.542760263745477e-06
164,7.683896824277307e-06,1.0188027129945881e-05,1.6585080966433442e-05,1.4515993991207117e-05,6.987743316836773e-07,7.512833556445809e-07,5.809225622658233e-07,1.1366029449278026e-06,5.529866937740178e-06,5.221855421421929e-06,-8.445080789139945e-07,3.0862032084556796e-05,6.657380015259582e-07,1.0417446000168146e-06,1.9437071715959364e-06,1.5636928769469957e-06
165,8.244368740601447e-06,1.0046666099736881e-05,1.6647970685476946e-05,1.4493777036199802e-05,7.042906965712916e-07,7.435832065070501e-07,5.701569020970611e-07,1.1299098342602687e-06,5.6259488977662315e-06,5.275575263788219e-06,-7.391283656150431e-07,3.0329865559518554e-05,6.54244723118827e-07,1.0240632864121335e-06,1.9693322992988894e-06,1.584177997348644e-06
166,8.81902345148535e-06,9.885034629465614e-06,1.6685938210857705e-05,1.4435079249264808e-05,7.126108474781483e-07,7.366500615439945e-07,5.628500626459858e-07,1.1245680049843577e-06,5.746183735952956e-06,5.323151183448342e-06,-5.825995429417497e-07,2.9778661963671376e-05,6.443465938561163e-07,1.0047880577157658e-06,1.989485343254315e-06,1.60390898265203e-06
167,9.40284114557241e-06,9.709640235462785e-06,1.6695629294217727e-05,1.433852818508356e-05,7.23657986095387e-07,7.306086600782791e-07,5.58846826782819e-07,1.1198465123783182e-06,5.892448345535736e-06,5.36202210271167e-06,-3.6737007512925553e-07,2.9248837672964517e-05,6.362807802947581e-07,9.844737197983168e-07,2.0035428016125667e-06,1.6224464893998988e-06
168,9.989745611810775e-06,9.525247965391685e-06,1.667273623517164e-05,1.4201948252210794e-05,7.372553630161788e-07,7.256361401735097e-07,5.57930171923519e-07,1.1151893847340074e-06,6.065738957856878e-06,5.389703812387692e-06,-8.548887673487703e-08,2.8781174293169383e-05,6.302191048668621e-07,9.638565975852513e-07,2.0111291352160667e-06,1.6391814175283713e-06
169,1.0573019376127725e-05,9.334696759956442e-06,1.6612433244619003e-05,1.4023673456739732e-05,7.531422498906597e-07,7.219569576166637e-07,5.598497221406825e-07,1.11029195692282e-06,6.266187373189174e-06,5.40413379283887e-06,2.7125284958988386e-07,2.8412192385670808e-05,6.262363388403344e-07,9.437242413117734e-07,2.0121561632852272e-06,1.6534090175738025e-06
170,1.1145675008079367e-05,9.139214778226086e-06,1.6510111972649725e-05,1.3803452922717053e-05,7.710091766926458e-07,7.197954991769707e-07,5.643912528302126e-07,1.104982604080687e-06,6.492916049179452e-06,5.403942519446266e-06,7.111704858169352e-07,2.817257161584072e-05,6.24301287248422e-07,9.248029258153623e-07,2.0068037774491723e-06,1.6644782065663053e-06
171,1.1700766624983292e-05,8.938984246641794e-06,1.636226848218888e-05,1.3542802023503644e-05,7.905118874842382e-07,7.193459951043509e-07,5.71458578019692e-07,1.0990354664646578e-06,6.74386003829101e-06,5.3885651557431565e-06,1.242574487686646e-06,2.8087522453353753e-05,6.242728874831834e-07,9.076915437741031e-07,1.995403937957447e-06,1.6719250251145484e-06
172,1.2231594495557563e-05,8.733625363823215e-06,1.6167242548173894e-05,1.3244867050479038e-05,8.112405581227068e-07,7.207361156188504e-07,5.810821865516379e-07,1.0920978047439312e-06,7.015747886551364e-06,5.358225142709883e-06,1.8736784692354138e-06,2.817807008770635e-05,6.259304456569469e-07,8.928357521659412e-07,1.9783125198998327e-06,1.6755552926661416e-06
173,1.2731625005573875e-05,8.522508816278394e-06,1.5925810653091957e-05,1.2913738080329142e-05,8.326896026241597e-07,7.23976626817374e-07,5.933621300780495e-07,1.0837755302293315e-06,7.304125974072299e-06,5.3138405671287305e-06,2.6125222926144847e-06,2.8462909229641206e-05,6.290591247058123e-07,8.805366638944293e-07,1.955899463906111e-06,1.6754937576188675e-06
174,1.3193925984322334e-05,8.30499730259625e-06,1.5641710938896615e-05,1.2553299240811765e-05,8.542715479904489e-07,7.28927179343566e-07,6.084174195738001e-07,1.0737402586287705e-06,7.603279557186548e-06,5.256866482187568e-06,3.4669024874457024e-06,2.896055466830243e-05,6.33524847923903e-07,8.709827075387238e-07,1.9286010363255605e-06,1.67222219158435e-06
175,1.3610355946196634e-05,8.080704830094341e-06,1.532196467271649e-05,1.2166351689715172e-05,8.753724705509314e-07,7.352868950942084e-07,6.263364930983586e-07,1.061733144615044e-06,7.906164637278566e-06,5.189138079376518e-06,4.444289817180472e-06,2.9690950830014636e-05,6.392571203282802e-07,8.642664913870621e-07,1.8968737230495913e-06,1.6665727143937564e-06
176,1.3971435002381022e-05,7.849754969904219e-06,1.4976845354575017e-05,1.1754895211304606e-05,8.953851342695475e-07,7.426151847254971e-07,6.471145438331049e-07,1.0475875339641458e-06,8.204536983941802e-06,5.112773777453468e-06,5.551735341788971e-06,3.067516633575456e-05,6.461690794959543e-07,8.60384109221609e-07,1.8611345360125414e-06,1.6596035547170506e-06
177,1.4267409798074637e-05,7.612975632922456e-06,1.461955944681221e-05,1.1321339519196385e-05,9.13673289519197e-07,7.503863047592079e-07,6.706194340460638e-07,1.0314101721677094e-06,8.489411248297257e-06,5.0300115630970656e-06,6.795758950180427e-06,3.193303372014013e-05,6.541177902675952e-07,8.592423941903944e-07,1.821867305285461e-06,1.6523753802875534e-06
178,1.4489748489574577e-05,7.372009293703074e-06,1.4265745404167593e-05,1.0869444744460171e-05,9.295468932823281e-07,7.580645864119525e-07,6.966014378697738e-07,1.013738778555288e-06,8.751944239950814e-06,4.9428923336740194e-06,8.182222930631179e-06,3.348148134743442e-05,6.629202797363339e-07,8.606453826293357e-07,1.7797586124356554e-06,1.6457664988487855e-06
179,1.463220495670209e-05,7.129340520709134e-06,1.3932727389666938e-05,1.0404276091118428e-05,9.423121912821042e-07,7.651816015235504e-07,7.24731200440276e-07,9.954494170835484e-07,8.98462298287617e-06,4.853123917081269e-06,9.71627799551314e-06,3.533549517616862e-05,6.723642504765695e-07,8.642686233673784e-07,1.7356495489883235e-06,1.640411341332277e-06
180,1.4691379672956478e-05,6.888222560174847e-06,1.3638448472176556e-05,9.931422400531015e-06,9.513125394121125e-07,7.713845498486184e-07,7.546408903535309e-07,9.774952710693763e-07,9.18231678595418e-06,4.7623473435596275e-06,1.140241200451054e-05,3.7508995260337314e-05,6.822214574346456e-07,8.696967968014587e-07,1.690378787572396e-06,1.6367578040561295e-06
181,1.4666792588793559e-05,6.652431918148019e-06,1.3400235643784363e-05,9.456013838829843e-06,9.559338359059098e-07,7.76418919891498e-07,7.859295060854071e-07,9.606974172487456e-07,9.342757971419177e-06,4.672356733045455e-06,1.3244431386713564e-05,4.001290661151047e-05,6.92277274878449e-07,8.765005327018864e-07,1.6447007637404809e-06,1.6352103206246355e-06
182,1.456008732467349e-05,6.425782427454879e-06,1.3233691365365812e-05,8.981962055604825e-06,9.556864264798619e-07,7.800558796648876e-07,8.181372885945576e-07,9.456757391476084e-07,9.466385365120008e-06,4.5849358756122055e-06,1.5245236059839824e-05,4.285212618652985e-05,7.023227243610531e-07,8.842699479808583e-07,1.5993433513818879e-06,1.636222025927576e-06
183,1.4373356193259068e-05,6.211569108329649e-06,1.3151979637644884e-05,8.511767792306359e-06,9.503657889026874e-07,7.820493059084385e-07,8.507384033550917e-07,9.328612892925599e-07,9.555636836435653e-06,4.501612422289653e-06,1.7406429387334295e-05,4.6023761088945254e-05,7.121380306467573e-07,8.92615243088121e-07,1.5551326160313007e-06,1.64024766032781e-06
184,1.4107844903470664e-05,6.012267942977513e-06,1.3165659648128477e-05,8.046891944392455e-06,9.401471967277625e-07,7.821949114945363e-07,8.831730353945345e-07,9.225251584924249e-07,9.61374650309594e-06,4.423533595009247e-06,1.9727809725955726e-05,4.9517030468708333e-05,7.215356453975457e-07,9.011750276796353e-07,1.5130176696810714e-06,1.6476776451298123e-06
185,1.3764340186127088e-05,5.829462610572558e-06,1.3282984648383041e-05,7.588301177513029e-06,9.255437146245282e-07,7.804372444348369e-07,9.149111513818881e-07,9.148163513528514e-07,9.643541979159198e-06,4.351285782500629e-06,2.220670288488151e-05,5.331467232086638e-05,7.303932847089863e-07,9.096354985787465e-07,1.473918929878799e-06,1.6588208501697843e-06
186,1.3344773947079508e-05,5.663730438652061e-06,1.3510388065185534e-05,7.136974509645804e-06,9.072727074133897e-07,7.769023810078239e-07,9.455261654556904e-07,9.097942427012244e-07,9.646990997479919e-06,4.2846611265709346e-06,2.4837195286101495e-05,5.739470831232232e-05,7.386065571637093e-07,9.177400296576371e-07,1.4385349981753699e-06,1.673839871998e-06
187,1.2853660995745876e-05,5.514574934782992e-06,1.385284225659526e-05,6.694366976377087e-06,8.860977810039647e-07,7.718202619863184e-07,9.747254899233555e-07,9.074381855183718e-07,9.62547120954927e-06,4.222638301594235e-06,2.7609899407622773e-05,6.173072480464056e-05,7.460339369407707e-07,9.252534045129245e-07,1.4072585029671832e-06,1.6926592855306654e-06
188,1.2298670516790074e-05,5.380635177017649e-06,1.4313844143418835e-05,6.262719403020063e-06,8.627269192160909e-07,7.65408528801134e-07,1.0022982847715264e-06,9.076602335205707e-07,9.580099831097842e-06,4.163703610095155e-06,3.0513135727573563e-05,6.629030889194286e-05,7.525075309583437e-07,9.318946653872796e-07,1.38019729906641e-06,1.7150170810669814e-06
189,1.169033219650954e-05,5.260020055164777e-06,1.489500078086439e-05,5.845162526575591e-06,8.377937299002624e-07,7.578150564877247e-07,1.028008123494528e-06,9.103156117831443e-07,9.511864117793537e-06,4.106376328477623e-06,3.353501753930882e-05,7.103268843860905e-05,7.578670975318109e-07,9.373299615083612e-07,1.357253248125056e-06,1.7406531806491552e-06
190,1.1041141128889413e-05,5.150426672165224e-06,1.559540639760579e-05,5.445713407356355e-06,8.118480160692067e-07,7.491366641862281e-07,1.0515010980194586e-06,9.15172233462024e-07,9.421791689059902e-06,4.049660899962152e-06,3.666417005166386e-05,7.59065288853323e-05,7.619567374786017e-07,9.412715911542372e-07,1.3382487679388866e-06,1.7694041868744236e-06
191,1.0364404347953614e-05,5.049040610455751e-06,1.6411024249969094e-05,5.069214620913021e-06,7.853255967717818e-07,7.394377883675805e-07,1.072315042569538e-06,9.218886044250433e-07,9.311309244560404e-06,3.993223092483096e-06,3.988784421139422e-05,8.084807815325575e-05,7.646227960130086e-07,9.435960804525065e-07,1.323047613223889e-06,1.8011190432371916e-06
192,9.67309597796039e-06,4.952653520140621e-06,1.7334235456588245e-05,4.721195720574857e-06,7.585511519486775e-07,7.287466023309349e-07,1.0900414646336438e-06,9.300839849247649e-07,9.182610764847073e-06,3.937336443982936e-06,4.3189672171638095e-05,8.577942819738902e-05,7.657578583996815e-07,9.44360918930488e-07,1.3115737448505995e-06,1.8355828564254997e-06
193,8.978971106519898e-06,4.858264688844792e-06,1.8353627340791127e-05,4.407639368433358e-06,7.318074046198624e-07,7.170903352584341e-07,1.1045563794777497e-06,9.394764105192274e-07,9.038733379030419e-06,3.8827448982487746e-06,4.655008433225961e-05,9.06067726587147e-05,7.653231381260939e-07,9.43698961893144e-07,1.3037318072582815e-06,1.8725921830534846e-06
194,8.292342525511041e-06,4.763824706439525e-06,1.9453910574247322e-05,4.134624179837308e-06,7.05427435422467e-07,7.045719221109183e-07,1.1161326366834408e-06,9.499845469862556e-07,8.883227257872749e-06,3.830478708939548e-06,4.9948948512344944e-05,9.521872750534817e-05,7.633005136778641e-07,9.41682275673672e-07,1.2993320515967458e-06,1.912097989242934e-06
195,7.6226356256736585e-06,4.668641103606631e-06,2.0615743518350114e-05,3.907897374084937e-06,6.798148259342557e-07,6.914162537592372e-07,1.12533633453003e-06,9.61713177559213e-07,8.719603834212152e-06,3.781616283810931e-06,5.336768381936239e-05,9.948637271746193e-05,7.596566244390569e-07,9.382691661334093e-07,1.2980587087118442e-06,1.954249003429122e-06
196,6.979104296615182e-06,4.573273480106323e-06,2.1815461018927146e-05,3.7325916929345187e-06,6.553831026964498e-07,6.779398376672699e-07,1.1328033422474544e-06,9.748285179416001e-07,8.550882435386531e-06,3.7370310255391256e-06,5.678897372740227e-05,0.00010327028994791615,7.543882615806362e-07,9.333858170663364e-07,1.2994685126779056e-06,1.9992699219225117e-06
197,6.3710440742269134e-06,4.479002116499302e-06,2.3025269503605024e-05,3.6131672228961294e-06,6.325080747584803e-07,6.644732756414841e-07,1.1390673534952082e-06,9.894170615804502e-07,8.37941940339472e-06,3.697153935243524e-06,6.01936816496677e-05,0.00010643874722974627,7.475760579066089e-07,9.270992104372896e-07,1.3030224394041982e-06,2.047286601928736e-06
198,5.807527272795178e-06,4.387157912690623e-06,2.4214687486746458e-05,3.5533862090150175e-06,6.115224554143784e-07,6.513212387296453e-07,1.144510934845599e-06,1.0054078824985896e-06,8.206970678949602e-06,3.661781393823053e-06,6.355604081022926e-05,0.0001088909022456574,7.393615336010884e-07,9.197300717302775e-07,1.3081443186995665e-06,2.098242819230864e-06
199,5.297108427289036e-06,4.298662908137047e-06,2.5353367460941042e-05,3.5562438838170183e-06,5.92716010927684e-07,6.387978560755238e-07,1.1493908282063249e-06,1.0225549051490792e-06,8.034870274842862e-06,3.630032729322102e-06,6.683915506717191e-05,0.00011057052348610888,7.29888286741392e-07,9.117800117312338e-07,1.3143185101511006e-06,2.1518795806468208e-06
200,4.8478007603744375e-06,4.213920399423256e-06,2.6414613031650503e-05,3.623972232559202e-06,5.763392472950081e-07,6.272753574713851e-07,1.153870043853971e-06,1.0404567149365676e-06,7.86424657119554e-06,3.600541539340161e-06,6.999261634988868e-05,0.00011146061463826943,7.192683024123913e-07,9.037705524817431e-07,1.3211722429920772e-06,2.2076735055956954e-06
201,4.46727411986596e-06,4.132960227111231e-06,2.737852396373926e-05,3.75810347988325e-06,5.626079200564525e-07,6.17176553044659e-07,1.1580291459624485e-06,1.0585945395176645e-06,7.696146245102451e-06,3.5718026039763237e-06,7.295384123413092e-05,0.00011156328325753371,7.075960888832992e-07,8.961836593372773e-07,1.3284226476408318e-06,2.264740020302201e-06
202,4.163057715052877e-06,4.055713002965308e-06,2.8233731383283586e-05,3.9594973925665835e-06,5.516806609413859e-07,6.089172402292686e-07,1.1618538885128124e-06,1.0763462905305947e-06,7.531395563128997e-06,3.5425233887569473e-06,7.565380213829463e-05,0.00011088063389073863,6.950196066503905e-07,8.894831151854275e-07,1.3357637321179895e-06,2.321760906260343e-06
203,3.942604386781692e-06,3.982312227823839e-06,2.8977211813351798e-05,4.2283923670534715e-06,5.436210752671325e-07,6.028517617028595e-07,1.1652012936126556e-06,1.092993966797897e-06,7.370202472712158e-06,3.5118779984147275e-06,7.802484686921681e-05,0.00010941087942561902,6.817909560191424e-07,8.840826760965737e-07,1.3428881195037801e-06,2.376993519819063e-06
204,3.8132103727171092e-06,3.913267247400936e-06,2.961252777731437e-05,4.564547091149223e-06,5.383807322295672e-07,5.992514240836312e-07,1.1677734537820636e-06,1.1078218435690418e-06,7.211732795262051e-06,3.4795969716209576e-06,8.000696986410092e-05,0.00010715961339122462,6.682210334588912e-07,8.802904946611899e-07,1.3496094934518391e-06,2.4284513069074263e-06
205,3.7818956459768043e-06,3.849393668875098e-06,3.014730885897312e-05,4.9673409809352e-06,5.358110617465506e-07,5.983019400514615e-07,1.1691677090699882e-06,1.120315785875222e-06,7.0538469363723634e-06,3.445892490023239e-06,8.15517558359394e-05,0.00010415535305379914,6.546043939177069e-07,8.78316669091907e-07,1.3558840428358993e-06,2.4742694959983996e-06
206,3.8553847952791215e-06,3.791599763771764e-06,3.0590581721715215e-05,5.435683791044684e-06,5.357059671655417e-07,6.00105551290131e-07,1.1690240977705076e-06,1.1302967934284184e-06,6.892987895449515e-06,3.4113223374195213e-06,8.262562663523608e-05,0.00010045976946550526,6.411873185612393e-07,8.782976353361855e-07,1.3616805878177828e-06,2.513082165249552e-06
207,4.040215651211439e-06,3.740707806434779e-06,3.095024380911512e-05,5.967773625332808e-06,5.378590687062158e-07,6.04691015799599e-07,1.167176430680709e-06,1.1378465230159609e-06,6.724334273529641e-06,3.3766886432278864e-06,8.321167161901226e-05,9.616809554885815e-05,6.281495914535149e-07,8.80272357091673e-07,1.3668377383865762e-06,2.5441911817041074e-06
208,4.342850553727421e-06,3.6973131197143685e-06,3.1230805783321426e-05,6.560862528627735e-06,5.420776978500402e-07,6.120214589220995e-07,1.1636959171026507e-06,1.1431371198659847e-06,6.542582258544893e-06,3.3429503724506702e-06,8.330580849129037e-05,9.139919755475891e-05,6.155845338089471e-07,8.84138425808409e-07,1.3710555879237729e-06,2.5674872351781577e-06
209,4.769661358586025e-06,3.6615749731607944e-06,3.1431600019332706e-05,7.2111494367061236e-06,5.48137075059585e-07,6.219831925829354e-07,1.1588147624660168e-06,1.1463574991890222e-06,6.343386622985719e-06,3.3110627301397025e-06,8.290739551229453e-05,8.627955543530093e-05,6.035037983839344e-07,8.896303660010824e-07,1.3740276745065762e-06,2.5832710166962524e-06
210,5.326756272616043e-06,3.6329940157037495e-06,3.154618194566511e-05,7.91378659563689e-06,5.557304704992645e-07,6.343665128609024e-07,1.1528111210707573e-06,1.1477109348244264e-06,6.124763332748174e-06,3.2817397769733443e-06,8.201394146799062e-05,8.092842750240755e-05,5.91850071283702e-07,8.963323321447793e-07,1.3755607964509871e-06,2.5920612947684703e-06
211,6.0196669209111826e-06,3.6103288052229714e-06,3.156348088233994e-05,8.662870807094012e-06,5.644535790639531e-07,6.488590022988314e-07,1.145946758078965e-06,1.147384536196179e-06,5.887655886196452e-06,3.255297556355752e-06,8.06258886420714e-05,7.544921424364611e-05,5.80496262546493e-07,9.037402415206832e-07,1.3755741560067376e-06,2.5943599742064587e-06
212,6.85297289080495e-06,3.5916574648400493e-06,3.147015513918085e-05,9.451275563796238e-06,5.738182259850126e-07,6.650542178773822e-07,1.1384645863132813e-06,1.1455224187314516e-06,5.6355813051621206e-06,3.2317171966941507e-06,7.875444270892297e-05,6.992716683048601e-05,5.692648390279086e-07,9.113665372079273e-07,1.3740340610016e-06,2.5904896571186656e-06
213,7.830050989998674e-06,3.5745658748608897e-06,3.1253407274477585e-05,1.0270328917969386e-05,5.833149090009016e-07,6.824691367226773e-07,1.1305742229349201e-06,1.1422152692868194e-06,5.373841745803528e-06,3.2108555265438014e-06,7.642581225965509e-05,6.443099877283307e-05,5.579961404817134e-07,9.18840126438489e-07,1.3709061457990496e-06,2.5806524433788762e-06
214,8.953065278459093e-06,3.5565083458345954e-06,3.090388101639552e-05,1.1109666252865649e-05,5.925414219577797e-07,7.00579284244429e-07,1.1223946428837858e-06,1.1374574223673381e-06,5.108656609883151e-06,3.1926571035222245e-06,7.368299275807211e-05,5.901604329405692e-05,5.466347750519576e-07,9.259571998592257e-07,1.3661474048196276e-06,2.5650860268483197e-06
215,1.022304882637462e-05,3.535223982350678e-06,3.0417973819224976e-05,1.1957719762843955e-05,6.013189089935199e-07,7.188920413248231e-07,1.113901976154746e-06,1.1311176212507462e-06,4.846325884059912e-06,3.1772976791430387e-06,7.058575581393694e-05,5.372740347987233e-05,5.352739278784035e-07,9.326713808329102e-07,1.3597294530160505e-06,2.544108206009924e-06
216,1.1639859859474894e-05,3.5089949918561893e-06,2.979885299928288e-05,1.2802958883656449e-05,6.096985158965061e-07,7.37025389172169e-07,1.1049117837841364e-06,1.1230016623463556e-06,4.592637983125247e-06,3.1652458655852642e-06,6.72067586274139e-05,4.860235067383107e-05,5.241388277397148e-07,9.39045101417693e-07,1.3516610955893898e-06,2.5179950162907233e-06
217,1.3202037862525076e-05,3.4766782385260927e-06,2.9056139381149584e-05,1.3635560063550467e-05,6.178713438123822e-07,7.547205195697542e-07,1.095086027851233e-06,1.112984848769495e-06,4.352712247910181e-06,3.157276294885356e-06,6.362351154394427e-05,4.367193229831466e-05,5.135437936733042e-07,9.451872359775172e-07,1.3419844207165846e-06,2.486794588993191e-06
218,1.4906832396234122e-05,3.4375471193234756e-06,2.8204835071565445e-05,1.444899898378946e-05,6.260581473694643e-07,7.717793004419379e-07,1.083979086151915e-06,1.1011295182000345e-06,4.131113944696564e-06,3.1543924749524994e-06,5.990933582619055e-05,3.896212152061752e-05,5.038431115740305e-07,9.512018061379356e-07,1.3307551550863655e-06,2.4503122684135847e-06
219,1.675057420633832e-05,3.3910419969658354e-06,2.7264097261640428e-05,1.5241033377102145e-05,6.344323170752686e-07,7.879897584676199e-07,1.071137177025425e-06,1.0877099798862064e-06,3.931928794065313e-06,3.1575828895527256e-06,5.612745433384479e-05,3.449475064218991e-05,4.953749699156707e-07,9.57184736789948e-07,1.3180040930690146e-06,2.4084030014825143e-06
220,1.8729046206446438e-05,3.336626775374396e-06,2.6255992982907825e-05,1.6013648485430493e-05,6.430886271404469e-07,8.031097874300967e-07,1.0562227009269053e-06,1.0731332335723667e-06,3.7586892863329267e-06,3.167592232656551e-06,5.232972339955893e-05,3.0288206998392828e-05,4.884185511558926e-07,9.632432535482629e-07,1.3036863755779235e-06,2.3613677194736793e-06
221,2.0837104793184584e-05,3.2739103642236353e-06,2.5203954576869538e-05,1.6771789933384244e-05,6.520457450112596e-07,8.169343087065192e-07,1.0390962319226543e-06,1.0578418095384212e-06,3.61426769769455e-06,3.1849073124367705e-06,4.855806199126238e-05,2.6357826539893625e-05,4.831789956682798e-07,9.69482948475778e-07,1.2877309070446117e-06,2.310123367503695e-06
222,2.306735292139125e-05,3.2029656977328542e-06,2.4130788596188954e-05,1.7521171137097004e-05,6.61276295369817e-07,8.293993786808899e-07,1.019782975399148e-06,1.0422959726952618e-06,3.500874176727462e-06,3.2097948977767243e-06,4.484624278889271e-05,2.2716087581410305e-05,4.797825429890576e-07,9.759983728704044e-07,1.270236767823004e-06,2.2560610422488534e-06
223,2.54088724307774e-05,3.1246070911026296e-06,2.305660718691737e-05,1.826615299887934e-05,6.707400923150407e-07,8.406239832684247e-07,9.98359001311965e-07,1.0270279720703066e-06,3.420134230229983e-06,3.2422511338065e-06,4.1221398135568754e-05,1.9372835103403517e-05,4.782687643737994e-07,9.828883485028102e-07,1.251630453431353e-06,2.200751998397185e-06
224,2.7846903064859414e-05,3.0404323299287322e-06,2.1997297171852874e-05,1.9008894126165467e-05,6.803708565794733e-07,8.508387254536232e-07,9.749014725867906e-07,1.0126813799306202e-06,3.3731030476969155e-06,3.2820417928831984e-06,3.770536085576594e-05,1.633569730203826e-05,4.785909821153568e-07,9.902318639474287e-07,1.232613526920116e-06,2.1456647371753523e-06
225,3.036284385425917e-05,2.95259218432749e-06,2.0963802457360467e-05,1.974989343139766e-05,6.900300094606247e-07,8.602837195933043e-07,9.49537448471515e-07,9.999824089696264e-07,3.3601913853058564e-06,3.3289492309807876e-06,3.43158144388675e-05,1.36106539934281e-05,4.806249043128148e-07,9.98037257918182e-07,1.2139579738180274e-06,2.091978841260337e-06
226,3.293361451165451e-05,2.8633953615985876e-06,1.996208434308084e-05,2.0488916538081166e-05,6.994947569793107e-07,8.69158756630966e-07,9.224704330952546e-07,9.89654792685669e-07,3.3811211385817125e-06,3.3830261240796215e-06,3.1067150089141486e-05,1.120260383287688e-05,4.841837540825569e-07,1.0062536167299422e-06,1.196306040418721e-06,2.0405315265557536e-06
227,3.5530812580469885e-05,2.7749848522613535e-06,1.8993682556223248e-05,2.122554169145185e-05,7.084940765901993e-07,8.775852016667049e-07,8.939456817173989e-07,9.823160496302126e-07,3.4349755570491104e-06,3.4445774328301926e-06,2.797098643724912e-05,9.11585329747507e-06,4.89064097869434e-07,1.0148191017567311e-06,1.180068992802417e-06,1.9918482368190857e-06
228,3.812113654389772e-05,2.6892869736654963e-06,1.8056878535564607e-05,2.1959336946244707e-05,7.16749509543478e-07,8.855619013907201e-07,8.642655340202419e-07,9.784043739100284e-07,3.5203108790651044e-06,3.513850259175999e-06,2.5036411386557902e-05,7.354543052603239e-06,4.951108000595454e-07,1.023643201994847e-06,1.1654295989284937e-06,1.9461521546430475e-06
229,4.0668659946091235e-05,2.608126111612229e-06,1.7148175720866195e-05,2.268986979477577e-05,7.239768805357496e-07,8.929656414165188e-07,8.338829386837516e-07,9.781669602786931e-07,3.635262067490418e-06,3.5907069493274493e-06,2.2270094732842283e-05,5.922979614287076e-06,5.022350184841172e-07,1.032547766553515e-06,1.152419386801844e-06,1.9033182715882667e-06
230,4.313760505228172e-05,2.533225985741978e-06,1.6263672798206483e-05,2.3416587848233687e-05,7.29846311468674e-07,8.995698300248094e-07,8.034500848600975e-07,9.816802294168205e-07,3.777565098502122e-06,3.6744885960520145e-06,1.9676397040329267e-05,4.8257789875204515e-06,5.10366419717286e-07,1.0412499812833721e-06,1.1410234351500747e-06,1.8628470375639086e-06
231,4.549316100235598e-05,2.466097711981675e-06,1.540007554856418e-05,2.413858881969507e-05,7.339440767379715e-07,9.050229927706122e-07,7.737689850918325e-07,9.888579710504085e-07,3.944510532714414e-06,3.7639960684212426e-06,1.7257530833242455e-05,4.067835305016202e-06,5.194172479572149e-07,1.0493669117487748e-06,1.1312416976102701e-06,1.8239397161216169e-06
232,4.7699425576851224e-05,2.408041120472802e-06,1.4555244048262792e-05,2.4854461929175828e-05,7.357799944180285e-07,9.08822950293412e-07,7.457087145251087e-07,9.994538879889241e-07,4.132919692787199e-06,3.85754234817247e-06,1.5013816811950922e-05,3.6542576860146815e-06,5.293296683911941e-07,1.0564384917821343e-06,1.123088533058155e-06,1.785698311023931e-06
233,4.9717914645183016e-05,2.3602691740248433e-06,1.3728305567796616e-05,2.556242383670166e-05,7.348774865748528e-07,9.103705898875245e-07,7.201354388123285e-07,1.0130709978771924e-06,4.339101054564242e-06,3.953170759704969e-06,1.294403048477693e-05,3.590323438728088e-06,5.401469788710372e-07,1.062031453055236e-06,1.1165640774299815e-06,1.747416309554055e-06
234,5.1511191575633804e-05,2.3239468201208863e-06,1.291951528922549e-05,2.6260702028550072e-05,7.30946032434214e-07,9.091200106591131e-07,6.978906570213165e-07,1.0291655330053194e-06,4.558694956257466e-06,4.0489652781177886e-06,1.1045725846956101e-05,3.881334447802598e-06,5.520062310540226e-07,1.0658778693361182e-06,1.111615650399857e-06,1.7087852584244374e-06
235,5.3050547803344436e-05,2.300062488905463e-06,1.2130079580857126e-05,2.6947821069278758e-05,7.240347411892929e-07,9.047343283638087e-07,6.798346048837998e-07,1.047075137026443e-06,4.78653924007785e-06,4.143181909844185e-06,9.31542383574484e-06,4.5323308718584785e-06,5.650772419233008e-07,1.0679067070750878e-06,1.1081246481364234e-06,1.6698152610993871e-06
236,5.432219561241634e-05,2.2892623193741692e-06,1.1362044281214367e-05,2.762245305297308e-05,7.145553235520368e-07,8.971256223531535e-07,6.668766361074896e-07,1.0661338117217608e-06,5.016793726036248e-06,4.23407416296857e-06,7.748678620768225e-06,5.547811213506462e-06,5.795129830322973e-07,1.0681475747124764e-06,1.1059534550344856e-06,1.630596029062017e-06
237,5.53276821939695e-05,2.29180112633313e-06,1.0618193175522694e-05,2.8282650609395512e-05,7.031720576510724e-07,8.86359538839375e-07,6.599339017873056e-07,1.0858479708720854e-06,5.243412063766442e-06,4.3196619638276415e-06,6.340118618202552e-06,6.931658294212912e-06,5.954073199393915e-07,1.0666589742722844e-06,1.1049983265468759e-06,1.5911878861342443e-06
238,5.607775681609048e-05,2.3076352833876983e-06,9.901811108498702e-06,2.8924431680149078e-05,6.906378103627058e-07,8.72548478429778e-07,6.598738234988552e-07,1.1059952456867465e-06,5.460863746986506e-06,4.397806332048958e-06,5.083550350612713e-06,8.68718773846417e-06,6.127766721966974e-07,1.063577470237997e-06,1.1051926995695046e-06,1.5516838103604882e-06
239,5.6583703063813755e-05,2.3365368675790775e-06,9.216244609232468e-06,2.9540451867700055e-05,6.77661100395822e-07,8.558615261103714e-07,6.674828150623606e-07,1.126551594884248e-06,5.664812463243121e-06,4.466588691388053e-06,3.972135320021014e-06,1.0817086704923169e-05,6.315848686476834e-07,1.059187419410071e-06,1.106523632845474e-06,1.51233778455463e-06
240,5.685299874022852e-05,2.3780923997862103e-06,8.564395382778345e-06,3.012046075781645e-05,6.648391485775864e-07,8.365976122713339e-07,6.83444809264445e-07,1.1475168604537498e-06,5.852377681892976e-06,4.524710640027782e-06,2.9985436923845448e-06,1.3323651873867378e-05,6.517519919118287e-07,1.0539168054580403e-06,1.109088016983916e-06,1.473664036851386e-06
241,5.689143247815498e-05,2.4316177791171548e-06,7.948372526096483e-06,3.0654037979969384e-05,6.52640343521555e-07,8.151785146639249e-07,7.083398845871034e-07,1.1687704796795208e-06,6.021841925927989e-06,4.5716908063293346e-06,2.1549907897311784e-06,1.6209818163852433e-05,6.731094402798036e-07,1.0482842994168633e-06,1.1130824508217774e-06,1.4364243658197361e-06
242,5.670690986041638e-05,2.4960961379619397e-06,7.3694084689899875e-06,3.113349879268366e-05,6.414291888243467e-07,7.921028139086006e-07,7.426714357289994e-07,1.1899989956200032e-06,6.17204369916047e-06,4.607724550523832e-06,1.4332117723087285e-06,1.948012892215813e-05,6.953614748454282e-07,1.04281104905533e-06,1.1186949014764654e-06,1.4015046043297906e-06
243,5.63103379425909e-05,2.5701145712934992e-06,6.827978904727851e-06,3.155471659579722e-05,6.31540457519834e-07,7.67988882306996e-07,7.868801359141604e-07,1.2106742723054367e-06,6.301863389025298e-06,4.633239206617447e-06,8.245092711999282e-07,2.314047369554882e-05,7.181109066930335e-07,1.0379225403749835e-06,1.1260246919336696e-06,1.3697443998447693e-06
244,5.5713473565251365e-05,2.651773878892474e-06,6.324000682996542e-06,3.191586876739792e-05,6.233632273069222e-07,7.43638970707543e-07,8.413343673458051e-07,1.2301071687789769e-06,6.410027696126215e-06,4.648418669836792e-06,3.1990419055660685e-07,2.7196837825293164e-05,7.409177513445157e-07,1.0339292503156055e-06,1.1351223426529913e-06,1.3417872018427697e-06
245,5.492613673849066e-05,2.738672678677919e-06,5.85699403483165e-06,3.2215624141820254e-05,6.173640054152837e-07,7.199902859831662e-07,9.063225118349879e-07,1.2476079832552468e-06,6.495132269667278e-06,4.652900597158849e-06,-8.969306677955688e-08,3.1653876626923656e-05,7.633401242182022e-07,1.0310833837774716e-06,1.1460562930422418e-06,1.3180066754601383e-06
246,5.3955172989933055e-05,2.8280719628816493e-06,5.4261261008890515e-06,3.245193303758736e-05,6.140306927180303e-07,6.979822004612445e-07,9.820324983936723e-07,1.2626756231003315e-06,6.5555856606715485e-06,4.645614568478601e-06,-4.133603404947542e-07,3.6513257075966466e-05,7.849897929065438e-07,1.0295914989031613e-06,1.1588806030446686e-06,1.2985274865921716e-06
247,5.2806104126368805e-05,2.9172346702350813e-06,5.030086407194948e-06,3.262145112338304e-05,6.137950727895642e-07,6.784503017125302e-07,1.0685113292670885e-06,1.2750755067260666e-06,6.589327472328119e-06,4.624820973691115e-06,-6.600807126937124e-07,4.1771704129379034e-05,8.056363663857951e-07,1.0295517025551289e-06,1.1735650918838378e-06,1.283336634895803e-06
248,5.14860633972294e-05,3.003776160323119e-06,4.666883693149172e-06,3.27192747709778e-05,6.169886375879356e-07,6.620919524131221e-07,1.1656296283248613e-06,1.2847455111533297e-06,6.593689236730378e-06,4.588525415043523e-06,-8.38649422386715e-07,4.742005807626101e-05,8.252610992677656e-07,1.0309022050352558e-06,1.190009022613315e-06,1.2724698404712563e-06
249,5.000474993187931e-05,3.085802144760289e-06,4.333847935794552e-06,3.2739255258835966e-05,6.238266984001245e-07,6.494723044699242e-07,1.2730626077203527e-06,1.2916052509909134e-06,6.56589611411716e-06,4.535170045714489e-06,-9.575478203405235e-07,5.3444553009146775e-05,8.439620860349941e-07,1.0334375567081517e-06,1.2081192644799072e-06,1.2661490424513954e-06
250,4.8371747874698044e-05,3.1617554154429035e-06,4.027971211657854e-06,3.267534345403941e-05,6.343988522450822e-07,6.410347837173547e-07,1.3903065715600091e-06,1.2954299527743765e-06,6.504056493724211e-06,4.464272177593328e-06,-1.0248285612916702e-06,5.98295204412857e-05,8.617942247306726e-07,1.0369141314291241e-06,1.2278696819074077e-06,1.2647339943882213e-06
251,4.659368217082599e-05,3.230103016301528e-06,3.7463353926521236e-06,3.252350070293217e-05,6.486631663404656e-07,6.371089194370171e-07,1.5167614339904972e-06,1.2958884386158401e-06,6.408031345417587e-06,4.3767520183915295e-06,-1.0480491722689247e-06,6.655982700143227e-05,8.786780883251278e-07,1.0412126040686178e-06,1.2492811164702792e-06,1.2686096544771695e-06
252,4.4675986212530215e-05,3.289120685897291e-06,3.4863651742646015e-06,3.2282639930181376e-05,6.664443854937703e-07,6.379093145253254e-07,1.6518390921062814e-06,1.2927030255800473e-06,6.2797988825023875e-06,4.27484477528375e-06,-1.0341870222415263e-06,7.362189074817566e-05,8.944013359382735e-07,1.0464169789989176e-06,1.2723289311996964e-06,1.2782059921664503e-06
253,4.2628371057751744e-05,3.337005527102304e-06,3.2458999332480517e-06,3.1953215628491784e-05,6.874297503070092e-07,6.435230281591224e-07,1.7949853352409743e-06,1.2858369939590326e-06,6.123283974282802e-06,4.161668540758842e-06,-9.895151436819795e-07,8.100258834415393e-05,9.086590161614089e-07,1.0527470870524825e-06,1.2968984218846024e-06,1.2940685744174288e-06
254,4.046909488056979e-05,3.3723343168616467e-06,3.023175277563592e-06,3.153426622834699e-05,7.11159439985905e-07,6.539061931513387e-07,1.9455922549712577e-06,1.2756159169179076e-06,5.943816842859846e-06,4.04064077619558e-06,-9.19559504133411e-07,8.868598390938877e-05,9.21073978316141e-07,1.0604629224224475e-06,1.3228515679436307e-06,1.316804706139574e-06
255,3.822541808173789e-05,3.3945915289949743e-06,2.8167956867362166e-06,3.102207931749862e-05,7.370336368774999e-07,6.689034756129807e-07,2.1029199280303023e-06,1.2626847932948047e-06,5.747381487177905e-06,3.914954767835066e-06,-8.29165291267121e-07,9.664875333968383e-05,9.312250626109494e-07,1.0698028877219805e-06,1.3500814809474254e-06,1.3469236697648e-06
256,3.593082016828897e-05,3.4043947842282573e-06,2.62573312245721e-06,3.041217065427789e-05,7.643890538244393e-07,6.882654576880428e-07,2.2661279647974997e-06,1.247803947596637e-06,5.539808208658144e-06,3.7873463652532854e-06,-7.225541722367793e-07,0.00010485565964585444,9.387482684021783e-07,1.0808993848265201e-06,1.3784458971508641e-06,1.3846965075399145e-06
257,3.362058078625535e-05,3.403270642376057e-06,2.4493026431890323e-06,2.970254096930418e-05,7.926575406670354e-07,7.116401739518803e-07,2.434385542759065e-06,1.2316441356986191e-06,5.326262983835305e-06,3.660204605507616e-06,-6.033546320556448e-07,0.00011325610238844499,9.434510441130905e-07,1.093696945404455e-06,1.4076494065533494e-06,1.4300995584676521e-06
258,3.132740365635435e-05,3.3931489754598653e-06,2.2870659186244195e-06,2.8895769501286994e-05,8.215035026302415e-07,7.385692407766603e-07,2.606941207268354e-06,1.2147088788079091e-06,5.111267581619974e-06,3.5357174145443044e-06,-4.7469115828974296e-07,0.00012178219043562568,9.453349569489264e-07,1.1079490458108197e-06,1.4372048560048158e-06,1.4828264207342928e-06
259,2.9078506061052166e-05,3.3758535241864736e-06,2.1387021805772007e-06,2.799952329072338e-05,8.508236214419815e-07,7.685155609040743e-07,2.7830730230091214e-06,1.197357481755786e-06,4.8989492006888914e-06,3.415819053274041e-06,-3.393239391899864e-07,0.00013034812984044186,9.445257813978854e-07,1.1232821698344565e-06,1.4665062045251699e-06,1.5423180328744446e-06
260,2.6894867506368095e-05,3.3527498481441117e-06,2.003907661009172e-06,2.7025998933083654e-05,8.806397783696004e-07,8.008818018563866e-07,2.961946434861754e-06,1.1798821028315422e-06,4.693099690981655e-06,3.3020965826252e-06,-1.9976250913297896e-07,0.00013884912120561214,9.411814439991396e-07,1.1392676407824998e-06,1.4949319241691883e-06,1.6077716169328167e-06
261,2.4792220394339964e-05,3.3245886644370223e-06,1.8823084821096804e-06,2.599092543507917e-05,9.109945547182211e-07,8.349999294301622e-07,3.1424447511891535e-06,1.162609888440982e-06,4.4969894273086836e-06,3.1957725176500166e-06,-5.832729672479887e-08,0.00014715858537722536,9.354442656665876e-07,1.155473630683992e-06,1.5218972076394213e-06,1.6781340720233845e-06
262,2.278265256004943e-05,3.291577425289478e-06,1.773390741414226e-06,2.4912690292538003e-05,9.418824525620884e-07,8.701440822959947e-07,3.3230058814236595e-06,1.1459552512848499e-06,4.31315510380622e-06,3.097697066041383e-06,8.2834901220052e-08,0.00015512930098539917,9.274461489334284e-07,1.1715015085400577e-06,1.5468760035188702e-06,1.7520995966081313e-06
263,2.0876046830801384e-05,3.253691164790172e-06,1.6765941722864975e-06,2.3811763409550923e-05,9.73209869689443e-07,9.0558638627581e-07,3.501482682181188e-06,1.1303842968674212e-06,4.1433779198479495e-06,3.0083927279253503e-06,2.2177548110897e-07,0.00016260744771942815,9.173416272373706e-07,1.1869870108042414e-06,1.5694537287260885e-06,1.8281419640144335e-06
264,1.908122509282527e-05,3.2110868247724683e-06,1.5916114155180375e-06,2.271024417646498e-05,1.0047937656320609e-06,9.406350020167912e-07,3.6750419157481114e-06,1.1163490563157998e-06,3.988851453777365e-06,2.928185773524058e-06,3.5677194633249045e-07,0.0001694593546913924,9.053494220778715e-07,1.2015342254462591e-06,1.58936655906204e-06,1.9046480000143248e-06
265,1.740673901530559e-05,3.1643709098461465e-06,1.5185989383029635e-06,2.1631326688252466e-05,1.0363675707091777e-06,9.745947800497315e-07,3.840137808541609e-06,1.1042450600201936e-06,3.850366983602959e-06,2.8573344609561704e-06,4.863185107560769e-07,0.00017559844090933515,8.917527339978987e-07,1.2146259203674353e-06,1.6064281109696868e-06,1.9801271501424963e-06
266,1.5861162545784154e-05,3.114585594559561e-06,1.458052639341541e-06,2.0598562874789355e-05,1.0675546028821715e-06,1.0066855687507924e-06,3.992645552802121e-06,1.0943712693207397e-06,3.728355567288623e-06,2.7961098722738555e-06,6.091299535799971e-07,0.0001809952698496414,8.768319724025189e-07,1.225628867555209e-06,1.6203909632177731e-06,2.053325025815555e-06
267,1.44528594873036e-05,3.063009695041527e-06,1.410527651507011e-06,1.9634869945635367e-05,1.0978310180857684e-06,1.036030180561144e-06,4.128238113569573e-06,1.0868660487714588e-06,3.6227406473954947e-06,2.744772407926699e-06,7.242085380474047e-07,0.00018566127257759322,8.60791542572469e-07,1.2339540441367949e-06,1.6309041628747032e-06,2.1231597015464664e-06
268,1.3189324477403439e-05,3.0109340322536165e-06,1.376515365279057e-06,1.876138257049087e-05,1.1265176169799638e-06,1.0617585844459006e-06,4.243015546718203e-06,1.0816492078589922e-06,3.5327341754959035e-06,2.7033901538063554e-06,8.308706708001684e-07,0.00018961851162409117,8.437577362138742e-07,1.2392663603600274e-06,1.6375928697526238e-06,2.188609741165374e-06
269,1.2076318399774548e-05,2.959483252075766e-06,1.3564893078352284e-06,1.7996380713929093e-05,1.152834125170467e-06,1.0831493837684623e-06,4.334260144194093e-06,1.0784055611816382e-06,3.4567591828681355e-06,2.6716697917634333e-06,9.286807295382735e-07,0.00019288356332227652,8.258589567352611e-07,1.2415694350015737e-06,1.6401554959289967e-06,2.2486838480484457e-06
270,1.1117187789991392e-05,2.9095030799637677e-06,1.3509208777942127e-06,1.7354497650559264e-05,1.1760319021328513e-06,1.0997145925488407e-06,4.4010078671502346e-06,1.0766168124156179e-06,3.392575854659405e-06,2.648975557804142e-06,1.017434153557977e-06,0.00019547504915277034,8.073070630673607e-07,1.241099313924468e-06,1.6384427423228522e-06,2.3024521660342204e-06
271,1.031273167857244e-05,2.861500498050118e-06,1.3602296314277223e-06,1.6846330243124663e-05,1.1955561819732049e-06,1.1111878287814374e-06,4.444087432172191e-06,1.075655875018488e-06,3.3376180897786404e-06,2.634414530610935e-06,1.0972288535384019e-06,0.00019742469299690086,7.88380397001592e-07,1.2381230920935865e-06,1.6325258309769152e-06,2.3490740610880274e-06
272,9.661628173931749e-06,2.815613727972957e-06,1.3847871267399262e-06,1.6478397797848054e-05,1.211155655759665e-06,1.1174282818334938e-06,4.465543660060778e-06,1.0749444775839104e-06,3.2893928156173207e-06,2.6268759373327654e-06,1.168486083760802e-06,0.00019877469111225315,7.693285240045672e-07,1.2328241050112047e-06,1.6227074849933653e-06,2.387819220971645e-06
273,9.161072721735774e-06,2.771661354349043e-06,1.424962349346548e-06,1.6253231147350516e-05,1.2228934882254739e-06,1.118352908855069e-06,4.467749149424719e-06,1.0740938214616064e-06,3.245646938105065e-06,2.625151740046857e-06,1.231882998232285e-06,0.00019956598466452637,7.503252011796852e-07,1.225336612760416e-06,1.6094625800837605e-06,2.418089767483282e-06
274,8.807274542532008e-06,2.729349681584989e-06,1.4810968602152956e-06,1.6169505457642068e-05,1.2310695511401005e-06,1.1139980657576266e-06,4.452684911336112e-06,1.0729147426712866e-06,3.204201424627083e-06,2.6281647956292692e-06,1.288267748942316e-06,0.00019982908003110097,7.315308244113189e-07,1.2158030561256033e-06,1.5933644095029369e-06,2.439402451620761e-06
275,8.595699169586271e-06,2.6885782725798545e-06,1.5534084265295842e-06,1.6222303791240565e-05,1.236099695794375e-06,1.1046135091378264e-06,4.421674312043635e-06,1.0713185974255905e-06,3.1627177982826072e-06,2.6351051349154747e-06,1.338566685013841e-06,0.00019958214582990998,7.131916123447403e-07,1.204368298337982e-06,1.5750171661499763e-06,2.4512874869001845e-06
276,8.521097301046369e-06,2.649610380004353e-06,1.6419068951411574e-06,1.6403539729792528e-05,1.2384054914104065e-06,1.090659760859831e-06,4.375481896561055e-06,1.0692564818227306e-06,3.118807873817749e-06,2.6453657357343945e-06,1.3836655583419057e-06,0.00019883375804075588,6.956758875106658e-07,1.1911613056794878e-06,1.5549849223488565e-06,2.453177381349009e-06
277,8.577327887684944e-06,2.6129517490885823e-06,1.7463535970629562e-06,1.6702461663917344e-05,1.2383545670665363e-06,1.0727631793195263e-06,4.314534769346723e-06,1.0667201097016665e-06,3.0705566554170776e-06,2.65837365747166e-06,1.424316252667622e-06,0.00019758509718356915,6.794220789115564e-07,1.1763136293308753e-06,1.5337345243380933e-06,2.444478917595836e-06
278,8.757090332257195e-06,2.5791379809228713e-06,1.8662334729185967e-06,1.7106091378052428e-05,1.2362497838959595e-06,1.0517196010411746e-06,4.2391262798035504e-06,1.0637124088514369e-06,3.016983582119922e-06,2.673469269907157e-06,1.4611101041957672e-06,0.00019582660392050385,6.648581488344697e-07,1.1600143688921664e-06,1.5115920610202036e-06,2.4248551981723663e-06
279,9.052072387530751e-06,2.5487388105328903e-06,2.000722315073424e-06,1.759938515286945e-05,1.2323235024992183e-06,1.0285000420755514e-06,4.149562918788161e-06,1.0602371013172924e-06,2.958010698414619e-06,2.6899200007802757e-06,1.4944801653218628e-06,0.00019352910627607898,6.523549472725093e-07,1.142568464242787e-06,1.4887223462627274e-06,2.3944666944359456e-06
280,9.453904845659221e-06,2.5224772012271537e-06,2.1486638237789624e-06,1.816491217397534e-05,1.2267173866964322e-06,1.0041688714295235e-06,4.0462745641699175e-06,1.0563767341976556e-06,2.894090869226885e-06,2.706990201250011e-06,1.524701979354909e-06,0.00019064151496637295,6.422037283510107e-07,1.1244049307144717e-06,1.4651870491995765e-06,2.354007028863058e-06
281,9.955495383257704e-06,2.5011587892635782e-06,2.308552803464768e-06,1.878217958895802e-05,1.2194759700613061e-06,9.797372728065713e-07,3.929957284573457e-06,1.0523357730662027e-06,2.8259491844616503e-06,2.723889437910477e-06,1.5518836158592566e-06,0.00018710735167191164,6.345898846089712e-07,1.1060113764558063e-06,1.4410527510147778e-06,2.3046250847248182e-06
282,1.055195303468419e-05,2.4854976170094803e-06,2.4785020716045715e-06,1.942736784933829e-05,1.2105494875442857e-06,9.56050562245672e-07,3.8017675578179015e-06,1.0483646439670772e-06,2.754609381275911e-06,2.739601879823405e-06,1.57594700417741e-06,0.0001828919784107488,6.295701837701199e-07,1.0878391894696592e-06,1.416429220180976e-06,2.2478205257770986e-06
283,1.1240737984780447e-05,2.476107127798142e-06,2.6562403726164807e-06,2.0074302918271072e-05,1.1997756450314698e-06,9.337528743017091e-07,3.6634580447736956e-06,1.0446664829795016e-06,2.6814503836378435e-06,2.7528043566523317e-06,1.596625530722798e-06,0.0001779998642480905,6.270702224660527e-07,1.0702466313683592e-06,1.391436114747693e-06,2.1852796643484062e-06
284,1.202116395933225e-05,2.473562863227656e-06,2.8392525811991213e-06,2.0696753475999326e-05,1.1868987283171146e-06,9.132977016133764e-07,3.5172994355320705e-06,1.0413464878087522e-06,2.608031197669506e-06,2.7619865575166543e-06,1.6134908211775203e-06,0.00017246998439665975,6.269170963041714e-07,1.053486933421156e-06,1.3662207438204015e-06,2.11869306961478e-06
285,1.2893539368416951e-05,2.47830759785932e-06,3.025069763208361e-06,2.1271482549013453e-05,1.1716851043025694e-06,8.949609212109984e-07,3.36575935994626e-06,1.0383633152275237e-06,2.535797116000046e-06,2.7657508611894417e-06,1.6260481498007426e-06,0.00016635417142649573,6.289081046923253e-07,1.0376960899437236e-06,1.3410419478486001e-06,2.04971675876118e-06
286,1.3858057974017194e-05,2.490486260673643e-06,3.211559572572608e-06,2.178121125043969e-05,1.1540486441328113e-06,8.788482668945811e-07,3.211114447300626e-06,1.0354903368174092e-06,2.46592036322948e-06,2.763243081459368e-06,1.6339408841717666e-06,0.00015969837306823326,6.328683749196222e-07,1.0228677300701416e-06,1.3163107319488095e-06,1.9800622909362493e-06
287,1.4913600483752745e-05,2.5098845596438775e-06,3.3970871180573633e-06,2.221673884266013e-05,1.1340917302805256e-06,8.649297364428292e-07,3.0552444035997474e-06,1.0323411143255104e-06,2.3992966960833077e-06,2.75451642598868e-06,1.6371545735759712e-06,0.0001525444102383419,6.386433267649101e-07,1.0088582273659375e-06,1.2925492491048135e-06,1.9114805065248907e-06
288,1.605701344227647e-05,2.5359193444918792e-06,3.580568886782805e-06,2.2577934680024717e-05,1.112082639512894e-06,8.531274796294147e-07,2.8996965122038715e-06,1.0284730748098341e-06,2.336585852806971e-06,2.7405586952787825e-06,1.6360079955261127e-06,0.00014494703223692654,6.460502297366376e-07,9.954481683830383e-07,1.2703082808925892e-06,1.845572574652956e-06
289,1.728300138093076e-05,2.567629688907084e-06,3.7614989977110905e-06,2.287354534323739e-05,1.0884108825600598e-06,8.434219812111446e-07,2.745877617497413e-06,1.0235321989629728e-06,2.2782451940472237e-06,2.7229780211902015e-06,1.6309123409032668e-06,0.00013698760812583615,6.548583506604063e-07,9.824313987250575e-07,1.250063793622692e-06,1.7836083089127454e-06
290,1.8583876079481846e-05,2.603777470521834e-06,3.939939435945916e-06,2.3119411610834816e-05,1.0635238024809936e-06,8.359129014519183e-07,2.5951454089269987e-06,1.0173857101372569e-06,2.2245619448074615e-06,2.7035901328045505e-06,1.6221408258230234e-06,0.00012877438437625393,6.648073828317697e-07,9.696824608225254e-07,1.2321227148519788e-06,1.7264671376484298e-06
291,1.994887571164067e-05,2.6430977045213283e-06,4.116430591558442e-06,2.3334911937543736e-05,1.0378427750880898e-06,8.308206583335766e-07,2.4487126033636016e-06,1.0101722456499185e-06,2.175717532880962e-06,2.6840942391061817e-06,1.6097743558724698e-06,0.00012043134397606879,6.756346924868794e-07,9.571563052255478e-07,1.2165799532652345e-06,1.6746720173829487e-06
292,2.1363666019781923e-05,2.6845493685315414e-06,4.291870457825538e-06,2.3539089332793468e-05,1.0116824781802564e-06,8.284523239143757e-07,2.3075279855427306e-06,1.0022090612932024e-06,2.131897684240415e-06,2.665866723080207e-06,1.5937969507481394e-06,0.00011208254497790086,6.871282345209743e-07,9.448360907829908e-07,1.2033162536079282e-06,1.6284500441916143e-06
293,2.2810518060252517e-05,2.727411453702048e-06,4.467421065704029e-06,2.374883989253109e-05,9.852234436282072e-07,8.291405793684369e-07,2.172292878191224e-06,9.938133630403865e-07,2.093414634169419e-06,2.6498420639589648e-06,1.5742839540979102e-06,0.00010383870139308297,6.991985559315409e-07,9.327277268550272e-07,1.1919979684336343e-06,1.5877593730087803e-06
294,2.4269424821185372e-05,2.7712404972582956e-06,4.64434973135372e-06,2.3979640453254573e-05,9.585719943272203e-07,8.331620760042812e-07,2.0435164429556502e-06,9.851815034037707e-07,2.060789794979111e-06,2.6364885289094296e-06,1.5515332736674552e-06,9.579038533471316e-05,7.118908715510303e-07,9.209297449221199e-07,1.1820976470714334e-06,1.5522947155859068e-06
295,2.5720121661945005e-05,2.8158051884267716e-06,4.823681035655439e-06,2.4247006172408803e-05,9.318590178578837e-07,8.406691816640139e-07,1.921498487885262e-06,9.763913414740523e-07,2.0347389847464356e-06,2.6259130120951505e-06,1.5259977966837184e-06,8.800848191702257e-05,7.253204427031789e-07,9.096629905015452e-07,1.1730065352331932e-06,1.521556098277116e-06
296,2.7143901036341226e-05,2.861047453557417e-06,5.005755440946236e-06,2.4566985493709348e-05,9.052749007939119e-07,8.516781286197821e-07,1.8063175860568143e-06,9.674599831623814e-07,2.0160353230304497e-06,2.618056910385772e-06,1.4981578490378838e-06,8.054864581889904e-05,7.396048292190108e-07,8.991823145279662e-07,1.1642260104669664e-06,1.4950131448219158e-06
297,2.8523405483082635e-05,2.9070175092479983e-06,5.189915783073806e-06,2.4955276793835442e-05,8.790304694745044e-07,8.661077848491634e-07,1.6978980273801226e-06,9.58360179620693e-07,2.0053119660701234e-06,2.612893866004383e-06,1.4684999908984535e-06,7.345559767949985e-05,7.548528896202969e-07,8.896544272684515e-07,1.1554897847284267e-06,1.472289100670338e-06
298,2.9840308335911364e-05,2.953711364581911e-06,5.374407149691096e-06,2.5425377959688508e-05,8.533278838055267e-07,8.838013148204771e-07,1.5960979457888908e-06,9.490164019537351e-07,2.002922144104265e-06,2.610600204236023e-06,1.4375311427992316e-06,6.6765479153881e-05,7.711895383883942e-07,8.811263684246007e-07,1.146712369809446e-06,1.4532383294588042e-06
299,3.107395479921048e-05,3.00086266409888e-06,5.556488216216191e-06,2.598665752530434e-05,8.283531305754194e-07,9.044911528193749e-07,1.50074427301017e-06,9.393594899240378e-07,2.0089263536648825e-06,2.611702400593365e-06,1.4057708500584811e-06,6.050683386557296e-05,7.887385969563357e-07,8.735920124309866e-07,1.1378484654031306e-06,1.4378638723149525e-06
300,3.2203431813039064e-05,3.047877829726734e-06,5.732779793133929e-06,2.6643223496807103e-05,8.042558127073378e-07,9.277455310157546e-07,1.41163624853897e-06,9.293955602924959e-07,2.0231650369510683e-06,2.6171433112170187e-06,1.373748287838125e-06,5.4701330044855714e-05,8.075653417074921e-07,8.670540155712739e-07,1.128794163223428e-06,1.426151162321423e-06
301,3.321116675435149e-05,3.0939946482531455e-06,5.8997995266508195e-06,2.739364530122389e-05,7.811600974930344e-07,9.529477537973033e-07,1.328596379383956e-06,9.191983142931389e-07,2.0453044142693373e-06,2.62817655661568e-06,1.3419568736089453e-06,4.936470671663014e-05,8.276586623150736e-07,8.615426392590773e-07,1.1193486930797631e-06,1.4179237869026168e-06
302,3.4084815474519306e-05,3.1385358912033815e-06,6.054508172502778e-06,2.8230930444705623e-05,7.59231437780586e-07,9.793445378077473e-07,1.2515797192549273e-06,9.088576431169987e-07,2.0748109347016885e-06,2.6461156213260045e-06,1.3107482784935576e-06,4.450771006761344e-05,8.489486559426266e-07,8.57168511242472e-07,1.1092474652558974e-06,1.4127768185338684e-06
303,3.481676452156049e-05,3.181129351431375e-06,6.194708199496408e-06,2.9142832927983258e-05,7.387154888088641e-07,1.0061809730715187e-06,1.1807463443596844e-06,8.984785562831362e-07,2.11098762734623e-06,2.6720899022314355e-06,1.2802669915411315e-06,4.0136717307740634e-05,8.712915774282268e-07,8.541876079946443e-07,1.0983070743207502e-06,1.4100735510796805e-06
304,3.5402685022064176e-05,3.221826259419917e-06,6.31924843641359e-06,3.0113293532674788e-05,7.198892046324799e-07,1.0328466482376771e-06,1.1164042742198998e-06,8.882320208985856e-07,2.1532041450126734e-06,2.706889015653413e-06,1.2505026645642803e-06,3.625413426299988e-05,8.944351630630292e-07,8.52957282111577e-07,1.0865822746593613e-06,1.4089576536898725e-06
305,3.5840793459084476e-05,3.261032373259319e-06,6.4280474625904494e-06,3.112500695027119e-05,7.02979652308871e-07,1.0588930646994038e-06,1.0588517575759936e-06,8.783682201899535e-07,2.201191719918053e-06,2.7508572292814516e-06,1.221403877154022e-06,3.285881538285438e-05,9.180150115739119e-07,8.53818282569162e-07,1.074357367860406e-06,1.4084126561654358e-06
306,3.613236856885525e-05,3.2992338422509943e-06,6.5219427816611484e-06,3.2162034380456755e-05,6.881251166781124e-07,1.0839129897103258e-06,1.008243294923586e-06,8.69166483600842e-07,2.2551758485779468e-06,2.803810424579367e-06,1.1929426385670936e-06,2.9946577520400332e-05,9.415609910540606e-07,8.570236370906657e-07,1.0619944008805324e-06,1.4074342699569191e-06
307,3.6282689975608714e-05,3.336648892365654e-06,6.602393703555973e-06,3.321129011265122e-05,6.753752670626732e-07,1.1074179555944911e-06,9.645590903446809e-07,8.609088197766572e-07,2.315803665098013e-06,2.864988180224905e-06,1.1651093215512195e-06,2.7510775392357675e-05,9.645001640571838e-07,8.62733191692236e-07,1.0498362183609444e-06,1.4052510178424029e-06
308,3.630089817686148e-05,3.3729840280235897e-06,6.6710911595984146e-06,3.426206870706582e-05,6.646956313993662e-07,1.128790025712938e-06,9.276394627898237e-07,8.539159633539092e-07,2.3839505253920453e-06,2.9330815284759858e-06,1.1379192137355112e-06,2.5542881946634895e-05,9.86240902976886e-07,8.710504588501816e-07,1.0382465500917622e-06,1.4014354657892776e-06
309,3.619773279986486e-05,3.4073875691145217e-06,6.729480833264227e-06,3.530355932304037e-05,6.559976316877159e-07,1.147306583562053e-06,8.972081921267599e-07,8.48580037532135e-07,2.4604729992314924e-06,3.0063874202239075e-06,1.1114632642958021e-06,2.4032736103267837e-05,1.0063624587771989e-06,8.820553553794506e-07,1.0276752699923312e-06,1.3958257077240965e-06
310,3.598229618624737e-05,3.4385894518472675e-06,6.778239963812157e-06,3.632211309195051e-05,6.49211658079987e-07,1.1622665816171394e-06,8.728853400136207e-07,8.453455387068203e-07,2.545966731771262e-06,3.0830712364948456e-06,1.0859127767879999e-06,2.29679581508668e-05,1.0247268083729354e-06,8.95772946177806e-07,1.0186288524624424e-06,1.3883498670430852e-06
311,3.5661252015457205e-05,3.4651615946036047e-06,6.816950562709147e-06,3.7301066220009864e-05,6.443335157229295e-07,1.1732038363930193e-06,8.542321963338179e-07,8.44646012017081e-07,2.6405968331569425e-06,3.1614520040611017e-06,1.0614181100279116e-06,2.2332735688889202e-05,1.0413819024661634e-06,9.121059689040606e-07,1.0115563654570914e-06,1.3789533107837906e-06
312,3.524174186243016e-05,3.485799427934933e-06,6.844163042343321e-06,3.822366759969675e-05,6.413912767803595e-07,1.180063327895005e-06,8.407956236401117e-07,8.468285676571686e-07,2.7440095571490432e-06,3.240219971489354e-06,1.0379998080142198e-06,2.2106938111432064e-05,1.0564119823140525e-06,9.30802318663285e-07,1.0067497844196396e-06,1.3676970651458765e-06
313,3.473455774234353e-05,3.4995050800879867e-06,6.8576944906405955e-06,3.907665498440536e-05,6.403821467130678e-07,1.1832174738473024e-06,8.321001100257592e-07,8.521051147340488e-07,2.855311164526056e-06,3.318497102242798e-06,1.015540110402819e-06,2.226590449865183e-05,1.0698783748783764e-06,9.514647803850032e-07,1.0043196404846273e-06,1.3548382108768466e-06
314,3.415369717672144e-05,3.5056032464231443e-06,6.8549574290037406e-06,3.985224751434472e-05,6.412576820344491e-07,1.1833223572033384e-06,8.276311466927836e-07,8.605435086748529e-07,2.9732226142144944e-06,3.395663538124779e-06,9.938321580761691e-07,2.2780342851783112e-05,1.0817817716552143e-06,9.73577357907467e-07,1.0042439302070506e-06,1.3407355048781565e-06
315,3.3512697102885616e-05,3.503634419563368e-06,6.833331264087081e-06,4.054836463009511e-05,6.439709746372102e-07,1.1811282650778607e-06,8.26851699835066e-07,8.720824011544469e-07,3.0964867057836027e-06,3.4710239735335528e-06,9.72637472191602e-07,2.361609411928379e-05,1.092031514774609e-06,9.96572546303812e-07,1.0064541671141367e-06,1.3257125390137975e-06
316,3.28218349870431e-05,3.4931922500461187e-06,6.790619184861306e-06,4.1167817732505164e-05,6.485123502317116e-07,1.17734902664379e-06,8.292188272266363e-07,8.865448756466351e-07,3.2242421573669977e-06,3.543613736095316e-06,9.517974122824525e-07,2.4733971508011647e-05,1.1004753456821854e-06,1.0199932265776703e-06,1.0108955593089356e-06,1.3100098612282907e-06
317,3.208860938231884e-05,3.4737344159876306e-06,6.725543982841984e-06,4.1716966014472236e-05,6.548809020588647e-07,1.172624662027596e-06,8.342001040358646e-07,9.036537742640249e-07,3.3559724270424035e-06,3.6122795953286893e-06,9.313567043227648e-07,2.6089703950422785e-05,1.1069322807850294e-06,1.0436899741707124e-06,1.0175424306353892e-06,1.2937639534650372e-06
318,3.131896541595273e-05,3.444545557308199e-06,6.638153871373312e-06,4.2203905281120265e-05,6.630440789291638e-07,1.1675882790040194e-06,8.413220740685559e-07,9.230725121348538e-07,3.4911461909709043e-06,3.6757996375704694e-06,9.115608864388161e-07,2.7634145484579526e-05,1.1112263847995252e-06,1.067861295927259e-06,1.0263760907048569e-06,1.2770107855753728e-06
319,3.0516945756509793e-05,3.405070361722191e-06,6.529918512388931e-06,4.263630904171332e-05,6.729249245184502e-07,1.1629778779012452e-06,8.502151213091761e-07,9.444405980726752e-07,3.629015825790356e-06,3.7329069646114046e-06,8.927240268827783e-07,2.931434355862786e-05,1.1132779160562931e-06,1.0928746637261144e-06,1.0373271309282602e-06,1.259792408342104e-06
320,2.9684941515209396e-05,3.35542238734638e-06,6.403322501942194e-06,4.3019397178980666e-05,6.843813176558445e-07,1.1596601851046642e-06,8.6059397197416e-07,9.673553287062165e-07,3.7686966194134327e-06,3.782320523786395e-06,8.75103139130511e-07,3.107580536158366e-05,1.1131747729895695e-06,1.119048614840345e-06,1.0502420159941293e-06,1.2422879699797294e-06
321,2.8826493758484645e-05,3.296609119594168e-06,6.261091719506438e-06,4.335454455464287e-05,6.971723768569594e-07,1.1585293864114718e-06,8.721947731272017e-07,9.913344481239776e-07,3.9092902098535445e-06,3.822869329244585e-06,8.588584917827455e-07,3.2865440737625396e-05,1.111175178945308e-06,1.146533786648926e-06,1.0649249209618145e-06,1.2248037093733466e-06
322,2.7949696345419098e-05,3.2303154164022113e-06,6.1056704147752176e-06,4.363863786891375e-05,7.109405377677505e-07,1.1603692547371357e-06,8.847448241779537e-07,1.0158315479521746e-06,4.049902730170292e-06,3.853762231997508e-06,8.440729233572629e-07,3.463425306508579e-05,1.1076997300961925e-06,1.1752637149867691e-06,1.0812400830249127e-06,1.207675543199584e-06
323,2.706872802273063e-05,3.1584692843954664e-06,5.939434422234646e-06,4.3863783716687816e-05,7.252146766543532e-07,1.165763649793294e-06,8.979799714114161e-07,1.0403239945120378e-06,4.189583786104249e-06,3.8749265860988585e-06,8.307893357273118e-07,3.633916181078672e-05,1.1032886637549371e-06,1.2049475548203798e-06,1.0992013461790922e-06,1.191254763408949e-06
324,2.6203087606381306e-05,3.0828816327609062e-06,5.765290951376702e-06,4.401662533137771e-05,7.394457277288242e-07,1.1750707577607951e-06,9.116438941474305e-07,1.064426356542714e-06,4.327221780844356e-06,3.887187353598482e-06,8.190339906958828e-07,3.794323009427125e-05,1.0984843298398539e-06,1.2350980239475662e-06,1.1189331464715875e-06,1.1759310657345762e-06
325,2.5375316918143882e-05,3.005091379046214e-06,5.5869921378643164e-06,4.407712417015693e-05,7.530714370822897e-07,1.1884319743408957e-06,9.254418187208778e-07,1.087924028669721e-06,4.461358779578312e-06,3.89223827073322e-06,8.088090468576697e-07,3.941350703112488e-05,1.0937263392280864e-06,1.2650484624514575e-06,1.1405049617635047e-06,1.162065004014423e-06
326,2.4608400252516042e-05,2.9263990437786186e-06,5.408956947896374e-06,4.401863629906e-05,7.655603476006266e-07,1.2058030335916759e-06,9.390262137249654e-07,1.1106771276116933e-06,4.58995636127633e-06,3.892565427679475e-06,8.001128383791126e-07,4.0718576869402045e-05,1.0893180648650322e-06,1.2939422481443786e-06,1.1637913440787246e-06,1.149879742231873e-06
327,2.3923720106475674e-05,2.8480377553091106e-06,5.235758067159519e-06,4.381163136461892e-05,7.764106248717218e-07,1.2270076470658667e-06,9.520754998594211e-07,1.1325231308276433e-06,4.7103630547058375e-06,3.891282385852924e-06,7.930283954521282e-07,4.183064304266116e-05,1.0854122585513045e-06,1.320756531530386e-06,1.1884649097336013e-06,1.1394456121057147e-06
328,2.3339694829456336e-05,2.7714031249711052e-06,5.071561565645478e-06,4.343040676738588e-05,7.851256985313433e-07,1.2517915127969768e-06,9.644088155876218e-07,1.1532865639113034e-06,4.819671445703399e-06,3.891717930853267e-06,7.877821214187468e-07,4.2731692037873724e-05,1.0820161141663642e-06,1.3444152809655438e-06,1.214079355990231e-06,1.1307760219776962e-06
329,2.287087942600579e-05,2.6982002335631716e-06,4.919885063773177e-06,4.2859396285137833e-05,7.91199904656016e-07,1.2798467584427022e-06,9.760408207372006e-07,1.1727881008357033e-06,4.915246415487585e-06,3.8969863196207635e-06,7.846868385468494e-07,4.341586463740696e-05,1.0790445660812695e-06,1.3639493344185186e-06,1.240133713852158e-06,1.1239195905541504e-06
330,2.2527365074630733e-05,2.630374471612828e-06,4.783727484668342e-06,4.209634829254373e-05,7.941849196245269e-07,1.3107840653496377e-06,9.871383083452128e-07,1.1907690207661675e-06,4.99506430113137e-06,3.909867844946299e-06,7.840450758236994e-07,4.3885159052110435e-05,1.0763657469300316e-06,1.3786185996092567e-06,1.2661283054228299e-06,1.118944747029009e-06
